32.73249753297878,6.408442269306444,4.101463309205316
19.94554668278785,5.083133784405789,3.705143481281695
2.2546884000637086,19.541485784518255,2.767718234514732
16.92793580974319,34.2370799873607,1.3437658608621244
34.50773181155424,46.03058137036027,0.48770070250497016
48.277575486036774,52.177558835823675,2.6305981694761873
56.870895963200084,50.94323517483586,4.9444975795937784
59.484060821291415,41.83239816704316,7.178110538914655
55.665133496206266,25.56100223160567,8.996578668827802
45.566054908854255,3.8433583429513796,10.075981452895265
30.344251410571125,20.83119112234596,10.175929885457895
12.335611221020644,45.269630448608495,9.213572997665343
4.883901829698841,65.62950983307614,7.327767162970614
16.406366253372717,78.09254141203452,4.865852651035379
17.515884460476094,79.98031361564429,2.2274628892924757
6.806333189435501,70.38157293906369,0.2589796415722361
12.85517928534899,50.51893557932939,2.3037267453544112
35.784584932146664,23.767607308215688,3.6631821847264048
55.45669056676344,5.179170965772672,4.228952067930236
66.70096905353218,31.428886355128743,4.1014760937167924
66.69814899857936,50.96325598713343,3.5285463734922002
54.647533069205736,61.37795686643379,2.740148422444418
31.075773138050646,61.98458768705284,1.9438833974862226
2.797208857346767,53.57389958837847,1.374544437797103
44.848160157883875,38.01314170676457,1.2385754564459062
91.36770064195787,17.907748554315056,1.6512325371498389
136.60448051992876,3.632851577851439,2.5479145869241155
173.03138464792556,23.350165451613954,3.697092370533335
192.73785448513354,38.31099892227266,4.8241982852319545
189.39632564865192,46.47990633293418,5.654404692160192
160.12970025495505,47.18811558536217,5.960104160171179
106.63399439793426,41.213134478024855,5.655980019625697
35.19305923542061,30.3914258031784,4.8446647427733245
44.261752255396615,16.91863779982487,3.72925381718326
119.81176173525625,2.6979181991713133,2.4724616345593002
179.50273080333142,10.97816043305349,1.2162436481617132
213.30113069660013,23.32700254708299,0.1623071625090084
214.87345554848895,33.72390742870477,0.45776710194506726
182.85657964794922,41.439072475429505,0.5262536792995015
121.33616350019919,45.67015691283493,0.1388807240014617
39.30216792870134,45.828137166320296,0.5225481124818048
50.90269096939751,41.86131946103012,1.298948393983891
135.7912203653869,34.38140068791716,2.0125154713922244
203.06784905744192,24.480851236706904,2.4664679269139462
243.529945372443,13.371132543498794,2.513916714592388
252.21725752647853,2.138033354651207,2.14728089886359
228.76930221011935,8.196216432420036,1.42420059103857
177.10857441005336,16.40169465416265,0.3349494363740839
104.64760177343784,20.891205789708245,1.0977797130565472
21.15862426192212,19.99075082906035,2.763996332645356
62.61601294795994,12.686999939976316,4.557618246135581
136.51547643099502,0.44164022016896287,6.349580068229484
192.43206646083297,16.689062890854796,7.9054339252607715
225.35415888121477,31.554760467446684,8.89100427073407
233.78877473134415,39.985743640361505,9.045740742947832
219.5384316613264,38.077216992282416,8.37595499500625
186.97133016270618,24.487093459973746,7.082711102343176
142.11038555363066,0.9207508344277682,5.415035173280744
91.79059330096636,28.4838343778513,3.6399788635645693
42.93478670021188,58.485482021544925,2.0030305680861638
1.8691438664759237,84.1371762907369,0.6908527454312025
26.441335204323437,101.69440229791526,0.19520530504482797
39.23211029287476,108.84835811605154,0.674138051255513
36.61787451546988,104.56309546023495,0.8351709771404457
21.76269834246178,88.93764273694372,0.7511414535223279
0.30880453390489276,63.32502381030279,0.49867456536192184
20.92329539026707,30.595597751010377,0.19385965756683543
35.64092282897968,4.877176050701788,0.027804117609621596
39.66503363990471,37.85252684673446,0.021864175573028416
31.9043582288835,63.444467053133415,0.3038019775421449
14.406488329881215,78.47825098272689,0.9496279945228248
8.499798271954162,82.3233375196337,1.8135148168916837
31.664645037173567,76.76504795664432,2.6503375220047314
50.72929606483698,64.96720525869361,3.2425292824496514
63.36564215703787,50.078717455719236,3.587784157043456
69.77471017131082,34.21522366785539,3.780984825101656
72.33134299698284,18.294270932816662,3.9192431274396
74.4891055328033,2.686390625856577,4.140005701390184
79.34143340187985,11.869284862625213,4.547286263519942
88.36889014703475,23.736945292684076,5.115695942813721
100.80927766612925,30.61301220410616,5.728164702348354
113.8363784189048,30.4178591343873,6.252372405998978
123.42844913098315,22.32563883264084,6.5452709371353714
125.58420265245908,7.357339688154942,6.43316451953473
117.46119955775698,11.768342026256391,5.752842507275246
98.13730360767384,31.428844882886942,4.434990327727165
68.90376095611832,48.10119927101927,2.5122531980072154
33.12398485817123,59.1105489992858,0.08578193773681574
4.27217635960222,62.90363518439132,2.6396113273865067
37.615407849373504,58.9457199547888,5.391041433742122
61.623700068129246,47.50172483394018,7.899035900227957
72.71986953749692,29.5218940940999,9.884906464245178
70.20302562818979,6.690415383716578,11.104234149821442
56.802432138887696,18.5046055828586,11.392050808301585
38.26337451120982,42.895530498159594,10.680866935922603
21.915942622245144,63.080035531195314,9.039079974935678
14.605741430542992,76.11585704360522,6.637768062754919
20.707839711637043,80.21460396206705,3.703605315613477
40.93535549644567,75.1686620389012,0.4851130175731514
72.29802096185558,62.349165823137476,2.7426646219059694
109.08696395387236,44.28299191852783,5.627650554615755
144.39716775247575,23.974667514261355,7.804369260307443
171.6074429600504,4.203052020113474,9.018393365523517
185.45052898930723,12.964566418963214,9.162177182054885
182.61986931150807,26.305048339093496,8.249379128838525
162.05678969388393,35.26667248219384,6.395275279157597
125.05479061950238,39.64847499921982,3.8295957838528962
75.15160216733253,39.34138500307964,0.9045504335057049
17.676053724791156,34.30595623577449,1.9544409838686296
41.102933716402,24.820670212792933,4.347431914516359
95.0694518719141,11.860280162670884,5.966551051580527
139.25492706678634,2.667883265598709,6.607635995655839
170.4071768148702,16.082249248087987,6.213157578366881
187.01561938784954,25.53438000347619,4.905609948439177
188.97391273190246,28.865703175931056,2.930469148785727
177.24196421739666,25.35010075013247,0.6048956411729414
153.75504285080416,15.964280143802526,1.7173599837365565
121.54921987912428,3.0439610274048188,3.6979219620477743
84.79207379017735,10.495856582579593,5.027721838726405
48.35738208709383,22.000503596810205,5.480449188301213
16.882825880714215,29.62007397217945,5.0105817026147115
6.376861358496664,32.40188802548297,3.752305401327925
20.368952414982125,30.063985521342612,1.9336388885484077
26.285974604770995,22.751300750080283,0.15362751557014195
26.77784506830222,10.997381790316966,2.1270977107498448
24.71368656617789,4.08905103317246,3.610940960551675
22.15644833189997,20.630339324460017,4.423823243561308
20.09985291433905,36.08637161601622,4.587733404500232
19.01218022402134,47.77705597787489,4.192899738382249
19.76941202013155,53.63963081212174,3.3673943152177643
24.337578667224648,52.84551315977737,2.3463988555712416
35.65784845934585,45.936355477914994,1.3915191231596082
56.619464245995566,34.389849142739045,0.5940730208364264
88.47289999697323,19.869635074965803,0.08865056429100411
129.34430527788447,3.6077992394387968,0.7153027760144378
173.65044625668352,13.73540376936811,1.3555437014505292
212.81886909193983,31.662140671950457,2.0230975725670324
236.88883611678793,49.16814696379627,2.696665838553847
236.57302613513596,64.32099246597427,3.408721263121523
205.58549466001577,74.41853755602229,4.162441126228977
142.4184865435245,76.74159829447593,4.82873748085934
50.99420679139053,69.62408075821793,5.224251230410064
60.213960748714285,53.44510489115255,5.272201097565602
180.33234130657132,30.293938367230286,4.92713279002008
297.60562880853325,2.9811080370448315,4.1049360448513585
400.16413468395626,25.416478008540338,2.825748502991749
477.1668662370611,51.94810073862189,1.241778324995458
520.287479740517,74.03541344471596,0.4504594198386419
525.2580528076296,89.62056158742259,2.0445814209039317
492.9924421149026,97.31496312792898,3.2941337582319377
7.035004865176494,15.953566973212006,3.0688965674094746
0.8265251957409578,18.392315751983627,2.742911732801889
7.406512222426087,18.622506392756506,2.0348856703069136
15.771260968017785,16.705261034261213,1.0465757175187516
21.865865298636,12.772974278671029,0.09338166682097178
23.655154541791074,6.769392140972257,1.328684271324954
20.23958841645067,1.5169616270886894,2.611307185350045
12.113152180441531,12.16241256737471,3.834719549131314
0.9848433180840557,24.61972613320339,4.902649745208091
10.798216770032788,37.47660938127478,5.733479598826989
20.810730190101808,48.59257930845686,6.2554797540788325
26.732761533629965,55.48072866057583,6.469716102944085
26.382562961166037,55.93869628356959,6.469018879263397
18.475525338954657,49.28249984316888,6.343606286326754
3.2534773146173013,36.991818778958155,6.056204440569711
18.073210592922084,21.493963116319136,5.4974363501840156
43.24017321529932,4.960222816853845,4.613288360637864
68.38550002181884,11.035823358190209,3.3992009486002943
88.5685585725181,25.631392691600674,1.8619713155797217
98.67751349070625,38.121903005948845,0.03111746279085969
94.73741813100202,47.455791342614994,2.0265929718693187
75.13983857438014,52.284144357176785,4.192011544737785
40.96608659110195,51.349750380042714,6.264769191155873
4.262587020782337,44.26772155348759,8.010360785395582
55.36126854646094,32.031651323207335,9.229764040056558
106.28814367439455,16.9589435579998,9.728311199708305
150.66014225767657,2.1204322447117576,9.36083241638743
182.20835830692275,9.555477373544713,8.170945530091979
195.30278643568795,15.93693992972573,6.402674054355211
185.87910969391328,15.957305335178674,4.380817348338154
152.62816788702577,9.507394078653576,2.399819069950393
97.98421225525624,2.8118181460921785,0.7070388957661574
28.41552427687102,19.7331028545189,0.5292067485050735
46.402644102452314,39.17950678515109,1.275383441843079
115.36451672065638,58.12467274861723,1.5754290024249538
168.13766241646715,72.78200362535313,1.4834533711795594
197.12060755571486,79.27987953925323,1.0650706436558726
198.60269893848945,74.65536568912547,0.41467450425835845
173.00153883890948,57.79671901936399,0.33236584924210627
124.37833136500984,29.89337969285727,0.9996294140025689
59.608934803477005,5.78518596803607,1.4106212917435745
12.520745528239491,44.63819539625274,1.4512803482287036
82.25316187460241,81.66297816913536,1.0807941116076147
139.91667414509803,112.22348536067284,0.3660649450788303
177.17617764978854,132.53682261338338,0.5397411310005378
188.35635372754004,139.95375694529872,1.5336349131733122
171.52303763637758,133.22849527312647,2.5972814891150597
128.95160894515425,112.86269713293827,3.757885293048365
66.76771588301465,81.35432712490083,5.0019777957103795
6.156407049657313,43.088934547691764,6.181217791990057
79.72242488426967,3.690959111473296,7.0713881583888805
144.08879858100929,31.108709605918282,7.448544849333932
190.80909574610897,56.733282697629036,7.124120386474748
213.62933863657338,70.66363233556737,6.002390904407624
209.10336948135338,72.66254017403666,4.135029566631683
177.2043488755616,64.33360700690169,1.7473550196477685
121.92294826681871,48.328638023937515,0.8408015265628047
51.51500263807057,27.640732053345058,3.331282165874855
22.080727888385567,5.2600217354668555,5.45370105234047
84.99921369318503,15.828998828288984,6.90747499471029
124.31557493010601,32.56366077342328,7.443013714603814
131.40746597680436,41.978863583356436,7.013086747672479
104.58021003415432,41.77177247878062,5.717233604372363
49.77817306409709,31.04382184582772,3.7366210303640015
20.559951266101805,10.870871239868617,1.3881133418005251
90.16421184724588,15.646234975055004,0.9580634482880617
142.9106487866683,43.996668940569215,3.0107187712866446
166.54293695319612,69.33471350486157,4.5727750420562865
154.81682351615706,87.60961054148761,5.499562884172856
108.02228885394257,96.33886163030562,5.672643030221837
31.98064971122566,94.83240728391156,5.0215289032102275
63.65264717901298,83.94009958183752,3.5896529092935907
166.99702734308246,65.54680647712897,1.5637148571228179
265.32803153056756,42.099840359871024,0.7984298022454495
346.2058016265649,16.299960373474267,3.185099864930092
398.7340291504097,9.090197492296022,5.221803395043987
415.01616534144324,31.437098452682317,6.57773358555665
391.42469901904525,48.521926404899595,7.063893812133756
329.23342174059337,58.87841030923656,6.657732841068727
234.14960613742488,62.06677585874466,5.427211804594418
114.83974248045898,58.74464050453534,3.483633015829744
18.73404044931725,50.46104416566152,1.0520361787330206
156.25514564870866,39.2688567448935,1.5499628796473348
287.36429400528124,27.293238418088585,3.9716705017808103
401.63329754577876,16.377384242936714,5.863928896637446
488.19616673715944,7.886393002896218,6.950085097693687
536.2113423703202,2.6388719214058707,7.04864034038589
536.8087605120716,0.8994455606861186,6.128684425234856
485.6944300008984,2.3903269553857713,4.401180838968876
385.55397835190274,6.326707835458231,2.2680422546334897
246.95140086086826,11.507238783601816,0.17376688833001006
86.99429039200454,16.472959582418742,1.4818853610337315
73.71507715498078,19.734494097617585,2.392809954984754
214.95212360587797,20.019485228341146,2.4694912979613717
320.30189233767436,16.50217213118453,1.855667763472515
379.3528548341366,8.99835697243579,0.7948423965908814
388.5859686467402,1.9204171393961391,0.3858216175144185
351.1843833750756,14.913234399870765,1.3168485795860168
276.17156706651906,27.995675978818362,1.7291987889539424
177.01762392970036,38.84546219258965,1.516300538836104
69.6483514369786,45.24994680199071,0.7330739966580863
30.076342095409593,45.60894595844263,0.4718323814029439
109.04715270298685,39.3363811867433,1.8773462288554894
159.07121666012227,26.99394826230362,3.198530508614515
177.81901777137568,10.115604087979003,4.207184038035829
168.24172846228683,9.188621654136588,4.735579345976355
136.81836454051543,28.683357557846534,4.652692094118351
91.44726721321557,46.33453900669933,3.9579394875802905
39.786937515998794,60.43148784434481,2.771422488777324
11.502834318948961,69.565186998062,1.2955574930387874
56.769546122042684,72.60338835856255,0.17924132281609897
91.24205815236463,68.78275777045451,1.3683345499170094
111.27986344635039,57.90993029448172,2.087122589621656
115.02126198405546,40.54717549336051,2.231938537970789
103.05487158694159,18.058131616302646,1.7977525947443687
78.57841674153514,7.542808014786081,0.9882930518711912
46.75527958628912,33.88229714396097,0.1467515653350041
13.486254146169035,58.51637728852685,0.45729485711066276
15.880057499012013,79.11953945142254,0.6754495901433212
37.37895948885001,93.59204085111806,0.4609430414531496
48.62952668460067,100.16797128746475,0.12849963129690997
48.65318757653085,97.63823872966645,0.9595940526082114
37.70873034515842,85.71331711445872,1.851667563528922
17.39742674009736,65.3649485476049,2.64075593345307
9.088951898995402,38.930593964284505,3.214656471243297
37.00258097538742,9.835867247648538,3.484079190327326
60.707862301666744,18.06057580398478,3.386475243607644
74.96411453859744,41.27760190910583,2.909845702941082
76.395270172062,57.359297868852515,2.1157019153285876
64.52370879752776,65.13842992022673,1.135166693936148
41.86050111802921,64.59046620330467,0.09422170878392884
12.9938165689774,56.4677855440279,0.924684879835354
16.88258317994364,41.98299772846584,1.819509443352108
43.37108295432491,22.706161177695066,2.440121976784721
63.70142098556368,0.6701612224228334,2.6742575772477837
76.8334085243938,21.50475317710022,2.5332107117743203
83.03210338448005,40.720705619600956,2.1109226690560874
83.2654381040734,53.834324432904104,1.5259318117227312
78.7093054850511,58.298932001068074,0.9156191871869489
70.47589206552635,52.808089466938775,0.36337212119143025
59.5110536596445,37.67934906210451,0.10196718602563348
46.54230726920511,14.818285498351953,0.4060170851020523
32.75097710082972,12.727016694350445,0.4931680328588115
19.37823356255683,41.54435641964983,0.3632566564480675
6.665208116474786,68.47934946562602,0.03164391363492014
5.8462212414738755,90.87465449722986,0.43974000080152664
18.68089969827418,106.69985896580131,0.9682176968557997
31.789984721452328,114.66117850341621,1.4935062158175092
44.22878148250179,114.32431205884347,1.9709925502282781
54.31996069316025,106.22711690642357,2.3385975234008614
1.8859287152023414,8.52062760938331,3.829338593855718
1.6692006064352019,18.457427870282146,3.619323720947391
4.30133585278819,28.432265105099635,2.853421861028033
5.800444338513638,36.18340030060657,1.499274647065259
6.625912048403179,39.41811709622653,0.35834105550321765
7.679611103715322,36.31581966677218,2.544602201864422
9.854311948055171,25.963124807355108,4.847289175252359
13.47348025618971,8.59490061699161,6.981960121914568
17.972047276950196,14.290180897760404,8.62292708643353
21.88188932103555,40.05119580375578,9.511122910123916
23.238884361796014,65.18307053570331,9.47801810620999
20.481456168751567,85.6081590453849,8.471842887921829
13.428622249794559,97.09710714324484,6.61938185021146
3.2165397572638263,96.3979041971107,4.170306234166872
8.455859819406536,82.45069424451228,1.4011561014979914
19.387720372630067,56.46918878371483,1.3517577880328653
27.078653470990893,21.67350928180876,3.697192690825833
29.41546336235141,17.101020500396157,5.330253604559352
25.073887536833695,54.42868789810278,6.099328605836291
14.00032091065649,85.2564879376978,5.982567484811517
2.3003303976230463,105.73835894711223,5.081151089035761
20.885370755605553,113.83160273330937,3.6257404921946583
37.71557789246806,109.35644482284789,1.9387275655993206
48.46873252009607,93.82450871417518,0.313509882693259
49.56144467575606,70.01336815685043,1.0300727660119318
39.192505776436384,41.46671710959447,1.9171245483644004
18.14443364595456,12.029918396704279,2.2746559586323576
10.094867419645595,14.668811807452396,2.1133353683849867
39.95150238229917,35.670990763091396,1.454240199429601
65.10190325917272,49.10344862208126,0.3784203013474459
80.14131647330315,54.42501315657394,0.9715433898395949
82.03060172710803,52.39051827568874,2.4514596220237084
70.87580501995187,44.769450417840964,3.905665459435374
49.76816434451893,33.85721049246099,5.177882621664714
23.831670081899013,21.972660857682865,6.145225728592362
1.1446184947648848,11.095116278382077,6.730041015824971
20.040188969005477,2.7163695496375193,6.901176820548971
29.36578599658164,2.1351769684078024,6.650591327353762
27.74433277543018,2.85558328108986,6.015355190686297
15.960247008580405,0.7041740397353733,5.106767748128639
3.286068557308106,8.105130543089686,4.0465875859389016
25.841276601503473,18.17929496062572,2.9240079027686185
46.75289930856905,29.049925863482592,1.827392071370057
61.1005875976713,38.390000661347635,0.8224170965734708
64.91923436764638,43.89774394482096,0.09897059610847626
55.99538946214277,43.824643575831054,0.9656716576270835
34.30927058710576,37.35788092088934,1.808103777130261
1.9762264019521882,24.748086413792404,2.7479100444716074
37.258494053714884,7.175039833407627,3.9465206961361714
78.7334777163108,13.524231034224712,5.45957827154754
117.54718109319813,35.117007734221616,7.21215757153555
149.05059856256548,55.147394990341425,9.00630895657937
169.18110795994602,71.06138231482286,10.55864720518555
174.7721512464296,80.41737152096158,11.591008057681902
163.96591717791202,81.25011599539037,11.860311025593854
136.70953283936404,72.55050441653121,11.205546997009126
95.12240105376607,54.703605056688346,9.609956625939999
43.50051386660733,29.66795331233896,7.172552998208548
12.181402271951603,0.7645411281916749,4.092625152433627
65.22033150165345,27.9192635568095,0.6708313258401238
109.32073719234847,52.324559574174806,2.738307387852115
139.5995197168138,69.14291917245632,5.783682796574139
153.2265493554392,76.2813344528426,8.200385904243111
149.6272929982085,73.0095064194193,9.847770403636936
130.3490563353339,59.88230662404769,10.636049011706254
98.73416353342289,38.59059038021417,10.51278790657347
59.480296295390524,11.804077574273055,9.57983257983017
18.093603531110872,16.995062030740147,8.104311561461204
19.78269367597254,43.765239810888005,6.352041645112073
49.12061449322213,64.36386367987973,4.502442712580605
66.20751414175913,75.21696559941779,2.6763941894453076
69.12890244164689,74.05591845316319,0.9450688150792257
57.93387850685203,60.49658201124255,0.6258949220105062
34.485681309803745,36.26635638520493,1.9678744105370034
2.127770547468372,4.981456956772356,3.043184086370176
34.67500878991551,28.48550195668051,3.814715045904814
70.69150348534825,58.86291897808652,4.275052290554373
100.32956524566558,81.34571034818843,4.489754420312743
118.2042078890559,92.30891971953572,4.541291666159771
119.96042882514963,89.79959438867841,4.4680088386856
103.24690314842323,73.81047044837084,4.269589202981046
68.58497409059612,46.34819123132997,3.98360537005461
19.787671031070598,11.275259879452662,3.670758961168554
36.3787547320466,26.145402749030932,3.31269248229658
91.31710482450283,60.03797742123781,2.831831511684128
136.2485713228144,84.94145899418561,2.1860310007434953
163.9642488431431,96.88631687495543,1.4225077664986259
170.20752450630332,94.23145594294229,0.6376811646492886
154.3531280890747,77.95920189356355,0.09921227472425447
119.28422757896413,51.328471676404696,0.7570294087342248
70.60763903845321,19.01401881230396,1.3397698776069205
15.488245765547244,13.987387518154206,1.8837746837961955
38.599359939474354,43.31260993395948,2.465513796464485
84.97464724887008,65.78558141591289,3.1824055663341073
118.59703063666056,79.52053824095131,4.057118985340282
136.61242350892826,83.72458055994414,5.030099346000058
138.60339342648126,78.45999010155131,6.025027852107144
126.52723647857674,64.53999799716101,6.8997969753458746
104.29179864091421,43.55843406642539,7.4068427521260585
76.94720260918932,17.90419316930877,7.312720326606773
49.53180164377681,9.428209573445354,6.480375910979953
25.793212476573725,35.283363590794536,4.8717212038867075
7.178577592021846,56.92096695101979,2.597350376757584
7.508359194515212,72.47658847044161,0.16292167188254683
21.544093452203395,81.08320502448923,3.223885314552928
38.91386696240925,82.62261435253781,6.2721879247693195
62.55292971227571,77.27671772392353,8.903218436187235
92.85147908705797,65.19908808394784,10.75276358084089
127.07539519132202,46.55981537253123,11.562939116806282
159.95187406883954,21.94847834638985,11.209635478390364
185.17716952551456,7.073498335106718,9.661666149320952
197.22595990295162,37.64749455192435,7.061108403843789
192.7236241318219,65.82702993672311,3.746181036756456
170.95023837149748,87.31285953784429,0.11261534806901284
133.51016294705138,98.49812381355801,3.423975602301121
83.56826348741994,97.4122330540594,6.473229232443469
25.17095867260908,84.17393681481163,8.731661057996924
37.05693070789359,60.85917117016984,10.005680424548729
97.96105545345141,30.919679218246063,10.251474346768426
152.04449344300934,1.5539698223300928,9.56983225718449
194.1138683067998,32.45159649563787,8.115031389095448
220.37902178305583,58.03693206831858,5.960793985011302
229.55504803643151,75.19145179774154,3.210806336299366
223.31430631812725,81.67986209333559,0.19755642072069027
205.70537882067129,76.50203723171879,2.66706616513866
181.637620235348,60.28055192450613,5.073792146713725
155.0552684485484,35.49564380264477,6.778801017644344
127.67786107123383,6.310337497225138,7.578628443384815
98.89132073141283,22.08811724873899,7.412281469210506
66.75525220996386,44.51602121381727,6.423513969965191
29.4966470446766,56.90572708710526,4.8372484564608875
13.333202494589848,57.16175927483928,2.9073355712069304
60.548786712292895,45.573836047401365,0.9353750167297806
109.81286736356077,24.71270537825519,0.8163051511524455
158.3820160916764,1.103222282136258,2.1341150173511245
203.47979204090097,26.5854087278462,2.8573044284506657
242.03335027930333,46.39118280574139,2.916826197515062
270.14000663412946,56.065973601824524,2.308317540893321
282.9648387376712,52.91876589493175,1.1227640411264324
275.58943521699246,36.724565375275034,0.46066967804788056
244.7735200141759,10.027866817918799,2.18902041634191
190.88561240796403,22.15842899032773,3.706448069108202
118.82878058982355,54.4959539360907,4.763751488871193
36.563590760540194,82.64501327952217,5.301536608491749
47.075134621065175,103.05418924147335,5.293426263879703
123.6842343018301,113.45854009603114,4.784885718869832
186.41024864052497,113.16119866198571,3.9341746699540607
230.59079834235763,103.0422523545288,2.906339135900813
253.89720076693055,85.31587759442148,1.840380885805767
256.1971695881646,63.095672920383,0.8762506056094149
42.15266646978372,16.40388137276425,4.299513196507484
18.881770407350523,10.514713745237508,3.8852744039926455
13.015010453605223,2.5664322642733506,2.879114207281705
49.36028378178031,6.800684647144966,1.2883823516002186
85.72193595670781,17.09065533960205,0.7611829122260538
118.15806881521918,27.85327511520816,3.0749791246505347
143.41340319063335,38.483577903706774,5.407556519049092
158.730440206167,48.04054072571483,7.444552088338788
161.73208868858254,55.27413834357904,8.892150931118122
150.57537632419465,58.82646581139612,9.535391170498166
124.4062298231444,57.51728081453264,9.264651518535727
84.13378344776326,50.7234392526846,8.126813671628549
33.30639620084671,38.774360457527635,6.338330157036322
22.267339678980335,22.735017559561957,4.237814612405496
76.70364053750866,3.605802800611977,2.149377811682756
125.91685322197831,17.88474946764331,0.3044845168422075
168.0151404863352,40.83016313030666,1.1137292477331107
202.6155864182635,63.63769734877568,1.982297895001805
229.36326618609675,83.66745676885579,2.3126584167887034
246.7925561310443,97.48506868664278,2.2237049485760787
252.25589828950456,101.69355450038358,1.8486007245101927
242.77488177615507,93.98317628220039,1.379653853284764
216.4192901408843,74.05191581573274,1.074761939552254
173.32055081910258,43.902580353792914,1.1208657586885498
115.90042808969571,7.493277808401765,1.6138360414548232
48.39984863284838,30.071058948751528,2.5208968835655283
23.910303628918587,63.51259759310186,3.6380864131171307
95.32693915459284,88.17802915249517,4.741178413949646
160.07721402938316,100.59093696312699,5.689528461431957
212.6156151386629,98.77600894650782,6.421189419876309
248.18024985012858,82.47041254138507,6.92268559125515
263.7377436156745,53.27585213938153,7.1923248426297
258.91196085303085,14.6459092175948,7.243663553946362
236.3737074834143,28.404223839429424,7.0722336736185145
201.28778685979205,69.94531383995853,6.613860472830439
159.8482894892061,104.06005995077824,5.789284495895554
117.5144561587194,125.84173166620057,4.597644951815213
77.76590812397751,132.1897914152761,3.1069712390564566
41.92467812655351,122.1970227172825,1.3857149730320444
9.961221170310644,97.1310080309698,0.4457850243376327
18.383251754375333,60.087574983738804,2.2037105043649072
42.97139928967922,15.459560766764426,3.7483847334895573
63.55147250253064,31.634919938819184,5.054237488078778
80.67472823656529,75.92474396581984,6.1710194280938415
96.44011086424754,112.56366950877992,7.0737622045251705
114.21884258433325,137.72204289413722,7.605997138742327
137.00485647386418,149.1111378345355,7.627758540948837
165.07500646086436,146.30724733544963,7.126515947031415
194.68004279437187,130.77269468805216,6.166843080664033
218.47551109817792,105.51511288029548,4.841955136213221
227.0465604603702,74.45495820886121,3.285338226120714
211.71025139825716,41.67750394263761,1.6317732608701785
167.90784602614636,10.775276983318236,0.0017770769189116842
97.00976164423984,15.576609305573278,1.4574653994867983
5.966157958267464,35.79760594742931,2.6215328118662264
94.68456302933858,49.37841667617708,3.424238721621914
193.527315273929,56.740235536705455,3.8161119515801163
280.2238300332407,59.06157554338225,3.796479730197709
346.2094846433146,58.072478433568534,3.412901618421707
384.5094218232823,55.76621964926326,2.652665368826936
389.5733464087707,54.02172246702796,1.4726972907326072
358.04716436043515,54.18457018158595,0.04020032087124935
290.38944869878696,56.70099881807982,1.6631254106439282
192.43325212460522,60.92884808151304,3.1520364597868236
75.60473525489054,65.22850408664185,4.318435802393185
45.13742414027821,67.35296397209147,5.057679915757034
155.15972768464968,65.04311470572624,5.3289985642015605
243.80342005304368,56.666943769545384,5.14153252653336
306.3718367707829,41.72962716994725,4.5457447101708714
344.30327570731794,21.10515209976281,3.618173898245625
362.87203806797737,3.092822711621695,2.48783208815699
367.1909766012075,27.964351015867656,1.3478281772498846
359.31163505031583,50.469110988523546,0.3815223789789875
337.6530762489056,68.09060211162794,0.3663847716712937
298.6811210995663,79.3131569261857,0.9897093093188524
239.94767671086328,83.7688383081216,1.5837099547385922
162.54910180162372,82.0529203007305,2.184270634425302
71.84327251440442,75.31652703683082,2.7652852473944667
23.71807455881722,64.8193523230192,3.2877956363905283
114.84229433098345,51.652465743861654,3.7584992511054414
193.37787556538908,36.72957072692404,4.184530980521891
253.31430155541392,20.947085629859437,4.572087981625035
290.80492681598315,5.333074061905328,4.9040838855201905
303.8520252987167,8.948953689722774,5.071520917842132
292.3992000283813,20.77674813246313,4.9901118085718625
258.95606160786394,29.338197036212502,4.670174311572263
209.2445381299011,34.31680370829082,4.081511302965847
152.02608268762518,35.846197309362644,3.136385030888881
97.60259475756952,34.25440495833411,1.857089432454235
55.237957036880374,29.789657027439148,0.43152350227370434
30.44156826080235,22.549883351622096,0.8977828614909542
23.324461912217092,12.709589300928782,1.9194484469817816
28.777862582438097,0.9482432111409981,2.5566471462285154
38.40156274622302,11.187007289457172,2.8805341109475537
43.397317208721056,21.302255548811733,2.9615400754129273
37.29886961513577,26.676884571093176,2.86594238473848
17.59622974415101,25.122651234410366,2.6733885363045626
14.100364999349516,15.840814725645128,2.395768059493665
53.080512064787165,0.14322198944800407,2.0259654685536357
93.11383274155405,20.198089343400863,1.603523933749244
127.9713156791995,40.82418158701574,1.1990197332264665
152.51403142443698,58.56985725463358,0.8780382877877807
163.282392766801,70.76270182646304,0.6482180529917393
158.72385931250278,75.82237276426557,0.47805223785191336
139.22516218737468,73.18160311994839,0.33799736126869934
107.02425290714902,63.04338419018987,0.1434512555773839
65.9860015175521,46.22201844788904,0.23530976665735695
21.176111262472453,24.166490663761135,0.8029859219691643
21.80984859750416,0.9375542739262678,1.4071379539711844
57.707599709115335,26.18571546539222,1.9102000766603744
82.46684019786775,48.23891693918752,2.2603936076564937
93.90813977083101,63.87838318826882,2.4275367498142533
91.93713948656814,70.67727620158522,2.3419812784622436
78.22954480029523,67.55292169276035,1.8998449276204108
55.49379870370922,55.03478475486474,1.0593549320622713
26.649837452095227,35.209167490492455,0.11922583627983392
5.67332581356207,11.385292978548584,1.543569124862385
39.1077976640433,12.417095493274589,3.07138192520431
71.06640008998139,32.07265093938045,4.460783285417484
98.18908906440238,44.009730817462696,5.463194262079139
116.2502096903179,45.87218112216446,5.889258355616593
120.87632209667862,37.052253469102624,5.621087337280223
108.95935875757333,18.919008762910057,4.697694733734208
80.21773069682007,5.387694243190965,3.3300346344242104
38.14582958107974,31.614423088618548,1.7742098986093267
10.257554135961152,55.335869581042125,0.19490912465456953
56.03944737036932,72.87728760179925,1.3201018575763501
90.57836700338824,81.93626234297602,2.6636903675096995
107.77093558282935,81.7749039248785,3.729062461897149
105.38219889701166,73.03409425702121,4.453272077133707
85.254059019771,57.3427920585942,4.842567343430121
52.58834416269938,36.92096043689659,4.973257887766628
14.798187735671998,14.263589410698321,4.890077824332541
19.689869218980384,8.130357109822945,4.583839456125929
42.63847161338052,28.0365064186355,4.02274117500226
47.37149548844241,43.8008927649377,3.117933561801689
30.386817676238024,54.572469360416086,1.7865006438470394
7.052906494188848,60.33889858840885,0.052259581628088664
58.03937070043758,61.70137709538115,1.944262059798825
110.67000803680276,59.46224019386852,3.9910784786055387
150.57579748427372,54.23922273494178,5.8668562986966375
164.8356022077136,46.32145071862882,7.303659272244077
147.23774564277215,36.0647723702735,8.039715283736378
99.2444862146105,24.048467185821433,7.954216406754169
27.55011850426973,10.960498890472486,7.111222815128083
57.17846624484508,2.2462956897341146,5.697808887951331
142.45600874096428,14.384974972984818,3.90486860988817
216.38694199707422,24.25654237764803,1.9341666131430977
269.6819006613408,30.952577210227744,0.023960073605817755
296.88176290210333,34.084343857443116,1.5720666054471204
14.197318176213233,4.021981521447285,4.124654957620107
24.42073886259636,0.8858900618379537,4.017073280981152
31.269032818896886,3.9489517729320527,3.317175152429328
34.878185945173136,10.392089041401771,2.0422475100314563
36.4159516428121,17.730891657683514,0.3221296238510512
37.41534514692236,24.60285124595405,1.6686668306661327
39.17789375046205,29.297242592705857,3.7428837062016
42.154261724736266,30.270344160380617,5.684604435763556
45.72000725219669,26.710699563155863,7.306271658078497
47.86440331925092,18.850274518539546,8.502392468769768
45.18592001015356,7.9269577519433065,9.205312181850372
33.97832453234014,4.10126829333092,9.370318890662837
11.887540973757853,15.012389587289555,9.014872439359117
22.54338132192731,23.167280552152217,8.189324448362504
70.29684514165805,28.200870024131742,6.9243439698892315
128.79662892092293,30.692623716767052,5.306877210049102
190.1307648162589,31.572273478313885,3.4934960674725084
242.06147616739347,31.77263927547853,1.6327680269699285
270.3640664624981,31.885059374899505,0.11839362443349313
263.50609052996083,32.13801612398731,1.683347619932745
216.31854237547486,32.500236460298154,3.1385358273292665
131.4459354122583,32.7054671108516,4.549269131556428
18.982123488805726,32.302549242654926,5.853924593806605
106.23727731764444,30.612963683611383,6.9118243666781325
227.54170536967675,26.76806990318761,7.610841711170005
329.02638984831594,19.881109186784013,7.91425539132598
397.54298787890343,9.315794082682515,7.838669879124193
423.8994317566998,4.983468618759133,7.484395287801433
404.14188418120807,22.29752809320258,7.021989055704703
340.45963071048726,41.14168309089562,6.6044023185537
241.44764916226742,59.517322565432046,6.29056699638345
121.11724034767684,75.33150301119447,6.024070540973379
3.8595896293784584,86.82184322968581,5.711682550005191
117.72658679878853,92.87263315921528,5.283552012789723
208.4568773987576,93.08307186192839,4.6875356191350415
269.3084977399165,87.58986093733351,3.887413833273219
299.3762812467373,76.76365606581636,2.885429695934731
302.06733631040174,60.93170571948165,1.7295495335523083
282.32664973086895,40.30817040205429,0.49261986846983147
244.8533675837125,15.20395302730898,0.7325149997412285
193.4777975803398,13.562290548530832,1.8698555784361774
131.83628034420502,44.25288446993092,2.8549114647238336
64.72079634879351,74.05079092179277,3.6194367089041877
1.2289552579211838,99.31944099229852,4.15705943624205
57.849298868975225,116.28812135609544,4.512231881092463
96.96597851150273,121.96597902058643,4.777786315625085
112.45256326387467,114.96709231757622,5.0814137111925755
101.98174766909955,95.98204884884125,5.470528362140952
67.97372554154715,67.76184329099489,5.922929645478592
17.353762643569468,34.619255449360764,6.399328255361988
39.597015961318725,1.599152580134476,6.832241861335819
90.9784936332134,26.4462561772828,7.139291361150492
125.34347463837278,45.67199510516646,7.223901377453298
133.72526849334318,53.829510945797935,7.0047260974237595
111.33578368853757,50.56255682130077,6.448147810036909
58.58867938578137,37.390070529236375,5.536638462179904
18.808269754453086,17.421929736353537,4.2638217374166665
110.74304358713036,5.163653681172488,2.7176802795402084
204.3912827519321,25.834924667747472,1.0886326125756327
286.3024853101611,40.4808401252994,0.47545465661217096
344.43146855915893,46.10432709555157,1.9076902139061118
369.79844675415313,41.3246514397986,3.1970922089142073
357.6503020201564,26.58348235609544,4.394715335984961
308.0706024527013,3.9880761221950767,5.508662934131287
226.031844630086,23.157759092187923,6.490206816735234
120.84827552506067,51.00784095021459,7.24287593037088
4.933828793428788,75.86458827165401,7.549798040846656
108.00634479784267,94.7265406095878,7.222666264408539
205.0164249236671,105.58410423641558,6.275753865094089
275.7776456336874,107.46088206056359,4.8966994858242225
313.9005706917773,100.26538019198141,3.3147577277428617
317.3874012224265,84.58485147660011,1.660578728320465
288.43022386030657,61.53216325431377,0.003912283274616386
232.87985576172971,32.69383873593379,1.5288085084359622
159.6624896454186,0.15446459538571553,2.7821959971149104
80.16912667209537,33.50310051381529,3.657164399108942
7.304472997229014,65.30335203305557,4.087188520298815
46.1521278473626,92.12134856198593,4.023951017348594
69.95642594506901,111.06245451066346,3.5162203215918373
59.12796303332874,119.91005294153399,2.6522087813327944
15.836543345471455,117.53281628205504,1.5109062062410654
50.4341485586037,104.17738563621444,0.2490779533465543
124.27174787075374,81.57900111269215,0.9415543272414515
187.24962205785886,52.79987585246586,1.9030045801883761
222.1686035553431,21.789494398601253,2.5638087964535576
217.0036432059291,7.251592434264766,2.9976561348695836
167.34335687372175,30.619434764408048,3.276442379599513
77.09793348441667,45.791942845325444,3.3354825471346614
42.57138495722928,51.83668853814429,3.0370544366300156
175.4158095955355,49.45784955030258,2.298552851190486
302.70973537654794,40.71392316057361,1.2384309923725425
406.0088513637984,28.515781001129014,0.15078273448493024
469.7518275522812,16.06367210261733,0.7303662989430457
483.6637276783254,6.344072785888749,1.3323827227142915
444.63043768709827,1.7065978741129038,1.643368708404935
357.4999622276141,3.493650257690823,1.6663404053117186
234.3925114767129,11.742342132056404,1.4363460856147696
92.31347220680439,25.034595870871787,1.0457686823604806
50.408152856947765,40.62719740958158,0.696005462934452
177.5940813226579,54.94670937968394,0.6029517699616456
277.53312885140696,64.38148072039044,0.8446438234565989
344.0368978891604,66.15862320047893,1.378069653303295
376.07091843646225,58.97946400277461,2.088726540870738
375.96735226633643,43.18159869007528,2.8247254560543764
347.65532479403834,20.447523181675265,3.441999243650912
295.85950050063997,6.754005282348381,3.7913882433081163
226.117032497913,35.70693992644099,3.734172629159094
145.30585418856165,63.72739012154419,3.2052474416177485
61.770941648994196,88.18118418208752,2.2311651824030982
15.500886939282694,106.43542327189323,0.9298693102939956
78.44817901002365,115.99071033549457,0.4925241416961948
121.69650021859955,114.91370970589148,1.788356838153021
143.58050756344508,102.43109396981882,2.7543336982830677
145.97292560415363,79.38497544927579,3.315342857396607
133.11748318322657,48.2772568415563,3.4675916334373467
110.09138999475265,12.808414701049903,3.186532273569175
81.69094713637786,22.909939346991756,2.549136772254217
52.06881195169166,55.114535746596225,1.75576445929086
24.964523429202828,80.84647880589878,0.9427000137140444
3.96742999699541,98.04520077579048,0.17984259625672888
7.722972035462552,105.4205249487332,0.44679323081174
8.069749168185346,102.37001953838148,0.8225202544285372
2.8780177342094246,89.12387057467276,0.8105719637772895
22.552923497344032,67.04313309416156,0.3813676412787021
46.359744497445,38.816923493847916,0.31834739314832516
68.96977478111,8.288611684548856,1.1206377339031421
85.88184136468121,20.176480623275808,1.9660547624645917
94.51506758453154,42.602625386420065,2.8473705994747616
94.3710885054766,56.26510167269638,3.6636733470851355
86.35039866182855,60.1511140750053,4.20754651106209
71.70514790746157,54.856774378727685,4.346379973341429
51.271278180963655,42.08052575906727,4.070584067379571
25.40305302999432,24.011394058622486,3.34114396610349
5.43292831248767,2.8810676608534305,2.1212184198893964
39.826342025623646,19.175161174498562,0.4965962898234328
74.90278440027168,40.025645300580166,1.4093836755523987
106.49506046365983,57.40500974568886,3.4686010085545598
130.05244765968533,68.90328857941354,5.46183262590265
141.96048767837922,72.18401471863264,7.123890504481722
140.7247599714429,65.41336149988967,8.236717840142855
127.53098703656605,47.79040877544935,8.655332095060231
105.90579295134859,20.02936311397502,8.300936402306643
79.61479850661368,14.955322420229505,7.1972843775905
51.6670070538716,52.89322871641434,5.430783397573156
24.928074501814695,89.72914089113912,3.1460166116191894
1.9755416071384595,122.00450819389677,0.6318778234478214
15.081154401743614,147.031919985925,1.756158760208446
24.880254410220125,162.94238498791,3.7567817155005434
27.113142951228948,168.71427822298645,5.252010170992969
22.70459965700441,164.2518418774485,6.168231693694844
9.823090643222448,6.050758927908004,3.8319945146607526
13.581157068387709,15.412424143779614,3.7563714946102666
39.473771099550014,24.497344078235557,3.29085791405181
65.87641242797804,32.24683493520676,2.4015055834609997
91.49921782404894,37.177020539014975,1.0675317360483747
114.9257438030192,37.29502895887263,0.6711395328678869
133.55282353779566,30.63343891027182,2.716813657673838
142.85381989303505,16.227962708746478,4.987589197305528
136.91420585787102,4.724909117654629,7.379391906214941
109.97399167160717,28.477508962066427,9.636947938602404
58.74606117056273,49.40922509440052,11.403491735104954
14.8181827881318,61.36484333519845,12.357054889056819
101.78007616250314,59.37134804579661,12.301595888733655
188.50296657388103,42.321885264813496,11.176131342558124
261.29661947302725,14.53581377372861,9.018142085692167
308.55348772490214,16.55127309656356,6.013853849813295
322.0939567183734,43.55491861181126,2.4544283341061948
298.5566395072261,61.1121174111963,1.3748346606129882
239.07165560853872,67.11907934647923,5.190150364186009
148.9649055402838,62.04382064929729,8.717862987130749
37.28911672811137,47.47880197899461,11.683942567944598
84.11685649404349,25.242344948162817,13.803971080466594
201.4757435845636,2.87103220662726,14.84374783786424
300.69707929281896,34.30156911801995,14.697012809248003
369.2764673687913,65.05090127051544,13.394080562051622
398.3083928781646,89.90142259804165,11.03007263730586
384.2906428454453,103.68276369321124,7.861816926006837
329.84271319024526,103.23660006450201,4.348133634157527
243.30391269652011,88.76054032270491,0.9326877723233229
136.96373155846572,63.83704348515833,2.074349144438097
24.466016721859738,33.98721703748313,4.507354347785228
81.63743320040726,4.440863544293381,6.268882796927788
171.81669876738368,21.581299352262384,7.2709061169400435
240.49576573718414,43.29783420814934,7.527764726531168
285.60812403292385,61.38847132139606,7.1169935054904006
307.29890652990775,76.35662980391737,6.105354844036692
306.69116828456464,87.32964362592558,4.589828104037217
285.19770462466255,92.02691348284573,2.722856370877855
244.67535408845401,87.91112882878755,0.729721648005157
188.17374686273206,73.75652503546891,1.131898844777263
120.54603659652197,50.70265959505064,2.6509227260249473
48.41664266255875,22.240171941092246,3.7068049470491706
20.721554737687885,6.804512397748107,4.22001673208375
79.97198614279424,31.677268436317515,4.117781936555831
124.405698730332,48.79630829330962,3.440632522903206
151.78471727688444,56.179722556111756,2.301440095330213
162.41855452786604,53.32506585131369,0.7647291500971036
158.4300158278129,40.92194807936639,1.0876899760300849
142.9140584255131,20.7033435333092,3.0616512130555193
119.3751562989736,4.515285805568463,4.846034464016872
91.5327339900049,30.854033936520008,6.151614903812498
63.27106216315462,53.7590954819849,6.80480451852849
38.41388156331225,68.83178438591484,6.681679581322354
20.181934160442324,72.85843732117445,5.724703760865076
10.503989693407373,64.6494962757157,4.006143036281124
9.511998196104544,45.33710156086295,1.7366274368962349
15.527531012438994,18.032238039487016,0.7714167379966044
25.61583505128801,12.969815453716082,3.1830383739001364
36.480722078500015,43.10464369990776,5.205182289630607
45.32603189724801,68.29759544925129,6.628502617185271
50.34294199649526,85.46919313980383,7.324233880115637
50.731487380378965,92.80200641249584,7.257093465818155
46.38403676181273,89.83082905923443,6.489634064303965
37.456689866529054,77.4076676670035,5.1264811778141
24.100190806995695,57.52220102185227,3.3509498225707026
6.4626589664262895,32.96680122339371,1.4189682639094359
15.084333614387862,6.910484256643852,0.4709886300076245
39.598696491186985,17.50556937922188,2.1908030112902575
65.25463671584134,37.47900048424114,3.6275716697071623
89.22029428411746,50.75619463667495,4.667309959864702
107.85930102935019,55.78714053939171,5.230157090280426
117.30992944769476,51.907528252608,5.364486619775439
114.39288299508979,39.53288848768812,5.203341139574577
97.65784937664114,20.247990079593215,4.802874407617715
68.21009608393148,3.334070776273737,4.16277676554909
29.978046410334766,27.979280543735886,3.3736790066658484
10.759997567204689,50.38337407588559,2.6157828370939824
46.556821154518204,67.68123527610354,2.0444833738565054
70.38865098292156,77.73494753241779,1.6953820655803462
77.23128716855182,79.16307294411973,1.4673343875090394
65.21635161872602,71.27728740334463,1.2286192572666783
36.11276659221218,54.10617980805935,0.8554739819787875
4.919991218708114,28.599299739995004,0.21368797785906152
50.23281183345637,3.091639218637257,0.7263214391473634
91.06032547750321,37.52834877995068,1.9114076024638524
119.13938411307919,70.33490850094391,3.314770392623741
128.32764553976344,97.02653768230964,4.800712125016356
115.90937396142449,114.0511623130642,6.084334230936302
83.26986916682937,119.6219035764546,6.933907964389406
35.68829856966076,114.00919437701992,7.264993414507935
18.78063778276074,99.18899963611867,7.0864590406539
71.06526770566579,78.08370338434355,6.425791408034465
113.01917452448588,53.778887418140144,5.287129276031648
138.9900429543608,29.020707486976903,3.685615102006386
146.6001724505373,6.090233895437351,1.7664078729238546
136.67220618841088,13.134838586314068,0.15416156410335652
112.47742561977635,27.17039433042521,1.7627631781290856
78.65646736126402,35.087491035932864,2.919727914026874
40.20293383623246,36.78912609886657,3.6423102603166484
1.7376803203340911,33.18307556750474,3.9941340543177075
32.8553878688546,26.077057644881943,4.04541645441282
60.49683905619937,17.760284132836816,3.8866326434171166
78.84541505537378,10.43772939430421,3.5790345012636315
86.25970990300158,5.785237177212845,3.1787077780151956
81.91289430892581,4.772936332292815,2.7926926488421233
66.1060808619444,7.751351609003732,2.449529376379245
40.69976322011253,14.634502464526271,2.0459181972517
9.43891266260172,25.00819000886459,1.5528012946538798
22.111756652010477,38.115057290821454,1.1030107031653715
47.24447248411729,52.772500321613734,0.8215362352335384
59.45226939725311,67.37965530777922,0.7228927954226071
54.15197655220397,80.1021888214738,0.757214419293049
30.247345871815845,89.18573537192016,0.857740388791706
9.012262891243255,93.27308567677133,1.0057994837741322
56.331657287874926,91.55454396984328,1.2384583460167413
101.8788215823639,83.72302672814139,1.5211659862322158
135.5029458243408,69.87097967163895,1.7202068445487495
148.97001797970358,50.446280982562406,1.7103479856087598
137.60709207732515,26.325994521600588,1.4148820362281516
100.9910440771947,1.048401773573896,0.811281820772711
42.728059880293,29.636757083781696,0.0657952232379943
30.352898638519523,56.990982080297904,1.1486069582320189
109.27419418157108,80.67463118123509,2.3443023763855075
184.06292906779518,98.76497491424027,3.5399998737392075
244.95302150503443,110.2142682895841,4.571066255673387
283.67229790539625,114.91435857555035,5.220643417538938
294.71472322997397,113.49405385559405,5.364897915497623
276.31560195583444,107.0035155515369,5.042447304627069
230.80362308508055,96.64694390849645,4.336831762558606
164.1048528100702,83.67130877319643,3.3146029211276105
84.47555647803291,69.35156687533335,2.086767889732175
0.8821783745322181,54.940523510930284,0.8496544292682223
78.473080826164,41.507319930794424,0.16353932608415653
147.05910464227767,29.663856558836677,0.8039393684285167
200.22141880435538,19.33101246572092,1.0791541246506988
235.01450553496423,9.729446760911763,1.0746335375883906
250.0817954345199,0.345245500365747,0.900125230350201
245.78273222930812,12.04850255621114,0.7191750486343927
224.51024294536924,26.029511250974412,0.6816681057139005
190.8247406856276,42.1945403012097,0.8748168863293461
150.99022982107567,59.74893952843252,1.3382277810818577
111.81449241965898,77.44477693038272,2.007546225153287
78.64418476481087,93.64249987915441,2.774580790087387
54.65677395100256,106.6553684348867,3.5197381774111727
41.2442086724257,115.25124149648364,4.087265249612924
37.88941954960923,118.71932175763736,4.387368646904437
42.45301208845503,116.86700896269014,4.409866836490718
51.756481260467055,109.99990517865345,4.14013120594406
62.27296428090776,98.89964679927192,3.551589240321672
70.7541814338007,84.75722828713943,2.706336298866555
12.27076005736514,6.415847168160508,4.6696217127835205
0.46559549710013676,3.9113682996315724,4.267926759695562
14.634685235551187,16.006244893860984,3.1602466465135333
32.501188444265814,27.891496953210652,1.3581293719588052
52.03677558679821,37.67025976300758,1.0099058728860302
71.23013577421659,43.926254259951676,3.7286049491284143
87.11131715208101,45.89133179964407,6.502542542658341
96.0101705816246,43.298697639120604,8.969364749555524
94.37139065769722,36.169101314141045,10.773228596335162
79.6514418702066,24.642465589400103,11.628952761238057
51.19772576658145,9.04196078415976,11.330520629904818
11.23872393442785,9.671107720925255,9.799434647687598
34.55933830740805,29.328218077851936,7.191626424662646
78.90706941814112,46.93557355557866,3.8712068246817406
115.60531727695577,59.790879762730796,0.26546093497174167
139.78112889805584,65.9328284483998,3.195965410860644
148.04875169676694,64.42927836517576,6.065005109250957
139.5562296260928,55.68355924274676,7.900244990953668
116.06733933750985,41.08747154085867,8.384346622560582
82.05085512758654,22.633022920941137,7.4509898708074
44.100057094796746,2.5885268710754388,5.312470482230916
9.34950465591681,16.726431289341104,2.4049453221537855
16.16985811302274,32.857780202919685,0.7346829530739561
29.27903396113583,43.28699301019313,3.5839393158471102
30.48202998941172,45.74154041264679,5.652908377156641
23.642973036753595,38.81523734411113,6.550332227566366
14.731538534946205,22.743571936030687,6.077370094121288
9.832756115951149,0.1520943522924596,4.1921875058630444
13.386825723647181,25.58313992946659,1.0122177287828034
27.055109430817108,48.12567213609707,3.1172377605819075
49.51975113287311,62.490558543917025,7.639725809520653
77.1495595273223,64.75620897422377,11.902154042387588
105.07172331281532,53.21979436646973,15.319041911091713
128.3797537658383,28.66353277275862,17.41710499463865
143.07897532619788,5.858651799146951,17.839271300430568
146.66687850569141,45.52650059553141,16.468459741274543
138.35329499570295,84.40743398311427,13.507513956105898
118.89868592805763,116.24689759199148,9.412405710418263
90.18754833560567,135.44382007590866,4.709228317008256
54.59963190862056,138.11448923878675,0.12584636537886337
14.370761038975218,123.00251349479629,4.655338371682188
28.814251839565344,91.87263060564531,8.506015768075573
73.82173236388662,49.150502913269314,11.417463423342104
119.60322537427993,0.8746669934923671,13.27330896965325
164.48803523746687,46.661880462381326,14.084630857973409
205.57681867131424,88.02391683645045,13.952913932369308
238.57810047236586,119.16910355030153,13.06962408529733
258.3018009602127,137.45545445581035,11.652828992119492
259.7134346106462,141.4498825191624,9.915194037509188
239.21217733866538,130.92321102327344,8.044820451815736
195.71301798653067,107.13907264509065,6.152688500104315
131.22068080608904,73.18472343725506,4.337173386244972
50.770812058003386,33.89917514688519,2.6855880174738402
38.198556150535886,4.885232328788682,1.2091575211710754
126.8572627113429,37.640987047230155,0.1328913474517157
206.20095347313264,60.475388436439005,1.3723974023257528
268.2936410404447,71.88214456198197,2.4849051765991685
307.3653954405886,72.60245718987626,3.4336042039950323
320.60391965083267,64.79447635863828,4.16509591675725
308.3864414892494,51.07101908263227,4.596741426592278
273.832402659222,33.94794188774875,4.716640602867075
221.83345827832454,15.846930576145256,4.604519369343865
157.88190087365467,0.626511550116512,4.373218955067998
87.15306006963489,12.638714369809435,4.080315673139569
14.164460697298676,17.6830147974863,3.699235507393523
57.025865757072864,14.576642633782228,3.18724498996621
122.38489895724445,4.314633429660872,2.5122195699390293
177.6777427029182,9.83817285128987,1.6900793977906698
218.75845876663087,23.256506148095756,0.7994826009829852
242.31987585106125,31.510775315792127,0.06733162078227682
246.73492841416513,31.834968774602004,0.8339991235894256
232.5485700089763,23.83795843098131,1.4469616330906707
202.3772734481819,9.215532065074317,1.8384378224268199
160.29595256955938,9.227731990833457,1.945221080138286
111.0426084481693,28.597138583563428,1.7864283591861951
59.38007771694914,46.44838088923989,1.4512120570825036
9.77253510149205,60.75544136623118,1.036968658042905
33.71071678483917,69.61299938304535,0.5710119076811805
67.54882110958135,71.14721991132357,0.009326439941160522
89.14691837697116,63.897481603535006,0.6451679091806732
97.33955237355369,47.51120330436792,1.3120348370556738
92.78602424781735,23.31149201235843,1.907419435716442
77.97813255750313,5.680067572664583,2.419000826252685
56.770377308818205,35.39346773679622,2.906926147609154
33.64131469528673,61.74226423143654,3.408802226597793
12.989858693447918,81.52921254593345,3.902021110170042
1.3311527801674514,92.86548607034203,4.31770684130902
6.270482422364006,95.03746506097823,4.521012007945204
0.1313774218936438,88.08539897096882,4.342492820810107
18.186772890849785,72.51676319914928,3.6516567531948763
45.804164485741595,49.36969968799608,2.3775962357897114
77.93397371912621,20.551627353216254,0.4971912445458317
106.77753481543428,10.837326955831902,1.9346708910121375
123.14751537409319,40.58334176206357,4.702506208619581
118.86113767000423,64.03221685966399,7.414782736186825
89.46512214468825,77.19761044978915,9.609579207925353
36.2544020315478,77.89695456555496,10.88120095804132
33.28528634390244,66.47123288935623,11.014437299731307
106.89219690944712,45.78902149029045,10.007771106612042
170.3682355673572,20.497717380648925,7.952216524492577
210.86549303308823,4.198255627788802,5.028735200666956
219.59255650434181,23.796456060270597,1.5621358121129374
193.26097612186706,35.40478015688169,2.0236011701125767
134.15853302298086,38.07429420722332,5.285353137409643
49.283117242376846,32.57665339030942,7.834418515155203
50.91415080957899,20.83480506158868,9.363966030496748
153.80544765635108,5.2967102268196244,9.705929954142928
245.83540477962455,11.513393663325541,8.89437128789422
313.9679820676845,27.204465167919683,7.132449305683862
347.455503994619,39.58282990214342,4.717143553276437
339.7533652906311,46.76311014472883,1.959633825439537
290.06435967032434,47.469717843894536,0.8342256101526947
203.87055588414205,41.463147504636865,3.3495263313749932
92.0731633111709,29.840671978602426,5.296200316150116
31.12038410767538,14.949753870901894,6.469432222306698
150.88582124547787,0.1786682259292872,6.804035188830858
254.20825947655842,12.730881149002935,6.317678347895139
331.3883659633717,20.97755961661287,5.0530182310589105
376.4360647124881,24.677306854517386,3.1434166482569026
386.7276688226397,24.835180329016282,0.8132420657852197
362.4781825621913,22.98485169761896,1.6737454875015976
306.48766267738614,20.378523756201407,4.040592902486112
224.28078177505824,17.530167673779683,6.013695070206365
124.27962562861802,14.32551881099995,7.321360485409656
17.539403245147412,10.532993071506839,7.78568982182751
83.28436462544643,6.352117788754171,7.421214946767905
165.74167692917288,2.6373262152048462,6.344874491032408
219.7519496294281,0.6459355127271172,4.658564068038768
239.5140304974055,1.4742841745409399,2.5492615929619173
224.59368097355244,5.543133290192133,0.3490242526627598
179.90731757259306,12.441400459881486,1.65534721142499
114.64618321029431,21.16222565546167,3.3081273894618732
40.43950523793351,30.516470767180778,4.527400877797917
30.76568637138226,39.42736566447607,5.276095147001136
88.6364591672729,46.93849550751318,5.533700567515724
125.83138949725189,52.011940286115916,5.3371554584144185
138.64769105503453,53.346718505052166,4.771161580696317
126.97038000112333,49.45828262828104,3.928308086823142
93.70131808600539,39.068059302088066,2.9623391552556058
43.96061213423844,21.626632431814894,2.0303172535568774
15.687396133137094,2.259656816478622,1.2247649959358016
77.89364779706744,30.70843849873563,0.5953065746392948
135.3032658703978,60.85637174027425,0.13015831815716006
181.70406471868563,89.48100147789509,0.2062755207437499
212.94397395520338,113.5889081735603,0.3937010530391698
227.2655305774778,130.7904411033953,0.39407562842232075
225.29334314806871,139.54174624627865,0.24272433550999212
209.65399555878335,139.27229392271192,0.009878229027022966
184.28001247265883,130.4393197727094,0.3499501049209595
153.54119048682392,114.51466777165307,0.7050018135509593
17.44749784711127,10.60389472231047,2.4497403742042523
24.065314418617657,16.107648190746612,2.000734297615928
28.27574814980384,19.87447433772334,1.1958445678786516
28.574286452910986,20.69744803810202,0.10892076978649977
23.764648954416813,17.812554350424254,1.144370636944575
13.256738347682251,10.981272335132148,2.4281532884755936
2.628600958060357,0.5125228985377607,3.578438657465087
22.53060633851925,12.743929872870636,4.417679986037849
44.05604855157833,27.354041736589764,4.799605761985842
64.08536009488097,41.33682057633511,4.650794211759567
79.22786824047498,52.33224077958148,3.987918589594381
86.17081711199269,57.86279202194209,2.918253095014265
82.05360330282028,55.72550688420577,1.6469003534326394
65.62691630607658,44.833040050617875,0.39468056544734303
38.23968148958874,25.98783996551172,0.6979645302447695
3.1609793697147857,1.6381819748136441,1.5129116868850274
35.196989270322675,24.770847459378654,1.9331984486654308
71.6287550673489,49.420255503071516,1.889650444328501
100.93960981894855,68.88264275450607,1.3473190818564957
118.59116245565565,80.54144623977949,0.34084605199154233
121.40212694881617,82.77244627240508,0.9885261179136622
108.29084756632678,75.08459387127343,2.4456793270289747
80.57087900309658,58.17520897928405,3.8392454308335244
41.95682860024198,34.05400232415488,4.969883533066314
1.991467287271276,5.978988724622178,5.613493857688424
44.7979374823647,21.93917073390679,5.5791840807005215
80.09085703780015,45.465681222556015,4.752003453265023
102.63448173219726,61.20729857920789,3.132251187396511
109.0684533748056,67.39853346732274,0.8923476719461279
98.36324704675764,64.21157435029083,1.698652798995209
71.91570964761857,53.4228677370587,4.406186448391106
33.2702940199409,37.59400242584616,7.014665921752632
12.428651140343533,19.22026091015244,9.26083165486812
59.212450459673,0.215206708168495,10.873576329372483
101.07511916899763,18.050708311211782,11.626261399413309
132.63055409741435,34.288924091227656,11.367272697299587
149.5865965524198,46.8174320745153,10.098689380188617
149.04971573801032,53.47045695712159,7.999682142000665
129.77998177485293,52.087233522144224,5.347931614206196
92.4755411063885,41.40751649360272,2.446426652799581
40.05441878379688,21.932231688934984,0.38078862801726826
22.300615484296507,3.7366803469151546,2.7788817819265152
87.5918700009213,31.323788834641267,4.446471251693741
148.01656395662795,55.91449227682324,5.242506497966022
196.36065155970869,73.16092233241221,5.174813665084739
227.32921992202807,80.17781295099176,4.3500766454723205
238.31839084457937,75.83544115901898,2.9866595467108326
229.38856934232038,60.516582459585656,1.372445761381166
202.57585865566227,35.6995158852855,0.2430101784128086
161.0048621903546,3.7275960526310254,1.6193191946723173
108.30656452991255,32.129784119886914,2.4722692243933744
48.54903121856245,67.53426717417119,2.5791382537354677
13.522106335894666,97.25349144313547,1.8710364122096699
72.41531491329543,115.9433973153656,0.4505834700292945
122.43739647443243,119.46373468130186,1.429871681169721
158.89386848500874,106.25486892427452,3.4460455770282215
179.47090594286584,78.10344489337024,5.283287767423706
185.06734175188558,39.82856129240968,6.698110646722946
179.52861713852556,2.075561722452877,7.545042386787923
168.2434225262666,41.29677240739592,7.7961956780537776
156.18047218272338,73.25475491939017,7.506852569436422
146.2697141141883,95.72458010937227,6.744303177571855
138.80013119292173,108.44905301651904,5.609029281842497
131.96543967476106,112.17497077945765,4.237880487807005
123.10519491582562,107.75871962564224,2.7707990894970504
109.85406848728802,95.82472901306853,1.3143573095036276
90.6450637784274,77.05587545501945,0.10210851116654907
64.54622007939362,52.74648025942056,1.4239910271990623
30.860663406375405,25.110578224825947,2.5263158516014688
10.930374313140677,2.9296505910338912,3.3473118382667852
60.602139702112815,28.4112366322661,3.8928882908843727
116.2436230115307,49.08072330646213,4.152449715846165
173.57405020145566,63.81080770831552,4.093633914696686
226.1350477714987,72.52390353841197,3.715825031333862
266.5248782908085,75.77093781062447,3.0755050007337856
288.2642793882806,74.31761444364247,2.2361499873685555
287.5045527581766,69.01058966763992,1.2947521616946183
263.8712673267261,60.92030839009707,0.41769926824778264
220.1983498838133,51.54064660507845,0.22266608079648326
161.43579967724864,42.736378577055326,0.5201785666186113
93.36165299208733,36.289430923429045,0.47836215507165203
21.66244577014704,33.22900463627691,0.1460163098500385
48.41015877084428,33.3028314061673,0.420122276693495
111.99010992462483,34.8811966371287,1.1216729246542132
164.57609270542898,35.39243504647543,1.866989238453636
202.31395229928654,32.11873144960281,2.5906675903347662
222.53447114901113,23.009768045791944,3.238916203606839
224.29397262390418,7.2219272373228,3.763253117234223
208.60999500451783,14.726692651311753,4.116763604953423
178.24012251711673,41.11162787043629,4.2771401047377795
137.12482435720264,69.31769928824353,4.2425366980938986
89.7830838846906,96.1834657965237,4.037677212677197
40.88552938176124,118.3393341506432,3.6744193955815505
4.973199992516281,132.59501732693394,3.0963749048374223
43.442154165627194,136.40024411296656,2.239207157313177
70.72187182985553,128.31762582417372,1.0526980154433856
84.08245621159782,108.37852779934329,0.492532309029116
82.45550354166299,78.1971158015915,2.329699811479381
66.8712065261951,40.78744069630341,4.289931830257112
40.50855047917227,0.11849028051217549,6.133702108042095
8.265456781121404,39.45020030272429,7.616151041986777
24.041497236682762,73.72753038383827,8.58284301230302
50.62999174667866,99.20051322066811,8.96827895991906
66.63777530204523,113.44099280284912,8.73068975726734
68.8173512902106,115.3842385658249,7.839529684818473
55.98964826799328,105.46477875016313,6.334141327496676
29.220072600087946,85.56228986865844,4.357328486806994
8.302947675417352,58.74314950131532,2.1318055751410796
51.68534946220283,28.823171144103778,0.10050367949042414
95.0036270486027,0.15593234239400114,2.1403258168106043
132.15080238545005,24.431435746723892,3.837863995957263
157.7032183627409,40.962426603598644,5.08249212288182
167.66191098896292,47.78371482359364,5.786351875064049
159.99410796909257,44.2673242102569,5.916025725752565
134.93270294178825,31.280904235165796,5.544255966904078
95.01511598515464,11.16569434060249,4.800518684955339
44.833996679278755,12.542967872985386,3.8137606846124963
9.566801852296724,35.64855877789343,2.6822888544877426
61.62793703272698,54.006229285738215,1.4420689389188586
105.37940178307177,64.25455045967395,0.11236060570799679
136.4297265578653,64.35292528858658,1.200440046157446
152.51816212354498,53.81270215756708,2.298420797304194
153.49067155445834,33.64579835130552,3.0136623894667016
140.81982573368413,6.147119042844538,3.2469892045927957
117.00162756154324,25.3719847823249,2.9397500808773684
85.17866888993349,56.87370470683064,2.1002683709261056
49.07622247777476,83.94768018998498,0.789798167379939
13.040389963808583,102.31307793415847,0.8883016104366782
18.19571390515077,108.51336398254085,2.7600170245231053
40.286882365764455,100.68629749373194,4.583958262774639
50.47440727352257,79.15624127320554,6.081989515874692
48.69457288819333,46.60113767675945,7.0108234052132286
37.940027971718386,7.664125036941267,7.195814892200984
23.537742827975713,31.948773171122326,6.537495511990095
11.568883263717728,66.62332333848734,5.047861987723925
7.04154488846434,91.88487493825778,2.808273499640797
12.584052429149278,105.07407955559651,0.019863717011587817
28.1459818792245,105.51201622823547,3.0984847008226497
51.55336530277561,94.20462600999954,6.005595925709978
79.34221116905492,73.30919277337009,8.410622964911905
107.30235422237647,45.59501953731957,10.084435714466784
130.55219361822554,14.061237088797249,10.857193767715314
145.00815962730232,17.614378311849205,10.709090642118767
148.17454604490604,45.49376126153538,9.768786706305002
138.7018765744585,66.66688555357686,8.193286383426466
116.99730719059241,79.68748881935196,6.178540385124417
85.64342844968873,84.67227003484287,3.9794037288764006
49.25073489626398,83.00801651241751,1.863470678356836
13.556732439752945,76.76980266256106,0.06281715430611375
16.023067822018184,68.06028711542251,1.2726504869004935
77.95126587881619,18.624074702839035,3.95427756038886
79.19593283174368,30.643043742095923,3.666887556675415
67.70146102254122,38.450874217714365,2.9126746980447087
41.77013653201104,39.60869971448547,1.7457284667549116
1.5201623057701832,33.34217693929885,0.28768831173121384
50.81630391291113,20.553004199042963,1.2945608596758895
110.80184187478395,3.2822157188894723,2.8527483331739822
172.0938619247376,16.068924907436713,4.287908907303816
227.1015475013583,35.19936408481216,5.517556238769458
267.96969473687886,52.02638368351073,6.450694583750746
287.56431009738645,64.48871414844852,7.024451907889956
280.26823580836185,70.13224491633714,7.265055177029917
242.85379762124396,66.02617860692183,7.314763305613203
175.63291608281523,50.2388700644519,7.392212451849909
82.78861120833125,23.89801712901011,7.652223858342914
28.536953393240747,8.688414316242966,8.035966744407567
148.7662446054605,41.11770688750307,8.331362683479773
266.0939355237547,66.42828337874285,8.323579944276446
367.40044057768836,79.28234135172612,7.788912843655914
439.68048491286345,77.32423020963469,6.527011642819513
472.1937197532734,61.42958369319411,4.448409897672114
458.830574542339,35.062954094126034,1.5481827050756383
399.6596236798481,2.921466265992456,2.0561853970703283
301.2619263893513,30.12006460726568,6.079761429512495
175.56201839451614,59.581658341315254,10.168679554495254
37.64493763778873,81.48944080074556,13.986753395429288
96.6449927295258,92.33186757236933,17.235212771099466
212.786789109062,89.41294343075326,19.62755256950912
299.05917394153255,71.53075878384178,20.87757892990746
347.6130818987419,39.77774604421989,20.79605039247136
355.2924339028274,2.066012417426935,19.362722358927176
324.1772228605777,47.98528317956171,16.677097645322355
261.60065013323066,90.93092499356526,12.96945784870534
179.21734927529573,124.400037176302,8.613155428671243
90.99806829611396,143.7972468017963,3.9914243874579123
10.497446326915874,147.1081402734414,0.5531355836621006
51.811320340667166,134.7680230297563,4.712481990539256
90.28493429273328,109.00166629887454,8.301520663023204
104.46889534927467,73.07757961071417,11.217993482987625
98.11539006713738,30.75368192980407,13.350045933934448
77.4282064125596,14.002672937110127,14.630666819189566
49.285678450681814,57.17502656840379,15.06375620830638
19.976680514766155,94.93514441844383,14.698200081649254
5.392441874888491,123.98300985520238,13.630767622545589
23.034218177379824,141.92473279606477,11.982336906208378
30.536291168132117,147.54438405291629,9.875683137889407
27.044491108937144,140.84451996197384,7.435507478450419
13.485742066119979,122.8892905963708,4.790866627168874
7.401067598160003,95.59131483888812,2.109992146013436
31.428667084897555,61.57322451951075,0.39681360934123994
53.7410641118688,24.102368971887792,2.545259970874175
69.79655800682812,13.02280027159217,4.190521423409893
76.2275215256641,45.76002355633485,5.200156163802314
71.31899525403962,70.34544909542406,5.488544030325932
55.05568765735923,83.9684973877028,5.086240626412345
28.878599311195284,85.38565531951555,4.153102276433879
4.648950020992289,75.24493852792956,2.9155109241196344
42.13255458022178,55.99317528336207,1.6343542469108965
79.57180151709707,31.405460733678837,0.5413408698332903
112.59259882994816,5.8882462035276495,0.25394416287567334
136.79544991889156,16.24882773576357,0.7148888377778817
148.25800426766108,31.42349174813229,0.8251432267139226
144.13450095368842,37.29576553423858,0.6194557236910767
123.21821258090613,33.130627477598445,0.20981905659304026
86.30050975128233,19.960451904142246,0.19953953639350583
36.21459170661954,0.48843166414341666,0.38601579414375153
22.468013049720515,21.355834292989993,0.23207975275234766
84.02010103974828,41.19265922197645,0.24031613733210874
142.26351819679775,55.14414035933641,0.914950946594594
191.2282412816356,60.67551921664552,1.63882132146072
225.63052990702795,57.03609808592484,2.247021635157585
241.1635411909884,45.1897878702621,2.5680102206973805
234.73415439534324,27.331858387169262,2.452133896034759
204.78384715852363,6.272769039643298,1.8143565486165125
151.77271307162493,15.050734654366495,0.6429036974418156
78.74590120536955,33.82992480436007,1.0014028904612864
8.284454553440321,47.45985415144438,2.9460639004054774
100.4648486141276,53.68697958920154,4.895625999506041
186.97034424605073,50.99878358300319,6.509282732131715
256.55822177086384,39.179424749591625,7.50559424429459
299.44665508756134,19.788657737584014,7.690098318315614
309.05777637764896,3.786541949263482,6.937887706037612
283.19664707208796,26.93179062915711,5.251406479979059
224.44717557036964,44.94028117675143,2.8434057953444882
139.8276054974803,54.24526645817589,0.10998732461832808
39.90858462515091,53.238927844438564,2.492253758943617
62.41253453002339,42.39159931751331,4.543081875730198
153.43322812101346,23.730535375505344,5.702322264233045
220.43126279886178,0.046171970610128246,5.768791589183652
253.62880379210247,25.728309394984702,4.765418062593292
248.1150094263715,50.713549457293276,2.9596694636302088
205.24175754243453,71.96288091080093,0.763567165886033
133.0016241552543,86.39608254185556,1.3581553347919917
45.091059154851756,91.0763837928372,2.9570697947720297
41.36810445648036,83.87682216357993,3.723140095413542
109.06935977956485,64.30549092161577,3.5151019372140486
144.06336060366,34.0379739988109,2.357161422359259
138.85059634647675,3.158101668593353,0.4946688785171303
94.23388273883752,42.09455979695217,1.6862817960829521
19.337619184142522,77.18321316423615,3.79860708548265
70.11118007027048,103.43101968791945,5.4949324751906286
154.87538608763043,117.10276823320304,6.484523415665295
216.3244866177125,116.02668385900685,6.5846446264660035
240.45803958807613,99.73692422312882,5.784294635208622
220.68859184526914,69.60089560727444,4.242867401582673
158.8812130480105,28.90779760120898,2.2504270876367607
64.39759982060643,17.27356674442561,0.17150129597530867
48.295396887681875,62.653630174312056,1.680555444312969
162.50968778044654,100.6862231982179,3.136274997796237
262.04378413142274,125.74016692963383,4.140034900250066
333.2362126234041,134.1234120974963,4.691168380615716
366.43725229218967,124.63629479852831,4.834131849151733
357.1394358404409,98.5875130726208,4.63597046650183
306.7463805008658,59.4197747962487,4.1629088098980045
222.71421741075116,12.164219452578132,3.5248492390620036
117.58193130573603,37.14447853967901,2.8407372445575922
6.64982246493248,82.11277303252663,2.128957809046506
95.22166133054131,116.78181927005086,1.3457051473096933
176.5980352469114,136.56962218147714,0.49779310867288923
231.361088576918,139.14687331084076,0.33852506605427546
258.934050546911,124.90573393248683,1.1047214472434874
262.648791357814,96.75841799217845,1.8278053749429535
247.34201953324003,59.28253436779253,2.5755301148891294
217.55038837232584,17.555264284554834,3.3997633255935997
176.9092949381599,23.8404318921766,4.27851873129962
128.80037118767507,61.259178300387156,5.092989559862494
77.38907068136189,91.8747116054813,5.702918044880393
28.002809672000343,113.34380667488665,5.997500867417669
13.572021450167469,123.65627008262135,5.87648026409236
42.64608794385377,121.41021245824766,5.237784738410437
57.12871516642466,106.41259163268383,4.0408475340569865
58.11198225957573,80.20984365848285,2.3571946496119422
49.25674091090767,46.16200489547821,0.3365418996588531
35.37962557519118,8.908212993456342,1.8012016021505888
21.066213401380182,26.58926802431405,3.81403381271256
9.900977272594378,56.011090617285404,5.521423146921934
4.4340223811500685,76.31491628661125,6.790596021970884
6.493843119566728,85.9169743254128,7.524533946432674
17.277690583595387,84.54808432871663,7.6626766553050105
36.98467719233683,73.06397858480595,7.198508146726174
64.19137341134247,53.371149266329766,6.243340853034259
95.504235330383,28.39513626845712,5.0046093664638684
126.28273443927992,1.5622115248179207,3.6996451750069954
151.81951059146493,23.769567149218776,2.4903800927058124
168.32741365855364,44.640107345411295,1.470166159437633
173.8203263410202,58.9731895555482,0.6936428772254883
168.4105177720706,65.91866892622677,0.18832412899848838
153.93552623760854,65.89416640227459,0.051833586886579006
133.1702030965768,60.29879957292598,0.09182128404439678
109.0320974087054,51.029274564417925,0.029059486278748096
0.1763351190055198,17.165432678135435,3.597512518460885
7.891855835749516,20.046054761753208,2.7368997448178107
17.946569618986256,20.127876026375663,1.3299650894135617
29.21084670575345,16.08331572484269,0.4886676984823504
40.0123217719481,7.062496506234206,2.526117985171779
48.26487607595855,6.951507640213455,4.526843832944718
51.67715538869695,24.945008251472387,6.192788245746451
48.068760467243145,44.901365713804886,7.269599725362741
35.86640550316101,64.01897939436273,7.612288106693586
14.641488267406395,79.09406684386043,7.170577535271753
14.462344094946918,86.9690961462828,5.995308327273525
48.53629720837796,84.98345710037029,4.289672340704531
83.11924535904168,71.4649377138955,2.4363719732992077
113.11171419465207,46.33330784717224,0.8112189976603414
133.9265390280365,11.428152043490314,0.39977992711142674
142.0740242706384,29.749890664357412,1.1061882063983621
135.50042347131617,72.46020118080493,1.2932465903763224
113.75668472592955,111.28741468186473,1.0299506488360166
77.78389802788031,140.9971244196598,0.40494228580137454
29.828298375667828,157.34527581770473,0.38503659372546234
26.444656417663218,157.75178139047136,1.0659419773549854
85.81796082293414,141.6903791367863,1.4085262950134836
141.56144239952155,110.65698763495142,1.2372837347970689
186.06387660687017,67.88210635932289,0.4605026090892878
212.097800346657,17.868457035010863,0.9137366726049707
214.46516885014773,34.120464043264306,2.7620606316018255
191.47242958395134,82.57285346095476,4.860838388178284
145.59162760330062,122.27909317243204,6.909763587528475
83.02609328128702,148.9073162002532,8.538938555010006
12.301911507877392,159.5966457143262,9.462218163149615
57.547642575855875,153.42559745046478,9.60785041245721
118.5287350863949,131.60617674027168,9.06483315966898
164.52783427955669,97.32844744720803,7.926247039060953
191.42623235197252,55.24641025531708,6.203441807251186
196.9017020144062,10.728017008047532,3.9393695563006257
180.41288643050726,30.949771850455782,1.3069326498526337
143.59243430295206,65.27342351801595,1.3882052641439775
90.82570047578191,88.93314777805024,3.7831253653945
29.429393372972253,100.04066736301723,5.648290363757823
31.154564734430114,98.16300962640412,6.921928883814695
81.27323782546603,84.25751074290378,7.556901626900393
113.55579585488384,60.579994536153386,7.457219737968513
125.01771278628863,30.530837393944054,6.570584055408654
117.7826416502333,1.6399622482047949,5.006742562297721
97.9723861597639,31.31840526391971,3.039218575693669
73.20941028843468,54.19811173748934,1.019871991501628
49.87734376022634,67.0287921921849,0.7897108634481322
31.390777719444074,68.2318758677327,2.2669414064607762
18.161170212489324,58.180179050207606,3.2296018604454666
9.014801856944194,39.05345910094749,3.454294654467902
3.0111598556879806,14.310440696728596,2.8609959983844626
0.45729079929310934,12.054217496398797,1.5198921737946065
2.497499645942371,36.205836801412694,0.33576279923462987
9.584350644767138,54.928987387568,2.3202911191499482
19.928812116945718,65.83232448580293,4.049447036166543
29.114685048132426,67.40738255045326,5.263367173578465
31.352761575370202,59.10787088685431,5.803931292426493
21.868431254781406,41.54783239946292,5.553747045037572
0.8043782259774893,16.738804747511203,4.457380967474269
33.87363303847981,11.853003303939516,2.6045618678631515
71.19048096778288,39.647187560779635,0.29981202052508
105.49585502960481,61.74414138684663,2.0264298788795507
130.82546636681286,73.99739979286423,3.992777041798073
143.89798353319247,74.01337605494562,5.3494028727636325
144.02925510332682,61.702108514917775,5.99708417430377
132.03854458797906,39.191271380612825,5.88853713750679
109.11715624155137,10.215602261023593,5.0080473437921205
76.5043716397625,20.73519948501879,3.52329091764193
36.12947167999612,49.21245673440462,1.6957233362310398
8.421619102097608,71.34288507328394,0.2710213084936955
51.538902145532305,84.1162528852104,2.170532297879413
86.41689017493422,85.59986718871727,3.804130510392443
106.96720043551915,75.19475639688497,5.0470298356317125
109.97022459635278,53.911369014038584,5.829669325520115
96.3879017691135,24.500917675904674,6.079682481540526
71.17711072588867,8.76997303706316,5.703520149884129
41.70104555474363,40.78400962923086,4.654306158659197
15.469225657292428,66.56682591176029,3.0054154347635467
1.8585571493554132,82.30065911689675,0.9450042063619162
7.513546147479492,86.01394534034286,1.3039883628499154
1.5886365345224374,77.78646949481794,3.5199067311243466
13.665534522020012,59.49002079657113,5.464086444736413
34.702678878965735,34.241099904802795,6.914818128031216
57.36198436675106,5.817810952987776,7.719498045108023
77.32350842602025,21.825548650018998,7.814302049373664
90.51253680553855,44.96060834190754,7.214702147569552
93.6231581956281,60.4601298591134,5.984628679213153
84.74323829792392,66.17894130948734,4.214407453815236
63.87084253078989,61.31636478704258,2.039251258760102
33.067830642595005,46.63760540823032,0.3375444531891273
3.884746896039912,24.415452054830187,2.6644045720837077
42.249417567461165,1.9280653291014616,4.663302604451932
77.2622371559988,28.399457894530908,6.0828371844644575
104.94440913728077,51.0659755728672,6.790387043518067
122.60441907567478,66.58608635605091,6.784177736110677
128.98954288800152,72.59687956808037,6.1355127223176495
124.14985629092119,67.95333690510097,4.949942755904821
109.1252681206524,52.87051153464615,3.394673282523809
85.58099224218395,29.012695196917747,1.727055874192542
55.48872385690232,0.5645893849211642,0.19932915235183576
20.91013900445713,31.710650127048947,1.0484751802697965
16.064940728392077,59.7366259526897,1.9570543421832087
53.204276212241496,80.18103371486974,2.476206111868762
87.92563291198395,89.6022915179578,2.5964807645091876
117.15113618299192,86.1980613583677,2.390386044163098
137.3667247207025,70.11569334034125,1.9772040687266443
144.9897276290392,43.419127763405285,1.5125535320648467
137.0508664114385,9.77986158423644,1.1470781002922028
112.0385559844772,26.003393734445346,0.973458684063921
70.65484341307068,58.57253423328373,1.0235327910547631
16.22016839779941,82.6740207730775,1.2302273185798394
45.48193884424292,93.938653502908,1.4907360135501928
106.97509476136942,89.69909927293935,1.7647908216551536
160.3328253379099,69.67701336401184,2.0176989720619773
198.60798609052054,36.30880299260887,2.1900627987895045
217.0775787940472,5.483418689874301,2.2283667575982613
213.93755432213305,49.110118407844475,2.083146680694795
190.24904072555267,87.51895803329377,1.7325056395234104
149.21999597884883,114.45137324725636,1.1743344288482227
95.18719083962573,125.45871746769528,0.34745059536023765
32.77054101979314,118.4772992066764,0.8220450753752822
33.476878203068196,93.95097901340611,2.2679892458373
98.89694835360041,54.647542347207754,3.7978446568333326
158.3436233334398,5.28923956798193,5.190984314116125
206.10114850405407,47.96422056103925,6.230701324170272
236.46791767275738,98.20682873143694,6.7064502232981065
244.952196002219,138.66747239697213,6.421078775007263
229.62287063976262,163.7127552399315,5.300274350410388
191.9763982981066,169.78677397405727,3.450303207136833
136.8632974492784,156.0119534088168,1.0798876952164125
71.48739292434823,124.26310670143305,1.489760172699455
3.9193368662643615,78.71535015364725,3.8407499053311027
58.25888400934461,25.035868361469323,5.603813963219357
108.76376818495166,30.51124270321796,6.528962530195419
142.91685089242864,81.83137375241938,6.4958447051059185
157.80539847478985,123.55141640319708,5.548589762302579
152.66173534972978,151.42522507795357,3.875417742747356
129.4880691153897,162.6935368426881,1.7712162961098707
93.46260095108642,156.39976060924425,0.37919872477976074
52.48800271613402,133.6157692985504,2.1845289076731396
15.561598567907021,97.46006078563124,3.3484343049823444
9.714869991980915,52.76431571643283,3.7175065340573723
19.247010031783088,5.251965568258724,3.301254385156444
13.256856499898463,39.5437963366311,2.243978380308878
4.146302048079645,77.11866104200588,0.790764462073007
26.511958054400466,104.46365709212695,0.7459231646696791
47.24402922056086,120.21350282929065,2.091077288596045
61.547672296228306,124.52242181447242,3.073764733161813
67.41846883678936,118.78179279029372,3.610305422202474
65.4643814732362,105.27275131124581,3.7123021319789578
18.25156163798844,17.050165103467155,2.4645619897437787
23.385878010098562,20.315418742443427,1.8401311492527577
26.21925048845465,20.8878635013398,0.8873932875870755
25.435894334706237,17.83226895355747,0.2655999892283197
19.811865144426527,10.673735086590659,1.4508481296748597
8.630192114276053,0.49060869426296283,2.499084274874633
7.826462185733071,14.920558456300368,3.2840499582039926
28.02388561585305,31.231032800874328,3.7313296707950103
49.20991810308348,47.44077697342243,3.8025218583350378
67.91014004708263,61.158412798832565,3.5041990111902805
80.62384715785957,69.89220170691877,2.904306146443443
84.3344014672946,71.40730273086383,2.1365570741501787
76.90429338385454,64.13786494305818,1.384809238881762
58.0329352746811,47.819174937250764,0.8617777984242214
29.822613604137576,23.880893473993364,0.7553004716324296
4.250361307801187,4.9433585609897674,1.1118014292953384
40.136098695181765,35.16823910284795,1.7494144680332373
73.33123914675163,63.03222771566335,2.3848159208838964
99.36500453598808,85.08783351114928,2.8613775930547227
114.22213744350871,98.5806218879979,3.1234737447093144
115.05023424314555,101.74352240104393,3.0865342666849176
101.04357608955885,94.05888424184839,2.6966773494056513
73.87034508417022,76.34366417325543,1.9922036704138413
37.66541226015626,50.751878612532735,1.0580007771905067
1.7568915661174245,20.542648493167597,0.01867796153471507
38.142635566417894,10.399469209383204,1.1724602266324635
66.03023723979136,38.186256251389246,2.3549455294881345
81.74942935292711,59.57946229006053,3.5086935891979767
83.82841167124245,72.44783266680608,4.559661261047842
72.96048212647284,75.95383580291092,5.441657040892859
51.65803795316325,70.4486946198262,6.101213845415783
23.72551910543483,57.16271280270862,6.460876801870534
6.312149810947858,37.87112507432215,6.457332215825128
33.850740099050945,14.643929885527305,6.127540783970749
54.818305597662665,10.256341007763355,5.5723282662444396
66.22944066561779,34.3929368856741,4.840323367784264
66.59744847062956,55.187396871980305,3.9117178614014265
56.08861672387857,70.05781875209736,2.7959509574922192
36.43539771535061,76.74300262982705,1.5635645245643404
10.657706803711575,73.7326039045604,0.29871147706837514
17.3400632846035,60.663771575258735,0.8991119717641827
43.29836025904611,38.56294980408349,1.9636786348230006
63.21654173062741,9.802138220584236,2.926022999693627
73.97142239466103,22.259627526647552,3.777283816482093
73.88487650263278,53.83255401471072,4.373117065546569
63.07346481085623,81.28263315552353,4.571006570575095
43.45721029759862,101.61477903340301,4.286665245777901
18.42322552058936,112.76387532791642,3.489088319086804
7.787392780595884,113.6845057068329,2.264282854621581
30.774637356191203,104.3378542655799,0.7643473158741453
46.57580457008813,85.66694982789318,0.8639376650638552
52.10292685567914,59.55775352196539,2.4773889345629807
45.48249140596409,28.711855224318057,3.9064303653825596
26.426823420218053,3.659453882967022,4.909121228770183
3.3387011924142773,34.3308405239274,5.265550199719632
39.729141420606204,60.65641055082815,4.884773045469981
76.2930169911287,81.05486403201269,3.771347389769414
104.87014892846655,95.13689351105822,2.0270034800776022
117.06415773478133,103.40196843527879,0.1510498750811213
106.303057260706,106.6396254345633,2.526253718562191
69.93862125210967,105.2931716705465,4.798893870667455
10.668646390276699,99.1165651881544,6.631509599889486
63.33466421836444,87.3369115571055,7.840551511258628
139.81178563674462,69.2400027523542,8.442099161744835
205.00946380679414,44.88579066518395,8.49336869826671
246.71969862329968,15.614270516886839,8.080110134946654
256.85505326999953,15.937951545304141,7.322268428455894
232.8536761840841,46.34728447797629,6.257423580940521
177.6690258062896,72.20011804569523,4.885595001386734
98.63367171339449,90.85437114181332,3.265228307562757
5.782542995066937,100.89981656639881,1.4994091386084185
89.79762176968967,102.21686317058085,0.2817836574432837
177.27170050532519,95.71389429113145,1.9822585223347722
247.04314292032987,82.93208141817689,3.543768416089227
291.63769590192675,65.71514041591438,4.872658816717494
306.5994671593188,46.004829389078715,5.8752953384774615
291.25310720921925,25.70166120740965,6.501821122577415
248.95121895667677,6.516321552977384,6.708131431918861
186.44131257241534,10.23569524970251,6.452563603675334
112.33158906326794,23.864413873545573,5.730420824294484
35.11042555460197,34.435959760345966,4.594369013818234
38.53915007884627,42.67537471098007,3.1619987989206293
104.45420885373375,49.61743561873159,1.5850284580799912
160.5222712138948,56.09435272111031,0.014410472798402133
205.4477442552749,62.22552458284337,1.391837857685532
237.54878093153582,67.13230749836555,2.492238645986546
254.33808506802393,69.03465355701668,3.2066635717231775
253.184765250767,65.73515071155198,3.4654900378131344
232.6742425097263,55.37442093761816,3.1826816788511136
193.88481146206746,37.215834503229395,2.364176807460163
140.86872096466325,12.191166551927378,1.1094289180255965
80.03731156735336,16.996815744795043,0.4565376075339185
18.748337006253895,46.300186880894444,2.172780884098729
36.24575499164755,71.1530615422794,3.9087125992707885
79.90085671238407,87.45484004885054,5.533352620081264
109.26368554375117,92.43316013873108,6.8006829929686115
123.30717733090142,85.14344073543347,7.430760018688013
122.63796345649482,66.53118886329027,7.2059287264222425
109.32246943173395,39.136671124964444,6.041891684056104
86.81178662142625,6.602391520076012,4.069776012522072
59.76464555408653,26.852216751053433,1.555068920816926
33.51197602114145,56.89473949033992,1.2178666566918528
13.143891727006174,79.49972398158927,3.9580988323614523
2.5001235530155985,91.41345581044361,6.381706689740445
3.411597878641283,90.67018016787522,8.24317807650366
15.447042496150825,77.06336725441899,9.364344869860316
36.189213362666756,52.398514917992266,9.688361208298604
61.80979937976541,20.332859281356647,9.268052569722162
87.68362241596176,14.240771726254692,8.176479913055022
108.93716817983756,46.14109729385133,6.51876675531371
120.99416750318609,70.91101485413344,4.468673074135805
120.23923829275057,85.56318795328428,2.22270462171293
104.78398554017059,88.86779705396363,0.0023376023347513987
75.14115640530794,81.19904448031399,1.9726460489994606
34.509531614222844,64.14136099428117,3.5678300646541805
11.596832203978831,40.09602376349922,4.751390719313071
56.37851976980526,11.995442642212799,5.564184253416097
93.13356723736996,16.87598094739731,6.023231691451285
116.56418674173455,43.06587628771354,6.0660971772098025
123.66337180273614,63.28542883773954,5.641305063325775
114.05893980074514,74.90090840562586,4.760285724554736
89.9430058301284,76.45176917276883,3.48117698016848
55.79289308432835,67.99037703932773,1.9451876495850797
17.933679712037424,51.10601542191712,0.36678760380132186
16.154895807795395,28.615625135992428,1.0810902096908885
38.923164389892754,4.0271882263803,2.3074402946428654
44.26212758030051,19.052337564145116,3.233732460884449
29.17532336799216,37.45881649690321,3.77936970679083
4.954844616080286,48.9061639094851,3.8966703145077126
52.123446139351735,52.30091421227973,3.584811693071877
102.76974982745568,47.93423791462199,2.8969687148082213
145.94258215196464,37.470249808947585,1.907063425675499
171.933832218206,23.632960901215263,0.697039821368389
174.50390669999004,9.572548878639244,0.6111318131522162
152.00280204156846,1.9570766571848368,1.8781041337195268
107.18629492203782,9.319464454812676,2.9584934082954266
46.0289183506522,12.328498116628765,3.722524585364975
23.823899196750954,12.052549894059753,4.131554278056465
94.37615015078019,10.17026798692326,4.238590725998162
158.10838822121912,8.20714697033163,4.108481993027501
208.42889361235083,7.024030266368361,3.7246161153987236
240.06273604864907,6.736249779262843,2.985215369213931
250.4891261852356,7.406870211520363,1.860203266767717
240.84300968879228,9.221437475861812,0.47522515941716736
215.2609096224199,12.014975862397577,0.9669202929296509
179.8813476483508,15.235828277027684,2.2921026055260496
141.3561755072814,18.000769876917303,3.389348418167598
105.31151463943901,19.292748126598777,4.181031257252984
75.26521787792916,18.286236086239462,4.628578013054276
52.31632236087452,14.71400973602156,4.734301916837684
12.070206420763697,9.851816046844496,4.149050014519257
10.72813726900473,13.723360850292472,4.752638006439509
4.241603016188,15.87890231761325,4.923373558735438
7.875700573600483,15.79801021002657,4.492167432663974
23.974752329621694,13.453796789111696,3.331633233415431
39.775370616587644,9.232837722078225,1.40079479562231
48.935818286659206,3.735312697694517,1.255166464800737
45.040440503778946,2.496182822005905,4.465488608807104
24.351551445318165,9.14593803568302,7.876174972706191
12.354872536412502,16.193865084349902,11.041697521321549
59.66531858640286,23.799559656221717,13.531195830093937
108.11748388027375,31.911517785365557,14.89945370619058
146.0443187915155,39.83814674876316,14.809743798278234
162.76582613614616,46.46923411743337,13.214654498027771
151.43303382291185,50.78625660824725,10.353251943835726
111.11503573796357,51.723418472370675,6.629384051415068
46.84664171920459,48.092336658503484,2.4247024681799236
32.51636758296546,38.90798405893319,1.9581906332540775
116.4549959640501,23.64239061168403,6.23359166721787
194.53451647493085,2.6412606717009113,10.062778258149729
257.3582324292033,22.58253103074947,13.043745022196765
296.8753392968071,49.41819800291374,14.900376419656158
307.1712310262302,74.4765771353357,15.580224642962438
285.6443635092911,94.26709964511917,15.158512635243252
234.26981283732724,105.96577837186891,13.805214016601324
160.00365843760937,108.07180045075862,11.784820154914218
73.33590610460675,100.76347910315599,9.375345675688903
14.614456179255066,85.76719490694082,6.7347341956917495
94.79543011498684,65.86436869342326,3.946832489261834
161.5865540505417,44.162945613394285,1.1172701211949356
213.54328775524948,23.367377973778442,1.6953379471105645
252.60573267200814,5.275069295929465,4.42752897794638
281.15452648733515,9.416810824612973,6.926108704962559
299.65582297622393,21.014725215934313,8.995770108127665
306.1177504292379,30.577154263150646,10.472076600585943
297.0602448898073,39.59150220226637,11.298400029791207
269.7444988994595,49.61552664770555,11.480380498191684
224.0616529683401,61.8769290382975,11.008604370718789
163.17476175063504,76.83923462205487,9.837068088873947
92.8562663522415,93.84163719483735,7.898472767123521
19.882548508695564,110.94983318284116,5.229553502725981
49.42152005144093,125.18101185556186,2.0301550658457472
109.98756074748106,133.14929019963643,1.3930615719651538
158.11124250405803,131.94113930134256,4.683262668461762
191.21229201407382,119.91565325209845,7.480800253382784
207.80112901397194,97.13203347850298,9.477045697416141
207.7244732051792,65.27240762997657,10.49200381053747
192.51876229586168,27.165464964971683,10.471167113259774
165.49630597856125,13.824503912444591,9.441919075213193
131.33226037425376,54.25974156095024,7.540294619558169
95.25865145726893,90.84263320568049,5.023328715439446
62.13871095131262,120.49119910553961,2.2206537846557315
35.80680605375473,140.45410328965116,0.5303521059792007
18.79762238139618,148.61277109631052,2.911757205835753
12.31086666341185,143.9699216056691,4.6570181295667545
16.216016812786126,127.10343148836469,5.622093359101436
28.991177621997384,100.3110638059593,5.792646375095214
47.69839678398954,67.32671009470694,5.240202741332029
68.20602010076274,32.66947844412858,4.146036344529431
85.82125069594535,0.8296244778118409,2.8056479705307837
96.25678849356588,24.43233384054527,1.496596792183126
96.59568782055811,40.51075863814743,0.38831884597382055
85.88149922553232,46.13297588397764,0.405698514869941
65.08777409351937,41.397019145655705,0.8015294555044676
36.489911776279875,27.759270577159167,0.7762840079129552
2.75129361519593,7.955053110952535,0.3834147172121729
33.84141678403272,14.243607181147484,0.25612581838659837
71.66432268497809,34.50502067783016,1.0007018320370653
109.48388207887878,48.64848952796566,1.7428603519444594
145.7817551045754,53.41638755077185,2.3828110650453493
178.0408199650116,47.08428467394488,2.7720830111527
202.443828473399,29.767894451364292,2.7829632377157902
214.28572021940516,3.346675324521146,2.38176117755326
209.1121920322213,28.91424380575412,1.5974052782243917
184.29079179289477,62.87131595993266,0.5386163378626878
140.46161192362067,94.01862302545814,0.5986552511223246
82.21885132785923,117.9536127308769,1.5980844512426151
17.60252890718803,130.81511710436536,2.2876246305828567
43.553810268246416,129.74787111559476,2.5846777371116914
91.93493452295093,113.40288091741719,2.445474677089941
120.94120446755281,82.38782933749022,1.828922869449617
128.02227223482953,39.51136464552192,0.8156001944115421
114.81964669888916,10.337326138928,0.33397230746017986
86.31099378148471,60.76295978906478,1.3087765870653498
49.47384331022505,104.82729875179942,1.8714997935832334
12.011084280635268,136.22184880708662,1.887228162467753
18.602692927779092,150.3877432040783,1.306155643649816
35.87471550909903,145.29810912769537,0.14383475131975196
35.14542452315872,121.74957846167437,1.4506371470046178
14.672484351010505,83.12153727425576,3.1887377043828273
23.29816175265695,34.698605484678204,4.802577073019645
72.0273654622127,17.194488304924114,6.084714332312024
120.91646905007033,66.04925592628742,6.827909510317013
157.4880375715396,105.92750978285757,6.860747841490089
170.3088388174432,132.08731610812487,6.102832526434363
151.96835998316857,141.52912739639606,4.6112139699859656
101.1491976745884,133.4664261260233,2.5703487445454933
23.143486560694065,109.60794709927411,0.21865905997266025
71.26110066049625,74.07113933818344,2.140797555377407
168.05161987029618,32.78246826139898,4.141639415435248
252.6622014419388,7.610758092506697,5.525410110300153
312.3312493024194,41.05795372726989,6.246138212244826
337.75185843948896,63.26574428433909,6.38372739222541
323.99368498243336,72.35097203028054,6.092521904025432
270.84759698051437,68.82542508659809,5.538280684978527
182.77301743323667,55.065226828332555,4.806288739662081
68.53999404406223,34.585949804384974,3.9550637986267945
59.486033652906315,11.395481400985508,3.044775199927994
186.53537855876402,10.43951228874869,2.1301299494788664
297.1751601554204,27.086264884736394,1.3085703286548411
377.50437827293837,35.29038754908098,0.6369547540274401
417.45971343381126,32.875348272585356,0.06345023856533592
412.7075752783634,19.289677234127804,0.5041981366734288
365.5627918494472,4.046468017868091,1.152955802739511
284.52766709063,33.81936299352452,1.899545861551942
182.43940516865666,65.40262840310751,2.65008957262162
73.70943083883427,93.77433353584804,3.2637952319593366
28.53301390817381,114.44454746923807,3.6101145811241553
114.53342752073767,124.12165965862306,3.602664524797344
178.70422314495298,121.01135202170273,3.2206174166053505
219.19790855287806,104.83733092503863,2.4870464576021227
236.80781291891302,76.76065509293792,1.4896237641976673
233.87223089924484,39.299279564903166,0.4295962878035464
213.69448083128904,3.7964677370914908,0.4568447552442279
180.51230564488,47.856867693205444,1.0194198038954614
139.60349342771264,87.87603270150903,1.1992575798587444
97.04168438024347,119.2929958911867,0.9985555656943592
58.88225469356693,138.7605080155803,0.4539115675724206
29.976326374931443,144.64000385100726,0.3820875784500389
12.905759875862714,137.08028778923742,1.361161418266705
7.537530076101312,117.73510331370883,2.21673092780512
11.3987622048466,89.32519937750374,2.7157428606307445
20.629552603249415,55.247399130591546,2.7245153916492817
31.02549479144332,19.30229080521197,2.185053759884166
38.7799321921931,14.51438849820965,1.1691524020080155
40.811228049471175,42.323187045186806,0.14580114211894324
34.83950606163768,60.871961739624254,1.562226049917806
19.506576640499485,68.13051363221142,2.879043323375127
5.311638020648672,63.76492455501884,3.9000395128579433
38.1318299227628,49.282625870846665,4.44002612931082
75.71678194129103,27.746793736004932,4.382029650928309
113.39336749768587,3.1620208017825884,3.7327735361131125
146.27403175041462,20.66738867590777,2.6096221170520764
170.44166073274593,40.862954927959585,1.2001846765823203
183.4748344631268,55.48571465107118,0.2996032431731515
184.73645151264412,63.569140087867396,1.7235469101896752
175.21595278513485,65.0276869000183,2.920304680152325
157.06271675201594,60.54006763236996,3.7424904082788797
133.02845703708795,51.43101521033448,4.120544805252008
106.01792470877814,39.510904971370934,4.1047157108165955
22.36054788584145,14.610065649883852,3.043686159946016
26.642494568697288,18.1526255530804,2.665864490507253
27.41265225322293,19.57419544521283,1.8500306657413426
23.301745325304523,17.86071416382023,0.6293958409150805
13.616288597688472,12.314024983729215,0.8648097353663797
1.4530374195197011,2.7413723621185007,2.417099760387093
20.777064869171305,10.384642198049251,3.8082471679830427
42.38674504406248,25.860170173294527,4.869956642400504
63.660043062332356,41.77690242474236,5.5077059128790475
81.63857912708883,55.715408130953875,5.703503463182544
93.43779895395491,65.07288739214125,5.4627396972517355
96.65503232495287,67.44996324939457,4.78515411858418
89.75437674696734,61.088402509102586,3.7627339634627504
72.55036811904532,45.52630006753243,2.581971361293922
46.38994189092713,22.053942655659515,1.422711798478005
13.643876361550515,6.582273854217438,0.49653414210089875
22.87208728301922,36.68340276111414,0.003674289940338628
60.28038113499747,64.1042451386927,0.06470126401533796
95.9277003338992,84.95823485863109,0.2057726083770059
127.34285193705088,96.18492050993066,0.6775342235807217
152.08438025382966,96.01206262705948,1.1701368195530741
167.6971208246715,84.28241454633547,1.4670146015989236
171.8425415779636,62.4761913727031,1.3748017649354232
162.69042057670538,33.510468533686605,0.789588885709659
139.3945114781356,1.2429888099903887,0.27631609444073074
102.49730591918903,30.183991975808286,1.746505638407084
54.093355457136475,56.963484121505445,3.4936991447966688
2.307062217308728,76.09691974931809,5.358465105653077
62.096048745758125,85.58744052918664,7.200910236835704
119.99829267515729,84.42200349518758,8.83037063959422
170.54561142221993,72.45639674571976,9.950201755903668
208.60749097384738,50.37880549451816,10.2473069736294
229.96888668972474,19.864524578298102,9.489626045989391
231.89009029079122,16.20373101196921,7.622651391702428
213.55308481629675,53.63071813207142,4.870468043744198
176.24404120503058,87.14553992751253,1.6502325859084077
123.21836571196116,111.1201091125617,1.6442097570266403
59.2943756164274,120.64980213481532,4.657586137154961
9.67268422429594,112.71160504269916,7.022940387909828
77.27896468641343,87.03149993324648,8.480175999616927
137.01383777429515,46.344508190913146,8.949825826938085
182.75601091408174,4.032052105051758,8.475032224966027
209.46068513957528,57.14718169628449,7.156856084883821
214.0073765235585,105.57592436162545,5.184048125819843
195.9713079283695,142.4998522238064,2.839584924136841
158.01587360700805,162.56352633683565,0.3585406401920488
105.6271514799671,162.49431354991106,2.071977877457801
46.15022983887674,141.56810876894863,4.200033859867131
12.580563345338007,101.93188102212244,5.775933471632385
63.56367858661058,48.629341908912174,6.631292089632933
101.52742920355247,10.868028623619836,6.7093239584053554
123.30407806170574,67.7469887183491,6.106733135198709
127.8504937744443,113.44346165623595,4.983171132771506
116.17452893974065,141.36414021482705,3.4306252610845935
91.3066505637998,148.22126941020608,1.494967394829338
58.18639947287741,134.5198446046984,0.7205505793496065
23.159123276379987,104.08395993344831,3.0062498604139964
7.136922038124984,62.86222897342231,5.114069965660263
27.377443098595634,17.471503307335208,6.8199336373670985
35.10806977897886,25.991278024520565,7.8853469732334025
31.541574174154437,62.59375617044027,8.14667625814216
21.12275734402409,88.73475540561732,7.63659341981265
9.905770074642911,102.09318349614907,6.473194267218351
3.404090778779567,101.64483435160804,4.792334986641834
4.819535554119522,87.8451110489958,2.818422169072617
14.303017145839483,62.8437762776272,0.8307870188571588
29.405332973102336,30.44912652125218,0.9433695392184791
46.3002795260425,4.36275425958368,2.356065917311911
61.06178580037674,36.32588644109692,3.2952783309315548
70.44757429239459,60.89604655084723,3.6879222935347467
72.09679252765632,75.05898852834505,3.5431264050677496
64.4580267420453,77.68694711974906,2.958802194413963
46.859936708428144,69.42908831025305,2.0987806229117907
19.922168213486017,52.300334421770714,1.1843996041725842
13.921984067621743,29.21807897077949,0.4396227880668406
50.27670983176354,3.6305118740199274,0.015211168051039661
83.34557515517783,20.791103528203386,0.1346994935623284
107.21507494999503,40.48957558298017,0.08845118210160541
117.4422747697268,52.473336810292324,0.554677730367623
112.2657760342116,54.84442150688747,1.0930647997419745
92.96232970881076,47.23659323636135,1.5236087184441123
63.2716825265858,30.978932988735952,1.6931707705982078
28.22727292938597,8.87305498036255,1.5157612889689809
7.028538790884697,15.36616023805564,0.9447887335876006
38.045681522735926,37.81343740894519,0.0006955475635350441
61.402634392844355,54.95993849652673,1.2058775745995793
74.7360044322726,64.13681556363765,2.4753413766830437
76.75923877654901,63.75224807270951,3.511708238317801
67.43091871894902,53.426247598952294,4.005066730994732
48.15262683005681,34.08862396056472,3.767047076464207
21.77476106571996,8.024130107777001,2.7638798789797767
7.751701122974398,21.261517204618617,1.1025728972193813
36.088800751779935,49.46366819495748,1.0220042625700116
59.334018566542525,72.17125704897036,3.361037588867688
74.6092907034294,85.69297842268887,5.621372238445748
80.26756581860123,87.76999935447478,7.478289640806447
75.74728881514538,77.9456623339043,8.60498952745346
61.27208421924949,57.532293775248036,8.775795581006841
37.68384865474901,29.269239690921783,7.968214979333302
6.530529782064785,3.159981898189102,6.353187664246656
29.662475636713086,35.60069052309943,4.170005583290882
67.14634462344704,63.830654362965475,1.6717782548551225
101.0400594507215,83.93522593010123,0.8160550322063178
125.92338838569269,92.74798912875895,2.9651074454492536
136.85691636223433,88.39073457491591,4.579796381461812
130.58045671022145,70.80835533293452,5.627275892269654
106.49736587369175,42.08757556009335,6.1623773313889165
67.08753278160626,6.350595810948457,6.232843852209502
17.594501201627345,30.84095713174616,5.927795490030361
34.925643593768505,63.466922053191546,5.426585203718021
82.87916731607241,86.16580514304043,4.940338443163908
119.32470867004517,95.17507248217535,4.67336465582389
138.81814938374583,88.90303128399714,4.755895205257496
137.9238845773089,68.0861815986588,5.189182816051186
115.56413345358595,35.60352179374048,5.827049358666175
73.3824087126075,3.915881128269166,6.395729555397352
16.12425738339594,44.63912457579242,6.6038847327885195
48.25789674876443,80.24964938250324,6.195747802043151
109.19513396390037,104.84848044160556,4.970483193006417
155.08881290984593,113.9575075613182,2.835537934533652
175.79182643969793,105.43457876021122,0.13015883462920033
165.2701721672199,80.04923909754231,3.63527985617329
123.4686782796273,41.482100818973606,7.2739878763097945
56.62259793106747,4.340250835808846,10.658359858428907
24.210718260919474,50.42241379996392,13.464102699108532
105.85928941605528,90.0272785402947,15.379953852501327
175.93751549613455,117.7768663286093,16.090943460674744
224.95704349312143,130.32445498512965,15.426163698201432
247.18129500113227,126.55996602397573,13.428467627657044
240.47177442633236,107.45685874382349,10.309902673540517
205.79680667396278,75.75339729079751,6.414887365421408
146.96315754485187,35.58051300438321,2.1566764375074654
70.62983081439036,7.980900844514228,2.036906868946049
13.856539182870902,49.472325425576784,5.818078192979473
95.37235907478782,83.76160840292103,8.944271166751884
162.88158770443957,106.77692075819509,11.218990936267803
207.8408931806348,116.08262326490053,12.559323951282078
226.22813271759586,111.1314476874379,13.02031132909699
219.2720488004439,93.1655887925883,12.679651529217958
192.50877137141828,64.86437898611847,11.577654019977029
153.62193827164316,29.899885478361732,9.788625613915583
110.07195283621279,7.467904921076295,7.473410797638047
67.67555672819482,43.10876127084147,4.85279605808545
30.189195338293064,73.58427471915557,2.183482292906191
0.4346072364022993,96.27556872923962,0.28613782382284353
23.314519897160892,109.581829071007,2.3703171777293934
38.08670098423139,113.08192843794376,3.947148263592767
44.826600239945115,107.59037364026884,4.9568290421453405
44.31803330727049,95.01910072135453,5.414448463967672
38.26939016558639,78.00589757007009,5.387250009817405
7.817186399579458,12.639763729491031,2.9383327605967393
11.646025797740476,15.728747194805706,2.3476024684636756
14.918985362839507,17.31084076401424,1.3356965171509465
17.099412100329445,16.583105454354424,0.02152116823718205
17.563673298413295,12.844000841582197,1.5758864525595582
15.572797054817263,5.694045901289729,3.145930267495346
10.43219034694086,4.745366022016042,4.529031849770212
1.8013037045950102,17.71570515350157,5.559470707846292
9.952897620805679,31.80997471454025,6.132026828296928
23.586159458308,45.14331797521781,6.160194721644709
37.07053563962503,55.59911954316579,5.5913563841761205
47.87477620620822,61.041734760410534,4.470206729785902
53.383507913295446,59.587129191558354,2.9797737754920655
51.63917957403928,50.23993895446568,1.3904542687714117
42.070905928804414,33.40490914578902,0.03673821605271737
25.549943568462957,10.639483675771645,1.1027324375564256
4.136336223158091,15.590471453805819,1.7078904501975374
19.171347236764582,42.030127339442444,1.8678244303548932
40.858566768662435,65.12128628831337,1.6548822131286027
57.32579097232166,81.5260470521126,1.146830645647946
65.42564833678357,88.70956630923565,0.4735501859109542
63.11712197084786,85.46655886703782,0.17594477505251835
49.98559499680369,72.09509485294207,0.6277361713514167
27.502955143085615,50.316876275826786,0.7475136954347358
1.174340175113004,22.92151699007596,0.48042506973922533
31.79150933288015,6.667274701088193,0.1158081888156672
59.727606241188056,34.75287333451621,0.9412570960097306
80.65995714924883,57.68982678666846,1.8985040242123283
90.9891952099302,72.1908723779194,2.859763530722217
88.14233945475019,75.75976333216657,3.654416441190782
70.88982281901768,67.19619829082586,4.131978323360391
39.718242102160666,47.04631265953023,4.21118978861783
2.8396217714579355,17.831152619030902,3.892974174937136
52.21362228209413,16.16625430144152,3.2937691018680573
102.35128468121712,49.53577566335743,2.574805738985684
146.75472383217303,76.64849030919939,1.824590381015356
179.64289699059023,92.60967548787185,1.086051283844375
196.7800591997629,94.04570287905239,0.455145467994024
195.6996301048254,79.64952507637499,0.06066563655187904
175.42738463322104,50.45996492159568,0.04704124736025731
136.15123362628415,9.877306231979448,0.11480632710006572
79.268267208018,36.61679576986494,0.5018290663620214
7.909008923034055,82.09937881284293,1.0311498495394118
72.40677900515655,119.2296427610221,1.625018607635816
153.6227081087742,141.5427959303936,2.212359819988021
225.97059644188852,144.7391021788051,2.7195444888692655
279.74269309587754,127.63392765172512,3.0656468109285124
307.43139016384544,92.46487741791233,3.09930703668436
305.3404197589203,44.451879441745234,2.6348248388793403
274.0541109870742,9.235630818900946,1.5741923424489754
217.77753843121508,60.812420531315006,0.018363919943169455
143.10382107940754,103.1843395761221,1.9330399462627934
57.95384848455347,130.98895451183196,3.8918719719898687
28.922816133702455,141.25297267092375,5.593783836759722
108.14974334860895,133.64414844157628,6.7815158255395165
170.31560793635623,110.35121915207691,7.3301598170372175
207.48968408343208,75.60593896354476,7.268561730710698
215.52439359572074,34.89573036524718,6.722987465336103
196.20730758837064,6.006045619972245,5.840550974286768
157.9301132395729,42.02057358719357,4.801417052460824
113.97621716682792,69.53754767035349,3.7634930253411283
78.38023117292066,86.79875944065857,2.7624964604922218
60.94793364110227,93.82922244554456,1.8050822082665432
64.57600058385702,91.99921322257012,0.9164198399974707
85.19736679709695,83.41061209652688,0.12187097353938448
112.5620478747462,70.31002848975317,0.5074231492993381
133.26479401418501,54.67266024874644,0.9614142402752753
135.59659235977801,38.010349214082034,1.3893380183727222
112.6787721613905,21.372430745541006,1.965415374935508
63.519589427481094,5.44583887536644,2.727765138344463
7.60730822145858,9.322280622578583,3.5638586463437143
92.92938457282523,22.611524878796512,4.295976085343339
182.49275195339655,34.17969176117138,4.758979107347867
265.0018014745703,43.87258566441528,4.867932086133267
328.5499965663708,51.64825132014751,4.645960026141786
361.85368454205377,57.60412751297129,4.181963342270712
356.5354336398261,61.95054190650439,3.5945103453684415
309.73535627226016,64.91881649435955,2.9871406161423266
225.94259516634443,66.6438504056135,2.4022245311087556
116.80869237533888,67.06131496862706,1.779935266832363
1.7019412759316128,65.8916886960698,0.9775329387613642
113.69541433600547,62.721645279536475,0.07283456623830815
206.5083752001771,57.132009473046836,1.3196056831822007
272.1568554707887,48.80235936226562,2.677605082424174
308.50582293069414,37.53555641371292,4.007297746944306
318.2728284779186,23.222198719748885,5.115046850746727
305.7965550068201,5.807351606826414,5.843150089131255
274.9554439718845,14.65189449022694,6.108544601690376
228.6230019640105,37.784517691939705,5.873462632991159
169.39691236177933,62.6282012604957,5.119031824352527
101.14828749274822,87.43585714699712,3.868822213585809
29.665771160019247,109.72856805574291,2.233831216159884
37.87271671310003,126.64475001983709,0.39763467577160283
94.41939761032889,135.49538235384702,1.4495448451469954
134.85008414198265,134.35215157507315,3.142241397832979
156.95219150051713,122.46566763456526,4.534325604138573
161.42119212473793,100.40645762586061,5.50318374869641
151.00889971739696,69.96167109806102,5.987658033268393
129.50869376369263,33.87745858654662,6.000686856501583
101.11669758084288,4.459945729313267,5.573035822884216
70.18676322940631,41.347633399841605,4.728181125533164
41.203875293962255,73.10429256893013,3.5022831810743154
18.4965479320401,96.4760711236342,1.9862899937345606
5.566868922584301,109.0927377486046,0.366307787111223
4.280000374625076,109.87452177546471,1.151309660870621
14.26038097440148,99.28337833820201,2.413003910033076
32.890267051365704,79.31536656426869,3.2902740444047964
55.93477012689366,53.20131058141122,3.6860984765161064
78.51945707368589,24.890274566160645,3.572984139991907
96.08187815101934,1.5456896047884345,3.0074617108425485
104.99022291306501,22.472451632553643,2.0941944362432463
102.82624699245754,35.166386587407445,0.9510050443394799
88.49717331092212,38.152182231022316,0.26411338599120837
62.34414564363698,31.396657841921034,1.3723169061545282
26.29204046867884,16.35000847991628,2.2145914263238313
16.111576140357883,4.210178021345774,2.6789726856750353
59.97364565745176,26.56861568753244,2.7411345163376843
99.74715357835734,46.677679487944324,2.4367052825802835
130.22382395125683,60.85914462455214,1.813272463917664
147.54245645651713,66.46941660239642,0.913443223640368
149.91261095639263,62.40008610044361,0.1977113140946222
137.85234448519947,49.273934935318465,1.39357570338063
113.93849602967556,29.294094924592226,2.544209284389389
82.22827962816679,5.7752156418093135,3.5732146186399607
47.540610121325244,17.5564197311349,4.4299387410016955
14.765253226549898,37.32170023078495,5.051734145305341
11.724019183698784,51.13283249318971,5.365834617006087
28.549446208361147,57.96324680461671,5.304049401784663
33.70943560424408,58.16010165852224,4.801535192360618
26.867029504791248,53.12873206892344,3.833010238327798
9.48866674800593,44.793411226544556,2.430660768159158
15.237394707107931,35.047100997476484,0.6843087937030226
42.741989155255915,25.36761933759169,1.2227434252385199
67.70921863211082,16.66609838137734,3.0458166419744823
84.92565766599805,9.37107648536544,4.5210130778083375
90.17995954548272,3.639748727232821,5.441538539836887
81.02556461533266,0.43071863835069873,5.775067897853576
57.20493784296953,2.681537173378774,5.581670344956803
20.660938553560186,2.9016643316281927,4.922730565814387
24.80766898966223,0.923333420988094,3.896744687871518
74.121756878798,3.247614789212598,2.6091159304102214
121.54685718125833,9.305515987948546,1.177304300985748
161.8849968071987,16.870226194057597,0.22458995784484467
191.29407356736692,25.61077206726234,1.4100494258849412
207.33442921544636,34.982787879597105,2.2663262968721636
209.14657758937653,44.08157831987729,2.768063102366579
197.50756800226063,51.66715095438734,2.941513551656476
174.7326433211382,56.39926908252813,2.8600364738717308
144.3652681196379,57.21929868392567,2.6179449559360877
110.63702566375754,53.733297056056195,2.3081525738997692
28.382109984177504,9.762140903277537,3.3391666200003374
31.160513999063895,10.802331877663706,3.859156904739356
27.29539148129895,9.91358213114515,4.151138813102633
15.631805725169183,6.694820899627782,4.011076927262141
3.182288189907133,1.1303070863291673,3.184302596339777
26.450771962556434,6.3261619727961005,1.5268457608326753
49.71981256412448,14.761160346633806,0.8753636313081788
67.72358636082241,22.944312953847373,3.7719955072992386
75.70742290134508,29.54900882629906,6.85109258308815
70.87335458644701,33.44727914210155,9.734537244240636
53.36210591207431,33.92628551993099,11.98796227183309
26.19941872329066,30.707375914961798,13.220654585397329
5.6513846228524045,23.862675368512413,13.19666281261597
36.18606122284417,13.905570676657847,11.869571573178604
59.44536688031977,1.789501495190932,9.345590664119852
71.3095709464777,11.488408066335294,5.885240442411888
70.37840469650851,25.02343223982289,1.8912694213604504
57.60304216609153,37.80877254768765,2.1763024541724514
35.68950325068774,48.66558149147326,5.863717948724739
8.232452851321785,56.2149973937593,8.769218170275401
20.858189192632672,59.06001889408398,10.575600254635452
47.543508758515145,56.170630916195385,11.110058954864638
67.98691672049706,47.22018586710491,10.484026842363424
79.02545743714586,32.80868771537988,9.096255158678257
78.92169252787,14.413606187521644,7.36908777588312
67.98616461145541,5.86447440740544,5.528745162804038
48.5413610106646,25.62704194322625,3.6872681295517777
24.146041262116114,42.492402842582514,1.9992551348801895
1.7560025757730764,54.31113072623653,0.6326051135646199
27.041095681382497,59.383748723802704,0.3516987854146977
51.27055079104905,56.72974037593161,1.0091979966879285
75.00677821706202,46.38465096341995,1.3996021545742041
98.45202820185234,29.657921865157725,1.5279456878829283
