1.3450271653080754,0.49552639178198876,2.288548003548663
7.812095401480342,3.2773815354885483,5.4639945716135925
14.986189927890921,7.018653287014249,8.897951241450492
21.593913554983146,11.132042262869122,12.52021046088274
26.246163837867638,14.634465595373172,15.944426151911381
27.686570866521816,16.369102900210912,18.502837247252714
25.025963452620683,15.341413292240762,19.45602759164387
17.900273140632457,11.03722226789978,18.032273806959118
6.6019156896094575,3.64983338583377,13.712555093461766
7.897906302733853,5.90059874623235,6.448210615072112
24.002890681034735,16.138172692730823,3.341717135874752
39.52209825627229,25.295214449964917,14.768539772422189
51.77386569856667,31.64748994874875,26.575196775030665
58.232126016775524,34.008194262838735,37.34320428974156
57.36775009620558,32.052524761223964,45.735560496285714
48.81202283923931,26.158785945556534,50.61279883366555
33.335224885775425,17.237385972230182,51.13605923887463
12.847415685663576,6.6160695721869995,47.0830848616751
9.9896117689368,4.247910274549833,38.98436997589891
32.1644468696668,13.985933352180945,27.835876180857966
50.73718951157414,21.496801085868206,14.86527619499649
63.29912183666911,26.07604293842712,1.6506029693805082
68.24689635326571,27.405191370530318,10.226877788427736
64.99151953980338,25.539717452693075,20.072161940020138
54.019604511967074,20.877741452924063,28.222271288593273
36.818716220356606,14.14485134993819,35.5760411602394
15.699508036360552,6.375276514564802,43.093329765638344
6.524476773052419,1.2268378004893012,51.29996961284696
26.900425051282767,7.498882756936032,60.23048566792181
42.7485458296368,11.563528044877987,69.24429162886726
52.05286943328161,13.015853005820134,76.6155142642052
53.74925580109099,11.921934569800063,79.96564794785098
47.876148460315406,8.6407304548321,77.14460892983179
35.53492451585784,3.598445655374698,66.86009635150374
18.70106345182936,2.8316046082980613,48.98710155062206
0.08819900285413729,10.257337546985775,24.57983789096007
18.122121430281943,18.034449249689136,4.14347343483744
32.89382490697013,25.04159959981386,34.191641384827406
42.42694816440384,29.701010387117506,62.503913974842305
45.509018368243574,30.34660616762696,86.20803077493065
41.81458117351554,25.825425626819534,102.69168460174185
31.93025786339274,16.057918619896288,110.12184516655141
17.269705287476846,2.259550714330195,108.11533235533446
0.1197434463086755,13.308953065921548,97.69435057705225
17.82131082352414,27.972634290861848,80.6116673793749
33.35859119518239,39.370476139342095,58.9857107615647
44.53622933150126,45.941446064589655,35.41802198658386
49.76147869977933,47.034927470147224,12.915276169175046
48.28157671604124,42.73000492531399,5.960165180949944
40.29908900475952,33.5554558528673,20.205161723689557
26.945126987899663,20.35093425834745,30.47672712242826
10.106162105492725,4.338559617309666,38.01558566520531
7.8634981156431225,12.738321342597672,43.70075990382619
24.485391789177452,28.6082801578351,47.852281364687585
37.50025133288509,40.75213565185399,50.108093819955016
45.17129340803215,46.94754122924059,49.59173740406095
46.5132698373704,45.887897759141346,45.73377533284391
41.41497791856455,37.616402857817086,38.73979917573814
30.652364001298004,23.581948316945294,29.48739154949447
15.79439406699112,6.314854451230321,19.293492381549587
1.0114455070029411,11.145442257840113,9.613308072452424
17.34282667299423,25.87630498977744,1.9282237807793463
30.84605442352846,35.59604881372762,2.6250078950887445
39.58269679448063,39.01088073124248,3.840030200025774
42.31528531853311,35.96781154033603,2.1090899503388116
38.68632723856692,27.4412039325357,2.267318618570417
29.269331998776185,15.337964967123744,8.920200455141508
15.483122776557794,2.1235883077947766,17.07251084639318
0.6148410719991863,9.665585094494494,25.42325531134155
16.63085757645227,17.935068237397388,31.988616863963337
30.17907305577812,21.428753074286856,34.63033739997227
39.22485189775861,19.896186174352653,31.935261272985862
42.38652706490379,14.010796056698272,23.557115962703936
39.1411177151033,5.101156547777716,10.290797570360876
29.906490080221776,5.171588586142962,6.18585316665369
15.976953265191588,15.078961551826463,23.615389467486633
0.6694590986080958,23.009688544254196,39.34249853259436
17.655363784013378,27.61677420138055,51.12691322563134
32.545455937560234,27.977497943152166,57.79208737043181
43.17442581542931,23.76511727544713,59.052224777529
47.932661719253474,15.3593135277404,55.48802278610752
45.99742280208621,3.797197068755124,48.42148008670582
37.46664466986057,9.459467941887665,39.3333232733467
23.37633343437034,22.871643361319805,29.645759548426494
5.58357418079946,35.138198269269225,20.721941573923832
13.490429733942872,45.32001275152972,13.601635473307887
31.21567308123528,52.74050532568077,8.893299233476618
45.14633486777379,56.76386562338549,6.694327158799785
53.386360910636846,56.640462420688976,6.389464818065268
54.859469404720876,51.59611571601796,6.885348976407147
49.42929122955691,41.1655078982931,6.914521887168706
37.877007133888185,25.61163870392831,5.282412599507435
21.77079017088547,6.2114326525855335,1.3472184661584352
3.240503424365877,14.79434936171776,4.931901221055504
15.295756055927953,34.639489023351416,13.13156516631314
31.416501530373246,50.68755769134653,22.250568236116845
42.99767782862968,61.01842136052771,30.960720319240576
48.50214369849195,64.7371310865675,38.028836071253316
47.21133933255392,61.94846516710557,42.567679318709494
39.3542873786607,53.50432169254451,44.48366339413287
26.09783697916217,40.71793852334517,44.650389239563125
9.393127713383778,25.175469360038655,44.26861938765547
8.306304347941307,8.663493476987785,44.21676891327654
24.407399789255898,6.8738418098186305,44.72260326573326
36.56022457127088,19.47032344989282,45.09135956426738
43.00070847144173,27.422710618261057,44.12308121780998
42.79515335441893,29.66286721365692,40.719664085770034
35.96872944220242,26.055953744819362,33.89405256078159
23.50204769548162,17.484759124908695,23.17230906635985
7.187509178211848,5.680320746667726,8.820076404376229
10.621813840185826,7.137052835888106,8.630808984105391
27.354388490041682,18.67995316504396,28.176945147231898
40.60018436328287,26.950184769342208,48.13025624111461
48.451283903836874,30.453497265314475,66.44062699485369
49.782274196657454,28.309215725766734,80.71815794362635
44.41934796935206,20.337896607568336,88.50835604628894
33.15196645873738,7.141546697470042,88.1405172846338
17.60930409990259,9.870984176695178,79.43380945985587
0.01006571976946737,28.571237952970048,63.693940841462506
17.18919095020175,46.34906660565139,43.052930289800216
31.671761226587865,60.48243051743304,19.714851309971163
41.5907283715377,68.56313557671166,4.095380210005306
45.79936578808199,68.88367657066281,25.79023175641513
43.958843971962644,60.707999357796005,43.09479906169376
36.52396088492776,44.40809662288709,54.68260917804591
24.63242817034011,21.483437412299274,59.933787813106846
9.931623668931463,5.534587535386185,59.19555339542442
5.625870262424722,33.311169550309565,53.61101380613349
20.004013585894032,58.09907455933068,44.41861856226101
31.332936342710187,76.28546573140748,33.00271126146267
38.15441340343491,85.02101506641097,20.76707180266157
39.62210921152673,82.78654654340544,8.813299775987742
35.63299684668839,69.72802961165907,2.217128149358257
26.83889673796825,47.65775726857305,12.12531461350291
14.528919254474769,19.716681323052843,20.716233631632434
0.42131725806555864,10.180149154080093,27.51906557629285
13.590193467863221,37.94550453012829,31.67857142807753
25.681071841179648,59.864011708825025,32.36218038796568
34.29468940722811,73.02797131388557,29.532734175890507
38.2937398902099,75.69410651403354,24.10675409787653
37.08892206845432,67.58600817023819,17.683834503254094
30.749093301118698,50.068015752569124,11.708214252892542
20.2076701886125,26.020360730548642,6.612935204170742
7.07685228027434,0.8127317300779995,2.281107032713709
6.820774970102211,26.63003643471457,1.3271505364164873
19.71593002887959,48.18905087939925,4.032535712949669
30.15140597111823,63.298550398207716,5.436678956640974
37.17354533448579,71.05986998830711,5.216240017785613
40.41643300041575,71.81223406563096,3.3319410052268883
40.06794156124173,66.82480503560713,0.1723242845332277
2.2782416272675126,2.9852996037204695,10.667576872930322
8.19370563532,6.647664720543625,7.35277258940915
14.642117338230271,11.185593700204485,1.717256864615835
20.523352620845674,15.942920808341679,5.599307828784374
24.606809403396067,19.740796015771796,13.493585574306223
25.72139458491371,21.147213600984482,20.759454013317804
22.990512872431445,18.945701212593207,26.355430183911917
16.02204226986669,12.564536507296406,29.549614613495848
5.07178122796337,2.3337346177464138,30.068614426141092
8.909252919421823,10.591250236322786,27.966170213111845
24.349794567965905,24.51727415050266,23.282426217146995
39.14075949883421,37.4823099573292,16.14096036744353
50.76594479504205,47.47318807220086,7.024886149659149
56.924612788404964,52.882673818501345,2.999564347213771
56.279715879941335,52.839107008589934,12.289160357725274
48.51535045344093,46.91740841310511,19.36261338678448
34.25051810124934,35.09358330092238,23.5162883620277
15.04831016891866,18.113715375595753,24.68707827413803
6.847110590146432,2.3457094063210038,23.16796942309685
28.751069781471738,23.669596185394482,19.548967606468327
47.85099949776952,42.71454252339953,14.878708051353959
61.629998912436335,56.581074677571515,10.51515535755915
68.20368142243646,63.28279818142773,7.595303005252185
66.65472278706524,62.175616501008776,6.683216427413856
57.19535402737663,53.92455970666211,7.716960129797356
41.12885845114537,40.133492966903084,10.170462529565896
20.670113500784556,22.90189765147998,13.326717052826654
1.3934793216030341,4.466354323361265,16.62665675973143
22.087554175176436,12.938367527342516,19.633280441824624
38.64793971183908,27.15865148502942,21.720193081535008
48.888748110326695,36.278284092196486,22.254222407651344
51.50705251695362,38.90784527173672,20.711519761850447
46.29175714905902,34.56918531563641,16.654806500191548
34.18195873405581,23.955286411404696,10.170131264765173
17.15728482060419,8.909324375739912,2.124410138351325
2.056523156834817,7.909478899125008,6.144073747803293
20.41660684892969,23.566229700272086,13.219648924527037
35.05612755662868,35.41181536839635,17.852845582003138
43.745119229526395,41.51027596781235,19.328609883757885
45.205447397880555,40.85480704374714,17.72606969207253
39.25442667162113,33.41508826459862,14.051555630862362
26.783638275329103,20.09618338450645,10.577248656540569
9.594065423803976,2.6425745350889147,10.282322166125004
9.870359687487266,16.547749033546364,15.354686545466887
28.856845491945947,34.729364564506604,26.210592437363132
44.670472193433326,49.21658144833093,41.4427028521616
55.040268590274096,57.83297044977644,58.34834617770298
58.43709615239499,59.280364957901675,73.34051802791568
54.29174872342938,53.3370197417018,82.62744086610343
43.080677379960186,40.85678098903475,83.39727388992367
26.255601015445734,23.59570153439069,74.36495368558745
6.028104022827733,3.9507924386385964,55.71198677429568
14.943008667621331,15.346287919495257,28.952621661430758
33.90475501400098,31.565235894985648,3.1388501622056304
48.3574841609494,42.345504829770334,36.775700898241496
56.37390446850864,46.094792105611475,67.95232835791202
56.8479551934575,42.33768091234549,93.20869896915987
49.64321092205334,31.9009809302922,109.994786448397
35.65172823438355,16.833488674484084,116.69706284631442
16.737501672424774,0.032466645322578855,112.85455290830504
4.466076329442637,15.356970768713762,99.85718438963316
24.887468510411324,26.629933804738844,80.87545285774023
41.45121435245101,32.09809507890827,59.631629883551724
51.56135547973368,31.38857646946312,39.08182067325214
53.54202313631867,25.388209777328516,20.897171753986488
46.9470913392302,15.873285358572327,5.599666316654535
32.67292814924668,4.96071409196286,7.446302903790734
12.837622238601302,5.447468981392644,19.723658986770644
9.563464571178876,14.039153125832415,32.46186803247111
31.15153671392547,20.185541986412606,45.72420613739822
48.69763989654623,23.775599887084812,58.49718466290645
59.60180604415907,24.911724642693404,69.3541152622475
62.25260985331019,23.666576906217184,76.92777928918927
56.221597494644286,20.037372485765033,80.19509233180685
42.28162820488112,14.105232165535654,78.68842751839365
22.280074554605243,6.2892945235219075,72.62490071700745
1.110407019787764,2.5032223946040255,62.709751593738616
24.752569214848435,10.966884787727556,49.66470542242814
45.47053932058384,17.71802873432045,34.215572830518944
60.49150129844978,21.67866516320491,17.249596895581167
67.84829449763865,22.29710158938668,0.20363578507950275
66.65296037990436,19.511067244005634,16.961566350101787
57.187748651212985,13.530226761065586,31.90044669396512
40.821137195645605,4.632370765217167,44.178471011303245
19.77357917269291,6.8163174832027895,53.26103143713222
3.216416662201766,20.07192456239021,58.919016731919626
25.25277374758104,33.654687787071126,61.14151773550622
43.62203243982434,45.24161518007791,59.749056373078346
56.09596638867758,52.03144206226373,54.19510688016482
61.17843767557292,51.548433373567995,44.547030023188555
58.28222535458128,42.56600175015587,32.29543129189798
47.82536640685177,25.70660085974992,19.508086209399714
31.22448552833939,3.408209463709537,7.818156432045559
10.754504319117956,20.746649663344922,1.8427883989604055
10.733818423461516,43.03148895322776,9.069201214799756
30.20429430320086,60.46642547336952,13.715189121199758
44.879094826606256,71.24954201540193,16.0067680738141
52.66677396461247,74.6728730707789,16.41788981227583
52.48957331038142,70.79101581523835,15.32582070785103
44.44788016044546,60.15636843288184,13.030817259097867
29.798216816045073,43.7792149372229,9.704316417423406
10.747890410075275,23.273988069943048,5.602054237285186
9.895891355449494,0.9569018127127712,1.526730646337212
29.15755367119438,20.345939436739844,1.3570454427152885
44.33272898404922,37.80765146615449,2.0547043185863103
53.36086340342091,49.23767315558123,0.40581645803859073
55.07853369146068,53.57035149446802,2.5137125275831966
49.33750455181647,50.987121373386756,5.183003683305589
36.99510134314582,42.673662734713226,7.00173932967999
19.787150717038074,30.403433242798506,8.746438530805843
0.08682492632308822,16.152332135842784,11.61732217071996
19.418475638600576,1.8789799068997406,16.07656365335573
36.093492148586705,10.562741319486525,21.50507857872732
47.73936578570968,19.52909229092183,26.40941870799173
52.918099656651165,23.784701764482776,29.106265508263608
51.14276650903531,22.77778949490156,28.363778131529127
42.92068546727072,16.868323920192907,23.720553105109097
29.64006462059682,7.316161149347627,15.892924881664351
13.318305232772849,4.005710074384042,6.672878714288908
3.7099443782277777,15.05333453783477,1.776242715258924
19.100259913590083,24.051497552668984,7.656873404703242
30.791142827058085,29.750828809287267,10.060978281953984
37.256452143952735,31.457237225571248,9.019074387629173
37.687487701018114,28.94389646540226,5.416381069070156
32.1158511652827,22.36971191312094,0.759776578628706
21.447502086263686,12.295348654586887,3.32846662340444
7.359808916262565,0.2330145562487313,5.298789684223617
7.937014462615161,13.660275834613934,3.6745950099089453
22.03699695338738,26.05190365919209,2.568430686462458
32.706729843677316,35.4040963887557,13.486000273455073
38.22983798679498,40.07333433563544,28.027030304546994
37.664170677104224,39.16654275380276,43.98020097052294
30.951570595261195,32.74627078604014,58.084111810578705
18.90314950741972,21.808052207618815,66.90800059637053
3.0914111991996736,8.050116244505856,67.7633685241536
14.34991548600396,6.492157637953878,59.17987824356865
30.999421381437017,19.811486332518538,41.56043965659671
44.46755922535492,30.20408515264659,17.502099607460462
52.736084849071744,36.44208084809869,8.953966805127305
54.474336524290436,37.83383062210302,33.44726768355884
49.25558484295041,34.20722137229389,52.08741636768938
37.6312374753468,25.875714022349865,62.10038738034048
21.21198325827404,13.958136176886642,62.38620845291386
2.3119376327564556,0.29554710906054876,53.705365284607055
16.661016477600764,13.152230891105104,38.30947753340907
33.532372272633566,24.651754689983754,19.19679804239042
46.616721384743514,32.96641972551688,0.41274520025321004
54.87486843499865,37.50922557064947,17.566138244234022
57.9737110514181,38.35168958272487,30.17673650988605
56.248259129307925,36.09924883235005,37.176153986951086
0.765292446409651,3.9746009070401045,5.293473309780923
4.644081807387951,11.548139865055584,9.535701367915411
11.113816245953524,18.575315983596212,13.151617193841755
17.610830701659157,23.8426616573542,15.184704570662872
22.860277836698465,26.650424979322914,14.975333441944318
25.566206942380223,26.7631148389424,12.299802588050577
24.667609656648757,24.16642730749595,7.4162895838679015
19.560489194709618,18.77971331547334,0.8646356484365917
10.290591159143817,10.417151219034727,6.7250403474258365
2.380024755506135,1.0142646457489468,14.605037758843334
17.014956192884874,15.144993840593274,21.92820671098215
31.567824800763226,30.65329063896751,27.82798572260758
43.5253821035333,44.965322904802925,31.438059843069283
50.48225425860394,54.932046272942515,32.099485450270834
50.86555035908645,58.161566807311424,29.700258495963496
44.11208909131581,53.66245835077199,24.775910194295626
30.701484091613242,42.000107017279646,18.380505802847455
12.22351161527939,25.19059338531551,11.733497389489496
8.888946786975549,5.982608036888992,5.52627751929343
29.699341941567727,12.85223543875937,0.6108587192588001
47.179833274635634,29.012611751598175,7.756846040787584
58.72300038171819,40.92962914266853,16.89122363616123
62.54251611969882,47.65565204012671,28.491935894563163
57.98472954367489,48.713200288758145,42.16563887266591
45.63486115241856,44.01569298096263,56.235915853366066
27.208835861886577,33.97639626693065,68.0205865041876
5.281760875727125,19.77317775835283,74.61111201361933
17.12883325989686,3.4833803714495697,73.62393172106529
36.98653914159501,12.045386457937354,63.695423680603426
51.642334100181984,23.72702040850409,44.779566636245185
59.18060798261882,29.051279630791658,18.289111088151323
58.65014087064684,26.858638562381216,13.042078185173555
50.18758566074696,17.75757078744184,45.50166105851086
35.01070867539682,3.941335817161223,74.98632555562882
15.276846932620536,11.501670198100825,97.51288843773685
6.21148114026864,25.50058193605314,109.56764755234427
26.43126316199511,35.77713552220556,108.9614485863778
42.60162787006863,41.14993873190505,95.80422324258588
52.602788875396165,41.34729355883078,72.53194205966808
55.261569084946096,36.58493574971804,43.00305070021019
50.45018316504223,27.226404497059903,11.511598732282122
39.032528293942704,13.750931877690276,17.813099831353846
22.700941769356625,2.9686697707457412,41.58315162844774
3.729933050241027,21.344258126933525,57.69107469086569
15.31245058246446,39.01530875175211,65.29406094294373
31.868524818402623,53.196734617099466,64.61990142217543
43.70496979742181,61.361785801031004,57.14920440995666
49.218661181057904,61.956450043640764,45.53765660101639
47.67765032284979,54.82146550047584,32.640559996379906
39.3377069502504,41.18472739592404,20.655516809049075
25.41209022061317,23.27698035920007,10.983010354290487
7.888351170945869,3.789239962708662,4.125672255705668
10.770922118655667,14.602846058240864,0.16220431506644
27.9707102439577,29.573924190215177,2.6242043480601236
41.33035737380786,39.36402476931826,4.451944050188786
48.997046551014364,42.9178698351768,6.663941925703487
49.87680411333179,40.00552005011083,9.445165848787907
43.77896680796615,31.294059143035952,12.342977435859078
31.47373182780763,18.27008590794585,14.690632852373657
14.61243274581681,3.0000331511181138,15.814754378777808
4.5055592233491195,12.209778973786767,15.079723757628136
23.269081973039857,25.160274662121772,11.881123184940126
39.13844305317778,34.02532634731377,5.990170131152812
50.00585073628012,37.53604284816294,2.1801568345661724
54.46932582512569,35.11942249199483,11.726411961701434
51.990094023896994,27.002273236892112,21.074775788034913
42.930480307118344,14.253042739091047,28.086229492913695
28.498745692681346,1.3213152374701684,31.043652856597593
10.605084853893732,17.4753305809322,29.19514416423639
8.373443579521558,31.960801643960867,22.758865964726358
25.887279743923287,42.953286932540834,12.903564954564215
39.553785421581246,49.30355136552454,1.2960036528811558
47.508912068854855,50.52375167936874,10.42932378368834
48.68553759371759,46.60505059285957,20.86354486644178
42.968031985593335,37.857654842101965,28.80107685339682
31.217686724320043,24.892252239197408,33.40679380301202
15.151046361368557,8.75723369331056,34.536454967746295
2.9155685366896016,8.914566405783146,32.60210333011616
20.38932666395534,25.966740229575898,28.356708713794188
34.76277743697697,40.06400998003302,22.826577450187564
43.98498158598797,49.216660488488586,17.151588988745004
46.759373015823094,52.255722274502915,12.339806168493046
42.725684622106144,49.044288665015294,8.819886605832933
32.51028845846566,40.36677765596192,6.336960187142204
17.62782497900727,27.61673794929477,4.337558090317324
0.25169119424000597,12.496109438307782,2.369377523849167
17.11191584018046,3.149583367207886,0.3311659563242329
31.98674446549187,17.395464225397753,1.7405930322977465
42.26982261008568,28.33726314171749,3.895363878416472
46.52746176796846,34.35015608083933,6.116763329708523
44.20656864750101,34.485495186043416,8.319898652011
35.726688304485776,28.828728064975675,10.440065086503635
22.42955614024546,18.58634434783233,12.423784999158356
6.3786875945391515,5.811125539678408,14.218800103524288
9.962311070320935,7.121603008551757,15.732673793711793
24.117353818472726,18.06924032803717,16.788089096482594
33.98304742276273,25.464548521989002,17.258400875640003
38.139175526375695,28.37526573555775,17.273029761846416
36.024217578839725,26.421720054547603,16.872338552781805
27.971387337849205,19.72243096707706,15.654710537077628
15.140190409204886,8.963007676659334,13.267610184615666
0.6409202294630153,4.485896779830991,9.702836938950046
17.105229787161434,18.590829516112652,5.025945466949593
31.834061936009448,30.950676577645368,0.45989199239220574
42.58542265310629,39.334322221964925,5.992663749583163
47.624302016084506,42.25091713780867,10.654319951338367
45.990203520666185,39.2902076096268,13.7612188941027
37.655112386039626,31.084522263775128,15.047895965202105
23.551118016820066,18.977417351580552,14.519180852799147
5.449908930477323,4.625736977348778,12.383114353412983
14.282985248279383,10.27643614202175,9.104004178677469
33.00248675813502,24.065243994880024,5.195740078023335
48.13868765828603,35.07067643848024,1.3148653262580958
57.5624950750293,41.674183145269474,1.772427783869533
59.90395871214052,42.53863317488436,3.661945704970285
54.770451337840456,36.967020212512416,4.344218681824969
42.82387896549242,25.242969651628034,4.092368170967373
25.68514495695596,8.768350317623026,3.3706676826193624
5.677437483604725,10.069268002707664,2.7236824832239797
14.529385465599466,28.23923784280409,2.8962057824844543
32.29832915443958,42.52538399802266,4.7468894875422984
45.36373811725386,50.033252968237775,8.980306524782584
52.09108511392625,48.7157272606781,15.593371819764316
51.64978722313912,37.86664803103586,23.272803105056436
44.099673101412336,18.474998635045218,29.832941639149105
30.408583248598433,6.728949946988537,33.050115532758085
12.393504072379672,33.668054538052544,31.079378988017233
7.470344841153784,57.732372223940565,23.015519709051347
26.37665007317965,74.79242172711609,9.474089186608381
41.60715954625652,82.03428495372472,7.4713564819460485
50.97796588997048,78.34650716737579,25.06068840870138
53.19435484187663,64.24027489454242,40.5067833516381
48.02524466342349,41.4670401388523,51.17453714404246
36.28360322413725,12.633002488269003,55.06752738639191
19.64385106873638,18.99891941898396,51.650915021412935
0.3617109568381348,49.615409125613894,42.11267295644606
19.02690421559602,75.11212142539304,28.774370740046468
35.9880634321196,91.69957385091158,14.422455249415814
48.27004082829129,96.7947764663444,1.827178062691178
54.18571913667041,89.84192677680328,7.039847036515025
52.86906665163595,72.60467815223976,11.280848426617933
44.4601217391731,48.675410712442726,10.784211044135354
30.30497433630033,22.23265443912597,6.340460926961578
12.650283662941883,3.085636560446165,0.35939399657471394
5.99416047084824,24.720724135464515,7.191182233096492
23.25198880077991,41.33728947296814,12.143829518148944
37.222517917145986,52.5332530115148,13.96927361625299
46.6962478035543,58.373113207403705,12.546694231110433
51.2248132593375,59.070850683181895,8.584738614382337
51.05404578379682,54.99904608574895,3.1246604565263696
0.43504939961813904,0.9993071628154194,1.518385787188541
5.369647801897672,1.5610619720780334,0.6947366271429937
12.078792444204796,4.795155232908623,2.950590478700812
18.59692695039548,8.100717485541077,4.402030636665183
23.67932680290398,10.890337173672643,4.594100383446094
26.168518928343875,12.64080864747452,3.50672922726477
25.22108057576462,12.844150933071024,1.4728831004657759
20.44440393129965,10.99153988154639,0.8542133206658534
11.978892764924336,6.69744048837712,2.7245741739062104
0.4827992825223101,0.019046646651964264,3.491768653083031
12.909659421787044,8.469704985169804,2.6955224249447514
26.56187389160482,17.27593497918453,0.241347563971595
38.32328009719361,24.658421827774355,3.4817123070765246
46.034735194565506,28.884608671158144,7.886429498713366
48.248308430851104,28.799919467520297,12.286709754535824
44.3333213409591,24.334199630580503,15.827784861308373
34.51250330082266,16.54896781061638,17.75638463248783
19.98713653710332,7.137910845221849,17.47767592611082
2.684526931285454,2.242773453281519,14.656210301244702
15.02919359938169,10.464407875063756,9.396705825045503
30.709623443740664,16.945996760331813,2.2428656071393407
42.26361753802914,21.300230390694956,5.496289184985041
48.19675106717968,23.00926321281479,12.136052819532665
47.78982045136555,21.42613017815529,16.67335005288884
41.13485904840574,16.195600990717754,18.94197837643392
29.090884023054034,7.815541804837885,19.29058642752174
13.227367483904862,2.1109953722306765,18.294860310646726
4.312312962025574,11.213804217788992,16.449306620776834
21.016195579566638,17.19865166248424,14.152775291318697
34.34550274327604,18.71547090564723,11.84795931945192
42.15848684344206,15.7592232170209,9.867734199325797
43.12043753847879,9.400549274109334,8.239594006134817
36.99628935000105,1.0535963352040683,6.932486920430462
24.702346589760655,8.204848381123293,5.903926474959663
8.136732322045866,17.83736673181627,4.952171052089333
10.171038593711978,27.48683728194288,3.875267267760211
27.49580022470161,36.372874115163114,2.5325424048946887
41.313487933728126,42.96989359789483,1.1378230484394192
49.61820417138971,45.293987716207745,0.34817264779557133
51.14465777637176,41.69780398346018,0.6539704866915994
45.509087054938476,31.71966697785056,2.2416569762478935
33.27899363843791,16.46761347576189,4.860056419860633
15.950726732642845,1.6903190044435041,7.257411829149609
4.195359551258052,19.933170409798933,7.518300238159164
24.379727543969402,35.83401118050549,4.085304564563948
41.72596518420758,47.82163271891789,3.6345336804695263
53.70230598481459,55.11233484353236,15.173383306964453
58.50583378342438,57.33837925069623,29.00801757758483
55.33286911400312,54.280934446793474,42.79754855428781
44.4897073436944,45.94256865233647,54.1741817874912
27.337648974972378,32.885669023877384,61.26026783079561
6.1155602313076445,16.541256390672352,62.57456172761948
16.339930265716596,0.8227389937123087,57.057516560411855
36.949297362079854,16.555614682719224,44.214192905470824
52.78944988221843,28.31923348980091,24.22949283413493
61.50469823316422,34.684748288101204,1.6741756606147158
61.66458415346471,35.34597394321692,30.69515390548184
53.01000935128312,30.95229631326283,58.54036759931017
36.52837809657462,22.768666673263994,80.54901327908756
14.336200890608612,12.361253258578925,92.97989119978625
10.59963083755919,1.3971077776069114,93.91704554852622
34.87377311174149,8.502638289738078,83.54712613069456
55.123583777610854,15.994165194280045,63.5384633919968
68.5014630776763,20.348606260741043,36.40047975457017
73.08184115992863,21.707710885449902,5.4509041359584325
68.14905176700856,21.02585334256672,25.58671833883519
54.32798891838318,19.61569202984763,53.53174268386373
33.51653435694146,18.45882258029887,75.57594930322928
8.613874137277998,17.664468461968994,88.60495408450421
16.917470406879815,16.427787654027952,90.27730821199394
39.589105379604185,13.547602698738789,80.30838955060999
56.40828189523386,8.21146823701381,60.27730263531827
65.29951234178777,0.5578643005528072,33.3004577071962
65.3636613663067,8.327067588328354,3.64944408534588
56.937067604388886,16.955397509365785,24.219733019273384
41.486951138846514,24.181667361254792,46.84840993877295
21.369241378853015,29.6514948793695,62.47973755059297
0.5115891879777924,33.66995605666267,70.7182821280808
21.09156707551294,36.65632863174046,71.85135369338828
37.56149229696778,38.627021265651365,66.4098700602531
47.75290341615353,39.10410559766905,55.21997462015768
50.443054652624205,37.53766385906777,39.88532980269687
45.52108949732451,33.93761017338505,22.575022614847285
33.97886568642012,29.20321553203378,5.227615859225769
17.734459918721193,24.810363858342473,10.492470881413283
0.6980467177194434,21.978920899873064,22.94509221671524
18.62301474834681,20.817135182468597,31.36740977380081
33.56879403257936,20.00583779703611,36.34423616024719
43.60750959245609,17.299022996343727,38.64918595746022
47.54944121040577,10.608821630041152,38.66506032899817
45.02681113992495,0.9206606730074802,36.6716742663703
36.47972316920077,16.43501508228423,32.843941594718565
23.08565624447588,33.70590822797579,27.541162071784388
6.645205358697305,50.02538370669288,21.59105200850311
10.617668959241584,63.14291182048608,16.26995349286865
26.32915502138423,71.76923270796742,13.071701826496257
38.29217262394061,75.48732132006401,12.827858688372078
44.83080649940452,74.32674471205036,15.055663004722444
45.072990621810774,68.40363440392484,18.15943688542577
39.094698139975115,57.88350707502615,20.03343002505842
27.878177023530515,43.249726398611124,18.881940966341446
13.11562617112562,25.611054415005405,13.658716069665745
3.0851037075009584,6.759690228767414,4.050513392301177
18.52829768186721,11.123407406334,9.34424434353447
31.203006876163396,25.970069897392932,24.92438576316937
39.481676352534535,36.26511046990593,40.411808409386836
42.264501552408326,41.24569043394604,53.15724323904994
39.090175442367006,40.85363151186362,60.52088833984755
30.2308033627419,35.59131998182484,60.618760127450585
16.73524265675513,26.44595894637461,52.97831762913697
0.376121820150367,14.893336774753745,38.89167734986235
16.54773511212338,2.8612979110097174,21.31761246731795
31.561675920102033,7.471095869452006,3.9122805060932917
42.4320989846447,14.067017966407967,10.142658728539224
47.554965314542166,15.502950932055324,18.677623341336332
46.21493015837614,11.305885957599735,20.887016309193392
38.651918583456585,2.004150994918162,17.69731103433665
25.96630284404462,11.084137419652222,11.49848864012095
9.912818237332932,26.168588880277245,4.9101355077668565
7.353130089379041,41.2454753349081,0.5382818549570466
23.531821999828498,54.23619375782206,4.417989342435009
36.437060303261994,63.09687755414228,6.667195561406194
44.25401558825235,66.0460803710089,7.237301494033523
45.80032738877537,61.93496617244798,5.8303316940730525
40.76362208536139,50.64279746266755,2.071052154797789
29.838809164030494,33.28667883631831,3.755077554025908
14.687900746579881,12.05918194243906,10.37450740956815
2.3085954686201506,10.268678256202003,15.978756498554814
18.46293783268832,30.964020131726635,19.141493688011085
31.249525427865436,47.80557013569105,19.425809960660416
38.715421663222095,59.24936045588508,17.31989808366564
39.752260830645724,64.37400818730828,13.75253854343948
34.21305215419675,62.808262288464206,9.52447270105804
22.893557001885583,54.785164875783614,5.270047588127018
7.421863600497137,41.32480133091592,1.4907992970000956
9.919970483500611,24.355205778676797,1.944733452406323
26.46904355627426,6.5482751570714575,5.794240513367384
39.543994708010075,9.192365182002169,10.330601669393713
46.86786660345849,20.43177546358631,14.196993899720557
46.99252861818927,25.784244322316848,14.787971336771323
39.59699199378872,25.117539290817856,9.91990899452813
25.580753068706194,19.33325935037668,0.9716368648323941
6.945825982313747,10.023481473126882,16.374669881556407
13.691431432251091,0.9425110885756209,33.354307185766274
33.6786282694989,11.838906238920524,48.99369855188561
50.6924669670991,21.26350625862908,61.276054463237976
63.00918980389752,28.1707448581906,69.2607355445082
69.65825045126105,31.878201299614307,72.75011677977126
70.46448885603853,32.12826015827747,72.04730645296867
65.99724882570008,29.20017630469563,67.82823010772202
0.8529576567872678,0.2648439948858702,12.025213517312892
6.67267426885718,5.322726487308358,19.188381830374237
13.22399855249856,11.14281380011959,22.92633921174208
19.30510610631239,17.19773374147104,21.2034609121955
23.587655772957287,22.779911928402306,13.537217244482672
24.88488309974244,26.812179814342365,1.0688352155487595
22.383893669185262,27.83372676106522,13.904419965497228
15.781663132622786,24.291190325348627,28.59816029123362
5.379593842421013,15.14220110792065,40.35932538810241
7.919418508998059,0.4855157633583542,47.08560815523482
22.65478887386884,18.107418468701198,47.30183878129321
36.82061216072261,37.691412170529944,40.097914360423594
47.95004435884462,54.480482544058184,25.10306364654316
53.69305408774804,64.93849260545221,3.120185833172358
52.572639590231525,66.95036607086638,22.927945201648505
44.164125876886615,60.15422783463981,48.57012292428641
29.14709632360346,45.603191963821956,69.12304635435638
9.339949492767715,25.21606744684114,80.70473254461427
12.677569576031479,1.1979481401227225,81.18966565452617
33.994652068883504,24.120171191778553,70.27097151434876
51.817777346446825,48.134278531852445,49.478673564365636
63.89388194453186,67.92098996108527,22.55378478653633
68.72516828821009,80.49772328507142,5.674264713550205
65.71157734984418,83.53666298099114,31.021563491650788
55.16673100116204,76.2213875763023,50.47709752001388
38.28348411996165,59.75211660494465,62.16288578231216
17.065757623369134,37.17707423807513,65.55405125137409
5.880596525437369,12.534807251722931,61.475626269512986
27.644177626628874,10.28938764068537,51.683669906493975
45.42673454516354,28.480708858721727,38.60461257266492
57.00259750997286,40.6289434574254,25.156841670916524
61.072586039563966,46.47898652136197,14.230146024037625
57.44386925884308,46.425872480524276,7.551720690772153
46.987557510676076,41.150543510477064,4.922929387498704
31.42672825538271,31.605996146974146,5.024196747175583
13.019998225835954,19.230014949182912,6.377193409145453
5.763846771896921,6.084887228563376,7.568918256846811
22.51072992398913,5.337812320987833,7.229159804807844
35.102064265692185,12.69070668233403,3.7711778284558815
41.943135768790256,14.472257024708377,4.067429203064252
42.174369727659894,10.506477050496667,16.08535795066764
35.84244833635294,1.971987751492636,30.66134933430016
23.964214210638676,9.018636081038213,45.532654030614836
8.434639781193061,20.060308886611708,58.05647626095251
8.247803692412063,29.00565128467279,65.52032787286464
23.392011303208463,34.254719303608724,66.13746570011335
34.55596279253685,34.8283592561157,59.73484504755732
39.94376894616169,30.368519130679523,47.379099772887244
38.670280012030624,21.19014778820452,30.765839426587103
30.85347663249702,8.374052119658824,12.23302313369704
17.57306087526924,6.245642916357877,5.368230526932958
0.7043154762925278,20.344853506181042,19.938310869443498
17.340069010069538,31.63059914508447,30.931880671658035
33.917951172553536,38.429515632111375,38.54083601730503
46.51286375075593,40.08635561172254,43.014418393658396
53.108227681786914,37.00436098253062,44.668406712182055
52.52477062331852,30.331127204239213,43.9414472680116
44.63612360991799,21.492622981176098,41.37035538538803
30.411566941737163,11.824754536140688,37.326269652568506
11.782394150365807,2.4338422865047993,32.086180164131704
8.665939875339541,5.740301074598902,26.053200221664998
28.103986268460243,11.828493067572149,19.64907749533077
43.8882871561924,15.077850107983068,13.281527383174085
53.94201156836466,15.049807111048027,7.272153983931319
57.021576750260515,11.835733664140054,1.8619243566310157
52.864499518336096,6.124673998981669,2.8215669449146126
42.20045649339293,0.9715826805871377,7.18189109460071
26.626363123811817,8.262213537762934,12.18809161884199
8.380531595505698,14.791817894685016,18.541819745073834
9.973975582262748,19.95810844117796,25.86430562462436
25.91352325161867,23.39200732078825,32.85173832192964
37.31314716158684,24.731780869642353,37.871374568438945
42.75049923507229,23.502275414762046,39.27946875276103
41.69262243792882,19.206045679922347,35.682231808539896
34.540343215035186,11.59052103867384,26.376742785257093
22.535235230480225,0.9489924024704005,11.832748323672606
7.5531675567616245,11.742702094582933,6.343211646733522
8.174789835942045,24.953119319215336,25.731856159773933
22.366972015738853,36.913684810060836,43.299814567244844
32.98216864610529,45.98170250455968,56.008317711685585
38.47649317963624,50.903557664466064,61.25364218508789
37.99989508541894,50.91658247750096,56.90438058809875
31.507489801632165,45.762032912070545,41.94830817280108
19.77973559757166,35.708984188226786,17.25061174905799
4.334390006476498,21.615327157707213,14.232197092094136
12.772031613826046,4.966237881035217,47.66101336843074
29.214739371135675,12.223629005066442,77.14384229474204
42.7124462697243,27.69449644577587,97.07685270926852
51.33969733953699,39.348852585320614,103.41623559286182
53.77908119740504,45.65614717261548,94.62148654357169
49.487231995883505,45.90418370388399,72.1716870264078
38.77206198672622,40.24443015176341,39.941112507441424
22.77475715883135,29.607530098216625,2.9639770979182183
3.3515380563550945,15.567023403741189,33.295024126527245
17.132767150227142,0.18641081342055624,63.802557709471046
36.076356566160314,14.181792162352625,84.89130590845039
50.96058136431362,25.22288369288714,94.62139146316082
59.68752391131809,31.132559966567257,92.71651427813944
60.8896388554522,31.115416940216907,80.2789374724806
54.16800968913097,25.67935565810408,59.66824495160927
40.21615498695326,16.530225636618788,34.23274142025038
20.792302662173256,6.037231934528029,7.609887287149016
1.480708930361525,3.5377320645525976,16.86786023405754
23.476971952873576,10.707542685622004,36.48588491633128
42.03870938756761,15.010596248762143,49.40365377929069
54.47556256042101,16.760485692703533,54.751259230020594
58.994233182539716,16.525896944984098,52.49218169213934
54.96637072785945,14.70258799222829,43.6105564998456
42.99784609507921,11.431124862738447,30.05358034604061
24.811571246785885,6.870543399208862,14.114049330478919
2.9732541200025677,1.5743574756193432,1.574912809890807
19.47084511620627,3.372575344757258,14.347669168641472
39.38048293838503,6.619770240276068,22.52952567722929
53.91898440480617,7.098875132127227,25.710809022897134
60.94370540038587,4.525155420856437,24.560708107250264
59.33938848440819,0.48408993914294984,20.511069657478245
49.23241693440241,6.757202571497259,15.280366487157153
32.0371764616718,13.148592833648886,10.476480834771877
10.287227595503019,18.969858371445252,7.245533340628851
12.768291199664931,23.99313028894449,6.305133525860663
33.707208270462466,28.05599700312096,8.071224583461506
49.486108581691035,30.584425769405872,12.420964041238483
57.90453688496315,30.432915368139867,18.16049444700892
57.88674257814749,26.235204862655994,23.106803876413643
49.571886331240535,17.10195038945853,24.96275541898309
34.249953384512,3.2601245352831256,21.637755635180685
14.171382427044362,13.777716875534058,11.771524270361464
7.733743726121356,31.634822364748235,4.395391888237403
28.233379841389162,47.8172948877124,24.883892064561724
44.25021006009201,60.3574956938122,46.11386424271333
53.337844104600435,68.040709849348,64.07012806620614
54.10020628981014,70.22261065972147,75.74421668052263
46.449649249343665,66.526992893327,79.41026126421166
31.626978533250423,56.75819187727415,74.75737072651988
11.964563940154193,41.16894739574802,62.73890292011898
9.531497426220714,20.900883727073555,45.23141516287889
29.680988136645002,1.7850635521811098,24.737137066672037
45.61843707279175,23.786519536182894,3.5571823786661407
55.16451860332395,41.922353184594684,16.620766466881367
57.06483478388868,53.82678081020117,34.48611901311936
51.11099423563416,58.52246718683468,48.883069316134865
38.14518416347413,56.40257223627696,59.021698402002826
20.10989810277223,48.67854821508516,64.94796640164472
0.34699972009432617,36.891091249754496,67.22044485895015
20.533239074865516,22.684798862142667,66.62973154580926
38.07709779633597,7.686885509786286,64.15923589483502
51.22929667400932,6.462731350645787,60.56291926295839
59.037540934696416,18.116805287596204,56.21131550117045
61.3636516168526,25.825509626871803,51.004035383302046
58.776513009694675,28.73175197258449,44.669239279454956
0.450628155977689,0.7305148560438711,0.8489608470561795
5.471665559947366,5.379437559028176,1.1114897676182207
12.263952445496898,10.40977198633741,3.0765867185386875
18.81183299450242,14.887446701445281,3.6745974368082557
23.85046133611297,18.023964308788496,2.1087568931279543
26.18546395617138,19.220613462428336,1.2413653510119527
24.917757532118948,17.992478787313075,5.198153447479452
19.605710044573406,13.897982144997181,8.432970402276949
10.413135393393468,6.618202709385978,9.874505432520495
1.8589253388031117,3.785912560738912,8.917716348528911
15.831839617079678,16.580638737293654,5.606590769591425
29.58897168003118,30.188926406943743,0.5824566277126474
40.76720859120351,42.24518160805234,5.3022877577813485
47.154943633712506,50.025878052559136,11.190079898464857
47.45214759588021,51.24315238527259,16.232048129965438
41.34478279823383,44.798868527741085,19.870310126501842
29.431475092264165,31.13777494754966,22.06004808099789
13.238321059677126,12.126060560370973,22.69142707572451
5.089327593463044,9.467810447605626,20.941909124515554
23.07820787579053,30.60814537717222,15.867915066362666
38.242454804916505,48.46344993609713,7.563738045825571
48.46922049780801,60.668993488339524,2.386299585348657
52.28154110346767,65.46901527377,11.532288167757013
49.08150061030737,61.886312677047705,17.80861435694487
39.250917407625565,49.97913517473227,20.301139787179824
24.111490739908255,31.072783106354617,19.268542626967
5.778714755365945,7.8003928385925025,15.68662517952531
13.13908306750296,16.200030073662383,10.770027491405711
29.894757224919292,36.94513269044312,5.85646523879986
41.998035202845344,50.93198313081152,2.1154224420752312
47.59848868236372,55.88835069761747,0.2670110187769251
45.78522370129673,51.22998769017218,0.6502756314822296
36.76621689577407,38.10114840918364,3.361503542824554
21.86586168632994,19.045582405854272,8.388634477441395
3.3421224476264513,2.5515831209663062,15.418093441461894
15.961131951853735,23.103345450804092,23.549505912002573
33.071955087147,39.40730665378705,31.130949686656407
45.36128484401983,49.08478232793687,35.8921298642202
50.9400559064724,50.83953544854048,35.78786925500509
48.91972561563296,44.55130543307803,29.706689997826867
39.51856293512781,31.232011440383847,17.664544395116696
24.016656441596954,12.856367406640636,0.723687839098277
4.569113040848238,7.924035632033307,19.307505127552307
16.096683069590807,28.152835916464422,40.03053107435908
35.06025378463258,44.987726975385975,58.77514232741621
49.63071649207076,56.118481434284966,73.0274345274076
57.75556650465686,60.10537049659694,80.79233018937349
58.32362817395312,56.56537756642993,81.10418910677376
51.30781974124758,46.174537651884854,74.17814048152216
37.72165370386139,30.479756021639457,61.23248179019452
19.409856149144872,11.577283256720529,44.0871055447492
1.2528631143180102,8.238651255778642,24.54382462121621
21.70102027125235,26.779299364575397,4.237398486570439
39.48770730609227,42.165443364160375,15.384282609708649
52.5316322616131,52.92954646993259,33.43886641030121
59.32540902082594,58.06291479998255,49.80732971323425
59.09025103414389,57.050192008771226,64.67045453010839
51.87231992710936,49.91391905648485,77.72471079461505
38.571043291137265,37.267064002139946,87.97965968891141
20.859803174825945,20.33594265280192,94.07713081518995
0.9965315731125929,0.9047203995434902,94.66896739440875
18.452829529253084,18.836861821837864,88.76818622626227
34.94947591805159,36.543854395498585,75.98088086422902
46.3320550668319,50.042211595101364,56.67046152545303
51.125670146303584,57.6487068729285,31.993203302043764
48.774460603125824,58.41130763190103,3.9694393381582707
39.76513125221413,52.2363559881744,24.353134869015204
25.587493027537068,39.883182591102134,49.093513498074984
8.518664151716683,22.859226604586212,66.44842168329673
8.74440306065095,3.278508403068326,74.12564685837542
23.539738627918602,16.292465182555684,72.18818333651954
33.665163557942016,33.0345285997877,62.57104270438335
37.69292785566734,44.19860351314174,48.08358608519456
35.14297516780391,47.604197778952475,31.88444755711103
26.496720565792224,42.24410634699259,17.250303755794477
13.088029307591482,28.790375481070548,6.980173373541361
3.0757695217865075,9.749154495567886,2.5283741558246384
19.557709610987555,10.927590930256383,3.784814494145162
33.80808513811447,28.766008070679067,9.7599568949017
43.536207503657366,39.926742921890515,18.99657213918084
47.08936521813845,42.156187840523096,29.364282463103066
43.75865875500439,35.197581023845,38.43270870511661
33.91095069925611,20.55492231646914,44.15443521932632
18.90486536306942,0.8286022944738536,44.882689071242304
0.8216656618127033,20.989607670703645,39.61819111800591
17.919780878099715,41.97959025765546,28.742332367728338
34.93997506469566,59.44221306868707,14.042959177624887
48.17687182767364,70.92028451963446,2.1527548203484184
56.06411975186352,74.37217949933579,18.07902656000909
57.63530347616688,68.60801486648623,32.914957556483444
52.59988651105225,53.831604493254986,45.90402976575495
41.42254926402015,31.94036791088004,55.76012821770844
25.358119179960248,6.278309334405612,61.52391548446844
6.373636608913419,19.178411255686047,63.018052374228226
13.06470720267761,40.887289708508334,60.302623013863446
30.34021425394132,56.57577035763921,53.55454047761173
43.10541715142584,65.48212529509424,43.253787543418156
49.64880809392124,67.97666060314046,30.516631423338
49.14504816144055,64.88609024962281,17.129696422956812
41.763537082193736,56.97639154947433,4.650632996792412
28.617676694895895,44.894325373534784,6.002501787803548
11.597943897413908,29.50809511369057,14.319742676656505
6.870101875304591,12.302261808538823,20.374651757083083
24.13827063404854,4.538875241435933,24.659293497370022
37.690003574352716,18.509919105409278,27.45547386852206
45.49463853870473,27.467110396419944,28.650738046910654
46.32163787869773,30.26735985614952,28.077445865915216
39.95611653958941,27.045700015389116,25.90624897465789
27.262074654540807,19.036413401496876,22.530614309866348
10.070517487004842,8.104560147463744,18.155136667462415
9.096428037981594,3.731970360395997,12.925669744543201
27.4172890459945,14.593145136236268,7.3148777049644575
42.21148014494255,22.835646997070477,1.954816723384303
51.34873132842504,27.09102616677785,2.838973166680866
53.55050745957732,26.392370714584565,7.392529773100537
48.54675508332017,20.41922212557215,12.514096217991062
37.08686388620637,9.719796567684526,18.63380273060561
20.80977526135793,4.248044350865578,25.217487333883994
1.9924339430251095,19.335548468679168,31.079837101531034
16.763416832639006,33.148573331356864,34.83008064063567
32.86292912615897,43.543564297752994,35.23454806267992
44.06433175770349,48.98521144468998,31.672565671339296
48.792458616408254,48.69798121446957,24.37265784111344
46.37075956759373,42.66499076600425,14.106137433947083
37.153256864575155,31.57769794559194,1.5829889118676226
22.5007776557214,16.783406522540275,12.569418724553977
4.57582773192892,0.19879658174940992,27.39649923918592
13.988002045928953,15.874391944188412,41.653717465632134
30.480336011213204,29.082860624783976,53.88545820416629
42.50768091137941,37.46277688688348,62.38959685422571
48.31086305990799,39.844402907603445,65.72131259257
46.9688681079224,36.08371543611703,63.12285644278425
38.50207405654035,27.055265473882038,54.49394135580664
23.891051153658665,14.412449138502625,40.66071053798037
4.993518007594789,0.21605042167461913,23.417323336953796
15.653482235064402,13.432811499674816,4.936877033420297
35.146144004046306,24.685795901483704,12.659957337608267
50.626075682757566,32.144689192062074,27.684547362106546
59.73160557547073,34.97386710565892,39.2121349908026
60.99165955139495,32.95869252569128,47.000679527805005
54.05753829665549,26.51133427037159,51.22408524296767
39.73747668566252,16.60957929495064,52.14113159000214
20.047006672718734,4.806937535812881,49.89197500240334
2.236315819280055,7.079514313902949,44.782512367463745
24.293491722194712,17.49844109672538,37.495943781131686
43.62353334891138,25.408053288910406,28.950736070010365
58.31898654754566,30.3568773901921,20.11102452485166
67.23319151192834,32.40255621935438,11.878767174111168
70.04243666503446,31.94141517703572,5.159937767956748
67.21059184266845,29.54246141005898,0.7037892935392148
3.8185947040616086,1.3254851138829544,12.861913133432896
1.662580049854608,2.747777717078105,11.885489462436759
8.428283812653559,8.07182355500273,8.802593882443531
15.576388035129556,13.867300173189607,3.769364458896653
21.99843663077426,18.880388722486558,2.788521234744567
26.518351286050205,21.612656076999155,10.25632157208244
28.06128527680471,20.746601588929718,17.81933471095913
25.816606748260067,15.596370663995737,24.47737257493218
19.451930339766353,6.421754189686097,29.217140998998836
9.259791883828893,5.575691996903436,31.188063468057337
3.7754927794756257,18.54177333387321,29.913891636506122
17.925597850364234,30.345744217139075,25.44592144497399
30.772864989442276,38.90106613251533,18.400173538933043
39.828679268219794,42.59430706576555,9.992292062605825
43.376243217441306,40.653228573904336,1.8333944663654467
40.65204393912855,33.05323774099836,4.896082736910718
31.837932906253226,20.403759423349868,9.975606727754691
18.100967426021885,4.015509844127247,13.36451944363555
1.3226301104122782,14.160565178454641,14.71956305564343
16.137768644676193,31.670412652712283,13.998814714657795
31.721694860233285,45.91317693016855,11.661363239109768
43.04896787316585,54.70640949000942,8.6710389976237
48.227141835445344,56.77296080760978,6.53831339440453
46.209956413012115,52.00670858349852,6.71220668380416
37.021173796382946,41.34604012105997,10.116810407179821
21.797114423511495,26.367393061100362,17.118639408673506
2.6533827765069047,8.852410224189704,27.285969614838894
17.677306919511516,9.490793114651732,39.093146018592364
36.28075322987075,27.03570379512585,49.92074473354737
50.51074101273601,42.12264942043899,56.68959674788448
58.36571273637978,53.04109098639162,57.00768355223642
58.73234783670484,58.24954762673719,49.89929810213153
51.51095142775749,56.786309217255166,35.88416322108648
37.62293075651463,48.639618014545476,16.668150160334363
18.916404279243995,34.88121033787735,5.6528196080675
2.0823646111616982,17.457405309973343,28.992788343265914
22.540234291008442,1.2642432169615134,51.02596633633971
39.73894002271471,18.94201254100727,69.51514136563762
51.50192960091714,33.536519859096835,82.64932603822126
56.50218734844457,43.39920049421203,88.82227816580311
54.39460229753104,47.302927049171764,87.10313241133804
45.78649176009715,44.585361051526135,77.95049732106393
32.07449627685036,35.44059037731108,62.828318606109164
15.231509883553672,21.192527671519773,43.628815584349454
2.41048731023861,4.291160968306263,22.89737484277751
18.399981592621277,12.107259172553892,3.689772877579954
30.453352885942483,24.889887079777925,11.645814103295075
36.78461063375262,31.786695313970462,22.455977401985997
36.42722977474305,31.894949032129514,29.620806447979973
29.46274806666908,25.72276562530302,34.655444210490714
17.066279284489823,14.797779889664001,38.81073050284055
1.3312979492526733,1.125991672819066,42.539593102707954
15.105374602719126,13.219181819727392,45.396689675803806
29.529494781642246,26.27959544711973,46.57507434937622
39.56458269272697,36.2653502296012,45.51967052890948
43.48420264658188,41.659544448298554,42.20122707488468
40.40338161102614,41.47015141966343,37.43463723948751
30.370298961545778,35.54029640057342,32.42527353351386
14.40832245113111,24.685200525627895,27.634406327377167
5.530252880476009,10.49285576795344,22.66909461315262
26.751543379174986,5.171254002323644,16.945048015965057
46.156462294028806,20.714093889746213,10.053219524170519
60.72123775197079,35.08950090342317,1.9875314284459331
68.04296658914923,47.645087147174685,6.508981734448961
66.78536110476803,57.703636213373535,13.932470144759336
56.89503523960287,64.23729670280069,18.936951412470087
39.57159918178746,65.93493121969311,21.267838612220885
17.033533022569404,61.68424776782338,21.685726225029494
7.847910121008523,51.19738728729214,21.50126457371028
31.948508998503378,35.3793981120926,21.928714646564583
52.26475649053398,16.181742761149643,23.522946879113167
66.254715305153,3.9898470392332595,26.15161350630522
72.14510523929512,22.970069005089172,29.034959658886088
69.17528681217371,39.224308300574826,30.989974671181944
57.7335453469084,51.770726255705384,30.807069057887826
39.34439163884755,59.84636659865804,27.53542688471738
16.46301260676134,62.70721259284259,20.910274171584234
7.896854224354277,59.84585359929959,11.436658450918252
30.59047021099231,51.551941432690775,0.1274538535200244
48.748549209338634,39.39255398114696,11.640120683547199
60.133229742210126,26.161276210751424,22.161672094095373
63.402249944889434,15.115025842471592,29.624592739166808
58.257391077931096,8.771116563169437,32.550673122485584
45.50533043379616,7.880753976259041,30.0744501421898
27.012255343978453,11.152171942694224,22.27046353025874
5.477776410780007,15.897373343827738,10.325579755072493
15.95615293258083,19.240083811380202,3.8265511328098034
34.198700853280286,19.2113298869032,17.86109665830473
46.72761573521517,15.190019891886509,29.537490815180693
51.99084158222315,7.61646952617815,37.13618158118071
49.600635478572876,2.6656252236899585,39.43806051484176
40.31061773532288,14.937387360060784,35.843676937289466
25.814691490745023,28.63773258829174,26.60450953428628
8.438325953138863,42.95672082306438,12.938969316190128
9.212634578568263,56.41786264100535,2.967418829505106
24.595990216396462,66.8798112166897,18.529257431682574
35.55465613196123,72.09091613953382,31.63836467861098
40.60470880076894,70.53011357553284,41.03535016902793
39.152776389764206,62.05163605544908,46.14740155068557
31.583523990103178,47.96793108559066,46.85555568584094
19.185597044182586,30.542611941275123,43.33596871321116
3.942846135925936,12.218566217339756,36.00828243365518
11.792159352350458,4.983995838756122,25.607373459510132
25.677672922896097,19.654378527065592,13.246790268110974
35.709847189134685,30.81274749967725,0.40635214873186015
40.46895595561637,37.65314117917994,11.108997180552082
39.26874158975148,39.51045163862413,19.30547271542675
32.20809827793263,36.12148085276253,22.586006414558554
20.15596677882796,27.98223575906258,20.568654210994428
4.656069530511072,16.508735320881282,14.298358342570719
12.255476280217469,3.8436077680708665,5.718681647966054
28.294211429354267,7.63638622103382,2.982651073388425
41.21029100254224,15.888118760269702,9.756301957326452
49.089403609088734,19.580154056003366,13.047936171348645
50.63061034007334,18.17366893860926,12.030316416807844
45.34939399775334,11.801134361999107,6.724687573432202
33.69338523280903,1.1248991424670853,1.6628041113850165
17.044900236972552,12.708605312201584,11.061439159459402
2.4279396920159546,28.06083230033818,19.4023933815842
22.053774743778252,42.8657111615896,25.17698593507533
39.05066238393118,54.87001365116521,27.745489790569746
50.98071976870945,62.047180864647295,27.08972158266563
56.15724862323199,63.023869342945666,23.58778167179909
53.90552045775332,57.33248545050188,18.104020142365894
44.63698688702706,45.42640326145304,11.851298501642082
29.744069079591757,28.507067534593933,6.290002307483402
11.342806288113575,8.29082346263658,2.711000009931152
8.066346760425654,13.164375896754311,1.4912219148918242
25.932889390952013,33.56097348267666,1.9240556216406004
39.96008803334609,50.49605291514471,2.7929732937247116
48.37094993848684,61.74334386943651,2.9571556299822164
50.123716648968724,65.67079866856096,1.5608650115912797
45.065618813887454,61.669312932262876,1.596292116409265
33.987746962724316,50.40840960706104,5.980252391333677
18.547021169482175,33.75914364378396,10.735614349367488
1.0336854866519423,14.405676951406807,14.667994471168429
15.978783655680331,4.709392984543732,16.602791853664073
30.02102751927504,20.919690487777764,16.3808217289338
39.10631485972527,32.18758457988534,14.898346280397382
42.01720930351636,37.270909485535874,13.303253000507318
38.435353507137535,35.76914548425977,12.376137532780287
28.946796951102808,28.115754300791405,12.347350625988444
15.024579970403208,15.677825368694505,13.333235909706822
1.2984087952108956,0.5292344841388379,15.397655000798283
17.891886809570643,15.03252499194209,18.22298424073931
32.77580949380533,28.823049872733506,21.267028058070274
44.34023846199326,39.13572702418558,23.884166699418266
51.52805372205179,45.02578842045093,25.314825032224938
53.94300391969496,46.40544369804758,24.895647676966895
51.862689374061446,43.91597220376526,22.261610953782977
0.9011828109773078,2.270932887779217,4.0037814886918595
3.8274149154395745,1.7506209359654017,6.414754193379378
9.438163984144294,6.7291317575263925,7.774194540059462
15.04788325912274,11.698307053945301,7.9221046635664765
19.569530444891175,15.562351753367054,7.0772170851184475
21.923861415741502,17.42711065900373,5.788176329955026
21.2801933443124,16.8392202432852,4.750867528279967
17.245609720065477,13.820826219756734,4.473410769292037
10.003857602680316,8.750637202287894,4.8842997715966
0.30104312484119006,2.167679935927136,5.210909959242256
10.675529283873319,5.3300765618323975,4.2685764069645815
21.390172405975047,12.987590407634514,1.0363389013194304
30.039194374317844,19.70601882762127,4.715655174926377
35.00887589385833,24.182203841430233,12.36746827444922
35.4294703973096,25.32768399542152,20.909644499487307
31.14206483026979,22.50673504501846,29.20487593683088
22.613973379057473,15.805098590889102,36.16097942321881
11.003343460834893,6.258132212624917,40.79178193529335
2.0279907933456305,4.368463409681564,42.07465275486189
14.521733487326749,14.030995884034562,39.00941217564289
24.524968722367806,20.949607491995266,30.833137444884407
30.478326219071967,24.034542114470792,17.40498005977331
31.472187173890095,22.952463184100218,0.4648631440164479
27.42479427399704,17.96758385904899,21.171940025284037
19.054357649134207,9.702536597693069,42.648055003553594
7.707149663259431,0.977342595826055,62.49228368108797
4.8625731854417396,12.89570607116839,78.14332199544288
16.76483038427738,24.461462102646998,87.48076104751574
26.190375616797752,33.69448220239998,89.26309028110202
31.60801960219204,38.55138667101033,83.06229426015268
31.961393653353117,37.47463863296252,69.27285154579202
26.850233427371485,29.93149673764954,49.04838527354363
16.671346317205646,16.68418459125065,24.0532486754331
2.6352156426052145,0.3827951701106475,3.8435466765498227
13.361068653932415,18.768782538007038,32.57838153072277
29.013237949229936,35.96518343165788,59.394075988260305
41.99452596446032,49.90585130927119,81.09262894385938
50.327479305085326,59.09379686638095,95.00786747289773
52.66966955929585,62.49210565914869,99.54068532758102
48.47921418027729,59.37950464455236,94.40239455663428
38.06226046766178,49.35992365989615,80.53694376833471
22.53386278550037,32.59986794728141,59.901844912811335
3.69839049483983,10.173498431399233,35.46501984138391
16.147477506407007,15.71745566082093,10.886673380214217
34.481620929300675,41.84842964259305,10.460504385421343
48.899202743523404,64.45410355796868,26.308696449902648
57.48535963673903,79.9741973464767,35.410063819448716
59.12590210039962,85.81551752553804,37.64550468230656
53.682337743287796,80.88327888238382,34.481151596547406
41.997359187406104,65.7498646504039,28.423694828958997
25.741324211900565,42.46045509112128,21.97870777182735
7.135373299099423,14.106349835326533,17.189673541827077
11.379136375267697,15.670265284292883,15.558718588046274
27.464723998337288,43.12432334201157,17.671600351387372
39.17494865305315,64.7800131456327,22.730419326992678
45.16601641214504,77.79593665062231,28.932036223401678
44.8358800953129,80.37615003580363,34.24717919801016
38.39562869465191,72.18186839539737,36.69852526006146
26.848484175798006,54.59925659411055,34.44296325290685
11.875315548746261,30.678475085263226,26.24369294779127
4.382847230842267,4.627729454645301,12.433760028981743
19.623789978321284,19.087543416905326,4.7429491918875
31.702069966905498,36.77302582832395,22.24508168095456
38.93406586330586,46.29333423074225,37.441056284033536
40.33428335216437,47.345317938351236,48.34990668252381
35.72286924073488,41.16164359750673,53.475132879203336
25.721621899030055,29.856500158168398,51.92930809283239
11.660492085266354,15.754066461635873,43.93917009889805
4.59893894126245,0.9649095261218429,30.829828607234933
20.884098823114137,12.712207326574765,14.376316055744093
34.95037330391544,23.70906336180032,3.404772662245189
44.7438596696955,30.655740589942045,20.242760680047265
48.67103771708624,32.540977774978494,33.979125594061706
45.85252008996701,29.02151248271974,43.06857752168794
36.34514485646121,20.647288028097233,46.7443237668266
21.253265503755742,8.805729715622695,44.59217478344757
2.6495827887780923,4.63456785593167,36.2443650421893
16.708391098345977,17.826530482414622,21.830220784395852
33.856528921570195,29.332656136733686,2.611068583680997
46.19379827173805,38.216555369650706,19.26112909288545
51.97706765318151,43.84743906950596,41.393443897534894
50.63077350089562,45.639458442449644,60.974601596144076
42.78758798876089,42.998030116149806,74.7208372639293
30.04907988089884,35.56251725968392,79.54457095476064
14.585446457155328,23.621534113845748,73.38608980933083
1.290593321639771,8.417933787468934,56.101611339811704
15.48048532463039,7.901471663065254,29.44364171722378
26.32584683306591,22.709574078801058,3.506861817809299
32.71903257813321,33.53495253513631,38.550845938059915
34.15992997027541,38.65107390481415,71.00630950251508
30.79228154486247,37.3952397731042,96.60085111240151
23.416661089350058,30.184637021744116,112.09027876644593
13.439125742957533,18.356647172149415,115.60701958599068
2.690552338026828,3.966996212565124,106.83329018887858
6.884466689164867,10.429917956049723,87.24311175003793
13.60567362898133,22.079073748892423,60.073873223053695
16.397684896910494,28.452695665375987,29.708631840474858
14.953178787872288,27.78170872049836,0.4539489465760198
9.68941524689251,19.540479134221425,24.538237630184767
1.5598647358473916,4.684215059228904,43.478427097477
8.202390112318284,14.488651316222313,55.735604317029875
18.26866971856292,34.833071211417916,61.57867119737866
27.27833416602955,53.02204768296004,62.13125985093673
33.861610734835345,66.1416207228669,59.13949280252415
36.703151379113386,72.07443936302552,54.145539719396695
34.721821590661925,69.6713865074983,48.15291718037478
27.361284357992957,58.831341338725814,41.887246921507526
14.884331314884545,40.55252525946848,35.86840220017455
1.4828031033118878,16.896175367702675,30.490051061578722
19.66583379983189,9.217055721076987,26.201787159291598
37.10453343971157,34.4444464655771,23.24963886393108
51.26374477720935,55.658080316702346,21.292342535743845
60.1189320841873,70.56403104169256,19.69131093848137
62.45919496066183,78.04311860876054,17.556693358835748
57.979087647400384,78.10034392875765,13.516464663372892
47.21682859478267,71.5063897138238,6.5464562071669254
31.423039869159293,59.37398513390052,3.2896403798687603
12.406629921832055,42.93369178843518,15.253395024540488
7.629496031902221,23.59363505096314,28.227942499029925
26.284376818060796,3.147297655773208,40.200523635914585
41.24993629095476,16.118618746540324,48.206134109851725
50.66152722106841,31.626777559938994,49.702641259879115
53.397170646885186,41.0367036128959,43.792299039741984
49.2643777555982,42.89851056073968,31.275420699829674
39.021325198441794,37.13940101734696,14.424680010335045
24.230112274726277,25.142858175587776,3.5280834221153285
7.00760173657,9.395901808291724,19.184002950186073
10.263138489015633,7.103556475014427,29.406882386526515
25.213175473569496,21.44258043186991,31.824089600537988
35.761566884202786,31.224174646470654,25.572939448125
40.376596096833886,34.79283260004104,11.337592870726917
38.30449122378573,31.343510155851757,9.01600929527769
29.750241586698777,21.010977869828874,32.453380894210966
15.915062803937184,4.9447299467301535,55.04452543601279
1.166940190709685,14.707543340164756,72.72433601175894
18.94979961054145,35.00943214550284,82.12774297077998
34.794119442217976,52.686755297781865,81.1404947044081
46.376789496156626,64.7418009410664,69.04630499226091
52.00118844416236,69.04916355312324,46.76587879374418
50.779249246695734,64.75238027721444,17.085654780717427
42.69713974116803,52.36777226827721,15.7960147505408
28.611729098670637,33.61230638479795,47.22586348277551
10.351192685327023,11.157866536925779,73.47671671494314
9.624825949531898,11.975886955704096,92.5433634890419
28.842762101169175,33.1099019136245,103.72804456975513
45.13546190380317,50.18528869323894,107.07879058631173
56.91506029494793,61.89997430931726,103.29202763022651
63.34990663649802,67.73827384842073,93.59912871620679
64.40576751316918,67.91785535828431,79.46324504696653
60.744210172966454,63.269631642622365,62.70732027574496
2.675683183746281,3.2897155303848984,2.790122922832322
9.502245041327456,8.448869052926716,0.38399749674308514
16.70304798431825,13.911688016364687,3.58066635436614
22.857081379157616,18.71844864256943,9.050930485830378
26.511580992033327,21.827355390976578,15.385041176253528
26.486164707913424,22.282406471430168,21.296112451214604
22.140231688835918,19.391735459766537,25.166316697787174
13.507173163009375,12.85683971893055,25.578345757594047
1.343810433328664,2.8982637836657204,21.838828154509336
12.987994765448253,9.695762621429457,14.015326271029984
27.71437141426288,23.58001349698935,2.6809745834346708
40.75365276893529,36.85422065290451,11.022571266919837
49.8163056765941,47.16084251323727,25.51282153823955
53.00199825343896,52.28986960082252,39.18651942856542
49.518038652678996,50.93057963098591,50.47108580888264
39.6335832428083,42.78767654505635,57.69437274552743
24.484445013105237,28.5449433048315,59.32135611352554
5.99395817816833,9.871336146873727,54.48611250684698
13.509015592300205,10.879434967163002,43.272920046146695
31.608096248207357,30.94927573868898,26.83271856075173
46.10528764177681,47.48812608608259,7.343477481020655
55.33629080118276,57.95835537607042,12.710680506819294
58.302103105988245,60.48507269603449,31.193879440032962
54.778475988174925,54.27018624654401,46.492222641769835
45.29685135690746,39.91029078443544,57.76638006633967
31.04266120902767,19.488636908633662,64.88443253287134
13.734814160217427,3.6535627035356453,67.92603384801549
4.573416107243209,25.55115128081498,66.75188303794965
21.683855983244,42.45613048486383,61.15288639659688
35.49280118530636,51.653964461489984,51.31575781124017
44.26236079373163,51.98355249151026,37.57387253749374
46.8577766538008,43.88630402672263,20.392852898107588
42.94744316192181,29.050307632782044,1.1981030146595752
33.09494500377892,9.865165764005356,17.750143477013115
18.725859303388596,11.039336698875381,34.3779100089119
1.9610470747915891,31.05123471946423,47.17217637511752
14.682689259302819,47.68878536815669,55.088724139218584
28.667341771497977,58.73485481119181,57.46706854125147
37.826991163147184,62.54736701811252,53.87238952991919
40.716780573398054,58.49190405579955,44.28924093441663
36.85612260287762,47.27443417650837,29.645884246869514
26.818879520592514,30.925437646674098,11.755218057561686
12.143463469848985,12.313317780056861,7.317819925093219
4.911762130644457,5.654882630022993,25.559203321085086
21.70821986825712,20.776997696553824,40.95121388675364
35.619899477201606,31.906288393904315,51.546003847266874
44.42874334979449,38.79188967660283,55.69971955218571
46.65844122809681,41.595234137559565,52.0611481001652
41.80876239472818,40.466693080580356,39.4089213769501
30.461652261312178,35.480835012160675,17.54153476504205
14.222424358945121,26.952339802437336,11.381970514223589
4.512374531828702,15.876557104826588,43.2755675486158
22.91945786407448,4.118106082556529,73.54590392875565
38.19400265253418,5.887135702037534,97.81613394362603
48.00144606305196,11.836914475841738,112.46531983450505
50.839451765421835,12.328805774957234,115.10578374908215
46.24466032994988,7.295714648171963,104.88356146717587
34.8298700828531,2.092889107149382,82.67563295891723
18.180524268301223,13.942283029293366,50.717330995204776
1.374703548369715,26.222556407560635,12.246823274893183
21.086919591019885,37.145077826329114,28.494517597913926
38.14815082567112,45.217411420187524,66.66720235112373
50.07419618470624,49.12398777474699,97.63120818837284
55.0663052736437,47.70210935606664,117.82942661037484
52.28742017097166,40.15101619147453,125.56562568449579
42.00468706130266,26.421714791126636,121.23436734952197
25.560666292134034,7.5630105842337425,107.0498819036629
5.171533322970668,14.263160719123558,86.67718433665893
16.41261025440694,36.18646491501663,64.21064110275768
36.30057111466042,55.27745846204314,42.44847246428213
51.835662913797904,69.16933606317536,22.281148243296556
60.932740043534885,76.42172835131622,3.5023368956512115
62.335552840784345,76.55158455437522,14.28437431462811
55.766368126421966,69.85053697865521,30.934623877581597
41.97296831539454,57.18585593747756,45.51793805228948
22.66360733770242,39.91444175120881,56.64887738336164
0.30943085619833915,19.877232588470502,62.900693311559316
22.181679627928016,0.6625826700176303,63.39350481591291
41.86555523099424,19.247324780455383,58.187645286976576
56.17434983001864,33.622388403280496,48.158126696925024
63.2773800643963,42.177108882573314,34.96750304436685
62.31890290305441,44.256516516455285,21.13098218132254
53.52151644999643,40.22167172387895,9.618343022175408
38.15624465109179,31.263938347852207,3.132468123995055
18.3646981892899,19.094782566097862,3.2687279336607697
3.1375481353982693,5.637248150128887,9.604300735597386
23.44217538067596,7.204446624350079,19.778991652243057
39.87840720586748,17.706577062571704,30.528824989414993
50.415767045021,24.47256912194461,38.20213373362143
53.948043810765526,26.592341505782354,39.46711365565496
50.39804133099974,23.80381860992557,32.511145471605296
40.631756056745466,16.585665345280187,17.397856205585285
26.21904676807489,6.114487425361003,4.02546161012257
9.13084314182479,5.9189588310703325,28.354029199713978
8.535115001688355,17.60409732029075,51.256672623859
24.75835853839646,27.141427904258464,68.34247937239243
37.7304827324575,33.129183080336055,76.33779841977913
45.9626399412634,34.77344370178037,73.9238896688999
48.41644728832879,32.00348523415858,61.826267156654296
44.66899030570417,25.465904537846217,42.45219633978076
35.07072379136822,16.391836250679322,19.248237822909978
20.81029668156445,6.363425935712982,3.7474897295970524
3.8144771823510073,2.9689347684095306,22.409084403409693
13.520180635100848,10.160203416153678,33.63438136667388
28.712707473347486,14.18070462113979,36.4669271612325
39.602929612534346,14.517971345038605,32.09879655952629
44.67075741369703,11.185644582883718,22.760494999944925
43.23077714063628,4.710266452981925,11.001455470482043
35.5157237845951,3.8848563360890633,0.5029108047359325
22.65848520877658,13.137695790877784,9.517132551868803
6.588446829431347,21.283929859412442,14.626007229344303
10.157120956278156,26.517042874660593,15.283087659439808
24.76372968241375,27.360756855244734,12.03369846348162
34.61952785981616,23.02490524277173,6.522517963403473
37.84390251668338,13.605699184941473,0.7944779418023146
33.74151172659509,0.06745434821899006,3.78912949906454
23.02690982766683,15.990146315686706,6.928907232014409
7.698749122586876,32.67509242581929,8.922720835024618
9.414192965316118,48.07861061918272,10.188515092867675
25.29099210448545,60.407354496695234,10.92137279530116
37.319252808363935,68.03560021724468,11.247334640970237
43.69364051981653,69.58184142228403,11.808845703936143
43.565918104718705,64.10781917333365,13.481202840531575
36.99790599133346,51.42761018736768,16.296830543644614
24.843277501452892,32.382077090755296,19.249128365040864
8.631855154407008,8.912386800917194,21.20804634276911
9.545772752265382,16.176489160456295,21.369859134076773
27.22174165834954,39.71863579697544,19.04760064495188
41.87010184838608,58.763653552235276,13.756100915624161
51.32074849211999,71.036159696302,5.395413230970741
54.16526336279116,75.17889811222675,5.507039966916062
50.00476161345517,70.80170369526569,17.562692285031027
39.45217218966539,58.47076101754676,28.742433458914082
23.932097603766437,39.723410363576754,36.866480890473994
5.372302471604283,17.04474242238688,40.480943354960466
14.065893094881957,6.305219048746636,39.48508364821659
32.14794305580187,26.71960918407152,34.54352385147375
46.67375613288691,40.94058519476309,26.518720555028768
55.62632129882968,46.8144207740978,16.660008451741934
57.45431479445421,43.80187620095099,6.429699063580498
51.44496510753612,33.03764035675098,2.92420478623326
38.034983972871245,16.91902940228966,10.492966350542218
18.994222360132166,1.6703071418769646,15.844390767526084
2.9585583183354798,19.950649702834177,19.092218344760205
24.856136279564222,35.54578637162188,20.550746627063557
43.99557095611811,46.73883596414948,20.67401705828341
58.37023214290555,52.57017647414571,20.12614915281455
66.89550018403884,52.850609607030265,19.387230316374225
69.40993329045308,48.14256197853779,18.67575178188528
66.50910455470728,39.688851826730875,18.035879217462327
0.2624607838962442,1.842988147023966,3.8384316922927284
5.464425352400445,7.996617043589538,4.554603590852991
11.561669483895612,14.448347418525918,4.131192332439034
17.456806029393917,19.93406260144894,2.296953186048519
21.85269089694366,23.3247829865755,0.7740188014324506
23.52913360419727,23.77949910460372,4.4942150127061655
21.606749061517707,20.793042876474484,8.105154588454434
15.711268885958924,14.189780134668094,10.807491104376755
6.082368677244548,4.178399978489368,11.921972329038725
6.424490161540773,8.552102186771323,11.199025680879647
20.400802949623127,22.747839305859802,8.846941677651815
33.93440038845652,36.54324876005358,5.4010651240015655
44.71115632663325,47.54586226788623,1.7122549587133327
50.52228965100614,53.356361803654664,1.1762694014988315
49.91623690597279,52.349613033042125,2.48409063501022
42.367528564448655,44.06344109333747,2.1020348924267234
28.374153071067404,29.23280459963189,0.4777800058110577
9.568465797069301,9.601323662546571,1.7336573922729561
11.552153774545296,12.518154451970712,3.8645207310271266
32.01910597413672,34.55286719563647,5.075122371743969
48.89509439296826,53.80263156830575,4.188380656082041
59.801426071140895,67.54668497678894,0.2561015915233551
63.24776334301373,73.22798100432807,6.830714676569471
58.8381743470174,68.93816223475879,16.363309748589934
47.26142389149461,54.094751803841866,26.980654973106223
30.132126631328273,30.024026403512906,36.93966633806595
9.766972835864422,0.11863181098644031,44.49975196533505
11.133173895145257,30.68143218907514,48.29509080199807
29.817132609516793,56.95695886259389,47.559530274043475
43.84460901388549,74.083215299646,42.03996352391187
51.42527631776907,79.25991651050344,32.03977347479264
51.6825083455491,71.9606809841413,18.61319777078406
44.81038575806444,53.76995614642066,3.3066572698231815
32.04533613834001,27.816554476740233,12.422280339325699
15.472225765286991,1.8885114822325917,27.649419433875085
2.315582646981656,31.034638653791777,41.93123209014591
18.64813820182843,55.48541600074643,54.59986142710734
31.194289875705994,71.72899628999077,64.56081441853674
38.292082463358305,77.4082003941957,71.03905956223785
39.13998300417583,71.83545694525947,73.6772666355282
33.84727794217774,56.27218371167658,72.07898909738962
23.36521769454347,33.774339414544684,66.12776047592197
9.325729909232457,8.533985612818597,56.26841188628834
6.173907125103669,15.120336299015054,43.07621486207839
20.829604120909913,33.71612330935475,27.122691874374077
32.423712890897214,45.25801097072735,9.217200129492753
39.13778973647001,49.3155365432114,9.512710204051134
39.84641723166798,46.671038244858444,27.618818487977826
34.32858512988971,38.781706457901876,43.56671260896252
23.33879350620345,27.339115539147524,55.88917691616246
8.499307407853692,14.053999549970582,63.17173970409072
7.975472002053736,0.6141917902704668,64.68970426359128
23.651180885859965,11.323125013524049,61.024474459667125
36.247680907898435,20.23415371101442,53.81968797890793
43.94982782558301,24.939731456507356,45.13297514596799
45.62056796838554,24.83144064453673,36.5899605322409
40.91037937845321,19.99126044960599,29.035522693346767
30.293465614825145,11.156163622925673,22.79365809060654
15.038475810979387,0.42901585352013943,17.552974472472513
2.9077793514759547,13.198640006232463,12.601617264102208
21.134865589223775,25.42676734111024,7.7439175724539835
37.09230321989032,35.36527071807782,3.3214736937522975
48.474806294720416,41.41595802357423,0.43639096073880984
53.576208333130005,42.36523946736776,3.547576448782867
51.55698739013128,37.650689061897076,6.455813148299801
42.563844715576515,27.558873915196664,10.217879714895762
27.678225110938865,13.248051660569027,16.176782819016626
8.751808841172249,3.4454479586818993,25.480574819919887
11.829236496332992,20.355060566146907,37.973615096304925
31.430158529479005,35.34784382504278,51.566469512658465
47.47009805778805,46.59541528092829,63.56590879820607
57.72838787446319,52.728184439407805,71.5554492509601
60.66165583074709,52.91476328638849,73.18316778688859
55.67516577928495,46.93157117956556,66.78285432467169
43.26841106073081,35.26519068630707,51.99679059516931
25.020457454278,19.197263648389715,29.730630322323595
3.3819147136124075,0.752783068626013,2.1100751663664967
18.695434037177584,17.539641532217136,27.747172452367504
38.20789295543577,33.042330004331696,56.051462753394595
52.54944164658995,43.47741785669677,78.72526277836432
59.864473832581766,47.33216855604702,92.24181093816537
59.26490035580308,44.083948459374206,94.46426630169042
50.92093341913548,34.2333764753022,84.95998527538428
36.02305928805519,19.191982129459454,64.95549171943635
16.628868729688946,1.06412399205296,37.3042948753846
4.5960357474549784,17.632906013903014,6.550471578598502
24.735749596870793,34.284220949336486,21.69961151270974
41.038004213240974,46.52884949971859,42.50826521002765
51.320416523244155,52.60172472537489,52.99913623760407
54.29748992854001,51.6039421390261,52.40527092987958
49.75324460462495,43.662882557105824,42.07047660578063
38.52625378699377,29.936328738807685,25.6394991756343
22.340773946523253,12.444848580904997,7.801458931555728
3.5254906758236397,6.237987704500805,7.557812275179834
15.324932721431882,23.375892247171837,18.02732395933129
31.669291306007278,36.475642710156805,22.67326872339187
43.309011654724195,43.67025994962133,21.689569152826312
48.65133477433495,44.03023619020081,15.878400971330608
46.9140958215521,37.737797864613704,6.484695576785932
38.257392129270706,26.075508922228174,5.1411621537279535
23.819435628746728,11.21119306564074,17.80580432108863
5.609438830200192,4.188183712788737,30.03991243395159
13.768393449090341,17.425690129658488,39.87591753160667
31.512308625122877,26.228851149112597,45.348228694289716
45.044914698512095,29.10979978409147,45.224583364286325
52.397840794713694,25.57071741853472,39.53412650940001
52.4961776596055,16.147289178340625,29.539258810886796
45.275664769800855,2.3163838611966305,17.108631878883635
31.65980850326731,13.722911999477118,4.0457537813309425
13.442775645191064,29.387697835710995,8.157735525103458
6.931771696766477,42.126367863502175,18.517481219733963
26.68018833904121,49.831863834522196,26.62193549333962
43.049223559331544,51.16744750518688,32.250076328072794
53.728064406741815,45.73763945768114,35.12370588203644
57.23684056211526,34.08328455915786,34.940824321635986
53.19286197889513,17.535064518842056,31.608395037602182
42.37672468588283,1.9985770878631968,25.592133684992803
26.583795041641046,22.24446716066472,17.987150209116972
8.290189033914599,40.778251599468426,10.42814155335457
9.798826833504226,55.258057590135685,4.559041627968162
25.196709503550494,63.69502739612398,1.0757761589191872
35.97594785190954,64.77620945389148,0.3818278997413443
40.96813533659248,58.16652014917348,0.5930142187980757
39.85444403815832,44.65665696296477,0.3259008073035867
33.16917651789949,26.08591103737751,0.04163509692988784
22.20600289145476,5.026146009903515,0.6189280794621836
8.835529491169398,15.695160848499034,1.5058422871077857
4.777213040798905,33.46191931807595,2.3508099898632278
16.539242790771887,46.20868884231436,2.480251062668468
24.786158455465586,52.59814487403741,1.3949348302534175
28.54188960143869,52.067342076919815,0.8114721368572859
27.601913285089317,44.82826931861908,3.4018399573858447
22.425052603295423,31.869705655646715,5.376341962423849
13.91990019264637,14.925329557993672,6.041374408315843
3.2295296776127915,3.6706461190803683,5.348033658059932
8.400049449054098,21.294793843032405,3.882642731961443
19.66304825065656,35.490130569845945,2.8873415240337956
29.21378953521362,44.43953848093137,3.9800755803582484
35.73741859638974,47.28600984098562,8.164769674402502
38.124375090436544,44.200597281707516,15.104520944148833
35.72270957741286,36.18350309021479,23.272390050668044
28.573856503466903,24.69604956641829,30.744219678092
17.600612668875037,11.435403589303254,36.25372711262069
4.321825344429263,1.9578926204789324,39.28401641849503
9.639022050675948,14.192766965398741,39.69373103433222
22.768909548323283,24.320648123201888,37.52192688886875
33.820119257289925,31.688081475971227,32.64008500895744
41.88817515851078,35.92235139903459,24.926492603089134
46.43220898516144,36.9577488928772,14.720913435192209
47.27552835669591,35.07441321238844,3.125662421894051
0.8996576793237883,2.4050840474205906,15.6066840683078
5.782155503117953,1.2751365253068927,16.318282516060258
11.365597348460458,5.928521817537625,13.31212752962109
16.619799568504927,10.88622156239633,6.376017062381025
20.356947544022304,15.253677983118568,3.7024659482468776
21.495154113708956,18.049110065023136,15.6618161089789
19.302770095293543,18.40480748640419,28.082392835824013
13.528839568505209,15.774055517304152,39.326927893051696
4.475354956395441,10.118360038009437,47.767984663658616
7.026918172354302,1.9748683542855587,51.92344215548324
19.68481794667121,7.587764642833869,50.40216045102616
31.767295578156176,17.050409661266308,42.395393817868054
41.178444567827185,24.56608880604284,28.243197190568583
45.94910197658551,28.36286304755858,9.505778936961965
44.85382931037291,27.287748934028023,11.413706552814832
37.523392526830165,21.019099109628886,31.81405597217111
24.50636562803635,10.182057075804316,48.946015723709934
7.357948106237452,3.54966954772332,60.608113875555155
11.635956055914967,17.670590910609977,66.00931357754071
29.804606599373116,29.26829988049235,65.71531582522506
44.517423437411416,35.67446887288613,61.11872282110128
53.64254589766843,35.22487147264908,53.82840343428218
55.82224924971205,27.753623412679644,44.88680626169369
50.66375916530774,14.648817925231906,34.6119086000832
38.77572846133252,1.6245452049265257,23.063641633148443
21.703187652611316,18.31404168036164,10.284936816883205
1.7922678784216668,33.11244052652483,3.7266765205176906
18.109776993649106,44.539325455344205,18.72328437489506
35.0537807014737,51.80145937823306,33.83285679170281
46.46355620205417,54.3570618463971,47.78079618815477
50.589743757648726,51.56694233082291,59.14114431611969
46.81348715108403,42.741437474987876,66.30674225795073
35.7474065127159,27.6491087003088,67.84481228130153
19.10246356871428,7.152628795290689,62.97386955458892
0.6240844121074762,16.48258973121542,51.872085197619185
20.550693786381746,39.90044523053499,35.821466375800455
37.82151073979799,59.531111871928324,16.884847223418518
49.97443321739126,72.60390455893938,2.4911311131631484
55.25213143370477,77.78657601323523,19.848429615369966
52.834987695993135,75.16089305699451,33.13079147610999
42.96189700990338,65.65178115319219,40.892626056145644
26.90483736012051,50.37906267840332,42.586565021531015
6.7938877315163975,30.407956722923927,38.75128579593182
14.696028352611533,7.0390879703084375,30.86323820224728
34.74688580370215,17.654296393278777,21.089201533463743
50.79569854156002,40.56200263152687,11.817424463047578
60.86092538753603,57.940750267050916,4.841755089546618
63.76414684010421,66.46722704717591,0.721407688037437
59.2447699590825,64.46972731257706,1.0232039130969055
47.971555701053965,52.68523014148873,1.4225536700875345
31.453279823969645,34.09629882888645,1.7460782743076075
11.854138571919743,12.899013838373593,3.0247439391115214
8.289118139726831,6.864740786572346,5.76404952271884
26.420888709514923,22.343493816033483,9.828365470282499
40.325901879627,32.17187518928633,14.55455596186465
48.42265381719481,36.07727078258103,19.34333366849148
49.944974699047386,34.241489052089115,23.644856963976025
45.000875632661135,26.91882451000511,26.62719000329962
34.51319234316537,14.541200726996761,27.544921870517797
20.077771287911713,1.8494769028875173,26.026242627870563
3.774867097999974,20.25708999225731,22.120416272518327
12.065087395264271,37.826125847639496,16.442861228942093
25.135776485983182,51.442261530885645,9.916717771475955
33.46229764772576,58.57579968191786,3.3607132733256497
35.71500702381935,57.93799222736504,2.7128686073516746
31.45989903373003,49.666631938162965,8.550703351322328
21.274322755132022,35.048423135221704,15.028937423049046
6.680172198918037,16.01806367512017,22.524790265181085
10.101542112161,5.259027011460031,30.624997885451553
26.511049080967908,26.556660342118867,38.47640048173628
40.044364463778145,45.581948306986384,44.64811266863786
48.60189595409613,60.0119600021263,47.47966512606323
50.735777650474446,67.75181805386721,45.880899156879984
45.80712094613072,67.40505100353174,39.89131745794933
34.08380881098152,58.76101401993722,30.840117526936595
16.76242306574825,43.042144333621955,20.591683997402466
4.1058454709682595,22.73975507906044,10.537777129748736
25.807000840085916,1.075904536376492,1.4097995617646324
45.30956031180539,18.685833299792748,6.510177453863404
59.73088137963116,33.84088491630865,13.366024952568576
66.8335954375465,42.608862652285474,19.560055503653476
65.44519142240601,44.24015897772002,25.409887952074683
55.68612878613327,38.95736396629723,30.92477442294047
38.9456398417064,27.84768269165602,35.55556751148322
17.62378127942201,12.733816347448624,38.373998230604755
5.279894170607653,4.020085399595314,38.682994513947364
26.635589668026867,19.810636286838673,35.964720321275394
43.62898031705359,32.20695307671537,29.716391288232796
54.11757003871935,39.3849996138301,19.882120039903477
56.87427432960173,40.44379074660933,6.886805667769942
51.719096494254735,35.49264856835446,8.272805148497934
39.543468477585506,25.502440174651774,23.494204988589907
22.213007665995622,12.019293752580921,36.06266498708742
2.324965770606139,3.1314117443804923,43.5897069960154
17.15335316224889,18.05140024404383,44.34179391500726
33.325633230733764,30.887049055282294,37.63032206390056
43.82054939599801,39.93960272810358,24.135890330253922
47.15137172664518,43.85249879278555,5.838822605022379
42.92920068728756,41.88804886873857,14.233276898984164
31.906700763221124,34.18206703006096,32.517255147330765
15.83397812047717,21.845091808685698,45.814130661548226
2.8322059047640797,6.819316396238574,52.264051335437706
21.302615628114285,8.518296076365479,51.766147393444605
36.8633235589256,21.86266150290669,45.71725731288314
47.25723918142587,31.392367497827806,36.18512757043566
50.98309357199565,35.96071817420412,25.04967707463767
47.47728332785273,35.084207486233765,13.77159103034738
37.16167841079908,28.848351116710546,3.2259453422888384
21.37576106762717,17.855449921454678,6.28822672875603
2.2126329816020514,3.272676553231626,14.434500887034721
17.741166783783882,13.09601612414958,20.64998196162631
35.73595991120603,28.882293985819516,24.303661206374418
49.22664396329507,41.49202501615026,24.837425801636627
56.24611297088256,48.67096501584854,22.301085849333127
55.71845991980336,49.08761930083692,17.59530885697084
47.649124026128156,42.68956965428291,12.113740808271581
33.152264682117774,30.667825542156212,7.198790156909164
14.281175595825648,15.053959603700719,3.585280490647538
6.308143163008939,1.8272580037184,1.3159707192655103
25.769977450998862,17.829866478165943,0.2129066464378432
41.486232555673496,31.23302940434126,0.30347175331930276
51.417331427992025,40.747634755484896,1.8393327017591934
54.34453732214963,45.46255197550073,5.09936219854699
50.0103685148151,44.88986244691754,10.129959709278348
39.14170970530723,39.12163971024552,16.42707907831158
23.352236870013645,28.992955771415737,23.08148334578073
4.934619001322063,16.084150981125354,29.214818731078033
13.471479030818086,2.466255609933388,34.18231403316984
29.300999607900955,9.748493047442038,37.90234042529927
40.47725644819309,18.85863883571474,40.71115943557956
45.71089598512189,23.82723767805073,42.799958986850555
44.62086226890592,24.26953513001779,44.02143375451384
37.67739496523109,20.29284180036114,43.40283073207238
26.018569384817848,12.380299143261968,39.11662304950347
11.234405201731281,1.426163884028884,29.545805630497075
4.817466922025599,11.12444438871982,14.281398437092722
20.15589383761038,23.232344058526234,5.6195750585024635
32.8145327473062,32.49616876914228,28.41688377645443
41.03384932232303,36.660399242246676,52.206807995558
43.51972668747254,34.254716565368966,74.4717303599301
39.717125698726136,25.089491202187833,92.44505777594307
29.985765505596657,10.346041916965868,104.09360405245539
15.689561776571894,7.841617220307392,108.48134286413068
1.171333638862632,26.968877709688964,105.54249798408392
18.51596067951204,44.61972804056821,95.95044253855066
34.43849284422334,58.820381263492294,81.2481859953916
47.391323249237715,68.21821369116861,63.65334098538913
56.287482823562556,72.11772180260883,45.588801212452644
60.542358515597186,70.46664810416863,29.049165354114585
60.09052574371673,63.85220649562951,15.344881145286653
1.4310650208184241,0.3641148338737383,6.034690542041298
8.607202488829447,4.838165718751542,5.959294555033321
16.846387762719964,9.589974741090838,4.797045487514715
24.689744465429257,13.809703311426919,2.0356669222580104
30.434306281217754,16.792400324812238,2.579298727926071
32.4684271134932,17.958859915172663,9.064083949709824
29.608559208587778,16.814356946688928,16.96363510921703
21.335808086178666,12.938343587610433,25.063515139366924
7.967592855643973,6.1373951399844024,31.685708217946285
9.317295000833083,3.3114469913116036,35.155129176106875
28.55479295960127,14.45463740757482,34.18096535456991
47.08278033895429,25.593068469899524,28.38006895555731
61.734968094532405,34.46798532169287,18.35511722296145
69.60451395821546,38.923303524230164,5.372734814679422
68.96240188239115,37.71492063878402,9.037750241056088
59.41494783013694,30.778788535528037,23.648854392658272
41.8822767541839,19.12628221154789,37.38166717630511
18.593560623814653,4.538840398884548,48.71556787916026
7.3741332333203475,10.981476046062653,55.95610440652483
32.59997035983434,25.572447903130275,58.01884912504559
53.83807487732476,37.613895948114255,54.82541549326513
68.5227041747579,45.71274695696971,47.01464202244447
75.03100623747127,48.68295486921572,35.51905567487197
72.86117486148554,45.742350386888724,21.55392534088654
62.64264113062088,36.82520161722413,6.55690642309644
46.02229178104069,22.84188724915245,8.066417958022313
25.462650379643208,5.690103386970945,21.03843162686998
3.8773205154960606,12.116132457654563,31.297042591909065
15.785330577306066,28.01267408303194,38.28936555577827
30.99485621125227,39.92519724828922,42.103723163148594
40.0196678071311,46.571658447153695,43.178392066022674
42.12804897527273,47.445058811631846,42.009006663218564
37.619480664731,42.633424652323406,39.02573976653151
27.685369449228514,32.67579673102463,34.703087444460486
14.1809920225674,18.577607466714955,29.581645022169674
0.6448137583721862,1.9190486734530448,23.875025574074233
14.438494999178575,15.126730578051164,17.57083225920271
25.01250843216394,30.004618619051328,10.762351754188789
30.623023193879625,40.246122407134195,3.6224791861853642
30.232397635366834,44.05632146234937,3.5258546066239465
23.700678105253083,40.7757892750725,10.432769859104937
11.857199844136757,31.016459358397235,16.95290888784979
3.595816087680187,16.46476575434941,22.638491289916598
20.334142337740847,0.5053560324424575,26.84370806258069
35.774436263433145,17.264788311877744,28.88147166198626
47.47733232923031,31.293380911142346,28.05920839007846
53.508943895723114,40.45682510304662,24.04195032892278
52.727976392438144,43.25050785137899,17.232547979251006
44.959610303414244,39.031783254656915,8.898043081521463
31.032528713754676,28.198211994513425,0.9850633045334071
12.684943000746896,12.215589183927626,4.349586051725731
7.668909803647691,6.5837461256239775,5.46767346032306
27.279834796907245,25.414668037895233,1.832720620054636
43.45652138377565,41.540203471617346,5.716479089657611
53.96478031666269,52.69290276303955,14.98693215467374
57.35837107286677,57.31399945659009,23.180380387318948
53.18002192600741,54.6159549677394,27.709948844744112
42.011996791006226,44.56698843929174,26.776087386114536
25.378288997555916,27.907444279122107,20.079907814444642
5.518125070201051,6.209016586980169,8.794471264924251
14.937857239941334,18.103446169545972,5.150785690646065
33.32060788915511,41.90035933366035,19.636361496969073
47.247709416160035,61.76644092123162,32.70623533646517
54.9017450622058,74.63203941529274,42.82086159174482
55.24051735410299,78.41786630757655,49.23787702914906
48.131116660035346,72.4649626390477,52.12747776249648
34.400361749364706,57.622441442813795,52.02149270069519
15.776575332190484,36.013661675607835,49.115548480594356
5.3054802821066485,10.606607054665998,43.372440109940634
26.03238894808654,15.242397209323414,35.09585420230225
43.62369058969956,38.17782412440833,24.665869741528724
55.76173417510397,55.1856787352218,12.286822274998881
60.937024735083625,63.96194280023426,1.7487835194809853
58.62229382929671,63.33695743441401,17.188515858759747
49.28523002914488,53.64303326279184,33.79029769688797
34.281041923205045,36.85119492118235,51.03412211049521
15.652957378994804,16.311924654147514,67.78179786820425
4.113017684933342,3.9438310222214277,81.95386109445283
22.358534378537456,20.13802637779625,91.00637602838977
36.57334700712749,29.5926618731317,92.89108774068306
44.76386420548757,31.207907975124506,86.76543333426663
45.81313653556308,25.445007209637254,73.13612673266277
39.736865194291774,13.919473723267199,53.3792981505372
27.733254352781703,1.1444155278951662,29.336588319270625
11.968621325344676,17.341468004601193,3.3477968857686764
4.857103902603599,32.310544898797936,22.171272982325245
20.023730453465326,43.84934317112387,45.52264189040284
31.244504982616483,50.05310145717277,65.33016183601259
36.96434091318715,49.57168378171051,80.1013355136947
36.47120739226169,41.94922957726403,88.99290969759407
29.889217243639763,27.881787717631024,91.88169830021461
18.130963035305715,9.207655910456952,88.86072866563805
2.8145978680926023,11.443832666047827,80.32748301160429
13.896129251605418,31.226720302412918,67.1053832405045
29.560435204736642,47.648453983360284,50.38780948251758
41.82669278253909,58.93363202695178,31.53711314595991
48.84493627122765,64.11245555995252,12.071092994235451
49.60604781806278,62.92909579386621,6.239928016252618
44.08215285314778,55.724818227678185,21.756911586296262
33.155902999592264,43.39687747121758,33.421241189132736
18.405865506993145,27.419110433717375,40.83132700474402
1.8185533853109972,9.81611449030321,44.20926505350611
14.50025081008064,7.030012163763512,44.394518179096195
28.55770072576506,20.776938160112856,42.56042174651716
38.66171732735293,29.592869137285724,39.856741752341016
43.60170220952935,32.514574707072754,37.01796809147421
42.799112402819254,29.59611853121932,33.79048071836894
36.389458952530795,21.822186684480076,29.296534883335287
25.215696251057263,10.831059192332033,23.04941697310592
10.708759026379147,1.429272313075685,15.19096838060316
5.314383569386695,13.002414102154306,6.201026298915913
20.860630199276518,22.16001597033857,3.2446136548023503
33.94936910111349,27.585561545498305,12.221251014948738
42.79238104978798,28.50263678236093,19.76623567274697
45.984988310810614,24.74384564882306,25.107101795411694
42.71961233936471,16.741252392836817,27.522924939711114
32.99902783273265,5.4240237015705555,26.381850229459875
17.768696226903494,7.944409613623245,21.431162214243354
1.1213806353371396,21.920411193814516,13.191303579212088
21.15789242016081,34.983516530904254,2.9824714627341655
39.5708725583877,45.61870432096042,7.660051324480472
53.79015420384885,52.4306505016835,17.30398576240841
61.83142588473385,54.33224003494863,24.589634215439997
62.55512116562008,50.79803006256244,28.382165197251197
55.78957845832114,42.08453067122247,28.227469485308344
42.345501156363966,29.278522204255516,24.676632815081383
23.948116659776606,14.09708504290475,18.77402009915546
3.078820210682695,1.4901660659515739,11.315310354057713
17.311249187172205,15.663643228867587,2.7612345288359066
34.24243513987893,27.026805719436098,6.373994566302882
45.24586553058866,34.654410591099264,15.374861390185458
48.853192756000674,37.983589490176264,23.645562535029146
44.89295073471206,36.714597037934915,30.58343429252069
34.497903719237236,30.84633059674757,35.12928621983263
19.8051514643146,20.867358797794907,36.048510609389275
3.4699051506839793,7.9769499864794815,32.69467638017593
11.838205484949464,5.86895270835484,25.4459887497956
23.842713509459887,18.225438654792793,15.405217426767868
30.91247609329499,26.71365802179378,3.9495793462859394
32.16997614562704,29.655675280387253,7.177237936153779
27.510111115954995,26.513401579066034,16.014187785284527
17.577636717554423,17.946256063053795,21.295050434632408
3.866372522167612,5.531531961885898,22.673460513819762
11.541818537412126,8.777177151731182,20.25528556894476
26.510569481245966,23.133576117027797,14.438198637881035
39.158460779786516,35.98951759663245,5.95809325498967
48.128829213499145,46.13721463992999,4.023695087680148
52.754875123805455,52.693100081233844,14.051929315059413
53.069273834275904,55.11976327386282,22.65570071792854
49.67327135246646,53.319582323351675,28.606749056392133
0.0001644468352682428,5.604112721992555,9.518294039525815
5.146792734332252,0.2804587599484166,8.14464974564285
10.916639690809602,6.862979098919831,5.4586909761937985
16.291436590515772,14.496304388355208,0.9393489373237128
20.17426682813665,21.0160422041769,5.628000514703185
21.575152957660034,24.983228821764854,13.896496506139563
19.795049459906146,25.458102043091927,22.902131287647872
14.545611550972625,22.116855186478016,31.137643741309837
6.048396693377787,15.206703133645847,36.83950233648146
4.935088620642078,5.419777606542118,38.39121092093102
17.13436242996686,6.190446047522414,34.88729350632677
28.797301570812046,18.187138458130267,26.671191341913904
37.78227990559897,28.698067135813506,15.261836581923673
42.088022344877324,35.66285454540059,2.6642155262094303
40.5580893749509,37.391091787498354,9.433793700442916
33.03356292707771,33.022056890100714,19.837034651681076
20.312471253883174,22.8869846029501,27.493419708771242
4.10049433962176,8.633987003826158,31.667769672661095
13.352402838933365,7.16189214428481,32.31414823287021
29.60418064052837,21.649755516568938,29.983569317996057
42.35981184532564,32.38995719631615,25.6499385332451
49.821719804106685,37.84160928868437,20.575861537682663
50.87719322576959,37.46850545115108,16.031932715084597
45.25922078702506,31.606449320560017,12.881192182444725
33.60716913530224,21.229320780286148,11.33358697067096
17.409536111757035,7.7794676671274505,10.892575680398796
1.1392408567632588,6.911177766601239,10.515151974780988
19.436767216953708,20.74213363918034,9.043635011943325
34.84614980096144,31.59145532229431,5.52367378041284
45.113552328364335,37.728898131170595,0.3723734364695206
48.746632365303675,38.248655860735795,8.110153635491626
45.24861975635599,33.30808456565813,16.65239926985836
35.19321766432594,24.046946545545943,24.62173722365185
20.11648736582836,12.203652723339895,30.535933105546274
2.2682698425396404,0.37079935840711276,33.27984366897659
15.720881374738784,12.08964001354758,32.12811448927639
31.21195649051215,21.781262745317207,26.90378674241892
41.91639569854036,28.6438613350225,18.360669820635213
46.216299944612615,32.147707194374604,7.914792784426387
43.403658965249825,32.01371065067276,3.034780789724507
33.81266653252701,28.292362382036835,13.354858059182122
18.8068151215907,21.427574724880923,22.002077165819088
0.5831121505431471,12.19360522366504,28.137875610297485
18.16022340764617,1.4969982586618638,31.467060442991727
34.64857056042662,9.851662444216583,32.15362794068756
46.47839929173267,21.2052737759014,30.438101751338717
51.971964886926024,31.908394731206638,26.496471418043257
50.39210206195135,41.01252432192773,20.506925775932984
41.99993318282155,47.107275117555844,12.592110677482562
27.958865991167627,48.47462613035705,2.953882217045212
10.138873880707175,43.6194298228481,7.869613697273364
9.135086498193,31.969893006583717,19.075498687801968
27.364213707164595,14.378125619956485,29.64379241547773
42.16622349772058,6.864170947576969,38.33735013733369
51.57112243392244,28.544771421885912,43.80045807962815
54.29117975811258,47.34864352985477,44.65069838998828
49.909108760439715,60.61453221187505,39.8641754989922
38.95902021376171,66.7749226475621,29.425544016268393
22.873402417783485,65.40041331354678,14.663492569833549
3.7876253807624067,57.006035136999714,2.2440190745307205
15.747814580182947,42.862346555271,19.23526132106305
33.1037582154822,24.90496431591985,34.497438688619965
45.920513576121174,5.663549959578582,45.99793666260024
52.421054316627355,11.976587476172455,51.89478329077515
51.65589728613876,25.294179651591016,51.0287926482574
43.65406887801324,32.41663651150023,42.84879475961445
29.45823191536143,32.870892933200686,27.82531379651698
11.008180124241719,27.70901469384436,7.697504352237331
9.134120039773048,19.120266735750672,14.824331484851479
28.16549204353437,9.689015737860785,36.328790156805404
43.46763321186888,1.6373423226976833,53.35868786929292
52.99909840857071,3.618687786120347,63.24433408326686
55.565610457746814,5.489766706341774,64.82216210294084
50.936782126655174,3.9453037513870193,58.77817868060377
39.8280251956097,0.7564203541277453,47.17678790027071
23.77955761544348,8.12954645319241,32.76504962975628
4.958744625792769,17.335806745915857,18.271715123936882
14.102907814774632,27.042959774970004,5.521618951160491
30.833765895184026,35.48794328408092,4.860519299268295
42.98593534190772,40.82517279196749,12.798892015990274
48.979636899630165,41.614643383049184,18.455417149196283
48.14970695668831,37.23612949137492,22.63860457112081
40.8376854401505,28.02828942494025,26.52403435420058
28.30614504342391,15.113630968811645,31.179956160761407
12.497861666049829,0.08275573112740935,37.55472783301275
4.286562661686776,15.284574572819931,45.82817198341318
19.709123291723596,29.181547003253584,54.86380669991019
31.66793286915705,39.86246764927706,62.3892033293121
38.5222000351076,45.78198182789413,65.61137754496168
39.27664155839863,45.86305173390525,62.40769075782515
33.72131436960489,39.84510728529374,51.95196165522705
22.516107483752968,28.530939852199943,34.88463500097549
7.173387460811013,13.75975209131691,13.554193244190042
10.124570053159303,1.9328597416982414,8.655176191122802
26.848715209384597,15.874094515573526,28.402803108195343
40.5107408981464,25.82689456654965,43.01849165946685
49.04324168094574,30.370139232249898,50.889968306391765
51.090318872418095,29.00452212901564,51.71100139316305
46.171963223090586,22.062788951798318,46.413695695190704
34.72849613857831,10.567905896724172,36.7529958138564
18.074291768732646,3.897536948188454,24.91871092672612
1.7316130954282847,19.322846726055566,13.08090367305838
22.120520178892544,33.457332764412676,2.8793018807856354
40.33589420806698,44.115574978013235,4.403540725486996
53.83395095080463,49.549582187700295,7.7886983615316625
60.70688199360581,48.76397628554347,7.344293650475184
60.00229092456435,41.67459837334877,4.281460879112984
51.88031769130446,29.06274853735456,0.13536191056139826
37.57172335098003,12.376922956600206,4.127172390970626
19.13910237514896,6.508316388906102,8.287756255434468
0.8793672042861324,25.480687244041096,12.303531304281263
19.860465049357355,42.31823295298906,16.281651266665072
35.43439654741876,54.855613180648454,20.507143203421084
45.74001809794124,61.24672742013298,24.83853504739356
49.60857837686552,60.3059634519197,28.57741571086188
46.66763096594347,51.85044264384203,30.819837015761443
37.378448450767834,36.88942136516034,30.800212698276535
23.01245918515382,17.533514724788464,27.9688083527607
5.543819491062295,3.3860850077354074,21.88651614676118
12.561992397883873,22.870355167705846,12.582684493727948
28.6582314952855,38.29433872787549,0.8981980834167893
40.296397501443465,47.78183518204405,11.716583000236659
45.6310924964557,50.36014145455414,23.813009345934855
43.74536190235914,45.95184388551642,34.40218139029818
34.81675646974806,35.275997673271696,42.81025465752133
20.108894011687326,19.717302645667353,48.637949865458104
1.754940325455034,1.2006308544926088,51.69065843659166
17.612486234441576,17.95798641141534,51.787579054627365
35.261658354507674,35.26846122917366,48.8279333356143
48.72545969091679,48.35389405189593,42.762721166809804
56.08101170731201,55.2750093832231,33.85301334663482
56.14120357011398,54.84448278845207,22.826986170556648
48.59281976340276,46.88140312477941,10.612625219656291
34.09221631299348,32.33367697034573,1.6570668288211738
14.291404958750954,13.207071993930954,12.67980202173175
8.268317565861262,7.715292553590591,21.091380431268096
30.44558871221986,27.337054184577777,25.90529644391566
48.96214557180209,42.79968243513126,27.23422587899584
60.95239493030364,51.98564191063603,25.913997339876115
64.47366841453952,53.84898892849503,22.753770949898556
58.85300429371593,48.49866579317413,18.565963172171347
44.79007919337418,37.052009856762275,14.03119638581666
24.43681170677466,21.28182499794118,9.748331023979786
0.816960713073017,3.3337663951812155,6.463122858151886
23.070967846622437,14.454661658728153,4.827617696740938
44.61157618469952,29.83972149314112,5.113158557993052
61.77461208193448,40.987882819369055,7.029970415604459
73.21315124348256,46.766848998265814,9.733994425212872
78.30519111604231,46.949293946793816,12.161876427836754
77.16500960546195,42.26146188326785,13.511549224776257
0.9444133675762207,0.32686190049322233,1.3133657884049454
7.527220799288607,5.662369324287732,2.7490325454428377
14.583452710466059,11.557894023383342,7.132243236566462
21.04794203975104,16.848448042963817,11.198432588039365
25.786995996615993,20.40190204534844,14.14867245710844
27.726021854636404,21.320895241102566,15.214920990314935
26.027590113898604,19.043845466899672,14.036128582424986
20.253620238473427,13.382134680241192,10.854024225310237
10.569683673133119,4.575602718341551,6.381243261614602
2.180877895603647,6.6535905970486215,1.4620315293551003
16.53181099488567,19.06531086616713,2.927910177767323
30.422162332294928,30.9029415681716,5.67293034407215
41.2938260521052,40.00908954958319,5.808169525169663
46.90491847710348,44.30441806996473,3.2266066808531155
46.271069874417634,42.474695012424945,0.7433752529918336
39.50825632592408,34.32160690667127,4.081707652152481
27.516760225203868,20.817287475122065,4.745538572541579
11.930268879747056,3.914065732278226,0.9988375486047313
5.2358278607537025,13.9540762212781,7.4529070587544
21.75621588009301,30.334657185577587,19.15807753448219
35.37958491486489,43.08912172289803,31.53112053063549
44.17395587321799,50.60242838289936,41.486859212488355
46.77845906626022,51.85914154123719,46.15320573391316
42.71754455799739,46.547571544112124,43.3277487113362
32.535934380938045,35.182631430621726,32.169574482265496
17.725820802153546,19.184718578768845,13.746393260745924
0.5027767926914565,0.803615843079425,9.159516742731071
16.601881641804347,17.202674419081898,32.815223665846524
31.124615793253394,32.04819963786175,53.44640069787396
41.01379332771845,41.437069446136086,67.49879695879005
44.88661291340303,43.96243950042766,72.04922862879143
42.17194389812011,39.30833418430868,65.79838140276084
33.187610728336004,28.273264192089282,49.81772654048476
19.117175434849244,12.6668247172361,27.418207041093805
1.8865398595602683,4.871878361778162,2.9991034900338143
16.086413786319163,21.190837451222198,18.872322523184135
32.24230884915955,33.121332810284095,34.276846386085005
44.26878484329835,38.123371975473795,41.05134576369124
50.463152609526425,34.9468429354647,39.073098513471415
49.97598930543965,24.034356110815946,30.097505591299242
42.918183871670365,7.456309973369109,17.272647461733992
30.323180470130655,11.642828863616366,4.174922476396478
13.97296056128014,29.895631795567294,6.035151184979862
3.8623586742363907,44.498167082016195,11.427243294465425
20.74732248257279,53.62123117738942,11.787358576673595
34.42107287943253,56.370209123507856,8.295860388641662
43.10151327235419,52.47814983456814,2.536057548267307
45.71576101932844,42.04519606521371,4.366797820392948
42.0244071364215,25.558708989568892,11.795061312329612
32.6347712479521,4.171484878938199,18.97863087076149
18.91047465083554,20.034218014565944,24.685494150835485
2.7919664656272793,44.101706848390144,28.175772729020057
13.451142986326078,64.7125107699174,29.59024086340381
27.50730409560624,78.99604585468572,29.385274335530625
37.320646826742376,85.2461528672858,28.304513731333994
41.378210838358406,83.19805427042677,26.820751467729057
38.93560176108069,73.76622067442317,24.648689689669062
30.134249544775756,58.45779135727081,21.171983454231533
16.00676688433879,38.84527151664032,15.569228364532538
1.6314516635416314,16.382836874929893,7.198419816405228
20.3936640621984,7.4067517915814935,3.914992370408812
37.61325002761148,30.617427435969628,17.05315858079758
50.69707301675919,50.876240282061026,30.892583043510285
57.50445030516013,65.6910326861749,43.89930705876354
56.698254799253405,73.11551795302982,54.60527496312639
48.005075510993514,72.39659243855996,61.84891576647087
32.31038455691805,64.25256961265575,65.22341351654035
11.544602906122158,50.63542454861291,65.10503185355823
11.610789236798293,34.12679379169298,61.900303290633595
34.12969235924967,17.276338652465146,55.270278290696645
53.064559547729665,2.166978892901299,44.69735154191086
65.90105448096926,9.690030928046962,30.410633406244713
70.8457347247725,17.267219305842417,13.4374870074854
67.05697045919828,19.949660055922422,4.603669963292259
54.797241955060265,17.599348192016713,22.031291427409887
35.49234737343319,10.72443969750443,37.51557905003162
11.650491798887325,0.5759348477952558,50.04619710991897
13.428280473061061,10.973474889479906,59.021932921950125
36.16132303837241,21.7530477461055,64.0103484245368
53.309089716055134,29.700194655165834,64.53361445656272
62.54262254720337,33.19554537618976,60.40451719995688
62.80492899068522,31.23551288274407,52.02447628731533
54.39313276782386,23.48165937977214,40.682280055562785
38.78224723422263,10.296716915237516,28.341470740269404
18.302745462038732,7.1823526829804285,16.795622021281016
4.204116700492527,26.991336225976685,7.349361992408017
25.696946584976246,46.43707122205184,0.780425746747937
43.23249591450399,62.47229909619352,2.938931334873546
54.29669083754608,72.3071610990684,4.6205526355292585
57.18445764864543,74.05804364708597,5.42289889615568
51.359338517433464,67.20514746593227,6.475469836343057
37.64321612350574,52.685390092064566,8.740291029492198
18.139467338149544,32.62069755039758,12.937456306188624
4.1184951696257155,9.837937880982114,19.446353783420555
25.725236711153062,12.632598366399849,27.97203068525641
43.508904875266275,31.952985500854872,37.2263939244626
55.025419029323075,45.75609860879751,45.21872012169642
58.85180336136276,52.378374664350424,49.69638053027463
54.67946016119694,51.10392927185226,48.37781508188097
43.269316679449375,42.360305510833925,39.681510979673064
26.315306353334837,27.745727264112105,23.76757288502945
6.2283022432260315,9.819652377172467,2.8548557220904702
14.167894955002202,8.350158106907497,19.344682054029093
32.018737925411784,23.773498460188364,38.773013433015144
44.85568204519484,34.06692230932125,52.083759060855606
50.982393876707945,37.7993326229672,56.97544605591897
49.7397456291302,34.61136222550839,52.388682708029044
41.57594141571511,25.157831404743867,38.663233329821324
27.91787497916566,10.957776224626931,17.432739947906754
10.905036341674492,5.819932322085957,8.3576114869304
6.939598051730671,22.630705017321002,34.852782967862986
23.057257605934744,36.89620156466947,57.74167963751914
35.18615398081563,46.39830532654736,72.46373678215203
41.651198242629036,49.63759138028419,75.58092802764602
41.59383890883268,46.05719309800147,66.25611614281424
35.10370533144553,36.0921962477011,46.039576828220284
23.20516492476653,21.076118625361318,18.074715370752575
7.6861852542321465,3.058701126127248,13.045435589829205
9.19446005664694,15.401496796252205,41.58493732243272
25.05369479581972,31.47292261333904,62.23833306974715
37.71165862978954,42.411794504102325,71.81465807272265
45.444226582807765,46.0657448471346,69.52053549488711
47.15540072434533,41.42017925522932,56.35935872280701
42.49375805279408,29.006693252956264,34.64438983700161
31.92189083792384,10.956918811582844,8.00658732684151
16.72202494049525,9.402861744242722,18.68789054787396
1.1001444433365966,28.32175887896314,40.199608675882295
19.040493284640803,42.47776493650039,52.01312758748805
34.457139093970184,49.60438886490429,51.03327065655356
45.01728707618869,48.74102601818109,36.342196649551866
49.11448604491935,40.14842336043404,10.330462691232388
46.154765693005714,25.06003784682787,21.42646835880549
36.64627329176497,5.4555856803369345,52.338591792079924
22.081464865403905,16.08550887653813,76.69744690627624
4.664146097457551,36.56421154268911,90.10816211262448
13.044573544732305,52.9214279917305,89.63053573059187
28.474063257143992,62.59706549023536,74.47026939909034
39.35551862747861,64.13756337867154,46.711664166865866
44.01685014809156,57.58462040199154,10.809951947629315
41.635338181790004,44.424335891537,27.70973424475758
32.4077887962913,27.08177285693953,63.075696930001726
17.59298977198515,8.191583886105912,90.0475812274954
0.6232784047833267,9.877115888742818,105.10724647382096
19.605613123353233,25.374735875884983,107.05994722336041
36.84291831298783,37.36441863113862,96.94015774749738
50.33259814672215,45.50462158020536,77.60603126264697
58.84863364971637,49.77022470996261,53.05327861454971
62.03185801294895,50.29970928985211,27.871472110628147
60.301274627984235,47.41960984491029,6.236177170894533
54.6440861496617,41.753602466483684,9.476603209005445
3.357904339901187,8.270138699071072,0.9286908656255668
8.418844330488804,12.217710976638674,0.23636003730530156
13.454112150342919,14.651356244126738,0.9859044945494695
17.241062802759295,14.85443543138034,2.5260373685852335
18.573330407541896,12.554306110990277,3.9393968876249716
16.578322970568625,7.867760719253235,4.67448483732194
10.98721157233509,1.1761240784658211,4.336635995098394
2.2343294385956276,6.9878069152077975,2.7210129060785486
8.58242210852416,15.937522233916976,0.16470561669764405
19.912386725217626,24.78306305273998,3.8370266708294363
30.032732028722528,32.39285608117171,7.368347369250641
37.23723044501029,37.37913968941837,9.874694370744827
39.96732957333932,38.2078290048872,10.871205234882252
37.24432298612043,33.77319757637466,10.175941925408772
29.110092328029996,24.086554366942508,7.72525123643398
16.455543267101213,10.275820888436678,3.6940572177626896
0.7764328765818518,5.780920081919202,1.4358078319790422
15.943963789384656,21.868702348643783,7.076558839086322
31.5647729603254,35.96140343532108,12.52066517811257
44.04991114797963,46.471722159576984,16.72200432252813
51.732212287363,52.27275017323346,18.467901829772813
53.58876675877358,52.671057665071096,16.93962436899427
49.3394538457585,47.36664087800139,12.137905409183228
39.48256288852699,36.57877304107074,5.021577326813648
25.189329647673855,21.224377093362623,2.8789755099375935
8.110850297407133,3.0137958226796835,10.134297320341629
9.826262567842495,15.648474102648951,15.29608585813824
26.652425839787284,32.04933391052397,16.796208622135815
40.52537788294423,43.70960280317258,14.052628383869573
49.87864077379797,48.934402416556026,8.066486965024557
53.555751348557244,47.18951181563681,0.4509129424197728
50.92656351716337,39.175735100737896,7.350440682176921
42.01766689872122,26.609939173963788,13.89412120337176
27.619103718026246,11.788169896614095,17.809828155697335
9.32619260740567,2.9259776803985162,18.19006888941514
10.552705744190602,15.548660147984155,14.597475143438539
