25.744120723027205,17.999382390020614,4.804138300667991
11.340492981655602,12.188952172678682,4.537880364934903
9.363644891708732,1.9739908670403725,3.790495530230374
33.89966232360778,12.172815421936056,2.584713165784233
58.87943654618309,28.847513073935442,0.9524055609642443
80.50733570346958,45.839749331192145,1.0837478048280589
95.10793178882712,60.51696923338647,3.496763304742137
99.60633515233158,70.33036180715501,6.175104011433238
92.08387547485779,73.30943213350925,8.891601538215575
72.27456539865084,68.32705561646314,11.327838825820066
41.87382337046669,55.15380305441401,13.093679694902558
4.674606524553354,34.50849785655407,13.801325240725225
33.591073472065055,8.198311860228259,13.221262955929175
66.57502441767936,21.109899436301195,11.40897643197958
89.43192965204796,50.40236840338784,8.662489977349779
99.85513900048903,76.40911505474426,5.382278835230649
98.14239429063748,95.79946454437238,2.0008540019273453
86.76294524823761,105.82636843436391,1.0720644929703325
69.17895307046474,104.94237080188444,3.5422625754385835
48.83558157308056,93.37538079345019,5.247265665494539
28.65239427028192,73.28596256406196,6.125922179082821
10.897172066655008,48.2696631045028,6.241482958188
2.5931866805374053,22.496239192129224,5.780377392143456
10.393659376000164,0.30464785046336906,5.03848004332329
11.735232140809742,17.5629119679236,4.4202839968182355
6.908970422570683,28.102334344175677,4.302119137181599
2.419929696987093,31.9914316156501,4.879503283172609
13.391880095558559,30.18504813347328,6.167069348449989
22.583824402522637,24.270219296536617,7.990323026127089
26.901569757540695,16.35965582863302,9.964009278811698
24.379722999767353,9.008553094146928,11.595137831638977
14.592522489963974,4.967158068874396,12.449732401996584
1.3666566629873682,6.622219842867991,12.27994491627328
21.260861046169204,15.262103041098381,11.076292378007764
42.219245452775425,30.451369366347453,9.046216604024842
61.25380203708238,49.847870264954295,6.529807721378635
75.74854329599798,69.65357041199897,3.8603511808139515
83.88793661586945,85.58054339029557,1.2824297823722055
84.9867777304658,93.99551231911515,1.01029751357304
79.58438024437666,92.8053331794936,2.8835318846581592
69.21299812650794,81.78691792864964,4.318234300501369
55.86865625376077,62.36385774191303,5.391726677230037
41.3567002941021,37.02245102996139,6.2386999720508225
26.824479249916216,8.671795616121523,6.933964173703904
12.64467794095981,19.804242141377472,7.373026242321399
1.3809695030426927,45.758656887968755,7.407686061090319
15.627054141412264,66.83123822803549,7.015096387501455
30.301782275070682,81.00847753618854,6.254782969295023
45.2909717976354,86.83994992251782,5.208999858368784
60.11102396539565,83.7838199623719,4.025638042364089
73.862958090883,72.54482514831906,2.9709276761625185
85.16221200120678,55.20959417956141,2.3671421470942406
92.14135428542029,35.02058948580658,2.4576569177032614
92.71951407646176,15.765946819473395,3.363258175655328
85.23397859319518,0.9393897391526754,5.0705676150987316
69.24641121691707,7.052908449543403,7.366385890390633
46.14486353780407,7.40234525809629,9.828878198221089
19.15872856283485,0.9741870896078597,11.912201754162837
7.384229019378067,10.04161201942781,13.051422470254835
29.295848126137315,22.71796288983571,12.758476502212165
43.728596667835845,34.017884071019466,10.720848822547397
49.83808320800502,41.30084875525429,6.941267452936271
48.64037234252343,42.632326589725224,1.8797356479943523
42.267239955432906,36.964529502384885,3.6075676545660835
33.128215959577595,24.276763272507843,8.573616213020308
23.387291354968934,5.689827894066876,12.23735951971174
14.881788571039868,16.516573412368675,14.102840652396441
9.28737124578584,39.121922646532134,14.03983039992488
8.171677318407637,58.50539836987468,12.238587044318882
12.699842272390184,71.44258036892664,9.11278594105188
23.077154340422,75.93303088895618,5.25127183982565
38.091402266130565,71.74163870367099,1.2935353662248188
55.092935207396295,60.40351628754953,2.1934154492399762
70.52856332143593,44.67969851109729,4.715355857936007
80.84018356455204,27.693199259322242,5.8408703537485165
83.30941133305907,12.082605232540512,5.259568362005202
76.50189668287759,0.5036531215126169,2.8651219715601672
60.249325208916986,9.432487860116138,1.18517465080482
35.393419268894746,14.767078476306354,6.428101804575635
3.598505007114257,16.862329414513276,12.10357101956678
32.613406849172634,16.097847763420162,17.280538181378823
69.69743101653101,12.855024524337969,21.075156307524182
103.10411361703116,7.648103990323453,22.859918730314817
127.79036127059369,1.2158734013982992,22.353231239341095
139.24730157476478,5.53989135962577,19.598150322348104
134.73673590212965,11.7591776302683,14.860974844804774
114.26687598039933,16.838572691756998,8.512293122058525
80.89876209791579,20.48921834485661,1.0389068535679857
40.20775087998883,22.58527779784289,6.906244398830331
0.9335463645830687,22.892347390317187,14.542164034379136
35.82744227238826,20.863943106967337,21.036601832422352
59.27194722653417,15.671184721661922,25.651534992414042
68.45551651619418,6.501125355651566,27.936027528483365
63.27768077161229,6.992861062746767,27.83594152238937
46.12566099033616,24.318394263988488,25.66421777782372
21.23568612759842,44.03764819651421,21.993439334962016
6.225867547596604,63.978716494895096,17.53026887500062
31.18518695759238,81.66360457628217,12.966772664676268
49.5745181640342,94.7537761585945,8.821467630104594
58.93087773340165,101.382730711253,5.314819253646442
58.565908496746744,100.34635874305619,2.3904414778941767
49.35318758811377,91.1772081877664,0.13135052681554932
33.28209792960553,74.18268369545062,2.4273346036200296
12.967120654458629,50.49512392284283,4.590849550768628
8.759008764135562,22.072631525999487,6.631706234406849
29.19163036179788,8.444823242051312,8.55707941885368
46.10142929614635,38.060171663995234,10.387700000658493
58.08238506612738,63.88095305873491,12.095573373548783
64.81183618622721,83.57884841847422,13.547637172939496
67.04321773302713,95.69299393261161,14.565264922160763
66.21379751007699,99.71426506793416,15.068897646956351
63.75213493579851,95.975241587433,15.094971379081564
60.38631176756058,85.44969372868806,14.685340735762503
55.84211674215804,69.59078232617678,13.801790680869987
49.14851437899398,50.26838636927472,12.34673609004913
39.41427115997127,29.755546500009707,10.273653384262817
26.656538982870604,10.619403101963249,7.66232257822564
12.2195667489932,4.596931559618037,4.717826539976306
1.5065102094690992,13.856718085565173,1.7357761607261426
11.967050435821294,16.117258335844983,0.9703883802903571
17.447649730428516,11.657989319297302,3.149196525157451
17.707262704736884,2.1004043453346126,4.662596867875215
13.977890580073817,9.933744992808185,5.525843862644792
8.404483249748013,21.386936276260926,5.914597635304611
3.298103668754577,29.35535908155565,6.129424374722482
0.579685794552184,31.575680415295103,6.5143316391270405
1.5579386116089096,26.737293775223204,7.313962934395238
6.934575937518428,14.637043683079968,8.58297365819229
16.80098309398209,3.761071469769642,10.235428131191641
30.497408835441625,26.35096565289927,12.134163081305651
46.42661140826861,50.05714209719327,14.088635413422365
62.04058025778594,71.24178077084856,15.799624924236783
74.22004980961722,86.35031210909098,16.902120916638722
80.04387425929355,92.69157710092836,17.08648097945821
77.63788473174594,89.13922739486604,16.195972558922055
66.74049906481187,76.46613435526797,14.24825861490526
48.756283138573956,57.12416776345624,11.320957811089174
26.294121210800174,34.51652071111222,7.4542412468015735
2.454840322985547,12.027196410061006,2.720105001141211
19.80492910257864,7.843027257458489,2.716149517325675
38.053879873836664,23.917576611532045,8.602153939913023
50.52479847930803,36.2156917288128,14.577239285156413
56.34823458307916,45.101728351323054,20.226182417481976
55.54516154853305,50.96244328191565,25.18343411140241
48.83845465398273,54.392800772225456,29.166037086213603
37.67624912270123,55.978920977883995,31.952681922883645
24.109835876685867,56.18430099623961,33.36495844005777
10.446635799979628,55.3095162457569,33.29294034800587
1.2467395482827222,53.47762336807742,31.73888331917024
9.597702224970513,50.64263871969538,28.83630459352935
3.567651918264661,4.580091795911587,0.8147272060418497
2.0717062614035195,5.662012892579683,2.1638080019323715
0.028790989917982082,5.417813136536991,3.2857160386492796
2.590959898153221,4.089487668551668,3.622535861688946
5.445472056867626,2.130030643742623,2.6413857934280873
8.462512823956438,0.07580689288362115,0.039277330535651654
11.582713054916207,2.3418440719566322,4.020728978315776
14.732935444413325,4.6256844402234085,8.763821741683401
17.65677854708746,6.77237720108992,12.957265790127119
19.720806267787793,8.336644506683585,15.325386566691144
19.868645916633927,8.612194781966975,14.938034363868828
16.91448438981773,6.803160088094302,11.438561708502732
10.143125004447791,2.3511739817155495,5.093135361266938
0.20714016478135872,4.281071226083021,3.2394112585896715
12.75308615815489,11.119471315596472,12.274444230333614
24.971608982554415,15.535132549922633,20.650788154474796
33.750522661837266,15.434601053893271,27.114459746957262
36.42656270088131,10.042793625974516,30.637007424879595
31.725062876826872,0.37727032843072605,30.639915407007372
20.283696986584502,11.09028283613968,27.055220328572123
4.477192356965731,21.265218170521134,20.34575718208134
12.365805661640518,27.314261778291147,11.5272096489155
26.886626549301802,27.42535944611747,1.9935950187404128
36.405639505531404,21.069644954285028,6.770222790384301
39.16443704567717,8.938861805485455,13.530183151615024
34.234034690652514,7.311291997249706,17.659799068330972
21.424373347244018,25.394206418192006,19.352998092398188
1.4065478496112052,42.64960335835776,19.450360749444386
23.934321499457305,56.344033008685,18.93865361426762
51.24327812741239,64.02532192748306,18.530073081284947
75.92919174361816,63.95020450859206,18.46190762759858
93.04883747538518,55.520001729259754,18.471314458082695
98.64092768789685,39.53605790373517,17.96193344494
90.94793007295617,18.134671588307913,16.341670721463533
70.93493670697622,5.660421871482158,13.294658351563868
41.83917364104542,28.639380382608334,8.770002446470638
7.983872187824571,48.1546831628611,2.929051354712946
26.54393328692013,62.66884390495677,3.804456555114612
58.73426241668596,71.90354004110876,10.753159155257856
86.70283395678975,76.5761576551478,17.02888039417008
109.13205583615266,77.83324473693163,21.635824636202077
124.63257754137528,76.62461051545608,23.703671594931354
131.53115571044907,73.27348682473844,22.728787861069943
128.28643125352787,67.37609668891326,18.757309996072568
114.30099611390746,58.04912671219601,12.459691087369512
90.61407589012327,44.4123430253189,4.991003713056107
60.01975220702677,26.1235201022541,2.389930377739111
26.48692630728264,3.7820381497777156,8.723854865865258
5.853287213657122,20.946409344940154,13.477237317783118
33.69399333132649,45.533426154251984,16.511047693194836
55.09810258048896,67.04759026123753,17.99530915847296
69.4639848823135,82.74840624690742,18.133342042940143
77.12226414665922,90.69147451061227,16.96703557348853
78.87652856203847,90.17940981741323,14.446066117517843
75.72230862173927,81.93037416751756,10.560313485262775
68.7883321731031,67.93375877061034,5.503311378843497
59.33225765122926,51.01840052225333,0.2582828179044824
48.638433268390045,34.24982919047582,6.120448204619565
37.78320796037816,20.310212061550573,11.51657015265989
27.370409085801075,10.993118365205381,16.067776523487122
17.44765202494046,6.934802669642874,19.640174883033144
7.700273789967694,7.602195750539161,22.230837554390675
2.1491900040335623,11.470202933170114,23.80537303164874
11.91677629363764,16.337067833494885,24.19742831114011
20.75334116528936,19.72512857319952,23.13014411974677
27.281595773363918,19.324152602442673,20.40461939349291
30.00338679796582,13.464224852653059,16.070294349778678
27.814444043465283,1.5608118274714802,10.396648742885008
20.433881823192625,15.595465511533716,3.841487083851257
8.59775714607086,35.83499586076006,2.975823446904398
6.026710192121612,55.9658493428504,9.468818867823536
21.15564970420447,72.46728152428992,15.174025505353015
34.34310702520192,82.33968805089538,19.72338996999827
43.474846077426115,83.83767387965109,22.916657315485484
47.21054831039071,76.84557099546676,24.659241199304898
45.281286958040965,62.765059905381364,24.805983048360176
38.54053683320139,43.98205736368866,23.17823517478556
28.73402069995706,23.146650624640415,19.724682968488143
18.028999748348628,2.5580938406353266,14.744520522435547
8.408793228979686,16.125255365140404,8.973951880411892
1.1292623181103285,31.807853014892142,3.4243943302860975
3.5926733774949438,43.63806246145926,0.8953566442340332
6.591773524281258,50.70715581888946,3.2689796209118063
9.454649262320528,52.005197435261756,3.473977044682182
14.005251958829927,46.711248334621104,1.8194636419890873
21.747111590508446,34.69674087482443,0.9477468861590148
33.39600195480417,16.953587103636846,3.793335216575234
48.61907509450264,4.325041292354968,5.5954219500091265
66.01921809806879,26.11653564589473,5.421475236887583
83.34152021272375,45.26677177838019,2.8097913859312933
97.87427741345506,59.20705914002364,2.104975831070516
106.9453253406388,66.39325902868623,8.712436223964573
108.4212372637199,66.31874232274737,16.107073373347582
101.15905593259063,59.213467542124654,23.20539991458741
85.31705802811697,45.736533307860526,28.90278551678596
62.43221392482589,26.904435470944556,32.214642654944804
35.21581759816989,4.269635197946393,32.44181430511585
7.056709845114842,19.862732672830628,29.42124493063219
18.688325607930935,42.47806871796942,23.62000207623285
39.40809231242306,60.36188727878965,16.006004733762126
53.71272980794287,70.98356881238186,7.810863947355503
61.51123904864537,73.33608631217054,0.24092703340010008
63.66622165577942,68.28296111608272,5.822055488221725
61.431378535413145,58.19261455745818,10.075587626539415
56.02313447017338,46.01009069077055,12.813509130882956
48.5694218911857,34.238712169565304,14.715490832048282
40.43854875695245,24.33775112197344,16.59881273379708
33.64916409133704,16.771614588817542,19.06524584495924
30.89809211626314,11.519583421257243,22.14264509362953
34.92884647539699,8.61796423083185,25.306356192806593
47.37211489389212,8.353829237540154,27.86736404487904
67.60432229617777,10.964602706648668,29.24404177019588
92.30517298553166,16.09774483497779,28.96046147651918
116.09612570241289,22.463821606929326,26.674523197117942
133.08968461588472,27.95245687258593,22.2290297834676
138.6717343686695,30.214309807970434,15.603298321906868
130.69136214036536,27.417497948513798,7.021920284752737
109.573936190394,18.80003228373625,2.804174333860817
77.51091135828054,4.807810452334118,12.712185899758618
37.392096183431605,13.153266901767202,21.340483277766296
7.832472141878227,33.12695028581314,27.40386772423292
55.11411466333558,52.95630577996625,30.145286466526326
100.90570119885494,70.50976977125916,29.736530429234204
141.01874917769157,83.85681817472387,27.136426100295317
171.18620771837928,91.48169138198942,23.49765573402808
188.23011599349644,92.5376783782906,19.583158069390024
191.1766872003889,87.03158065466114,15.48259106604458
181.5710744437969,75.79458997333072,10.72574662789839
162.70001232181005,60.22413276804568,4.719512297087025
138.1012458221866,41.931665368754885,2.7160270173499574
110.21952764979739,22.47495213227938,10.967007858657647
79.95608599747514,3.2775964864607703,18.735786931895674
47.264916478163535,14.326943332291929,24.606951855043366
12.327779047882208,29.10130138796235,27.570044940906385
23.492151826753386,40.07355529990894,27.298592498434022
57.497746501972884,46.80149826994169,24.04077051655559
86.30890408510584,49.51757792339872,18.19860005288317
106.8426646718905,48.9639955952927,10.166045669759205
117.03864823482012,45.95250154704185,0.3744537308240121
116.07995133374617,40.916808843889584,10.60971743541225
104.31382538279217,33.77725786592413,21.7346572347814
83.22717713237155,24.29223231594524,31.289989534579306
55.628861729176414,12.881480507791421,37.58534669965067
25.066431914464513,0.7346091471562703,39.645802571463115
4.9962491147935015,10.696964096257368,37.44763006831295
31.41529052489986,19.997259689699447,31.937018094344133
51.71215605657656,26.20587350446686,24.602980888074075
64.48625806991794,29.1472244001991,16.980096118426022
69.68513301866885,29.448283989031786,10.31010501248207
68.47975213630477,28.180377002171166,5.2424773019600375
33.308215837397476,7.875648182656239,9.2357943911797
30.81990967153949,8.235088923024966,6.092323296832793
22.281860208827087,6.904127035868327,1.2617697184175318
7.945423798676962,3.9801130964281293,4.752490353309569
11.594547536560865,0.17644354016770336,11.220997243531496
35.297997062763315,4.869629972827285,17.35056149793031
61.16169497871694,9.014873659446577,22.40613147640493
85.78450165608307,11.332090970699944,25.768856801804812
104.46804865804744,10.73384368594621,27.01355274627361
112.21045258197185,6.856252451407858,25.92630758058186
105.20265343721404,0.370753978351188,22.432137806613692
82.11084247491948,7.269067097983937,16.657585389154345
44.756388622910784,14.434222936108915,9.086857851200554
1.5581528019573438,19.458399097294848,0.48928341311146156
49.01265876808767,20.70972914051141,8.32114072108927
90.06590767551839,17.370231471750845,16.524593975540327
119.48611427641796,9.67290101079808,23.288096771556617
134.61908982808475,1.598343549203496,27.951189192712807
134.9418274794103,15.377869128815657,30.15932103736506
121.14368655026024,30.49458259658717,29.888063946447243
94.77774406956974,45.51069134788969,27.38920592613592
58.71514439425475,58.42370776657701,23.035913015886084
17.590068987549152,66.83707886803458,17.242507844150783
22.255560066931512,68.49416094183444,10.500439695943802
53.96545639966972,62.082098919120675,3.4119842129000286
72.09179272231205,47.780759990448935,3.361992329785645
74.26916922362105,27.13924834614343,9.249122477575046
61.87917847612041,2.4207929857882924,13.867846192854095
39.30099580919895,24.24876164465224,17.01521967925574
12.272720471416454,51.30702075101982,18.66974257654534
13.830076818625583,77.48892578916191,18.94205402024923
35.063602494697854,101.13006676731295,17.919624970480825
49.077623510112105,119.60473922196286,15.6086053186736
54.76672163356135,129.46667212857258,11.92107718307041
51.88709861921457,127.38622407565498,6.704952400930305
40.93859759603953,111.49831185546107,0.004226889749703544
23.211149022762882,82.45218221501146,7.713915642548323
0.7261489898244514,43.59154512797179,15.474256562746518
24.037877668931827,0.1997465343354437,22.15871528150321
48.55993697714357,41.82042711839632,26.802788600623042
70.57755820252694,77.22355494610673,28.792498235130964
88.11756076370871,102.19255810879005,27.934818246951092
99.38194821939604,114.53974725745093,24.3444898419052
102.80825146661233,113.60315776720171,18.194367545151643
97.49779339182689,100.14573789408331,9.728420022226919
83.81854420366066,76.34458403159978,0.4471188971388929
63.72571424780019,45.741393367048204,11.250550961115033
40.38713737471511,12.930025955628336,21.387194730020198
17.11612724106596,17.13218308632249,29.731603737226987
3.848508989985074,40.0461758777533,35.57457090544046
21.955114983443725,52.81116558929868,38.695346558134865
37.92849201083299,54.28860779003597,39.298105722917086
52.613083591332874,45.198889350646986,37.84804037085145
65.84340812078074,27.77487509026771,34.801101403021455
76.16711526735409,5.269412207675751,30.394993703741246
81.70318350713522,18.547642048302897,24.672651794965997
81.53893260128702,39.899661308378704,17.653600220361184
76.6399987022288,55.56880298758512,9.544218359217432
69.56120047711613,63.47061599430062,0.8116966681046759
63.050626837072095,63.064039500989885,7.904777777661429
58.41431071315843,55.37071830325366,15.858905352158143
54.72631319839721,42.50968093845504,22.359150441395766
49.48038286264864,26.9045714348613,27.062159659417365
40.29056151656679,10.523688132606132,29.981653368812516
26.501740019079158,5.448916530684036,31.216312743751963
9.703565311222887,20.390418979672088,30.82334919276168
7.140905310624254,33.70671722481966,28.871244983063843
21.38843682371486,44.39630921794954,25.604532975521632
32.1111687660004,51.07114498775996,21.56519800861248
40.33103616661762,52.477443871344235,17.392532853007772
48.08525566911328,48.19627124086328,13.591470360716636
57.04660642381702,39.07491465717404,10.479716398450906
67.58488146485767,27.09210680353636,8.133688343031753
78.74099156955768,14.72319240590518,6.445678664999
88.91083805227241,4.172401006889603,5.251439742363257
96.58665354851206,3.0995842162722136,4.339885109186636
100.60828914270171,6.37640438277512,3.4509711154615603
99.90395162371374,5.402123825568136,2.3001135248271134
93.17455902529642,0.157796308198982,0.6059793723507695
79.01227459293167,9.024619607364265,1.7600319967647444
56.56052258203746,21.059829852384276,4.635199007765458
26.35428080399692,33.796014198940505,7.692508646772256
9.23789862150704,44.16968436293796,10.60320423342849
46.3357503688366,48.97742845549327,13.054319593580946
80.46704799148141,46.01126929461944,14.783452558227237
107.56389772048703,34.97891379074965,15.643294847253362
124.61072158678262,17.72078532323033,15.671067882369016
129.856662511888,2.403220014921429,15.069692700664895
122.84694693373723,21.650052289653164,14.064905784793238
104.58221525261891,36.97676438916445,12.860707794149949
77.79541681221957,46.61152067676151,11.682949898546044
46.972514129448804,49.9951288922933,10.72918645575882
17.669090961159483,47.34369658120139,10.076106770039486
4.9290496252698475,39.26571797928453,9.693099894587577
17.63466467007427,26.716033208791114,9.55619871264607
20.23110802028105,11.227045827884071,9.684318739290534
15.214070594902235,4.902901326547798,10.036942038201254
6.403235062476505,18.777981002889863,10.399527363076825
2.7635742839307826,27.51324677694426,10.384666686282385
10.236630116570726,29.048635470634036,9.553907322757745
15.172818028715177,22.761112046791673,7.504384216035215
16.946363999599978,9.58432577733309,3.8928727347713448
14.308369591688487,8.389528847590142,1.4464885100854081
5.523967508818606,28.583599975044017,8.235411359796707
10.427573627314509,48.51950910279769,15.647866182630514
32.37508144884726,66.06936932878048,22.646069966556446
56.38192689005852,79.38989808683974,28.32819182193448
76.76499486021191,86.76471114109688,32.00454279044831
88.35444369625706,86.62021572807126,33.15832527321699
88.80785253185974,77.82241532019664,31.324268798051357
79.61786672714665,60.16507439853355,26.142122839787024
65.16487519236583,34.818401778026534,17.614761441378807
50.3666243626305,4.4683262429571515,6.326427508989016
38.29437937910794,26.997092690561868,6.455528415896655
29.092983875444894,55.19455467568963,18.975393033950308
20.71644118996114,76.14976574440396,29.341739256219277
10.88737531855793,87.15122042293349,35.86464509681883
1.0111336394646182,87.32829719573907,37.48563705243188
13.283897602045938,77.80631188817169,34.07515419995432
22.84977486600767,61.3743703085576,26.417006659501375
27.107724103992837,41.73839728707443,15.98834592241591
25.570761159379682,22.58245077388845,4.601799009337718
20.323603063567194,6.720330584034768,6.104151142089035
15.12684869323473,4.3808204364817955,15.090647925188522
13.753627432311239,10.546278334407193,21.795559131259708
18.522946426148106,12.398111796896899,25.78933497847382
29.740534431585328,10.693530474013095,26.785650858122406
46.10877790926961,5.850806493762477,24.82379533085343
65.61411430256017,2.0894245182692415,20.408556629832077
86.18148780433073,13.095926293332646,14.446627317976068
105.68344454308831,26.61536515029756,7.964939848818027
121.49403629780615,41.22297980547894,1.8947633360716016
130.1537599060847,54.71324403691817,3.039672462218889
127.69157229818192,64.61614274520633,6.3569110302746
110.77232728753505,68.88573406348503,7.815774046291639
78.26396770143249,66.4183679526725,7.4405774123834
32.42998188457426,57.16917394207058,5.546730772459866
20.983172275292688,41.888584676664564,2.659790554472485
73.99237801045956,21.7376185462331,0.7481393331716989
118.53215329636204,1.9350513338340096,4.415931227503935
148.62162000013407,27.533606565956738,8.200480481964414
161.63982836789864,52.96432155959241,11.902838332694936
157.82194796289383,75.61685111536268,15.20197566892156
139.867353416144,92.7368393309123,17.760399906329745
112.75058400302294,102.03536774594056,19.341341887449257
82.362900649456,102.38246468665564,19.799075023072916
54.13902949818211,94.25754340118063,19.080547300052253
32.020151197123056,79.71233029763692,17.303055533010372
17.919738067642893,61.82655827257909,14.75086331030413
11.689503174763628,43.843754431056176,11.822499211008846
25.508859607678588,24.21197457297999,2.623449460048767
22.33559608209427,22.668984864814984,0.2550897053967874
12.49699188807649,17.17000890179879,3.99632593431629
2.356346718008845,7.604719893377244,8.150918266449233
19.33994002160069,5.483776555194612,11.975588283566388
35.30815560323711,20.836843555684627,14.596490504885589
47.593971294496825,36.55159201691429,15.171922634601291
54.369195356701134,50.341093833812245,13.010196469055119
54.57888028124409,59.9957611767436,7.837335539775851
47.88518641847897,63.91577457157351,0.11698912905576733
34.70678683555884,61.53261628117936,8.841232766150675
16.126516425474648,53.51750672490626,17.18583692308693
6.232189904656701,41.73926184661972,23.071360715412748
29.64590674671045,28.787033212553727,25.231039484967443
50.07704400062353,17.10554084981667,23.292814375848025
63.771847255136976,8.251779953737923,17.625200879559102
68.71020493136218,2.503511294498633,9.129649855511213
64.81617169825522,1.1499250635099443,0.9389214213021111
53.7180206626122,4.5667590359540045,11.258713609549737
37.85495546208182,9.785870414845617,20.621652749462484
19.7293591566375,18.352884788671993,28.012045605035976
1.719166270230177,30.80291840478659,32.584775491304484
14.043310307518432,46.46135652593879,33.77330344990529
25.8001833267453,63.567189343939184,31.480063677376847
32.72892648785647,79.70085615733939,25.96406580810923
35.581091591334264,92.39306485492789,17.82082117073822
36.68945698633293,99.70708120783587,8.132483462267436
39.0919430840318,100.62559325602001,1.7144592700366907
44.87610014842796,95.12576680609561,10.566121960833561
53.68497522630385,83.97612744167822,17.903715350049936
62.33342646802365,68.40491245322552,23.62215208322365
65.96330010957927,49.8187298816743,27.60511502765685
60.294653920413126,29.66414567573943,29.685333772940226
43.65925418147767,9.366962090643055,29.76412242442895
17.69666737846513,9.785956347662964,27.882479244288735
13.623025236268976,26.897932570350903,24.279838867996887
45.969356800163055,41.76299357901854,19.43171444306224
76.29948534366864,54.99987971146799,14.02244772923534
103.17551767763817,67.7965189752827,8.812613501439342
125.71985283928416,81.21438919091494,4.409244020056517
142.19631079583638,95.31255539953746,0.9681334869916625
149.4360383969599,108.56099645703834,1.8629557870919575
143.70673207783105,117.95228327519261,4.705299113533004
122.63400811103187,119.91778590187572,8.256556345831068
86.97136395530508,111.73696703620425,12.970325845222986
40.99462019233406,92.8193527680592,18.531060899323617
8.817736327445251,65.25815551735768,23.67305515406349
56.05659087491827,33.384403037535755,26.580323011710867
96.33745583288719,2.505037123342551,25.55033853676483
127.94302990968782,22.629449651250354,19.641659769084896
150.98398737920832,39.010869518803226,9.1404058084504
165.83125711485468,45.836348360078425,4.425460551813138
171.97024096945313,44.252192911389834,18.69884267542762
167.97822380366327,36.67781074482348,31.01451437507422
152.50340994424357,26.08353182176331,38.953747157582995
125.54728761080366,15.457827770255234,40.77545850499711
89.19962496396333,7.489422425341933,35.5711189309532
47.37717437402989,4.3496907180875874,23.4382216426968
4.784077359396179,7.443484576082372,5.709665756112874
34.29732774394817,17.10047921342652,15.085069209187683
66.81801709278704,32.31752455134008,35.61421735114578
91.16728367995488,50.71765129468811,52.358963048789434
106.90471934897066,68.83712726597145,62.33083624383205
114.31521042456458,82.74367609134528,63.80379311461015
114.06829465725679,88.86506874986573,56.76869101446072
107.04310082748975,84.82195556232466,42.91859175206079
94.2347800739607,70.041613449157,25.23543890935532
76.6945154142247,45.970599226375796,7.16664273892028
55.49391387596602,15.811869971846498,8.365875068847586
31.755890052962574,16.176297184711814,19.536872229500204
6.785023265075114,45.64823160633235,25.645190697322132
17.760823274505963,69.09877723167867,27.006009235511126
39.78893126742823,84.45548530952867,24.74164896072977
56.903524170399926,91.16801734739276,20.321240012593723
66.76812462728037,89.80522185416244,15.216651730015274
67.63667779418759,81.38092383263094,10.84737708746906
58.90276619820708,66.77081920727638,8.431616133016538
41.44473457295223,46.54070193744566,8.627417134446116
17.60330403633355,21.280660650142792,11.295085614059007
9.26697952456948,7.742344279805469,15.593155996482135
35.55737079981267,37.98994086670573,20.294185301563964
58.1800132936095,65.5374597648073,24.19400141220402
75.00985373166034,85.68442504506254,26.450257497444213
84.76958340089003,94.16120739037441,26.64227182661457
86.49511769960444,88.51647523903216,24.706688119522273
79.06305443180807,69.15095218155686,20.87845760699175
61.28893030821237,39.52774896818803,15.495863191393894
32.83030073553677,5.416927019146657,8.861341886333305
4.457416861701479,26.56003713807675,1.4062084572970217
45.65394398556929,50.54637346564115,6.144089078971475
83.28543116441406,62.686986391500234,12.921670974764236
109.41181242752023,61.67456280410558,18.186117284572337
118.57777277909798,48.607932191331685,21.469802190386915
110.15713082164217,26.44274851021489,22.675622179523696
88.65700872678856,0.6267359770762218,22.18223802492088
61.634455699250665,27.681884405463435,20.781697885421842
36.27032705501522,49.57129323662316,19.33984008884216
16.41751052234738,61.58140959838542,18.315058662727292
1.700625887282946,60.371663105356674,17.503896793761136
10.935654333026578,45.03218442938396,16.275949033399304
24.37382259351146,17.834662131974117,13.95213423774679
39.12070669382618,15.842789467261596,10.074499506773273
53.161654273532456,48.61677196180304,4.728377337326249
63.81652066314443,72.98987849100341,1.3431575406228728
70.1068327574806,83.41356707613221,7.009921289953476
73.75317062263672,77.7393199843404,11.13507589606196
77.87348354326257,57.54991152865437,12.969079499505586
84.12471746343033,27.357589234749202,12.403170232451737
90.33948274366338,6.86924320153848,9.840074625412528
90.54469215354925,39.18100489313903,5.9145663867431715
77.73734203099951,64.66316169998561,1.415589700920789
48.02999088433188,79.89512397407314,2.8376667116760976
3.715747063213223,83.04355660629042,6.2961930999607345
46.7602378000553,73.85996225112395,8.610063745066606
92.0500646032957,53.686169014682314,9.279520667872813
122.5775056454546,25.338967347888065,7.757822592620567
134.16688971949657,7.326535508311779,3.9570965471996438
128.85093358046444,40.1895605590594,1.4902644121297577
112.73523390731049,69.742936686364,7.4362167270004464
92.50365225766193,93.69797030168115,12.473800670216946
72.70506170246482,110.98734661352272,15.232013638877588
55.09382225441602,121.202300036544,14.918438167299042
39.82200733447862,123.87764232686806,11.602426563251043
27.13476492149919,118.1353798934154,6.087466732215307
18.094508867995394,102.98067280565455,0.31643317503596174
13.81504707551758,78.09877052888045,6.184490559325975
13.929235808027233,44.637401661242286,10.494302297537287
15.681752553793489,5.431657347991943,12.85916420769616
14.64405877528038,35.54395308584988,13.329374988460705
6.890575840775098,74.21065798719668,12.198427932524423
8.560151342455416,107.30271465101616,9.846305718462679
28.554266384953788,132.67021058761512,6.471299848658257
46.7546706395716,148.92723601629643,2.237891651496585
56.3621610164965,154.86166859728382,2.301357140817888
53.217793440230814,149.19819556766734,6.284922591247623
37.78171357160513,131.0799640525727,8.973805924913055
15.127846723125389,101.07408828946537,10.023784810183358
6.883779642511436,62.0629229000078,9.52518519046213
20.228042117644442,19.360028433689177,7.91609887464677
18.94718579095399,20.26471389346594,5.858806170347075
0.3035185530989615,50.355557359299304,4.084935045299114
35.143350644020174,66.56569641796143,3.230264409578074
84.15302662360064,68.0198335241365,3.6641378203522357
141.72424470888205,56.86920747481986,5.402736027035561
201.5809149984533,36.732563086853126,8.138718296829602
256.3747087717857,11.661435596389424,11.363900042214134
298.4489856690838,14.61594059686377,14.556811274592842
321.22169438916006,38.990097763271606,17.225289714972014
320.8109105536882,58.93048461453775,18.891064350879414
297.27377430939805,72.41531389841235,19.186315271961124
17.569006821526195,9.37906179594675,7.8706463803632385
10.408578239066292,4.6024854637532036,11.869627783580587
0.5322524693473468,1.42583133983679,13.593128077418752
11.81457796099527,8.033537870536858,11.698545819604316
26.543504900324074,14.687810307116479,5.732279535382895
43.32972791736714,21.111174013479527,3.803686618467567
60.979400235390884,27.219191517147138,15.685425530983537
76.90606168934562,32.875440514635486,28.153518597041423
87.31082321008323,37.7072407341371,39.01454693929538
88.06745410334197,40.99256513969064,45.92386155971563
76.14274666681982,41.72523567252927,46.827987329034976
51.18747858979316,38.99193314302294,40.386875083209546
16.480534938329427,32.4513338824093,26.348209530191237
22.19097725693495,22.118484973772958,5.776887281934394
58.8922957617575,7.970950010426866,18.875724007846454
88.82934559426874,9.478352627459264,44.00030380437171
109.12730667384423,28.76427198093157,65.57778587183209
119.12633338680618,47.64917124237975,80.12945203433395
119.44281068714592,63.278603477952366,85.47237371528776
111.09791968194735,72.83128892145591,81.12916129539384
95.05742148693282,74.36064261171852,68.2839970044468
72.26398774881864,67.44147970302427,49.25257603375845
44.24616170905118,53.57905070684955,26.72572068706002
13.457488656596814,35.93176392456911,3.3531432490351656
16.786837591185822,18.529752206008222,18.29704683224373
42.89379136714275,5.19763595623705,35.824231824181965
61.88303697854639,1.505405010204182,47.378648872765815
72.03889413704817,0.8814889442859112,52.275362676140425
73.2803991802796,5.7779125274292555,51.257519063398185
67.15626117159927,15.516488864918484,46.281638383951524
56.56960780610787,24.342286674099416,40.07026814468441
45.301372551696666,28.01385656304133,35.27050779025844
37.28383558201434,22.953666243226674,33.57419101921787
35.68977031963442,7.193795251877322,35.166933931276446
41.971769190438366,18.780301113320206,38.58556029584483
55.282432824303214,51.6098640633221,41.4271522430766
72.57397141228924,85.41711716986133,41.563478635561104
89.34907058356944,113.0381628810648,37.86480348353713
100.76534520643584,127.89838512672443,30.25553682215518
102.52620005960651,125.9364146433619,19.546120573587956
91.23851934461361,106.84728011224955,6.997213647601544
64.41552955860622,74.13801888262716,6.3438351605831915
20.682489447036744,33.98496443194621,19.77474237212416
39.32866561541398,6.606436239992429,32.60551389819512
111.57394049624375,41.604238910913274,43.88335460835082
187.5339632743651,67.0906200035135,52.32941017483005
254.61899512640866,81.49138980366185,56.753842931134486
298.71410180644904,85.12390394828644,56.512348813937386
308.32155835921645,79.50624023965308,51.7518157937405
278.62795821282583,66.78023714620635,43.67255459395333
213.5941044651338,49.39086231595728,34.29097300493983
124.94847609097101,29.872663016622266,25.63635619131381
28.4170138088178,10.545055110189526,18.86124925131731
61.07314497959436,6.879462600887913,13.778434943816116
133.04784364125157,21.607760834385427,9.37116311148299
182.69338474277401,33.72134104616094,4.701731144662535
209.74033134814755,43.64581832291189,0.6290277493760222
216.26495298955663,51.36391271939389,6.342410937228278
204.96482744494074,55.81568991128383,11.528567024299004
178.76620267287038,54.93935548530091,15.16093965755133
141.4599380516801,46.5016338118132,16.809456003735026
98.34521052954204,29.36661313568204,16.899289328822608
55.96915654799793,4.548893364598778,16.489491189200077
20.802616462166096,24.554444921485235,16.658242796202206
2.5050951139440256,52.962004095505314,17.788895623809736
12.338898510708002,75.59349097646997,19.47354620894089
10.171855396471264,88.74649879071164,20.872784182425036
0.4392163106989765,90.92445236366528,21.138610263993105
15.26769110639542,82.76985805298828,19.858610387797917
30.55061662607176,66.34830867691106,17.092054116231193
43.47140110567515,44.344724450991336,13.146724328125837
52.07003582194608,19.619297519918447,8.508921285040453
54.921885909950475,4.850740619020956,3.806901280800772
50.89208024541749,25.94146578085266,0.16665110071731729
39.087908796735945,40.65344713322531,2.6865335632123295
18.951496695361907,46.847445488728155,3.5656812058920337
9.557459115711659,44.13874804494083,3.1048532817994654
45.66579101410141,34.37366144646255,1.7876805217729679
87.41222427821492,21.246895536632977,0.19833240556222162
131.35135939951815,9.057094666858811,1.223499371508617
172.59472720531537,1.1349952987521916,2.3692131885129495
205.37134445099093,1.2702257990015582,3.2000353129071475
224.05088810888782,0.9059794356328925,3.5629221082239177
224.32532496834307,5.456819238195827,3.2646556791914723
204.09322608708473,10.269900207337496,2.1114292077392305
163.74892825107634,14.35761669594614,0.017938431242175635
105.93980709239582,18.026013123746047,3.0675402927837725
35.132146434414565,22.19941885964607,6.648789753845985
42.69379411611439,27.442093568083394,9.882381594137392
120.2338721088527,33.34657825673134,11.761677261120477
189.17961167596013,38.6311304570605,11.94398742678895
240.97307288515464,41.79664363593787,11.073030475119527
268.143219537582,41.84054074029085,10.315168429664247
265.89266835407227,38.537467770090956,10.59023170843614
233.36872412181276,32.14841859839882,12.127257853587423
174.15590987984916,22.85883720859468,14.529324148733936
95.79113569342141,10.44874433990515,16.97906778714965
8.508031839470178,5.4781041424108725,18.518989682188124
76.39291576059841,24.795156129948474,18.597750437453392
148.2138117075163,46.135946897107054,17.37893487655296
198.387940072415,66.66161383652008,15.384280665878919
221.7643962261991,82.55854897443518,12.966761760364557
217.4371990965074,90.11218856860783,10.02231383425779
188.8512130345361,86.87619062477874,6.072907780676483
142.97584138217022,72.4309189437374,0.6872244605426716
88.61268616296404,48.49582359885435,6.227707415510247
34.32257566630765,18.471857899351765,14.167120864861772
13.318495387741402,13.303887663005057,21.81257214892312
50.50246922910737,42.28831494332159,27.653367351657877
75.92985655610012,64.32219689278226,30.967584168695662
89.99711546942167,76.11152807211617,32.016220922332444
94.02358977437991,75.67667894368995,31.588567025104812
89.95012877004896,62.778671262773166,30.423650078349965
80.46725490583368,39.18021834655575,28.820277354520908
69.07128976137778,8.564259953955485,26.64224947125275
59.581296978109165,23.968539093108372,23.532099902962084
55.08937175077482,52.76712705475685,19.1271410246992
56.85650710824596,72.6532584866842,13.262148301953685
63.846165564365315,79.83201627229778,6.108969937854918
73.29862403985521,72.50886175885007,1.7959497051664182
82.14696382123776,51.15449639612996,9.68615009846781
88.46774539108337,18.4356060843842,16.783176591848537
92.08834218038041,21.13275689101587,22.399262045382436
94.00410865517135,61.76382782381195,26.014842136011413
94.96967595434502,97.17897722455217,27.41808793230701
94.13222055961315,121.5258948086949,26.688422567269967
88.60187839104375,130.29528236924483,24.036434487166183
74.28583156155292,121.06875979349721,19.84023402416835
47.510153326463865,93.96471212650056,14.797360966467613
6.574872732295749,51.72728672620015,9.767039560351096
47.43923444285846,0.5536779841397476,5.499321292101274
110.80043850528472,56.09926207513768,2.5162696134124656
177.78747167818483,107.41441008135429,0.9743650121164417
241.28541249889852,147.44549220705062,0.6525465055279763
293.100777878819,170.7502083020462,1.2145414624935091
324.3206398388533,174.43315233627985,2.423124840082079
326.3619029225967,158.5789366537928,4.0162450944357175
293.0724265037927,126.04499643759829,5.547115533648652
223.41004768892645,81.69566099791341,6.522439500391361
123.54979063516181,31.328298515207727,6.513414394082611
7.158987504909133,19.373728045275477,5.177592148066733
106.91485138587524,65.5691055264556,2.4373608464202956
201.78522856343182,103.40569668444435,1.427636152787624
266.1855898999803,130.31998659567037,5.952402111395139
293.71550338528556,145.37610855306596,10.662447859625807
283.9491743755369,149.06499060159882,15.18157339717706
242.18769511762645,143.01618570305214,19.225165906411984
178.03994181177939,129.65533681151538,22.519287589096937
103.3381409433096,111.7877728641895,24.77338691645452
29.960921628506334,92.12187557893945,25.64518542595637
32.0704883619307,5.51983318499053,9.41200214815104
29.0271585269043,13.093249874270652,12.704362792593262
20.52586960628471,20.81960528149476,14.866043696833378
4.052215385446874,26.376558401402495,15.16544994789781
21.027185400332986,27.213656605337174,13.111932259404028
52.4146484756114,21.428735857432745,8.36085335735438
85.17285481267172,8.608346487863189,0.6843784613470741
113.05694519467711,9.804518613901037,9.93513169619272
130.44540091871772,30.73840264866824,22.81614776403483
133.66797011016007,50.28833244048007,36.19596427863618
121.47428889353002,64.68796128326831,47.561958788173015
95.24861371154468,70.96263431922735,54.18438404161671
59.01966093042385,67.15769698441099,53.79516301649116
17.54657565205596,52.68706989208706,45.550920942962016
25.75195527421069,28.664508398003843,30.527624556614278
67.39794812191734,2.3850084042245228,11.242567884149121
102.4739501050927,36.736861032988415,9.345951311156824
125.53046133427117,69.52763172962923,28.47418800803723
132.0108716904584,95.4042817145387,43.865277384439985
120.57365014254209,109.57293398428705,54.086274925653015
94.514984229701,109.09962028000014,58.59640335395012
60.98736670368708,93.99189823132542,57.47489779527478
28.855620676709307,67.34322151356812,51.251299507580704
5.6223864113459605,34.478962063151336,40.940649006575526
4.779228175015577,1.3167128481597077,28.03937144641751
2.5775672093797635,27.31408941597638,14.392317428481707
8.69057534125746,48.63706622247201,2.064563243757994
24.065243801602115,61.94750864337412,7.249088341784121
38.81368963185247,67.84680250624551,12.968737053042124
49.466447165696174,67.33076529835182,15.678174366517878
54.12584434333114,61.297324008276675,16.82353204224043
52.25504863952634,50.637397595925115,18.05705986652737
44.43244254469278,36.6675742304026,20.26032910972106
32.05372260451279,21.402988991614073,23.229954035868253
17.013767667973767,7.34336024350501,26.195208664365055
1.3124429804910343,3.197867226495944,28.423892132854007
13.423176680000184,8.835303909662029,29.40354765554216
26.319434965982133,9.46249838446095,28.8000745046491
37.41430017740645,6.033447170279494,26.41336104232555
47.5437358790677,0.039870630694714346,22.062611069064783
58.0610668344458,7.443958200520049,15.67876818313734
70.4641368847917,15.108063426246632,7.559477627331662
85.94947912724766,21.910515112626868,1.6185080423783973
104.85974665098875,26.26851903682667,11.081404472619049
126.003855780475,26.0725108776723,20.335371583975856
146.09391939841058,19.24981607058819,29.12214609840868
159.72140035733406,4.821575693144881,36.866756615923144
160.28883555931432,16.059073457600146,42.378253888726576
141.94877205320824,39.70297069585471,44.23463990612075
101.98029852688741,60.48560278845865,41.51691261652569
42.67204846023503,72.3461959113232,34.29439055897592
28.25654666309977,70.6590589939635,23.595702993680284
99.19877839522543,53.764979844636976,11.147098010603722
157.719077612634,23.601746380396946,0.8820977365611322
193.95568404361612,14.706654944545493,10.326138770112092
203.09268099016427,54.06693081987994,15.870115884651446
186.04868330577585,86.98994444693592,17.74647921267883
148.40279324888098,107.03337760514613,17.41638651391796
98.39375110332408,109.81234330687006,16.585269126447667
45.00008910914527,93.53504747845886,16.52849674554713
3.2880615460939375,59.176047862826074,17.71109408418476
39.07531989883717,10.384897912154834,19.573928723536696
56.62842008737259,46.84810654231768,20.995293384942357
52.89152664539318,104.82116200830102,21.321218023914167
28.860101137382326,155.14810902364172,20.898301096802733
9.456036285152539,190.14135564293312,20.531996343609038
51.50074711635537,204.2839983010964,20.652988567465247
84.53124290752443,195.3854844742032,21.04430153168423
97.36382332644334,164.99907808486753,21.144740647552617
84.14166887167218,117.8917694114211,20.496505624573164
46.443726760973775,60.707509288518565,18.859669591640554
7.215298771995344,0.29773616465412295,16.11267184715472
64.19490462807563,57.656854547281,12.266647483554845
111.66236595723338,109.26633409866007,7.528851253970325
140.05553693258625,152.17728548598402,2.1547942790605803
144.88300557867325,184.74601554458536,3.9095885230379994
126.76443145744038,205.23559821306802,10.888757844631092
90.35093894591346,211.57342290646224,18.62999903337462
42.943517064511944,201.87517477142794,26.65131523026202
6.638243398555849,175.50493474224774,34.373091353879936
49.02507858195857,134.10281642921103,40.89179206476915
75.46339499341076,82.0016888197075,45.03010332328982
79.35106166699414,25.72327205481341,45.96226661062656
57.90718143582497,27.3139500668752,43.70500764739189
13.282291630144957,70.38781015673908,39.098438546008424
47.50928674365859,98.83607215933822,33.54616745848975
113.97576567044538,110.80922956337406,28.582715410500004
174.45696096617849,107.31842605946625,25.207199742347633
218.51439739924962,91.7495917159659,23.431871842955353
238.6226410917424,69.06802974942215,22.34330532016216
230.92100642657476,44.87903073060246,20.477347714922914
195.23485383452498,24.43321134473685,16.24856753381624
134.67563742637503,11.641132206066475,8.424249229881339
55.074097699481065,8.251455535853891,3.2950521649059206
35.71297638703738,13.452022110645617,18.006529501475534
128.78600756590268,24.1393818459224,33.87892716290023
215.43868697038153,35.89240358325427,48.69654981159238
288.3484039623721,44.372139785503656,60.545486558817345
342.34980391537056,46.6612869739276,68.28725965500624
374.4972206214965,42.025199375700375,71.46206122863478
383.5597904542588,31.82639879924158,69.99383139829862
369.446937965847,18.741456708710114,64.10592788514774
333.01210550911225,5.691550629325862,54.34306437661553
276.40825651503246,5.025497863682085,41.54598468214315
203.6643339677777,12.122386142682874,26.866987690313223
120.87076299254785,15.296955446216813,11.78987672414739
35.56802252573965,15.01020034527732,2.0873799418195222
44.622547344415445,12.301414856860116,13.36337472744076
113.57976740749349,8.697762750661408,21.000851225045103
167.71740665073426,6.028668315279083,24.49382225040887
206.03508708431752,5.992239166299543,24.136080577289533
229.3699895005419,9.527236263045927,21.262067237723848
239.45691619338544,16.272178023394087,18.04473750970653
238.3852174687316,24.51954278806101,16.817505349119052
228.65325480696586,31.880820785941193,19.53728163090756
213.4630238756003,36.45361059944319,27.22732938415366
196.64658559716784,37.897655802143156,39.23925434103493
181.88905415490905,37.74589453887119,53.28209527400474
171.46044335359616,38.63444238637226,66.28129485089266
165.14917163040187,42.756548028724225,75.17294782289066
160.1219604304256,50.34819953323142,77.36073408869358
151.93166279245435,59.06231085091543,71.11143778639199
136.2099793383135,64.66410238770719,55.98230042806477
110.18062151578091,62.76442279445099,32.8005247694982
73.28535902140885,50.694191283578924,3.3875087546987372
26.8292006876444,28.582636748669678,29.289570245092243
26.80964193862046,0.8441663157126161,61.07563338964122
84.6567991222971,33.533513982671266,87.27728004289492
142.9271816235789,65.62993332584902,103.55573785453329
196.41741543971628,94.41421656724337,106.76206728154808
238.29324138179527,118.27588548283263,96.01522730312277
260.96061706313753,135.95972094323716,73.58464456729112
258.05162011990114,145.80950152606653,44.43520037961051
226.7874800026067,145.65365994920512,14.630848147596504
169.59426072890884,133.48286983727172,10.454371217547875
94.0869487191613,108.53126616471944,27.506461415335608
11.352455073776113,72.05698940269974,35.53146137354324
66.63890143383033,27.32425044230315,35.25114807649742
129.3404799401077,21.18045315387293,28.51223381626331
168.89768377696748,68.82981121399084,17.86361518321483
180.3771958036704,111.61328372658787,6.047837751604277
161.59735257332702,146.23303239114503,4.560864323908346
114.97964074638173,170.58049932704802,12.208025051535257
47.69557414548066,183.58691899435777,15.652219477430052
30.460750017764852,184.51622789646635,14.366169388473272
108.12346924567758,173.28269428924247,8.860616358036404
174.1153054767703,151.02787791698643,0.4707852674152175
219.62901027701866,120.51528730506764,8.962021253789985
240.11852876744823,85.96741435975622,17.248778902336714
236.11551260837746,52.25463825505968,22.39905624753818
35.3508033739319,25.797022001917593,4.227108766319419
15.518266363978013,22.790232050465086,10.306198126112193
11.488699879605631,14.761017052073917,15.217799694601213
43.12980601763712,2.0310322811142134,16.69110687180867
76.31199940657989,14.328461467477954,13.142642027819559
107.5480216883997,32.60177598720927,4.2310139741000965
133.00446769895152,50.530185493828256,8.725981098992653
148.5194715610315,65.47562056047741,22.91536580471552
149.99600483211023,74.69264192711863,34.90383747806564
134.0790640908881,75.7810153718645,41.50903741962581
99.12715412065077,67.23579125910533,40.41058895465171
46.57342036159333,48.95847615374199,30.901875675016935
17.843028790217684,22.649556126666546,14.323721892266981
85.15003463057356,8.006925741795804,6.389711029197626
146.11263778656445,37.93218999586985,27.41545105145511
192.78291133206466,62.11201413557891,44.60445228358389
219.29953549766805,76.83540578966014,54.46379935401349
222.7246795799487,80.31324727180446,55.28672558366046
202.8752095240764,72.84720682100156,47.366767278527306
162.18562137192907,56.43213144720604,32.61002939320413
105.49796181480195,34.187941178690785,14.340293144718816
39.48711707966584,9.878906099629473,3.30688428125751
27.89934894046838,12.532256827671056,16.55842686236383
88.48998336616201,29.28803848298466,22.784984309221905
135.0733617367057,37.37998052949628,20.911871137992662
162.52066355015194,35.21527291804729,12.027140249826545
168.71194322162717,23.194830132883908,0.5750833328046243
154.87828941179637,3.9093155220524904,12.537215140809044
125.42753185198661,18.32081584774849,19.6199584905534
87.10083546899186,38.53166239223973,18.511071218188633
47.602884334192225,52.50782813136581,7.940911052261067
13.980303292020563,57.89889907471271,10.609750002065173
8.96019504141445,54.593892741179175,33.36556908671455
19.654825788166903,44.2485179035101,55.145139306910934
19.87332943936551,29.21374058873169,70.40097228708044
13.761638226061345,11.48042677242869,74.93825896925767
6.209318757370587,7.792766409120075,67.43477693347525
1.2659641112628062,27.995686263375482,49.34021296424179
1.2162680088552842,48.288152614499474,23.77606497452805
6.673086393874423,66.90846758914627,5.2959215411698795
17.41725346267421,81.12375790811632,33.617041333550574
33.25939940985547,87.97668611063018,57.21427393513148
54.25498101024056,85.44266211770454,72.93124083216796
80.06497477689739,73.35406009052335,78.79053940100424
108.91437875448032,53.58100017108732,74.4326548844769
136.94632427849754,29.367867251444146,61.28165827806272
158.6307797420629,4.230842975909905,41.89934779613487
168.2271439591135,18.97004753979932,19.39872283628787
161.58378892635002,38.354415919050425,2.800705983811877
137.36367051454468,52.75507280902375,21.607305678116045
97.12528695334917,61.27768682121706,34.82999227190428
44.41526722629806,63.14915980179848,41.30054614666775
16.380195151863862,58.06087313217171,41.10085665604035
80.64292861522705,46.77927182059598,35.69927711411316
143.31343175524063,31.491252092973127,27.25026987146063
198.3813754143865,15.465299341347073,17.697399195944417
238.96374684763842,2.057724811309374,8.584563692490914
258.49300884389123,6.464281064364634,1.067550757532771
252.79181266502468,9.68745307036749,4.195670248367448
222.04731527010657,8.981082523071187,7.09835225611745
171.46520763814016,6.620373399189875,8.0018846160592
110.0437369361548,4.649858661050873,7.312354786512292
47.96546802581114,4.098264644274937,5.059814526992091
6.182473163239994,4.860130328292732,0.9530253784266365
47.12863951890595,6.1848818373622025,5.09522541365846
73.0106908239546,7.3774247064005305,12.372934773212142
84.26120688779372,8.278971065205457,19.48093062639872
82.33586051887211,9.338450544470955,25.02378047118852
69.15959766786366,11.356068012071105,27.954807237450243
47.44787000402918,15.125026991125363,27.560256729191547
21.37005174548851,21.126957574169328,23.50131368821521
3.269586171210947,29.295866598795126,15.749027033285945
19.88523071836477,38.80763683361658,4.359761105579846
22.822847671911713,47.90439912853866,10.338600368013728
9.16913818954943,53.90552022409367,27.106938247440226
20.136777524154983,53.62658761925206,43.61861152479368
60.31652234983615,44.255931040875964,57.054252016961826
103.81108844038086,24.433143622097422,64.85624682307409
141.9182280344137,4.876890590663089,65.46466867481853
166.49052705286945,40.122652797505424,59.00042100186384
171.40055103843977,75.74738316246321,47.22601183334382
153.67589088383096,105.41652754314786,32.75523952694553
114.23431224571452,123.436683480189,18.18420533883015
58.07844270751558,125.9605423566958,5.239753485807709
6.283548860312059,111.74836846534726,5.704286276315412
68.24569955642144,82.4605225479583,15.162458184168445
117.07773174825066,42.499008871374414,23.625602127626816
144.01792789947606,1.6255798979915108,31.235477667407384
143.9223311548416,42.44674428208707,38.059968946867535
116.14840454829366,73.17163023884581,44.04355458821401
64.68868797356461,89.42253418020111,48.800212615797726
2.369447871133699,90.46647383963689,51.8956645223784
73.92139715864639,79.35201185433431,52.949787184435735
137.4095896502968,61.72159447604858,51.17791785863844
180.9103340129688,43.70824886647399,45.15990606955658
195.52424640924903,29.84651007174137,33.37683633703474
177.4990920932395,21.91621858806887,15.188669018932977
129.29596594066902,19.10686198865275,8.217698987518515
58.98134186641821,19.15842701053527,33.42136211081802
22.03409374923086,19.688663555263428,55.67572116464446
102.11253919409022,18.951083758948126,70.5358744824076
172.12604795586174,15.788621758324224,75.01970025796983
226.73807584495955,9.24178359784997,68.4460087632913
263.843786172608,1.5013200724819078,52.569585987324
282.80786736938467,16.49356365429343,30.56611588154729
282.76982470691024,34.105659684358585,5.8321531458559726
262.0660930314302,50.62808197477523,18.639292169720274
219.13580711232316,61.10209912638923,40.29619466431159
154.36174972613767,61.33808913271721,56.98235816918603
71.67859070358385,50.16964308500087,67.09745361802814
21.01056824809462,30.621666245040945,69.7598217257576
112.87238795205649,9.121438780450047,65.02511687087247
192.19136386735406,7.082411308110677,53.99473059559327
248.61330616916402,13.042693019554983,38.61839794722684
274.8840509554387,8.15569710861499,21.324299547888362
267.8365901306194,3.9020137338793806,4.505927039260022
228.7811114525473,17.200726140326736,10.082906261595115
163.487880030484,26.343558642876072,21.721401835635366
81.76743953211292,28.51128340251212,30.614990398231242
3.5783121104419333,23.870059440227614,37.56276764012245
78.65329290369021,14.49842046782202,43.442301208551136
131.04753592958087,2.835077136900651,48.27789339238821
152.50288209859158,9.271993354482564,50.82497046131129
140.80075032409212,20.49700390237705,49.28147037876307
100.1525917914812,29.360195148954165,42.35193097612533
39.96348217132784,33.81106110792984,30.214694132653232
27.57773269994641,31.707646698417683,14.901347009305498
90.29356427688812,22.070900137390783,0.5479989014786829
138.36129087144104,6.314510483316214,13.384645028264476
165.6906852955661,11.490006084217393,21.714909051042863
170.30912946370964,25.75227556506026,24.506469857439715
153.9523671665837,31.48041243358681,21.796866238324046
121.08118350415558,26.30343614054013,14.86807184789904
77.60264267540961,11.337699078874076,5.834166854273146
29.535642745740013,9.50447854976183,3.105580611256125
18.141120883995477,31.300642650019576,10.277479239495586
62.1423117014095,49.9932723539999,14.803728275815148
100.86732510898824,63.40469458337719,16.41793881772272
133.77463529942105,71.02726628578341,14.96898643379723
160.39981245054707,72.98393298029113,10.286521933505385
179.5430015846517,69.01641158599556,2.554058042670565
189.04464366801434,58.23349221386673,7.500421656585946
187.1682666910955,41.02717663544859,18.08764867753238
173.3747731289314,19.668205402304732,26.760239440967396
148.19104276383592,3.0444208360209166,31.808014283355035
113.77606187745256,24.251191092079928,32.868276468042446
73.88214406931326,41.664784214047295,30.817585269830122
33.21692027158366,54.06290256957415,27.07799684107186
3.51873373491232,61.375500672468185,23.04855913189106
32.52150796450247,64.31675232559657,19.833760153418133
3.2536050676260264,26.3488215823699,7.055005388913313
4.652629800143537,13.823120402141424,0.6596759675810389
13.88275010453502,4.60023886013446,7.607787180130364
22.74829932921521,28.36978736036785,16.66527200195793
29.739126212340516,55.78683645591557,24.95037206897725
33.84233155458581,83.62077024436691,30.590001930862854
34.511326455370124,107.31856639833781,31.92520900732768
31.37501174811908,121.78356377774514,28.27618929870922
24.060080858375425,122.69884003634654,20.18719533137035
12.312541807216038,107.71968298490225,8.943857531107858
3.6118027123557823,77.14439879624572,3.7607894599520746
22.478973862808434,34.23035916134132,15.905805344174128
41.88140998664563,14.895338948107014,25.225272281068133
58.844524892955754,63.049262698127784,29.83392033733433
70.87033089113402,104.46182657197802,29.05433402059113
76.36398223036466,135.00737366066528,23.258416427162842
74.56176634313326,151.80995108206366,13.463842151907851
65.24105911528923,153.52200937114546,1.2099359060156611
48.245346632973494,140.2998988595625,11.6134413395165
23.484066546663815,114.17780089319501,22.78612406940452
8.47256020722256,79.14968232173725,30.02909416716184
45.55828605354268,40.38260868676688,31.462127748494243
83.65871839356072,3.155863722009443,26.12653647096399
117.00584690761386,28.42217379419213,14.626136691161186
139.47507653336618,52.018277568681114,0.8035564428448302
146.29285493579326,66.79648634058367,17.01676217705456
135.3836122180902,72.7476254984922,31.14415868532799
107.68672202078426,70.05590214770658,41.268023370934
66.52326027613505,59.1717587873073,46.25436019006402
16.541966038434936,41.44498240286526,45.68086302617118
37.10271432381733,19.75229977007001,39.817724011526906
89.05559699971097,1.5882829944934977,29.419151351184198
133.85985434167065,17.9727773113672,15.601309029002215
166.3463194875282,26.159516259800736,0.1833432706862634
182.56182930372353,25.51610209985095,16.058026982210958
180.89235322123363,18.029642407604893,29.706664407701954
162.60786220477974,6.974558814323699,38.696662659076814
131.25674071359217,4.94433531636783,41.2022858559422
91.08266632373503,16.850648491575775,36.78574993141622
45.37391317730181,29.538390984305124,26.73166789369498
4.181923457327857,44.04493525852726,13.851730841040057
56.60035521430346,59.95909685136462,1.5916049792498277
109.74266578272471,74.63910185181146,7.332992187705558
158.91173208228167,83.98090799127408,11.667620218573592
197.05308220811136,84.31003733961631,11.50602340778901
216.75407627870055,74.22066464672194,8.010364335310191
213.07401394680545,55.23388991266157,2.9543422007118303
185.56727505013802,30.90160512220118,1.941564640449531
138.3552620446853,4.9982011085321245,5.483049452485378
78.36899993419695,20.044293994813074,7.029681553547819
13.03835252051479,43.51769104692089,6.217459823690665
51.11102891493079,65.52199541407032,2.865866200249795
108.40265669902492,85.55154795366663,2.8072185217386783
153.1664756233008,101.6458139458084,9.93650437473451
179.4647273864673,110.75846793272152,17.069657899206273
182.34333285051656,110.17187087117942,22.56960779426597
160.28272762083265,99.06728766915019,24.93958698151845
117.29499645802959,79.2983958056616,22.96753510516777
62.95156020946375,54.907055576550206,15.89463906986564
9.765305281789905,30.66813955890037,3.7926783263589328
31.048148630274742,10.45467998547988,12.106443279752005
53.305888919119,3.830495604367498,29.564319568377954
57.15702966545235,12.412389213306623,45.565274009605645
47.52858238039703,17.073328246728675,56.61741434626469
30.94093456485806,20.29975668656183,59.7515734526706
12.69629003380682,24.506392016474653,53.5901876957055
4.073264335389873,31.482598943620605,38.66560289992827
17.47287690944534,42.01194551399436,17.201004773782646
25.300040270982976,55.663795512681816,7.362430378220853
24.527575009052207,70.85290999830308,31.071056923942585
12.50715506936308,85.23327582840619,50.298435071173245
10.909502286390051,96.38455638636295,62.30209197822331
41.9072555015005,102.51914863003292,65.38034862863219
73.18679547104081,102.84897542702448,58.95995350055479
96.48090336639986,97.42293320047179,43.71722736906168
105.8608183163941,86.57232421665582,21.77572197121553
100.03551333524501,70.41181378558083,3.174457793121602
82.44913394944753,48.806234834607785,26.26800398580013
59.287938268825094,21.87968314526126,42.496165767294535
36.576297657454376,9.264179656924878,48.16305774856644
17.88146174086501,42.16307828754805,42.23252768418783
3.609343585957322,73.31110694437646,26.713857217001742
8.18851053895313,99.07791466543149,5.9416236353720056
20.270766256620394,116.72619303353521,14.574099323108074
34.82821687758279,124.95134952789225,29.620276236933982
52.81907140859043,123.73926577868063,35.826393340378196
73.92262713133113,113.8152068429094,32.36195399436996
96.75996916389808,96.2313572582794,20.810594623600412
119.12643712227423,72.47596507715535,4.678352602125186
138.14254479737767,44.98299221942103,11.646726573025655
150.46039110969824,17.515345955266163,24.257586930755167
152.69036265131282,5.133149439812993,30.533969758118072
142.0271306568432,18.27670238894028,29.215562860038304
116.96156319190813,18.905249098519647,20.450114811336572
77.9452101731005,6.915343058797972,5.951816837363025
27.831982137754196,14.647719017682556,11.290432583433354
28.071999159410378,40.44501620098823,27.77165746439943
82.55257970722522,64.33440033914871,40.15023892482213
127.80384611903975,80.80876564838724,45.84987901993719
157.35547124918492,85.88963365691075,43.7846207297408
167.99211388415338,77.44055886516688,34.50686375460555
160.82091741335103,55.195841523356734,19.72147931693728
140.80002461698086,20.788431645544346,1.9899079298243307
114.70884711942549,22.21700781334255,15.684429617739594
88.45827495321738,68.58026679663713,30.63049885109923
65.05731715452208,112.2081226865212,40.980110372625354
44.25668481327809,147.47919548758802,45.87512479932055
24.039897418919782,170.6031053769122,45.72733769657172
2.944302863580502,180.3660690801416,41.98397842044751
18.351308776542297,177.90026309324548,36.16554080620631
37.144690106924024,165.6842838075223,29.14886868557402
50.429168339034604,146.39880351273254,21.31562246133337
57.04161703904582,122.26906397268186,12.969652702160372
58.69257606456417,95.12088663097543,4.410013034657415
59.091769536851956,66.83583877150211,4.113481748445861
61.65720388191398,39.61431234776798,12.216888370620532
67.27902849687348,15.659656819937084,19.32918029028148
73.60859112568448,3.5895691898397653,24.925363791862477
76.36217898690346,18.126088335865592,28.629416208351785
71.85435900956587,29.38037633460114,30.16411154918163
59.16177932398264,39.45329768934601,29.329434476440415
40.60155883501857,50.017721546446204,26.137881566366325
20.344573330071267,61.603844345887076,21.015411314421666
2.1336875622888956,73.72129720254256,14.684108016253424
12.440019057514322,85.65875342367113,7.850165618499814
24.097681148924664,97.31675681241013,1.0490784818165582
34.532911802181104,109.37376416986692,5.202255858542862
44.659180564578584,122.5652901377868,10.153950558399172
53.72741809748473,136.54935458152252,12.980598767307294
59.85601850434402,149.17699702603542,13.129404849769454
61.53150007707969,156.79162844234145,10.47754082096118
58.97641497107329,155.5537165917078,5.510675474396374
54.37153633353572,143.08010056819484,0.5780670477464606
50.737693960513795,119.46175503840907,6.237942284284275
50.17049853699942,87.11769255891073,10.250919580160884
52.54230501902212,49.62135495566045,12.239629287131477
55.44813864061148,10.241280431932081,12.612584593433322
55.37884333054119,28.933890732875728,12.008774381235677
49.426640412621836,66.87902699812796,10.602454121504689
36.58235750297969,102.77290878828435,7.911756321126568
18.074231366602337,135.0610408225403,3.3447545347710226
3.181907489135128,161.09865089639004,3.2456947582955733
23.636437998293548,178.3701892655618,11.359415258158238
40.37965823270804,185.74620339668678,19.929121986538426
51.91089183466658,183.6338466591886,27.63263615436354
58.011926811375496,173.7879284289987,33.345757476145245
59.24622203853493,158.58385878093114,36.57700448074196
56.49866123887454,140.17423362214328,37.51062768802676
50.760385087573816,119.98219386283738,36.759094927143686
43.11010973475932,98.7562952800319,35.062271558698974
13.25994174647178,28.60679454322109,5.997301009841806
2.161542554073626,34.848275743278236,3.4562803142174197
18.66762513980712,36.25799469339479,16.17766680648972
32.325084686491365,31.179564952552777,28.473051797897025
40.52713092265307,19.01178251826793,35.955366030376446
42.67609307205877,0.5165442175399823,34.88124784935348
39.77631383200257,22.126717001444568,23.789622555475606
33.35438319570605,45.66360512516292,4.521676770401525
24.58901227832166,66.3563418646526,18.583110263630644
14.134983462122424,80.82026450751643,40.58684533987623
2.65572864902563,86.74686686697808,57.32362490210891
8.298417006661703,83.12462573300395,65.90624903493921
15.763318303843072,70.08881335300107,64.81981543096992
16.319455673751285,49.19527407869622,53.82834567147086
8.266849545888254,23.467626315088918,33.834298323192556
6.993795820737806,3.728170827242841,6.683968086236451
25.02421419524249,29.32539078667807,24.799318941125374
39.78649595555999,50.45855748565213,56.622405481819264
46.208512910271615,64.70108986350273,84.05942156068909
42.22886019723066,70.2738542058213,102.59224814731259
29.262676092035722,66.55772620668984,108.94553535009503
11.067050749098856,54.7385212149886,102.12085349832012
8.322739800786199,37.85372836308718,83.63215922201375
26.18737046003727,20.253997217028214,56.75788322147154
41.48019141874845,6.334799000090958,25.648266627197028
54.00692244523924,0.9051840430866073,5.588794394647033
63.267771873919,0.7322271495372198,33.901800328760565
68.0022202690775,5.35695360349743,57.66116752352769
66.74537883578117,14.62135670556831,76.12626247132026
59.03118954020549,24.338841641675202,88.76413637047948
46.3381531458117,32.651975222699384,95.09418538841445
32.02623543624084,38.60422135672198,95.03132399750781
20.220410468738955,41.47604640019215,89.06119678175133
14.220574723433694,40.090821738054665,78.01167273435472
15.313097814284196,32.720815445009166,62.921691971055246
22.5297722400274,17.85624517749506,45.144355986670504
33.33199736592603,4.558960929864039,26.329682722261087
44.69707944039526,32.229451436844975,8.25674015858625
53.94061299461555,60.567256057901886,7.517028664499605
58.9676790946159,83.84222959525052,20.38525835095095
58.08724594426107,96.93691169261882,30.931076184752094
49.80142677944264,96.84441027300787,40.102160806114846
32.937926624392524,83.25592579687186,48.44352938838613
7.208805488466201,58.16328728856101,55.7731255515394
26.07623044751133,24.904983483583273,60.920921475354326
63.628734956160876,12.677557893897031,62.14768442368056
100.47692949636733,50.531609124684,58.469594012308875
130.99297813699278,84.23328139850177,50.50596138866576
150.33551722612722,108.84896547091634,39.720608353546936
155.70667494343147,119.3301439426778,27.3975982373224
146.92600602922155,111.58501476499856,14.641852150822295
126.12561113366586,83.86719913056278,2.3159596951027677
96.77490119262089,37.86734836643278,9.189785192966232
62.60973609006347,21.02973845149916,19.403178800445627
27.04967572451283,84.47821077161846,27.32106284104521
6.64598109846669,142.62688792318872,31.891613453912765
34.78541158591992,185.79306733497492,32.62503387848677
52.949305882146795,205.95687743785444,29.761529960177743
56.61383813624841,197.93736278096048,24.253060080141886
42.7639975426666,160.21832749157548,17.437711633978033
11.8791558194735,95.46286181295424,10.300377232466357
30.82232897750881,10.639971500555726,3.012740709003339
75.84753924051982,83.50715471560954,4.8754066833106835
111.76142203802561,173.80732224222538,13.892964376688495
128.55713127637668,246.7147776053279,23.979428652678685
120.64536845486758,290.69261457119626,33.9164953148926
88.17087978425491,298.34970192892405,41.374819679742274
36.238940152094685,267.7734149039031,43.87587840264519
27.270482172725504,202.76577583378437,39.94298273414381
94.07729783335913,112.05218274007449,29.607515469640212
156.99248305463232,7.758111683640053,14.525516694373728
210.1778325750027,96.48497716547192,2.361227305989722
248.7188032583173,187.49444957201194,18.11139386918617
268.3893619731391,254.33217315028818,30.860534755464965
266.15511073565693,289.7651611231511,39.6730318449564
241.26864150361772,291.21765310947694,44.116676954373894
196.19268235403027,261.0148960506729,44.13818210347792
136.58617068951074,205.78981509440632,40.1490911023415
70.12795354295969,135.1326863922942,33.316415965460294
4.630232314478592,59.75441820431444,25.48792214399604
53.678187404610306,10.425236095666484,18.63090242209837
100.95293326036519,67.80738256045731,14.366398189418607
135.43091030170615,107.9639338113987,13.602518582525626
156.48897492876313,129.75968246776705,16.123764008341336
163.8406717272567,134.86917728521743,20.579656361287856
157.43777513399291,126.9104308754852,24.962041006416296
138.12302886965404,110.4718763626742,27.05687157374819
108.50765035885632,90.25279795088773,24.881815534611615
73.35835242412041,70.41099748180574,17.293151342092667
39.032525410944785,54.13638475211243,4.437818220747454
11.961694419946589,43.43601883232767,12.207424116739013
3.2564412928147655,39.07547802468781,30.335384141754773
5.311849997005819,40.617436011062495,47.55783609342053
3.455284942480946,46.55814989496268,61.85570774599392
17.954969007213933,54.5834088346741,71.83073685392341
32.14285378599234,61.93250266703134,76.72754453969013
40.91930499367111,65.83090644638787,76.11629997582253
41.36188170201119,63.92348150240259,69.74991000865381
32.97255045779543,54.635293061645406,57.579224549459994
17.121002789053183,37.39009306910609,39.813271633624886
3.793567910678788,12.661873119385584,17.408708063207705
26.893906819625798,18.081139431291465,7.499245501084254
48.91621496445528,52.49104242642863,31.981932940759915
66.16889926848856,87.51675526722958,53.20213489000787
74.85662228351921,119.64771089633118,69.03049671608164
72.04383940215332,145.24345372908337,78.20797870552126
56.96863087694157,160.98913157032504,80.4095329696192
31.909336981046987,164.42942479930673,76.10950663612968
1.8623051147464817,154.42824928713608,66.17823594418886
27.125534777424924,131.42854884574217,51.63189985964207
50.28472683964622,97.42961918332608,33.494358349421056
65.82154789850229,55.66531108540224,12.916600933351795
74.94980557098532,10.101826107924525,8.39940112708765
80.1651161349567,35.086238834348215,28.137052177920935
82.75561490301075,75.96021039074861,43.86904538673581
81.21496923603195,109.13174599273337,53.97059361028887
71.75342999987068,131.95835316102185,58.26428534836459
50.73187304660622,142.68581075156166,57.80586127587428
17.608352180730027,140.59309649129324,54.27429010740049
23.481214732480378,126.1306953159564,49.24004445157853
64.7145585352152,100.9859376760722,43.449560405647595
97.75823241303799,68.01331189476392,36.66090265996821
117.34604337058579,30.983492649674428,28.261994300737566
123.21852522440034,5.87956562190783,18.104867359296772
119.35943300194644,38.515598631320096,6.8425553146126425
111.108288001417,63.651063719199065,4.192794762309823
102.02514126402866,79.26460970446689,13.582621456803194
92.44059160662653,84.77507805381593,20.60793957933008
80.36963016060484,80.91797283598909,25.51672403594316
63.88543742894507,69.39206726262961,29.558075190417306
43.165538929393335,52.43879544921479,34.60824039632585
20.756941524403686,32.475251696800086,41.870706086429735
0.05648281704049288,11.84810341232182,50.802695331109184
17.53371773076275,7.287623505443212,59.315095190366385
32.64736176264935,23.089968781779994,64.74950883751723
48.202703165569176,34.21062118691834,64.71417190378696
66.47728598154175,39.9371715520857,57.6676840441667
86.97065907528564,40.220926174667824,43.40763058084353
105.87002727943026,35.54838178094628,23.178993704732314
117.79707366961208,26.678522215469354,0.5033206844687179
118.84431501416573,14.403776907468266,24.282281850014048
109.00031448069767,0.48088049540818,44.80421582773359
91.16646133086792,16.933951792815947,59.56475030094533
69.56795844923835,33.781165171641426,66.88509590225539
48.87178736631771,49.912045704858066,65.71505461438282
32.329272757754126,64.1130003769928,56.08797803128596
20.92566009051715,75.06257660394621,39.46877174156504
13.834221227864397,81.54512709866424,18.583860219842208
9.639234305925928,82.78831756456385,3.0125652136176613
7.415309753755607,78.74861850891874,21.505056387788255
20.953127371340905,9.73455479466729,3.249627185109422
51.955225523317466,8.353119456271626,3.191789740131514
80.52412484335615,3.779012677796915,2.70939173450942
99.67049416924654,3.0621369199272115,1.3198272751244438
103.94766994586129,10.57224136127505,1.1835848654842753
90.80620128967848,16.984429536848104,4.639667346176979
61.14625943268815,20.7786239639107,8.62134599888724
18.83459685421212,20.959079008048228,12.654762288997327
30.25313915069676,17.111223900448692,16.318633281399677
79.44466099881346,9.485564283437913,19.139365599603863
122.23256085249214,0.9182757282224201,20.62944780477227
152.42716885531001,12.457828105756686,20.48115896430002
163.9823945001375,23.092351042816848,18.561628015326445
153.02995758947043,30.235526516123443,14.57920585703948
121.00992837944442,30.990619805824753,8.11037358259
74.46269719243357,23.757028053403804,0.902685115657722
22.944982125259415,9.436224616495505,12.13900817094314
23.33121217708574,8.666915674175275,24.72407310854041
56.81820496176141,25.669427515944694,36.67234105780365
74.56330854636883,36.80989789212043,45.49571378114369
78.30778701342253,39.03006726694829,49.435354675504584
73.20316886656674,31.67836750212959,47.874896822704876
65.23440046313321,16.386591494388416,41.12002375767936
59.04593073971923,3.8794501252148486,30.0769452524063
56.70366442498375,25.815416462769367,15.988027891924858
57.658753767004534,46.410714192031115,0.293656058588081
59.68818828777755,63.16253453387276,15.340722609837407
59.89504782869171,73.95993687763115,29.178316493009437
55.5680715213051,77.13073210218653,39.79532889878445
44.733121942183615,71.73212609207091,46.2140688994796
26.699367159407053,57.95571691563432,47.89015405097654
2.788481581246965,37.34762508778576,44.91255671643544
23.154349209445172,12.507603200326923,38.173523121167335
45.01494893037394,13.635733684854706,29.029220055558486
55.93932946345259,38.64071253060264,18.85107665587254
50.8014935247323,61.03999283035199,9.036835326940741
28.598648245035083,80.24400271139581,0.7489192230058032
6.460529731260531,95.9829378228513,5.6894110041160735
46.02422433488988,107.68968813464056,10.646877335048003
80.4089218940412,114.24345221320887,14.541625748514006
101.76488313750913,114.21529786404457,17.57873201910554
106.06970686264988,106.43406490472313,19.753432331071096
93.14728742570381,90.51352774372943,20.82556912608681
65.15027145211353,67.06313809879425,20.39825777699816
24.849953395231715,37.576867803467636,18.135160816690664
24.99604607232112,4.210552548200209,13.95676822162769
80.9593010828101,30.327047989685394,8.254284750179286
137.80645240777525,62.73378772081346,2.019927316995241
188.2220060165164,89.16659234450323,3.382135628683413
224.18831511473425,105.71805920254504,6.631869918727192
239.58349212221037,109.38708592007599,6.735153054524211
232.5297445669433,99.25749697367918,3.341281517389932
205.98749080375984,77.31475269757377,2.9490471668446574
166.1375743459236,48.33839190996018,10.813787580698191
119.47638461205557,18.77447216362736,18.632050235350107
70.29948834094394,5.008483678152456,24.53200873917543
20.01062888969878,18.365690947566396,26.64673297104758
31.49840509137782,19.245628545837356,23.85921267854802
83.54303409065481,8.106796410858898,16.41672652760131
133.0890594272165,12.75663310536556,5.973413123543246
175.0099557919612,39.891513897397424,5.00025255378522
204.0042934988983,68.9823635458678,14.033876543294795
216.97162074147818,94.84857033904768,19.33379975734389
214.37809585702973,111.60904806173525,20.237339670214336
199.83127557340578,113.51453322018652,17.18767926378074
178.23981365233277,96.49236263586931,11.432899739363005
153.68718092686413,59.873052748210576,4.769554013115175
128.1206952830502,7.416521873085763,0.801855354313098
101.35811821087896,53.09171467929351,3.4408363398212534
72.09155555994909,111.69994274691747,1.8045602667738285
39.13163849021598,158.9236232750976,4.499937409536932
2.330752316389388,188.07250639400743,14.641298751507053
36.99275174571671,196.32715643042516,26.943153220678816
76.01376108181,184.36565006880932,39.362177636454575
110.62945775683274,155.0791295947278,49.47121915454512
136.0602852596043,112.24077042258935,54.748454243474214
147.92942195132963,59.83292284770013,53.467816700298464
143.71280021003815,2.140252394348871,45.50808012190074
124.06321650729538,55.85838586088568,32.58912763356403
93.21477452790698,108.44178467409986,17.65760862991364
57.963443337362584,149.80692346586972,3.738645347299064
25.481349347062885,175.27457841168984,7.34021734764708
0.9449532168038443,182.44179383060649,15.677482200060066
13.874584829366263,171.66718849038122,22.679967796204686
20.39189171203529,145.68159731383994,29.96524698722585
21.594945311060716,108.57847740282554,38.51512183956426
20.138021973974517,64.7510113219654,47.9574548229876
17.2842217834963,18.281123257432245,56.90478854255172
13.1369248773541,27.142136757405083,64.1501989684777
7.723814951523005,68.04584984851495,69.2212230712181
1.876460858099003,101.14951916301158,72.3967338540563
2.943707528384509,123.76374081262941,74.420827575781
5.825949549682023,134.46136488240782,75.38044840346348
7.688677387161286,133.60619630367637,73.92091553828654
11.502761825099105,123.37721248471402,68.06449195543938
20.952390298841248,107.16646028705462,56.39721338236422
38.07275304586348,88.59298616583611,38.57760776099265
61.188979255024954,70.58778688642936,15.489312809978252
84.5350749506648,54.89495310847413,10.879420181442471
100.02149150207035,42.08965231599699,37.87021374891938
100.36318424565744,31.935839447588545,62.9383156393834
82.02903025140768,23.765376118297443,84.3342583407007
46.61239900446096,16.687141462246043,101.02659080209482
0.10037947774209847,9.629625186599418,112.39641510039586
49.38358793662549,1.3615606068824906,117.99725001487413
94.07077186245984,9.345257553166281,117.1014019198311
128.15120242872163,23.397945091570676,109.03105679842898
148.1564151827555,41.04821199951424,94.25000627532785
152.52155708202912,61.701887247809594,74.52639443334658
141.0871871857591,83.94853796053754,52.44873249163993
115.07681553294302,105.76636587498017,30.910215858977903
77.48756509690637,124.78997347806133,11.783828649241713
33.356669512505256,138.56611484643017,5.0981128731099625
10.644174896798617,144.81810972361814,21.0146192798761
47.38371119582167,141.77944531873297,36.774640046187244
70.834157033369,128.5886249734199,52.276658893368676
77.3997673716206,105.64373311943986,66.89859653843826
66.49888029397383,74.73310920226331,79.82069044540178
40.3310228235814,38.77827236301665,90.10144902098517
3.126171548927554,1.2420144636554025,96.7049839082415
39.682315355672856,34.56154564103911,98.61089246643569
82.04499427334083,65.9805428514738,94.92923603825048
117.6760885080969,91.17142710294922,85.09496064138848
140.43820197257926,108.919907476721,69.25810692795497
144.94508546294057,118.37913422870703,48.52392288396955
127.44040733967894,118.98887567950942,24.847068258433673
86.74977977778418,110.65946301487398,0.7138349197085854
25.014404089038777,94.07949809602322,21.457641551031934
52.06923749373966,70.92311499917223,39.90618913048798
135.65482949527689,43.763182681316685,53.68588147018798
214.77035019135715,15.682408742737397,62.66403127253338
277.8390796354655,10.22722374602013,67.47070801902863
314.4671997888907,31.275901678970293,69.0224514167074
317.2602632557936,45.4162624970341,67.89062744723346
283.40276619471854,51.39522293949375,64.26491134269864
215.6160859701582,48.93986729751327,58.36878977025902
122.1625578116691,38.98019261219858,50.6802101774894
15.743873126783058,23.766496576577545,41.889512123042046
88.58217691770544,6.669062561179568,32.75079125449264
176.0636583843311,8.445122069486573,23.83485392145555
234.91019619663467,18.14010543730132,15.246010081989281
258.3046033173202,20.308922806929846,6.579097061704229
245.3981050708228,14.261222176459755,2.3170818521944905
200.95507865707523,0.760446272327416,10.995110507911257
134.14476716438048,17.79334500899819,18.828575907924964
56.93270837073424,37.8968525490404,25.175398901992804
18.09609637984365,55.784587378171935,29.53375463495994
80.04621889976349,68.29804753460873,31.701911167175396
121.60577028785953,73.52300175350358,31.83880153239855
140.0941017751845,71.06265599017215,30.364629284981035
32.9105107022924,15.39755518943935,17.28017616138561
29.17381724445286,14.30375998628724,20.484061658644308
18.117455714411005,9.932708592144378,21.422310643908734
0.7167841539572889,3.2032663631142086,18.72764675598123
20.408947545708216,4.368029937521958,11.80302086574291
41.8778274330629,11.276879374648491,0.9101572921571721
60.549656163039906,16.456027899538373,12.982512418954634
74.13667844793567,19.361349902266706,28.343049606300713
81.25405411107783,19.77640482459363,43.329198191258094
81.0630744850414,17.629127157296264,56.05378567277068
72.93136704716855,13.014468346186124,64.86460017340731
56.52442133966261,6.380342892757756,68.64543786550252
32.416094255297736,1.2479933203760363,66.97600888050381
2.758174042001415,8.006325522173189,59.9724657243882
28.510167487630145,11.31784747652206,47.95675777303788
56.193327063959906,8.914608017792649,31.572172783425685
75.30611656175066,0.07154200397889753,12.246615453194803
82.83213724412911,13.824894533372925,7.8311794065654805
78.71236153688056,29.601611484952077,26.43397173101567
65.68402824982019,43.466023151751614,42.14916044920938
48.06667247186451,52.358401733554714,54.858743040464695
30.152048351728563,54.76728029823861,65.73602708411298
15.0491310068737,50.72948550181624,76.3765314830578
4.349101683319515,41.14349482890055,87.21359370592032
1.4905666792495322,27.01670137480283,96.75510926457548
2.6154533535725077,9.151824022652983,102.45214888980576
0.3719914274352075,11.630158387414156,102.04047995412954
6.148981501955661,34.01729236795735,94.16596133861118
12.38242428262331,56.023101109297855,78.51020081955171
15.945734778704622,75.36874132884792,55.81461228225804
13.879708878708623,90.26867279659814,27.720715617411315
4.816510971498941,100.10428389085965,3.598933088854739
9.889329651355672,105.45105702617221,35.943515085652386
26.11391602551569,107.32740791972299,67.31153093246314
38.268290117737905,106.05790600634863,95.67952929049163
41.57213463250945,100.47049569986339,118.61498563156758
34.336718392994364,88.0312470124177,133.14972421782
19.154408885977077,66.03342448550623,136.46775485112062
2.375972913820041,33.32112596248284,127.01774352294801
8.067899899532101,8.332610329127768,105.39020419402343
5.7412000846820135,53.94702494168678,74.77664380713881
11.815185426206952,96.4205614439365,40.25970443386089
42.23147371276071,128.554785995245,6.791528290965765
78.61758133363327,145.1582065732031,22.48377276049071
110.97340076177419,144.42637619001468,46.03915856393505
129.0151510218937,128.17975859243535,62.90658581560555
124.97120464620474,101.09917012826467,72.3227652134323
95.37535154146839,69.45804560391986,73.78088057856662
41.93774731878952,39.82607497348853,67.27862443856053
28.84972971585824,17.98833704849183,53.72908796916777
106.94297241229862,8.061875101271015,35.12549650604481
180.39486604815627,11.671620159851425,14.462657978770205
237.3869008169786,27.23677894441226,4.7508710925998425
268.2791717561523,49.71519610918457,19.294545307222783
267.5643116718012,71.2129776207352,27.12055732637378
235.30908569905517,82.64519032811353,27.99226492196086
177.47844122683483,76.18014397920834,23.338437871661167
104.81753371930404,47.71066122812916,15.53546391653456
30.22430529891913,1.5758951250979079,6.921776236715889
34.71599287010453,65.20590426145446,1.0122892139362065
82.58851886520398,133.0697974322846,7.645524423005656
111.28265685873754,194.05757735844495,12.633263825509221
123.72569871634508,238.68464195974985,15.47466401608907
126.32500647724156,260.85466832481495,15.814413076412318
126.03444686734606,258.3612783216771,13.852405178616548
127.82339627270302,232.3730119848687,10.396251752873063
133.670225548674,186.50983113155203,6.938298865875951
142.7629343091877,125.97882703187057,5.354988898887007
152.74251230551943,56.962166353349545,7.044673508798248
161.01657377619327,13.840576067882957,12.27271692497797
165.4155396930802,79.82341130249847,20.183872682416403
164.28254539424705,135.3526499724187,29.03149467085784
156.1730303913797,176.66911026090656,36.38628087803129
139.7436741254966,202.4181577025589,39.865864486325044
114.05798482220283,213.49245687441933,37.96745712033781
79.10780049453793,212.2002161497157,30.303730093036314
36.23784653356601,201.162252349722,17.49839213750987
11.89673715872641,182.49048554537325,0.9738207349685151
61.802046239371805,157.6229056778193,17.343672618016157
109.78883610105461,127.7938882843076,35.393307486047235
152.47491608302934,94.72221919027504,51.15387714485227
186.9550004501897,60.968294631558976,62.726952340298915
210.7594898979543,29.643725911710273,68.7832536702158
221.8437423276858,3.5537903415985186,68.84044769473293
218.82620439645837,15.788218741731109,63.17487386795392
201.47742182725196,28.720955079855187,52.91887299663171
171.21864184317988,37.25990353983701,40.01488054258788
131.32560699174374,44.25327934737194,26.590969952462473
86.62624992012394,52.23900030903344,14.282811818373474
42.69732670921373,62.514374104257,4.0097765409944985
4.772648616793202,74.80564810060285,4.0305069272108875
23.32968532120164,87.6066030740409,10.275211508919016
39.96051944054518,98.96433588288352,15.54812418696751
45.851343949020354,107.34918056944994,20.783892537011056
43.72465408852461,112.22165684224841,26.683626659833894
37.394545795451634,114.06667286840366,33.479419626219936
30.60030637125014,113.93535140043203,40.958672953478825
25.980087781651466,112.69944524513566,48.471017512753164
24.5840687286849,110.35697583016606,54.922671409240394
26.144091907160117,105.75336889602964,58.92131140714866
29.99162382693814,96.87578665466184,59.13088527159712
36.12425364070557,81.64101003253101,54.7254573536298
45.73111031517,58.86775786701399,45.58347028851033
60.694168566702466,28.97513744053582,32.15344991948161
82.15049647698456,5.917401231557052,15.284878984026438
108.78749581732303,42.49693308175012,3.7263193727300994
135.84366982218688,77.09826867038876,23.02444008817134
155.59900967824547,106.45706157423669,40.46227788996605
159.41093451547516,128.03282103567284,54.01234956960381
140.56498676218223,139.8926463788625,61.77558492648674
96.77641649037491,140.48540509609333,62.23095748623426
31.2645852050322,128.72294028479848,55.17924022246233
47.95722945163019,104.56079508787388,42.257734165259286
130.0502931271576,69.84767431266643,26.36647280242121
203.60549966055993,28.865313798741447,10.797134411034607
258.3192160128638,12.029931128531361,1.3581099932814975
285.8224506736982,45.84881962132189,7.906007068469006
280.1088446976469,67.04531265851683,8.262675599508178
238.2369021777172,73.33628862687928,3.4440165124375337
161.60802865717753,66.39991527360355,4.495248111598724
57.347253945224445,51.056686787223796,13.073316901554888
61.2996080110596,33.29116038417558,19.889341337935324
176.45703249855774,18.050422013753586,22.97991034295248
269.1069716532776,7.784838038582828,21.036313610887355
323.63887002694867,2.2586597739986,13.39808536525533
331.75323849075573,0.528947033100071,0.11962773652994578
294.19703680093846,2.9968378479481808,17.687406048593157
219.78084984868866,6.94195024027237,37.54311936541764
122.27987777288511,13.184509552973223,55.79282067572374
16.670997567760036,21.771641787556952,68.67778948568969
83.76834849540224,32.31707827716515,73.61889814724029
168.74994346582073,44.12231704337243,69.78594316723803
230.95169767408808,56.0294166616004,57.88849044813264
265.52621830961675,66.26587189252626,39.74772925419098
269.9305309014292,72.61692094237947,18.09164627488642
244.35182022525981,73.034109677873,3.933944222797673
192.27909437497647,66.4371113125558,23.49172671438586
120.54501743425817,53.28695360628112,38.34939109624078
38.475596632783834,35.594357612291915,47.13761823042498
43.68487728196345,16.30759089518958,49.65454434160968
116.46023785368904,1.6306081781842285,46.665369311109465
172.41227818395257,16.11842829138228,39.271921127580235
207.92625956480902,26.011398185082534,28.72453249200778
223.13029099015938,31.297132658531513,16.649770548374462
220.009782206792,33.16226319056585,5.016197308746337
201.57683563884495,33.27012916291459,4.412825437639714
171.48151450199748,33.06915531812525,10.760329528726144
133.95966084308148,33.368889080269085,14.01410426854901
93.7256830755826,34.24189612289787,14.59124929860556
55.52817356684809,35.176387216813396,13.137704636138398
2.1099299712824027,2.596218727112519,9.729224546539319
6.1883637906711275,1.461558932986182,8.75768036730302
14.169014820624039,6.8996654281847825,5.142111151711647
20.472771201328296,13.167535406973105,1.6675939153781927
23.90067148449885,19.25780084006297,11.200753005002527
23.287136723191203,23.893771295108966,21.923142441322195
17.658877020382434,25.83100144595647,31.423794996083615
6.784089070495053,24.104205609714924,36.80840596369241
8.062908803885017,18.246449859608425,35.75009470444428
23.73450818927223,8.404211882133252,27.481988846060446
35.63428455646321,4.553993324876389,12.82396797485804
38.804770219830075,18.816248808022188,6.104536900957939
29.299176336447196,31.55110664999221,25.96696486596377
5.988578698808841,39.700430863185,42.92932173598167
27.985449700377373,41.108449139625144,53.83835423787325
65.85612628677124,34.89281297943482,56.61275310352459
99.33824913392701,21.79254018834274,50.26831769306231
120.84985462803044,4.468556973723636,35.246615002740135
125.39282560690071,13.095864047691503,13.425962550816777
111.24363296003068,26.658379275790207,12.22876657945484
79.62571418953684,33.06191220089085,38.045573332492026
34.017985895870254,31.396238087002136,60.20619157651772
20.59193690908566,23.242830227415173,75.37125121406116
78.13832156314832,12.026657733583418,81.14579043950272
131.87162377499084,1.62052687871267,76.51129023966972
174.99281137390943,5.138896162871015,62.24944982182872
201.57490979502987,7.337398283494595,40.83869803600497
207.65811662241293,6.049211169962334,15.55010110002873
192.03592201744232,3.6131120734246513,10.483825435820487
156.47361384965723,2.5715561784647742,34.636816691402046
105.29331475472208,4.719632490875116,55.073181319495966
44.494212820085245,10.55312942839335,70.96759418200877
19.225054616917426,19.18041024510032,81.96567546057081
79.3384888968353,28.549734864335452,87.48911806907606
130.11744513904645,35.884481627577394,86.94642735782054
166.96548184871034,38.258060009759994,80.17072019672888
186.54963306363058,33.320583883735495,67.33576969064481
186.83619193680946,20.129028355281278,49.01517487715884
167.17342164165183,0.14036006819087724,26.567202988589216
128.56250047001578,23.925506160868057,2.1852037107797977
74.11612596684489,45.76000095896663,21.5282377161132
9.445992720861035,59.525068099258355,42.30743531288592
57.437375343570224,60.17949457775159,58.78105703149362
117.08324796510598,45.43042014291585,70.28233839087461
160.46216145126502,16.711803935622193,76.40000792741566
181.20110071555663,20.9393387614483,76.73491423000245
177.2898858776832,60.08672895722643,70.8057659789112
151.47074117875079,92.73467622096243,58.37457506608286
110.01112945665577,112.18633162295083,40.20305726030403
60.336957484944094,114.37733095776963,18.53994794538506
8.666660027613544,98.37946627377156,3.3577847823185176
41.268401582622495,66.13028027475079,22.411602154755688
87.97855270079062,21.68926365925137,36.558914989806205
130.80890203240122,29.63600431909209,44.78397385928285
168.36161660621391,82.07000770238575,46.90625914504056
197.75710814582658,130.00619901592526,43.541912491524585
215.11202198585164,168.5303456511966,35.89797096196325
216.8516676566722,193.88680593866778,25.296809027728443
201.0468128266552,203.86206052878975,12.847463829958157
168.0650095409599,197.93968551428176,0.5181265491010677
120.38277984937493,177.13985209491105,13.758344048347706
61.92727245518544,143.5920408744066,25.57396974192515
2.5127570167035387,100.01363359062695,34.53599799762983
67.49264260259443,49.34793854261768,39.37804449320546
126.9290007993569,5.280651641291738,39.490625385456475
174.39277725502686,60.365436345547046,35.189900109842306
203.97592767215977,111.83239310531125,27.50908256790829
211.65690721819058,155.17678101141948,17.9098632699902
196.63795587159802,186.07824148421452,7.901845817487737
161.93186865336585,201.365428536073,1.4335552338076416
113.82033749179442,199.94405784503266,9.597106846924351
60.36315617773758,183.24028794066163,16.369413849884904
9.517732672626625,154.90739487743966,21.474751479167434
32.45411480848658,119.88817860117275,24.62673058887537
61.81924041153974,83.21121845676674,25.61837096848821
77.39598271060976,48.98754558997439,24.3545539814873
80.02409531177368,19.946345490152932,21.168504636479298
71.80646235117405,2.45220161415867,17.015514997256282
55.37152514612094,17.61096561003524,13.222505215475994
33.28071501587612,25.443289717408202,10.955657188100835
7.659969009664551,26.269304227810025,10.568617886744498
19.86346081002827,20.974037130921513,11.401052810590594
47.88404033654107,11.24113018729573,12.362743299661814
74.67013167541316,0.3645618289254914,12.653288586959341
97.61655103511767,10.585555681132227,11.983289840644469
113.11235878702952,15.923372960764105,10.55819255364251
117.1210377070612,13.230144994424455,8.972329783293755
106.43077579276851,0.3131250089039018,7.653029675239476
80.14033003273131,23.53808645080578,6.349680783534427
40.698905888136636,57.165203183378814,4.443517466802549
6.118100332976146,97.35483526419202,1.464808491455665
52.4597228991171,138.98373693242647,2.939404153678803
90.42758486492879,175.63391281860422,9.121520788414546
114.07635224303795,200.66251487375717,17.31924304862062
120.63612451880734,208.52593125107907,27.490133006114345
110.65126826824654,195.99922067939434,38.94916554919956
87.32260066662674,162.89233868734377,50.11317933783182
55.64870097567534,112.05174209519257,58.733785203250676
21.797470036509747,48.71213619518877,62.17280907146083
7.3276147334288675,20.492290575297687,57.807558410273586
24.75203963270749,88.46588563653356,44.08094278881051
24.74801052822742,148.3344026312873,21.525737412541904
4.762063341296341,193.9379065920024,7.083456039014541
32.81764380251761,220.3583455570836,37.2427304552996
80.16716089510273,224.6442402418696,63.68150530322511
125.48288247025437,206.63188757103705,81.83291548906365
156.18281728176427,169.4846740192172,89.19222594973104
162.66290190412298,119.4890842696179,85.5402910105038
140.96869480060803,64.91151425647773,72.01374605703273
93.33858585964492,14.156971701361336,50.42857396237707
26.727008907823976,26.166047371554868,23.410195174131882
49.58003205371589,52.54282192457261,5.712533778414801
125.88021634495449,64.78192583073067,33.33174460010165
192.79872031666415,65.26490689504998,55.97502363620011
241.28762130222478,57.7161562302198,71.0445032793112
263.0287196745418,46.107866392518005,77.31812267077294
252.03446319567388,34.04501096781706,74.85089367317913
207.11371450966922,24.59545400139236,64.93056317212013
133.84111229527872,20.227191033315282,49.86630934897056
44.4784231487982,22.502003338941336,32.085245428870365
44.80603889247618,31.531036416756066,13.415712843687919
118.52410954549109,45.51839726932868,4.757687038901629
166.14736980960376,60.83255471541709,21.29742230935099
184.10102968965663,72.84338362663372,35.370037559507196
174.87163788591883,77.32012201911937,46.21934839532088
144.22797288214335,71.85603564987272,52.87895810507071
98.52466897637812,56.682503447636826,54.38655096864945
43.69334560960462,34.53012398023436,50.48157160506053
14.010499485561866,9.681661149747036,42.06376990464978
66.85434866277491,13.342099860226188,30.94409461416041
105.73755009521675,30.915096501209764,19.298296281899102
122.2940370217702,40.907478445651805,9.155710336154085
112.13706745891382,42.759216307962674,1.9147521507625938
77.29500873283588,37.23261919144581,2.0676410391361983
26.10933886165697,26.09466764369365,3.5967206049163245
29.621989919947502,11.840159812932262,4.227562388032701
78.76295288846288,2.6105143955005152,5.4495307205680215
114.06814061321532,14.333726215067417,7.922222626951205
133.0554743543477,20.933282009156517,11.311378369946908
136.53798384878368,21.01496135923047,14.632342521966288
126.24817912292592,14.400185280837006,16.59412616037831
103.36927667893633,1.9877315735341914,16.30164954449152
69.74441858894903,14.087608824561753,13.549657770559518
28.728541760617734,31.03323883082058,8.370316632051097
15.143933777511785,46.537434752418335,0.8201165736244947
56.12775722773264,59.06155988298607,8.900693572246386
88.45432820814631,67.7942471733634,20.097496776965837
108.17764266410168,72.42954494538688,31.397631366237146
114.53128212189809,72.95976402176542,41.03331332226261
109.89457535905932,69.60221520893509,47.34348409439955
1.116152329352724,12.336519030705746,4.991413314997157
14.68357597378353,1.0621128698472886,3.846473267607469
30.587638493431715,13.916245256925711,2.053258591950954
46.14981302208946,30.45690770534638,0.2560761133415616
58.057903202542875,45.7785766838177,2.931193282536383
63.19813181498347,57.023963807452745,5.793692132016258
59.47468979639118,61.90129133462988,8.605773672351713
46.13268504079485,59.18307112875475,11.016164914689524
23.70995657566836,48.975314146377734,12.603131159396156
6.305899730443229,32.582508317925075,13.045890569482003
41.639420888024794,12.061155466347438,12.212144777439999
78.76437474153602,10.184374324118979,10.203442705284486
112.27197573701812,31.58434851025873,7.489825032382076
135.74449154872184,49.945446348294425,4.985754818888858
143.5888253459635,64.13458696417293,3.713289177681237
131.8256737754786,73.81216783030985,4.226833872016998
99.2083920348038,78.85401160296679,6.226331896133119
48.733292036023606,79.07018183454466,8.527604666377348
12.353906090669204,73.94720617267409,9.67132206137126
73.76717431166318,62.82946337253576,8.637611548149602
124.6448644188409,45.38835061575299,4.971075544251887
156.5185399989904,22.082261587058838,1.2363115574617487
165.2847346731019,5.45210346183599,9.371772563654831
151.8877012410209,34.425752518052406,18.49782555751561
121.39452004098942,61.27794328846469,27.504260459219452
81.1642132436679,82.3441777849901,35.203597168559114
39.0457679127049,94.63572691355859,40.42539629017287
1.8658598292520228,96.41080179079533,42.17115420843432
25.493135182082828,87.47180641773492,39.79990057477809
40.618902404754266,69.10906991574547,33.18745311705861
43.81600083830044,43.801202267747584,22.972101443533184
37.93112627210256,14.855217778660736,10.756998369682124
27.68451155977856,13.949601155498167,1.0274621596681657
18.485229363294913,38.725318663446664,9.739066166617917
15.010592945301072,55.988353638537596,13.625056050309944
20.03578435729685,63.37009940785779,12.828383277279261
33.917958787638284,60.388402753978426,9.427909792195363
54.77863357860369,48.95190428948551,6.549009359938113
79.15445635179945,33.1728759789757,7.024315588760822
102.79803962059546,18.29100029999162,12.122648266588788
121.36068309656704,8.955675103533574,21.178578886016513
130.9929659445047,7.542789334937042,32.17596595810012
129.00583168088144,13.283771472992283,42.61122833125299
114.51326509398228,22.679221902805743,50.20423660852069
88.79076434393554,31.06993636847008,53.22209689035552
55.044025796446036,34.59396225078566,50.64236698961572
17.438793849942336,31.55593386685139,42.333213827626885
20.27970236535511,22.60816195702322,28.92863369410653
55.86704786455586,9.803554790320097,11.577787394212685
88.76943093301126,4.787415623653565,8.035365518195206
119.25668227859059,19.99868720406792,27.660430490523787
147.00335990869667,35.52440391155491,44.6760694902972
170.06680842282017,51.09264015096193,56.56982799179479
184.95418849062153,65.57361401425496,61.89379711216223
187.8695240244886,76.76272722739185,60.91566115600162
176.5052724860194,82.10464615678255,55.1515080401898
151.3397390967362,79.94645597571315,46.56377442559929
115.73008546866241,70.48856377774217,36.725822198330825
74.80277996193941,55.784493308503244,25.92374148029919
33.798311211851356,38.74616127758166,13.196785567864739
3.2587168622712315,21.757441964459193,2.7419456451646966
34.00061351225799,5.755436619990582,22.314980179633864
57.34590943690605,9.684805051496577,43.93854666330659
72.90196625839899,25.35346778524562,64.22893550354253
80.68876431861366,41.186159848042934,79.56448285133854
81.32936028617651,55.66440019085091,87.20348758792761
76.38209839741613,66.22899573939063,85.63552335447598
68.33912296275128,70.46273866204845,74.8022457160837
60.06303617684009,67.34105142137614,56.01407681260462
53.85504614419254,57.80507952438088,31.456186979858813
50.732882072327655,44.35687810555608,3.6646174765214306
50.37031582632678,29.944333951218375,24.638862941762238
51.659210554993045,16.763876390123304,50.450129016803935
53.49968417177897,5.609794701312724,70.80094487498617
55.29043004739548,3.9812961648454612,83.51213737638136
56.84604094607551,13.015958755552862,87.70042552549067
57.97547155057494,22.225824787423203,83.97460769219286
58.23096766928195,31.56483376110673,74.27097580348098
57.16942358287595,40.20599359901584,61.17799976623813
54.983414192607405,46.90523982041037,47.268675707061085
52.90890069683139,50.434928797347474,34.408676379957235
52.80307385991064,49.861757052894475,22.883168069400863
55.81208393763249,44.590746774798404,11.537533709828443
60.712367968184815,34.274955534658496,0.8364768029074774
62.994451846498826,18.792687005355337,14.530071990828
55.68558383947762,1.5910839231899694,28.919071779907732
32.062462630881186,25.909312762397445,42.69221560020176
10.872407279507183,52.187835573054905,54.1538685998613
70.27408421928362,77.41538690755785,61.79484847979242
137.58838408748693,97.98199658946875,64.84343471004517
200.29301619050565,110.54666545034219,63.30874126432092
245.33939879651393,113.06210570732198,57.74795891845023
263.1522158262768,105.51219494416658,49.20698775399838
249.71879884151,89.95783314703905,39.04518916820189
206.42948947699063,69.79162164366392,28.561477046405642
138.42507997156602,48.48236814654821,18.738694026592157
52.635937726778515,28.371686277893897,10.124936328353842
43.065358583652156,10.076247265047149,2.8692515201347986
139.55998172813423,7.251708433720703,3.12981850852859
225.91087544734566,25.015973174679512,8.188894421347387
289.81990514610726,44.1931777938064,12.8829785925766
319.87670030614703,64.79993059297179,17.839553087464054
308.9614253145939,85.99843593843643,23.439379734964966
257.21406950483896,106.60992924720871,29.791075373243572
172.75177273743827,125.539023415027,36.565781548429285
69.37054076511939,141.744365492126,42.696025016666965
37.68938185924628,153.80507459933494,46.540707174227336
135.39426521035088,159.54853636183273,46.279343969066076
214.6170848022581,156.27289418582757,40.431926354103624
270.31253806961746,141.70218242110855,28.743873542654846
300.0661991010111,115.27270627207749,12.77956218206836
302.23918209827764,79.00429216297125,4.487265164485803
276.0010302685414,37.30690458969582,19.761438044704327
223.00427183356643,4.3392783702295254,30.39325493760113
149.24377535601292,41.19317605812261,34.80101408321529
65.52105355498567,70.59885743304275,32.39480478718563
14.615632835068745,92.1920555183593,23.399807846385954
78.66913263650329,106.97708785027157,8.878990964509201
118.9678292190201,115.96811940845912,9.188626256061879
134.50308163185937,119.33496002267545,27.976107215825294
129.96796573795052,116.58701108696096,44.20778212227983
112.910578668064,107.57886455322378,54.72004635823092
90.6804515073114,93.53702329191051,56.95388150567965
68.74477437367226,77.26561717715798,49.75467416364761
50.7731819783364,62.247026736235334,34.122650758206625
39.576645358257885,51.101336728385185,13.056225610571202
37.61767611962259,44.34465586655163,9.209467173336154
46.36231173193907,40.24603877771066,28.22663334755003
64.91529512501018,35.88336453644632,40.67675516327568
89.12648368137108,28.774447155141214,45.28782954483236
112.18381322586454,18.123798673556113,42.747040057598284
126.77499540328385,4.992494659012187,35.117838608011816
127.77994157328186,8.590715705840399,25.220820602325734
114.02140136651578,20.91744034318662,15.974435487142557
88.12025865595854,31.434382280218774,9.956709223745309
54.6871024828116,40.65455400569343,9.265355981012132
18.065915019579784,49.320126162637344,15.04101692957459
19.076670786029997,57.447155824820655,26.696739832847705
55.65443500387648,63.92213108620109,41.71502980926968
90.90642232041671,66.90106239281933,56.293306988363604
123.07077706756242,64.69986267408139,66.49968469727764
148.93144619575457,56.58859487525078,69.2252157718691
165.32384777067207,43.657916961999184,63.04507786998124
170.53478928487147,28.469306129592653,48.50259114946739
164.55828470424308,13.61176764430784,27.687721379828485
149.22225941414194,0.850497132244373,3.7492731395097434
127.52629870973554,9.195598883476448,19.87537990581241
102.63605515830318,16.78071047882197,40.16306453724508
77.13544638625426,22.426777453385885,54.84891019342184
52.855484255895604,26.391202092575824,62.58917478915583
2.0874431574186847,1.8181034873052402,9.298860739549326
8.764581431609635,12.342409729828363,6.886097530423293
15.887697553779802,27.1824969978122,2.750171285867009
21.745226960963958,38.82848287473095,2.5569588100832754
25.127744105624096,44.14808464346235,8.548698669000203
25.78524365809945,41.78951709026661,14.780260753039569
24.342318779383888,32.48999630140264,20.63378946481552
21.70052570965242,18.560489179722765,25.33625955886922
18.290667503169722,2.922200001832149,28.127595771977518
13.67224360579433,11.851984719963355,28.40564443561005
6.699581158247255,24.078469256719227,25.875614477569947
3.837734271561308,32.83401513452476,20.598074746500064
18.41369819923627,37.35115847945081,12.973865783012846
36.30594095804904,36.87690523141724,3.7877758948294797
55.82831766601108,31.307842035252353,5.885585529325985
74.98681465688959,21.69349180435737,15.089838638811269
91.93032170425792,10.350152556765428,23.38233566240563
104.91483455415289,0.5022575754083384,30.746015097954675
111.88049896865742,4.8500924437402695,37.13492287610015
110.02295399904631,4.192790559331093,42.108372612233524
95.96879429692285,1.757021765313813,44.712369420176195
66.86795788573389,10.186540957216026,43.6460530597542
22.08993089509959,17.326586719307983,37.957398536077044
35.29419902109155,19.998569103952555,27.89297254668556
98.12615637722433,16.883139742842378,14.806920019923595
156.332989331436,8.93523570856432,0.32911577915533247
199.41140918973434,1.2310242673631775,14.003179416448836
219.24557337021227,10.57927814323024,26.67950145906193
212.1523093535093,16.91879884640909,36.34166785777943
179.5089729490212,19.606988111837804,42.00287147449456
126.9354693205474,19.45347116055083,43.125622706541584
62.625962666755484,18.04326685019158,39.71850928213577
4.377449812154709,16.904082242189048,32.488227455325
65.49839398422138,16.949066990957068,22.731240613267538
113.48013469237713,18.386791521133528,11.964330090182026
143.031498722965,21.005489249105146,1.5967320899034272
151.52289770750357,24.525663756637876,7.2918243049968545
139.6563148924227,28.7064690303691,14.070568801341425
111.7074704668698,33.14438623527938,18.52840597597014
74.90107883433764,36.939242278419954,20.855850910964207
37.74298011640838,38.5222049768332,21.687554431804493
7.688400484639048,35.90794073730557,21.775670895352807
11.041722349814433,27.362258145388758,21.428143412708952
18.66366832573805,12.213816475499764,20.510668428540264
19.450003035882446,8.571682952145613,18.876459318213143
19.821239363608115,32.38521580651422,16.613956465103293
25.682406220113744,55.579371386515184,13.988102406159406
39.98575455871452,74.41487869605531,11.173905526563411
61.45986606614393,85.92750963492944,8.106990642894711
85.00132674800444,88.37854933628722,4.473170448170814
103.45496030756632,81.26261306864141,0.29411002105748213
110.03262651554685,65.11767157778199,6.748442283935899
100.45277600822175,41.41273513569273,14.989718038571793
74.06172764091899,12.601327562240895,24.600564078744345
33.73183461620097,17.80126105957208,34.97011539746417
15.142244549095983,45.4330422599043,45.35687838561109
65.97958639436432,65.85817915813661,54.61814513399914
112.18990949497778,75.74682833416533,61.11674205698154
147.96638322825126,73.95522888016934,62.997283236146394
168.80695677244523,61.96702600454988,58.79288025062356
172.00500396099127,43.37386746405346,47.97677498501038
157.1768542036028,22.57562075953443,31.192219767703058
126.67812274597473,3.3208961633763594,10.332919321909268
85.56040048075113,12.241217901119716,11.711572506295298
40.77180705275766,23.62454960831108,31.798487972417668
0.35501222100622387,31.32848037653261,47.455688289357994
31.937577889807784,35.96728158697683,57.51971397069454
51.04388728031907,37.77884180139792,62.064999675453976
58.27969899553816,36.741154496027704,61.84972209153256
57.26041345811299,33.05954670763767,57.88271100213894
53.173596974945276,27.53894785243036,51.17002114490499
50.99156368260225,21.485316569184278,42.464866161169354
53.92850340122735,16.191220158072785,32.48485255893913
62.55530556441509,12.37259131590636,22.579992328043083
74.74896214117851,9.959260521663735,14.546645756993533
86.34404581617972,8.411293287311295,9.557267183339167
92.24880587932442,7.301399762411381,7.444106142669247
87.77318883457049,6.695792834787897,6.640621946607817
69.86423351729266,7.019695590830351,4.863692968592202
38.036139004376174,8.448089912553021,0.31462750863499833
5.189064312475023,10.262683530562276,7.390189703942499
54.46922279245076,10.681850503432123,16.975415547707662
102.3993348203979,7.364857924109361,26.100133385399605
140.6961461833949,1.6071233792195008,32.53579158940975
161.62091752563794,16.77265960215583,35.25420086189277
159.39935698984917,36.86011645252284,34.75067355015319
131.46084146845587,59.07257639301063,32.41140218224063
79.31737489074352,79.880260031702,29.445334790021608
8.807859482208421,95.91946677361157,26.059898540268993
70.52698849862733,104.6527484654342,21.354953032633222
146.993323329142,104.68095317318618,13.930312771859391
209.032254230098,95.82373262583131,3.1236352427700793
247.69025210885775,79.11306765071218,9.705560297648228
258.4615462012837,56.71804197427977,21.30456884249638
241.8896266792168,31.676776518389836,27.96027855400794
202.75314119159677,7.32251899534159,27.03587892129982
148.20418745660587,13.51726614899136,18.289752035104325
85.68812748337386,29.272871004584676,4.2387033422230385
21.428827310058775,39.97791710211867,11.028154041858462
40.131999350676836,46.97184345856442,23.716693379284045
96.02355883918797,52.087956368059125,31.579705083207553
144.08451643550706,56.76946167928073,33.99175663593551
182.4997911081373,61.54256587545373,31.431439714389747
209.71852484136784,66.05976395160185,25.01961732193003
224.6231275870236,69.59498865563705,15.97605710316007
226.6771117613589,71.59453940563716,5.124000832418052
215.87713720028688,71.93425521412392,6.978356916368962
192.65052677678878,70.78339830379973,19.38929137003315
157.96643128656316,68.23820143011052,30.37963064881805
113.75173973926688,64.04957050580184,37.79621153769876
63.4139778124583,57.66950074611307,40.055413451371756
12.033558615130131,48.58656662216169,37.04056121155901
34.173054659622714,36.733719667752815,30.249162800584582
69.15895933370666,22.713586378767257,22.250525288708292
88.6930565416044,7.726254685513778,15.701708713644713
91.66816382267386,6.72779728485639,12.074310418392544
80.54135249180219,19.198645164504896,10.931598997552433
60.77179272692977,28.529921157395968,10.43637613352425
39.512174674168776,33.961189120618435,8.470272769109062
24.018006443212357,35.188106736158055,3.6490688718347735
20.196845515583743,32.46786186254508,4.063528136593639
31.474506549754306,26.742687065107262,13.482308891182779
57.995348172794664,19.669415713695457,22.933711752787755
96.26525172461055,13.436107778943521,31.05200000229346
139.42278473635292,10.331676790874232,37.152021686092155
178.307991774457,12.191619325722147,41.010563182413605
203.3123894474535,19.90936047425621,42.33778230659513
206.5737997484223,33.147707370027796,40.40748654138104
183.84633546778423,50.31354959960242,34.38752238677377
135.44930653307398,68.76493336637286,24.14461185193406
66.014629755118,85.14540643055024,10.622164786289447
16.71565035229033,95.79841095624852,4.289119594222292
103.44080298746147,97.30016696621162,18.095688013268532
184.6220020258002,87.12258450525611,28.43458729038177
251.32316745616558,64.35190026988452,34.06562913833836
295.7477514049654,30.276675711848092,35.176100578983224
311.8049325814113,11.39441208094237,32.71832381063823
295.91223506558117,54.87159504486245,27.867449741124425
247.95725827234696,93.21787881834393,21.847178807893105
172.06875231281356,119.67863982109336,15.601026530662113
76.76546719148138,129.08369543480637,9.699937428958128
25.823198472453893,118.9822723847557,4.706716940938385
123.38757503814125,90.81965312672827,1.4227197822736537
206.60506713898985,49.12111128201302,0.5731551892209733
269.6485382022792,0.4358570151851345,2.286192335637481
309.9729381013059,51.7534564297942,5.910095540765837
327.4903651488663,98.95086851158347,10.13446515698908
323.70097788806265,136.925072293529,13.425815480161045
301.18887058428675,161.86450900394718,14.688794462666438
263.57625938683395,171.72023266715,13.617583665352512
68.56381193181987,5.575199486787826,0.9216356676012681
41.769753082459104,22.480246582955157,0.9007658717797242
0.6316279882322097,39.52464459973635,0.9255373440477536
52.88907032546808,53.6012609550726,1.2045803240348307
107.4272703287953,61.72200156855512,1.9292991076080115
156.50241969299566,61.583893506551824,2.9474768184653946
193.29364859423515,52.16924196411044,3.7472353932223466
212.34385632087915,34.09534540969574,3.709513512221908
209.65531432170553,9.807952463213688,2.170374883377764
182.9730384682518,16.82278920632989,1.442674182693491
132.35324848598924,41.319651006283856,7.155540957609289
60.99674546592624,59.22398310467761,14.29235473761548
23.717633442280228,66.57416488859268,21.86585931344671
109.95833030317581,61.75954608771994,28.79318642123262
183.72682516713704,47.17537415734399,33.751312302885005
233.0137898287645,27.627558171944653,35.32320537981231
250.88222347486686,8.327103184955908,32.401182648013425
236.72576729497877,6.082733300789987,24.380659503465253
195.88706660536008,12.741112868402032,11.197428864730398
137.6641716366014,10.710545517013895,6.5693477076538604
72.92294514831794,0.7005914096203049,27.399031048081145
12.01407185362052,15.078436150340039,48.6325565689371
36.7239997503826,33.42298738248475,66.71588185980222
67.6842457534481,50.41357859529198,77.84181495418204
78.32895015569862,62.011540838757305,79.1654919942741
69.20942192665723,64.92299389960404,70.00078525039507
43.70258820374995,57.4192169064791,51.87065527202509
7.517471152795359,40.054366653184246,27.830272293537647
32.08923696130673,15.653597520133019,1.8304353518176386
67.26141637288981,11.384085603465907,22.115214973902212
90.60102914898752,36.33045139924884,40.8258216773625
96.26927925558654,55.52512993412796,52.26646320638186
81.05882136013824,67.30766884419253,55.44939976920859
45.28329239795349,72.2667416244255,50.486132631511396
6.837355143930706,72.697230604044,38.68504916768008
67.58657346225917,71.58379220333603,22.456905846438573
127.13256195998831,71.53603334747048,4.987015729207244
175.656984598552,73.97130941097488,10.288947864388122
