13.91541729415689,7.919584378430379,14.152334693786862
9.074797893807206,8.311731539311056,0.19341127489033752
1.0862236192619512,7.238624431638444,17.321365950518846
9.407030309546661,4.298622553652801,34.80624551866771
21.258296071894108,0.6247048323900481,51.05254052040248
32.9865298186848,7.270637178287027,64.41106396231957
42.983987011761805,14.978860356977027,73.10618215102723
49.69735270304664,22.73273046071961,75.33025190739642
51.81618891667688,29.274475637288447,69.34410480672612
48.437405792223124,33.285560716400134,54.25588783646734
39.21563540112843,33.625417057781675,30.606248662380555
24.56657134167598,29.607071707476262,0.4917386704369502
5.879488027559825,21.23802084996074,32.30692672191994
14.6708585387345,9.291837366460507,63.06289867313502
34.694672137571935,4.815628009022349,87.41939430740571
51.935080436281915,19.237562973107483,102.23534026303595
64.51072207421076,32.01325581214449,106.66879341284603
71.18430180111623,41.45165442175193,102.7183630373776
71.39499866914507,46.411209249282216,93.48905642089704
65.23624282241002,46.4442042085362,80.71252077936904
53.40804231072671,41.80151735470859,64.00118235422093
37.120589891443466,33.31684044635809,42.364027312714164
18.040950665030508,22.25509664987379,16.492698705497578
1.8304295864370603,10.147560632978763,10.694716539803174
20.33717018187538,1.3882015681424547,35.369522494550814
35.40470317748801,10.86067988389045,53.93928956887554
45.32916650827793,17.15082869165478,63.791117159757526
49.014145322571196,19.73313340812829,64.37057215842009
46.14230211016646,18.80194520648605,57.788343194878316
37.240886549431465,15.230359159192583,48.03804875551169
23.64479774853107,10.337549249654248,39.4459053790508
7.37844516620541,5.543580806109301,35.54748923012554
9.066766725829735,2.0252978914270408,38.40030252679353
23.054522668828987,0.4870602955323874,47.69102149327553
32.21529769169883,1.1213157191764225,60.43023342752951
34.88606337333228,3.7287405071098325,72.51120551038916
30.46145166380962,7.898876357621444,80.85020948962095
19.544382982579215,13.133018320125922,83.3341420207356
3.8388961353990148,18.853118083859542,77.72683157408676
14.1952443191358,24.33945159640753,62.25943249883123
31.826488321162525,28.67626116468583,36.33879430447578
46.51904826597819,30.80443658808316,0.7682720117757488
56.27961856922565,29.73240146771045,41.35259285121253
59.8480114113016,24.84606764828029,84.5592208856257
56.765093955134084,16.182617845251833,122.15441036227153
47.39297589474169,4.532436599823175,147.5169745174114
32.89642592214554,8.675881791987363,155.5537330197554
15.1516340317535,21.672831211313508,144.4847671139742
3.4659006710125775,32.72262313685619,116.81457401885602
20.44618204618524,40.42124557705703,78.32507162258622
33.59752725840631,43.85511994501017,36.68718061415289
41.450821277759204,42.6462209881432,0.3938546190352073
43.4766118584545,36.92821144019681,27.895460715441832
40.06571214879213,27.32520231965258,44.60135953419676
32.330415765592335,14.95236711916631,52.23476304360448
21.825356671377744,1.3730786455928479,53.501688202797475
10.297456102446917,11.558206658589949,50.63321864595421
0.47567188758352547,21.98722718653024,45.152561791155115
8.79619013833967,28.426243360863115,37.670569308559635
13.204292994159188,30.07253087751297,28.494519038042313
12.72879180806592,26.95529872248885,18.348717832369676
7.151426188622742,19.858365691819408,8.323301491051051
2.8370206101596054,10.064027143223505,0.09891972793356318
15.682703243739642,0.9553298519673318,5.9522001499050745
29.24156847398621,11.762986076014709,9.298203066652047
41.19284428991044,21.05438625084395,10.529637593795666
49.44414243798883,27.67197630490955,10.23793890725519
52.40123562977846,30.631723478320684,8.640683525902634
49.06890854840905,29.233669691337223,4.44450650786191
39.06568065699926,23.239658809380458,4.971467562126142
22.666320619629058,13.039188984315585,20.98810413102401
0.9188980454983569,0.28938131657088784,41.28425206439957
24.23885795964171,15.099595037258561,61.058619023234
50.0114294919266,29.44823971713979,75.27265971020331
73.01232663594638,41.39940956779348,79.67735838108617
89.76554503891074,49.28876602012489,72.28588888898402
97.35356573219988,51.91568155373074,54.20974337459405
94.0115861903565,48.65964689243501,28.796384228528208
79.47107260845837,39.56440013970943,0.283823711407804
54.99702476257408,25.40032378306582,27.280941367381413
23.182033352108363,7.662318673767824,50.93800493114382
12.40382549533727,11.54731375975095,69.20170973297229
47.63459626741295,29.788208386346408,81.4296469366076
78.29076012034861,44.67357106005067,87.20135650848079
100.54340091630235,54.28816092594194,86.4203193234789
111.45361394297389,57.51983105615374,79.37144316641867
109.43480795586419,54.21456190439908,66.86959114695573
94.55638569615594,45.145695425476454,50.651061247095946
68.6018968207021,31.839158932641016,32.90141941809088
34.850279284001836,16.29171389815334,14.817258112785387
2.398989342607335,0.6442102072687343,3.8826311457064278
38.44900271292209,13.121947097387372,23.60708707765942
68.86077767861346,23.4525748504498,43.90825588836419
90.07057674820159,29.431484092499332,63.536461879088236
99.87327242323119,30.86912767721869,79.91316302518877
97.69445686918964,28.25042555190877,89.33160485324447
84.6313934320161,22.562278058758398,88.54430801582357
63.228681619431065,15.050903938672102,76.01887947395568
37.00552601399974,7.010807568230492,52.8968919503761
9.83897858790319,0.33897305593511834,22.777001413937665
14.659770175735733,5.919056121199979,9.592120641889688
33.62836660892466,8.84408531629117,38.72951941541364
45.22271907719027,8.52220058587505,59.620692671775366
48.703882404998886,4.813230403481758,69.73508706852905
44.40870717994934,1.8295214376639737,69.2040093788072
33.672258222398916,10.334973975125703,60.18591987613288
18.711186092422828,19.166453933291162,46.252882288601
2.4012618111625943,26.63046094232754,31.516439512285753
12.108549407118026,31.22653925909652,19.93713566173603
21.947473609564675,31.899490148018852,14.064293745278999
25.12964510056684,28.129066460830355,14.162886902045232
21.015351702023736,19.89904132207773,18.682281369006876
10.469244948985034,7.65939968982267,24.345969655873436
4.348306219501846,7.6314111640010065,26.436246024599996
20.4978326713283,24.40738442922543,20.397935081356447
34.90724037677813,40.45331046884607,3.5890823084581007
44.94970828777537,53.07335739397759,23.187553028701775
48.83493964920664,59.57335398683895,55.34597089450352
45.796477297823955,57.98159339849496,86.35278333053472
36.11814474762643,47.74258284751742,109.50340642783986
21.063416798394556,30.082651072135402,118.98113862750075
2.7361889428388353,7.8688320879466795,111.54588696237106
16.14911051284054,15.033275990192205,87.11217428051211
32.61960411622756,34.672048877938245,48.10133528944251
43.91253191594191,47.85352446354593,0.5787079699529305
47.9743836547705,52.680603586860634,52.14065294407009
43.8749728845889,48.697185559084105,99.0292341369557
32.04599394565791,36.72500600511835,133.68863190949344
14.258143796882997,18.596851250010513,149.99744127522538
6.667916684287182,3.0948129838335596,144.51974483407753
27.338777069120177,25.234157310416762,117.18053932501847
44.37739372113777,44.484315712894954,71.88653984073463
54.991772546714664,57.73038584371672,16.08446671576912
57.40304252226149,62.63032128115277,40.57678510990818
51.09044216605203,58.1399678092415,88.49095972761371
36.822768975566134,44.80815695134273,120.87941363051294
16.502017257415513,24.69124993936585,134.61461300322804
7.133109600545616,0.8895539364029575,129.56730169375507
30.901852054463887,23.13919921743401,108.41502428659554
51.6090394956236,44.241260988537334,76.035380995276
66.47228015258928,60.018450736488965,38.46239317684443
73.51596172419524,68.99889817531755,2.3792602137909347
72.20765705094868,70.93488275481056,26.43776097743649
63.4752071475485,66.56926200596847,44.08944119389431
49.13456990081017,57.024781741066136,48.51394316234814
31.570895567463978,43.69350560778005,40.179718460837435
13.344642278126134,28.206841077136346,21.84225189812609
3.211599675280802,12.369706647682857,2.3921166599137313
16.32941902503464,2.0054366525060865,27.70295920074643
25.00846428788271,13.35981682287137,49.39133443559716
9.483844172198717,1.8483266188503218,0.8740932018395945
7.330956289415703,2.4071264466565845,14.005616060564627
3.289603802132898,6.91254698606246,30.067438421355956
2.551226877143788,11.027522597365921,44.584634465913915
9.754935491928244,14.371975540388528,51.5229837685221
17.563018864542894,16.843340020744318,45.937693943404085
25.01475486992824,18.48116988208157,26.34659896037155
31.092640186106475,19.241128132363627,4.5088222792897295
34.85727883337967,18.86643689346117,40.45318711297816
35.504843150528046,16.896877063561927,74.11401525650624
32.397679956596164,12.844055574278052,98.90994240371401
25.203046360048155,6.538107286773323,109.82778847622313
14.150328194370404,1.5324443885046448,103.73184195529163
0.07319675861147068,10.420100108636962,79.9204928178077
15.711472026654546,19.253464125817363,40.463971716381494
31.315899268950393,27.314959541164423,10.370058913378728
44.39707493189489,33.98228456296392,66.2506066763039
52.66514488479129,38.7401081500473,118.97752780158518
54.418423461828276,41.01264118748327,160.10047969768155
49.04267819861326,40.16647779661966,182.0561961591758
37.234010119979,35.68074604442545,179.09016078975293
20.8241348120642,27.385470024204665,149.40563434168251
2.3892859665958417,15.755691364020773,96.96096198127232
15.265703852254003,1.97799612860843,31.122074651198965
29.55156400960369,12.217786367427744,36.44669053594704
38.38943632000582,24.92864548000446,95.75032077953084
40.41791789909766,34.534402282451495,140.49877857417079
35.17897206785204,40.02722024318002,167.9606011797319
23.31711600045165,41.157160606835745,177.93486415294967
6.666822045335885,38.34460114053039,171.942808384969
11.909180150377418,32.46243905600722,152.54311089267796
29.003121296715953,24.614371280678732,122.57978253858863
41.39861278950973,15.959471690266298,84.87825427602246
46.829242927587714,7.618175442810556,42.472520146470295
44.48767523911626,0.5977116190511131,0.9979420816587651
35.087415583464825,4.303243094809585,41.63656575182358
20.488051116873166,6.613703094579095,76.3154046706591
3.08849478277727,6.307211611820921,103.00456421617076
14.730433916264776,3.853003445882295,120.85947808573395
30.922039254053384,0.17276920752533487,130.46164036080413
43.84536917577027,3.513511698633152,133.23662045422765
52.21323338598309,5.934550473856906,130.42202550783418
55.07666285398555,6.027879002884784,122.37918838443336
51.937948339477124,3.1426358739960594,108.92522367391746
42.953829724922024,2.8286274279367687,90.356817002358
29.084436695931416,11.398023561813073,67.56011987480719
12.047474081027842,21.54193053102748,41.53312891394595
5.937962766220454,31.853040568238182,13.374839203451586
22.535514949772768,40.73029617398694,15.918433363032154
35.66074014904821,46.5941878675399,46.22048921511049
43.714707539801175,48.12014770907798,78.11800109226527
45.68702852007493,44.45208553421817,111.26827108354699
41.19456525966235,35.366731965928345,143.20578695855303
30.53074960374368,21.366175792083794,169.58850696005564
14.749882417414833,3.6657240732166696,185.68089588945872
4.288853473510012,15.94191347465893,188.49675490972666
24.017037499576176,35.326368325444584,177.41309350652946
41.46455991153648,52.31073731121845,152.92320652814186
53.76360122504562,64.95653437616987,115.84151965628335
58.7180959593816,71.78446563326311,67.83347993045767
55.268576885351685,71.89693678966961,12.062148906135153
43.7137729090379,65.02822173453755,46.97014028904238
25.63313676248195,51.57458569140316,103.5703018709853
3.558387422617587,32.62840368847244,151.50243493435926
19.484459451044067,10.000410086385765,185.7525317696046
40.44599136900541,13.82090049718439,203.3124152627147
56.66044726552338,35.863504185987026,203.23175761146194
66.1315778113075,53.08506658071044,187.38375476046733
67.69774082141373,62.95190881745342,160.59968423350023
61.12139309859245,64.03527361339638,129.00458644631834
47.12377965938348,56.43571855175932,97.40771788828356
27.359697799416292,41.85160963151153,67.8314569104503
4.309998856489914,23.224555050155498,39.84711120550146
18.933624232147256,4.063474603579054,11.809521522111314
39.02478509526873,12.346852112438256,17.51199954601322
52.87022087220724,23.61549014518016,48.03784631437931
58.19980105202862,28.61262626790818,78.7227854516886
54.0521151827777,27.48141159574618,108.20109081520118
41.036987892624765,21.36243010182584,135.27585100980653
21.28014743585815,11.982424437415284,158.87303342837052
1.9522280516639254,1.2737912534855573,177.2645995162178
24.865387708915172,8.888713240958143,187.1743920470098
43.8312983442314,16.868796653351186,184.39538789743204
55.99557552664267,21.435475672403197,165.90666381302742
59.679534857370946,21.93357951649654,130.90722176192327
54.55322221651817,18.42941504435018,81.07319359312152
41.6218844649693,11.75427123729216,20.800432041440942
23.065733737411037,3.379410543530461,43.80607721034388
1.9474684984718822,4.900577740354818,105.89713390148496
18.222577870546964,11.434403879079468,158.14992060790271
34.048332004778274,15.148963550064476,193.83440032526673
42.87034432587299,15.768823372787175,208.70714571709854
43.34392773174164,13.753524406547179,202.37440194463383
35.79016309757183,9.982345234232502,177.87234463444398
22.158168431867082,5.346335486861284,140.2161172726877
5.587315568575228,0.45308507844172013,95.07844709262447
10.314366467169224,4.424883311864044,47.76636845807979
22.274187169934617,9.158173508787604,3.131811275954099
28.020663922966335,13.46701928590272,34.08986574098532
26.64616821874014,16.726567720974145,60.37494323972071
18.61511261482569,18.028995143071562,75.45431529685874
5.482490119461718,16.490710762102697,82.27231937522433
10.549714745487684,11.633307046489229,84.82166971506537
27.07817087257435,3.6553865698466628,86.34588553526541
41.84291393661329,6.541404507263191,88.34586014060103
52.96112906713124,17.590026656044003,90.99471637958771
59.06699927977448,28.047185813384466,94.49302038642234
59.38546083227948,36.748646075742016,98.92051516141865
53.75940761527521,42.94397949920702,102.76007802917611
42.64236320636512,46.19932296817361,102.39136331734424
27.045820334822302,46.216032920069516,94.16586753543743
8.412524084734786,42.71941467483029,76.90087276855382
11.55904094116095,35.518194546521165,51.73041742495252
31.101145905384016,24.720646834637858,20.86343637983159
48.539098715671805,10.981799341130644,12.909414496465336
62.39221260339954,4.3874887552940525,46.58677553883219
71.43197204136032,19.56523571290137,77.52848058513872
74.7370330076496,32.59749636342483,103.54022940363936
71.77900931289597,41.866775942218126,122.73662256296522
62.540120297280986,46.45725467652498,134.17453730701337
47.630039774965994,46.29178531150909,138.15627443976922
28.36565341944265,42.03588475466942,135.45271279128602
6.724109677916002,34.859496745707375,126.42626893519488
14.886528906532803,26.169572286441642,110.95230831096295
33.983085786949395,17.386701817803946,89.3751539630257
48.41096949966677,9.792358521487428,63.16656475936331
56.69313897002602,4.40552304412349,34.66419594362478
58.22965455968013,1.831896516748647,6.17596873325881
53.32512267209411,2.1166692945259844,21.11046368882881
43.0634679108008,4.688220308300556,46.7674903827607
29.08892236456461,8.446696460459561,69.81999684417863
13.354310279502146,11.999308704915563,88.46928265539366
2.123433316395125,13.996915491014056,100.777269995485
15.486065172708615,13.467389655412367,105.44123002546692
25.245392986435824,10.02388195323699,102.21093486195288
30.44854746113098,3.8906153313212526,91.91278953825585
30.764377390209223,4.218182881687982,76.12021563768934
26.497583035860465,13.279311539552694,56.96435516743424
18.527819532067383,22.132184984963047,37.19726922826674
8.178077842817638,29.614944502093163,19.705621989880907
2.9645963603872687,34.68486613844358,6.506117838405788
13.226475649065968,36.57219209604231,2.06643679866749
21.376078045967674,35.092520168536225,6.323724888667629
26.796057584992834,30.620351542097477,6.381369615246944
29.18866012305836,23.818844211300775,2.8346853435495185
28.560016860051004,15.572568421460266,3.2085792580311985
25.2273637118102,6.876747706848722,10.452429995034674
19.80959264106979,1.2971380526760288,17.414140354727643
13.175057929600232,8.12640978937583,22.346472574064137
6.332174599449423,13.035279702271232,23.826659238098195
13.822054067175083,4.8142744047021555,12.767563281632876
11.248546407742193,5.474411765287258,24.564494023668537
5.480542762781719,5.617660966663787,36.40266872921551
3.482154341694874,5.582964756448926,45.06542842948261
15.052053395588617,5.7547425927311755,47.14308571013708
28.027252990969984,6.313568219967138,40.308860767371904
40.66987819013735,7.088071506756961,23.835748752982617
50.88586283361928,7.559955523667996,1.6438637023584601
56.52497743911548,7.027432027889261,33.59638227729242
55.76411726860215,4.818083307207878,67.50882483270557
47.50511838597406,0.4910633421862422,98.14180851032611
31.731491198773302,5.993958559561166,120.78181027858157
9.752037984218417,14.203603786116927,131.7346624613981
15.895223265447088,23.433551128952995,128.3497302614072
41.947262482740044,32.901329271754186,109.40434294825336
65.00095657526828,41.54435249775513,75.38213923678461
82.03979737155622,47.915467348578964,28.69234239167068
90.8920640848103,50.40660190274798,25.92932649828934
90.4675171398599,47.586602721428726,82.15884563501602
80.81701616088674,38.681819768610076,133.03022228004716
63.08807297147578,23.925223433116145,171.55116471903682
39.37601065465989,4.603075207699065,192.38911451875643
12.49359243682958,17.155821066114502,193.40201724206705
14.371851064898477,38.82246130151263,175.40765217199836
38.083948937250334,57.90315844772437,140.98999008617164
56.01238034594169,72.25667077040745,93.90153440600608
66.43572266476595,80.27759907889438,38.99408861785001
68.76297561824235,80.99613856289717,18.372753392230774
63.52647768409899,74.20187962906951,72.82430579484347
52.16718061162648,60.554873070654786,119.01414805219534
36.70249573146049,41.62948361490945,152.18599141398172
19.383727058451054,19.778493093171946,169.0492975238183
2.4131493878071866,2.2379239496027505,168.46494246528653
12.238610953795206,21.75944820065891,151.9455661091291
22.95296470139278,36.717879264776265,123.30840355907335
28.56775764746635,45.92317238804546,87.54574314273454
28.480642785390334,49.09177757998325,49.80465102746555
22.76674065189838,46.70146002086717,14.707535208015997
12.26093714719091,39.782276912472085,14.424991509619254
1.4697959329298216,29.757032922144145,36.496933506036164
16.291130058004203,18.34108303021937,52.28115762572884
29.79998850114616,7.420074607558986,63.276061725032974
39.703165080770184,1.1842996124186294,71.72910514004025
44.19197475791727,6.0656793635978135,80.4857300129887
42.24087725768722,6.58639811991559,91.49115223177203
33.782670202251985,3.08080501470316,104.0362892201
19.73880493713401,3.2142727452986715,114.45275616007403
1.895378173936671,10.50459896456776,118.19548298154369
17.356473872924923,16.92040988406956,111.74228012326381
35.37859954856203,20.946735483744504,93.0721272690849
49.68295274629828,21.661535015388036,62.16697310971694
58.29694057156588,18.771960154700682,21.25681935684283
60.0518389051577,12.52954548877626,25.313160396815096
54.750468385280065,3.621475367665799,72.06101622678814
43.19194549305148,6.902986575169494,113.84612180946588
27.06061590040647,17.705764074724915,146.20793679987455
8.679007717331363,27.28888789538313,165.30165990296067
9.352823422925717,34.19632548218823,168.3097181496911
24.574595455385385,37.265310223766434,154.4737306761964
35.05867364459697,35.84930824071711,125.87995798592385
39.68360396358037,29.93586528432355,86.96115025900824
38.245779682871145,20.126759661858102,43.850327306892446
31.413413599391554,7.503359524284688,3.5322819542752995
20.536129522603446,6.551958319926474,28.269682577036455
7.367479157437135,20.524787421868428,49.533011470903354
6.221231089655745,32.9077345758412,62.03253363916065
18.4823756482331,42.305036348730546,68.47958554642584
27.97680536479324,47.52520878511517,70.60381656439118
33.69600026175497,47.688109636121624,69.72903109090997
35.10956091307288,42.34119321402865,67.26233633933897
32.1592996501276,31.568207316538835,64.5004679452109
25.212146888192727,16.093073711245168,62.25693378402348
14.98711285805734,2.6521613476310817,60.547861278824854
2.4863559122387473,22.562265562988824,58.79860366599799
11.057674344581315,41.042311763431506,55.960068242541304
24.217720340154113,55.38279377936965,50.57095264327034
35.43950830704878,63.29109686344416,41.48061029963122
43.20009439288352,63.41971563969379,28.687432052168138
46.25864617726985,55.70342363504747,13.681508206919382
43.95733985160221,41.360200747148376,0.938687922896152
36.46276656426044,22.562376191952676,12.664642516173261
24.82219069005551,1.9392796978222737,20.186559039371158
10.788090079810383,17.8962265753161,23.67344579883299
3.541079167319496,34.65386744987743,24.619265643688134
16.146149847168378,46.49901073015109,25.281573046183148
25.438606361806926,52.12871452933409,27.751284235142066
30.427716930961058,50.91211466489236,33.13086083657042
30.713425520091015,43.114961096885246,41.05545125281078
26.42208123175409,30.07482590024762,50.24965279504846
18.169238070732007,14.135386972457306,59.59085044334261
7.081949078324547,1.776780959906636,68.21827078517342
5.172177612452481,14.854060955213505,75.28052335137903
16.481168947888925,23.112576343493856,79.5978091888222
24.590156210458566,25.811334529032173,78.76979612210498
27.58948921628357,23.424789478087696,69.63446489367234
24.431184386603146,17.231391041868456,50.5540317502327
15.257713337987546,8.787991675203752,22.447456206440783
1.4305017349936255,0.426366980923343,11.709721868937738
14.751839497935517,9.076315877636642,47.08172927315231
30.54662880699483,15.864204227803285,78.13675891420115
43.287790323253255,19.49308910869691,100.82206773184765
50.792964114146166,18.854251496354088,113.16129415613497
51.61248797154692,13.40847837906393,114.48972891772593
45.15866127479916,3.559383304200092,104.93724956231607
31.797078912238195,9.229845528609433,85.30811448096286
12.92283264289071,22.704239643994455,57.32819055091506
9.056655525119815,34.378365047201,23.83833963464148
30.93920940361963,42.14206040879054,11.528570437671412
49.19868632647554,44.66033624089393,44.6831666509815
60.66187811119621,41.47288529221668,71.28708655666628
63.23559502745848,32.88463260491537,87.22670485428141
56.44815361315883,19.806721542629656,89.72057229940876
41.60233000735316,3.6637635508947275,78.84066786016923
21.479781710216727,13.650004835588675,57.47147088194541
0.301346692409621,29.88979313286587,29.443006698203355
20.06089311958081,42.75472133193816,1.3683281321072507
34.74770869719367,50.343016943630715,30.777278668325536
42.40359786847626,51.6067062523944,54.74917461911951
42.345291535901346,46.60048738895525,70.12096586264238
35.111811030310925,36.416246519233006,74.61898356795099
22.270674547625955,22.850659634164543,67.0260601136358
6.145016461955595,7.982981424721916,47.98324210598063
10.515673241868821,6.166062722097518,20.41394042630225
24.92059976462292,17.830445040923173,10.713128745582576
34.66211071088545,25.593086076032584,39.59350761345172
38.11091274574587,28.482359362434355,61.72204150119347
34.69317144610168,26.13989862634794,74.64462057879187
24.973660666064948,19.015855131865916,77.35195734995183
10.504751197576887,8.441355721240795,70.25018293732744
6.525603695963098,3.5470518663326396,54.98896501996525
23.730268434392123,14.624808470075672,33.86464843737151
38.885824813585764,22.7214895396681,9.15084480433686
50.14015941517779,26.468953785347587,17.647119544822196
56.09308592256488,25.38410548116682,45.180372490838295
55.812582814015705,19.790495089453458,71.07732205895577
48.88036992720034,10.572938629449663,92.22131874966446
35.527032146699,1.0741133623617467,105.64987365677125
16.789385714991674,13.78238274587421,109.17047707867015
5.428728052938481,26.049388508303213,101.57484324742684
28.492849501594108,36.2726755747312,82.7150636428411
49.40601553064459,42.895063692717706,53.93773171526618
65.31657002827131,44.695030503875074,18.222769058774595
74.43251555154814,41.4433984143071,20.901715794208126
76.31519115131667,33.9974450537415,60.177860935184434
71.47580067863633,23.779450732977317,96.24233303624983
61.201685919791565,12.454167458427792,125.65475024262882
47.27781084617836,1.5681315016268464,145.608589347966
31.689283092818606,7.716257802967852,154.30928750194542
16.365583899673254,14.725106296053394,151.1113117612527
2.9763123655968617,19.22354910426006,136.80240769779618
12.428890486919977,1.650138372659863,8.04371771654713
10.517337729070306,1.4171226305485365,4.502163899147965
5.32038685644616,5.126868560651103,19.350456132297214
3.1212442614284677,9.261771065020257,34.57667438924065
13.95868478874935,13.559448255953923,47.76894834243444
25.635995182223194,17.60342054057671,56.262697474801264
36.160402912001906,20.752710278718464,57.72953064672093
43.46860510447444,22.169363881865404,50.66823339326178
45.78575684302223,21.007637778655134,34.81914952779996
41.91591705577148,16.679201842047853,11.416186498470218
31.469837278952497,9.098959696294148,16.966908407980437
15.030142602924851,1.1319769350303825,46.07533330145948
5.740404145407253,12.695052684791696,69.62501065100525
28.170526719456987,23.98132039890523,81.29439765689384
48.93695437596917,33.67743770373548,77.81482144892723
64.62482530267212,40.842197187532875,59.86716207108186
72.4183623799485,44.79347963614836,31.50575227691896
70.76113419339407,45.05598485723324,0.8761341578653172
59.74737486799641,41.27200827465107,30.885865460666352
41.11406879157171,33.34342952781627,53.928790542970575
17.810148535906336,21.65840233390076,67.11212477777427
6.700058151642313,7.215208997944488,68.80472087891646
29.142168527824456,8.386382583217737,58.701486320586476
46.92440598798494,23.234787069034063,38.39064937722618
58.33849105841114,35.527716724921646,11.423624759927929
62.54873076093059,43.95470929109041,17.485041807382906
59.48012722572912,47.90299042784147,43.06873868297275
49.740712723328855,47.40339208210559,60.47187576003853
34.59157179233635,42.930474886975404,66.40186077771511
15.87965993896699,35.18275367031517,59.43479607201594
4.114683508156336,24.973981037328233,40.510997128553726
22.969071809988893,13.248675187488972,13.298081494130848
38.489075992768534,1.1409366804564072,16.926535535476503
49.03145067740539,10.040782130621578,44.47867325182112
53.6779198055036,18.981785050887105,63.98609107740712
52.21573292778304,24.611706048308662,72.12661721016644
45.01200544358022,26.36214225140813,68.88469389153576
32.87033106249526,24.308577378610853,56.15592004632476
16.959234798525085,19.123444032987816,35.94337472874216
1.1590501432181308,11.915359599684159,10.107265525866431
19.521802825844183,4.010252273645018,19.10592210835083
35.88472090992955,3.2558163485639335,48.36269326331841
48.01669897996416,8.704304380756959,73.60785395442528
54.12225864297833,11.462038188061616,91.33645749526657
53.24454411775275,11.082457171551175,99.2748020856953
45.52083706125879,7.649912231826674,96.83267357266398
32.18357349443253,1.8121144941897034,85.0555806240421
15.31662001730075,5.307794623518432,66.09954335507551
2.5314889477598217,12.308680377967702,43.230127182779604
18.77726463478618,17.78335745147474,20.131872454912394
31.167376584577386,20.57882837558295,0.6380809471508891
38.049821202023345,20.007024109907846,18.028513915002634
38.561026605684894,15.970488179013842,32.072579566973396
32.73315291296795,8.971827713879154,43.74856556854629
21.52458535404425,0.045474983525971874,54.24427809097056
6.734643701687756,9.400811946089696,63.84277713419764
9.224171554820444,17.84092834128135,71.63884892257855
23.69508802782695,23.929704277542434,76.28082758946854
34.22235912667843,26.784126962274303,77.24699868795557
38.95878542208623,26.151598790562744,75.1251895426666
36.95806525279573,22.396470802866926,70.36930487322375
28.304531618609943,16.304866508676742,62.834797498134584
14.091393205289105,8.797945782462865,52.800473633301515
3.72103689711837,0.6990897679028507,41.117905099256994
22.55370972936949,7.355566391238192,28.536485982205843
39.537242526866734,14.84697499811344,15.556475727489302
51.912670744264894,21.222777976729684,2.384574296050942
57.481252516164886,25.81072162883499,10.589504787578685
55.02698654105342,27.894032352720824,22.59571451526023
44.60499875201613,26.93869617761668,33.486775378229474
27.604164469120324,22.847092373119363,43.48595228983216
6.5478522004884345,16.103002266087362,51.81627404462975
15.346278190916191,7.7340223379264215,56.773142264234544
34.74420108394121,0.9050794553157078,57.042786381444714
48.77249784778317,8.423595313219613,52.71950427795036
55.47844688022358,13.640016551905173,44.95212215284612
54.09147665603954,15.730243863909765,35.476016802794916
45.078094684933376,14.298916758978784,26.647286782076186
30.008882811970928,9.43335570466677,20.216283372636298
11.265290252325023,1.779912258844401,16.255460699104933
8.362902103443604,7.398664423468607,14.033395021766736
26.13132681320601,16.28578742864879,12.890047202498907
39.74092602049071,22.77780051978116,11.80579347768202
47.60914232111312,24.95639739182509,9.204171019666388
48.988165985605626,21.63378530342283,3.716504509690427
43.92709240070321,12.763820332846592,5.436442041200619
33.147507748033824,0.4542538549430132,18.054169434820217
17.90036402328472,15.853693679043607,32.297924143265405
0.14804313847633338,30.85764547221894,45.14023933563031
19.00374024365278,43.09197776252323,53.12501923671697
36.47152305308643,50.848731221726204,52.7412895446
50.3450459531568,53.271611566499615,41.704704691094896
58.67521157041815,50.28217247201638,20.720876096784995
60.087712326550964,42.38804877762336,6.443555700003621
54.04932366842723,30.504003978717876,34.47819765899869
40.99689993658086,15.855260481008576,57.695048712312946
22.306417846083818,0.0644304174468688,71.18629686968274
0.1373597951887153,15.576558572849311,72.43928358842396
22.819092772456607,29.002796263598068,61.57479269130322
43.64203991969715,38.92426178055034,40.727433602556985
59.506396932047046,44.41873998008017,14.13484788919552
68.06156161195318,45.17976626599253,12.696852192588981
67.82893511805683,41.471747922370895,35.17359822209916
58.53709614082757,33.96025946371115,50.710183642649845
41.306907369014375,23.545814043954604,58.22917186965284
18.57541375004369,11.298546472895381,57.67022519773372
6.2853127124336945,1.5094522508475174,49.670699750391286
29.575929383791888,13.35846496129926,35.191434108016516
47.94876818634243,22.560804967514215,16.044909578674368
58.97957454681626,27.534192229318617,4.602303084335717
61.50300913991466,27.21851810901192,23.65027572944922
55.67734974884349,21.48990485726192,39.59274790801612
42.813201016123784,11.355987459570926,51.43834333658944
25.062707986495045,1.1887877072036845,57.44185899935681
5.072416301621676,13.618234109111604,56.077609700867676
14.373921726850924,23.49023472268655,46.60700670799768
30.712692471382375,28.991623474877542,28.890080766080313
41.910392024769614,29.257205641241562,4.20718313164841
46.70105776471524,24.425337454095622,24.91537785546086
44.733905923942196,15.48671064566219,55.91065258416009
36.59096819755067,4.040303236772938,85.82885075913352
23.67733880267889,7.979757065785343,110.58861882674393
8.013986882031377,18.576514468641037,125.7839907717373
8.049534852223415,25.963654976863957,128.3067084237082
22.150369691117096,28.861415925627806,117.49454695400009
32.21472535954179,26.743534554700155,95.52900245708351
36.74762825209706,19.93785547459351,66.63317891375917
35.07354374337438,9.540362849718916,34.81790812451363
27.48051923017464,2.8465342891298437,2.3211345655651576
15.221980315021964,15.451790978733282,29.734237161749906
0.3384661685606202,26.607541452732566,60.43806646384631
14.670007712440748,34.87204911588635,89.59494758014817
27.268411464775223,39.04613563298681,117.3534885297171
35.3097010743623,38.19397888588596,142.1683309060347
37.35048363844119,31.755758846012046,161.18436575393886
32.84426946200925,19.776523838778743,172.15955659872444
22.21013924012144,3.1356528366461336,173.01408816422602
6.796866627892915,16.38463457964637,161.5225242263449
11.238725384591543,36.2811258376234,136.56576861528293
29.17069175563591,53.76347177087798,98.78213662159202
44.06393299254103,66.27495199655893,50.42293798084128
53.23226859991761,71.9087410497922,4.891548818419463
55.283284272353036,70.01824999414808,62.15893257318556
50.38475662232105,61.19663371584411,115.44651310645398
39.664813163498884,46.744818764237905,158.92306839663135
24.98883776608304,28.520629419963992,188.02732288169048
8.61880013554378,8.755187398536515,200.5954544949383
7.175558551894804,10.17048923190254,197.06098613931107
20.467881175423216,26.005354756885982,179.86485856565804
29.919364409740698,36.97423624876275,153.02014039799775
17.562047004350806,4.218928860569035,17.44035613016321
14.102260508730248,0.5906800919004129,20.386388752875277
6.772833888655703,3.9298748636444834,20.271514003652065
4.218081675993221,8.63848160177091,16.230901609336275
17.877374968875102,12.945481607304593,8.236275816830517
32.54265156421595,16.480312044718573,2.7861994744115686
46.158733008882336,19.02484366432341,15.43712714449156
56.60147151028851,20.335873836480804,28.39204381758138
61.996146862731216,20.023711844498777,40.40793673680408
60.94758736184513,17.5909873547054,50.08066143980988
52.692611399756764,12.628446537073067,55.89416843353438
37.294444400833434,5.113258456200713,56.16223366623185
15.907183103309691,4.32378815746889,49.08532508828051
9.275256564143813,14.46584955095967,33.81434740969187
35.42002746986431,23.91027106259723,11.384112328410515
59.352338747361934,31.406258574967854,15.59918046561038
77.95035753058265,36.0633898056592,43.58850292793956
88.72636222918594,37.42783862531625,68.5776257823441
90.24522057054487,35.345495344646764,86.5802654378481
82.37704694708344,29.836881668814858,94.31245066609932
66.27177799810512,21.102869481085314,90.19609164921413
44.04716249692047,9.65644706758582,74.76337221783541
18.38863652157358,3.479073473037737,49.879274600527495
7.859024994365349,16.733495165187378,17.925258496677024
31.959902677321406,28.18924080439451,18.03765673887253
51.44244943376566,35.96259558222501,53.92693823187906
64.24486597084726,38.653288804635906,84.73331550635135
68.89727894377445,35.67727703865707,104.94219320267922
64.78321996585605,27.39237537698988,109.4751268861255
52.38463422977871,15.035041117053936,95.29492490824403
33.408853453350034,0.5306916701641186,63.12244537459439
10.678658629594244,13.765533435723889,17.62340555555505
12.262929557861844,25.36720869778354,33.50896378365343
31.73702455655187,32.02194199218162,80.55429857834588
44.585042541549775,32.155710532317755,114.2156669018932
48.72859139899048,25.27838400125865,128.4265157054203
43.52134065298229,12.205883826217274,121.37074774255595
29.855226408406015,5.003236460750228,95.06367189297109
10.005399232471321,23.42774660895551,54.12523616418255
12.743683251594371,39.86329004417284,4.547188272609604
34.63306035714041,51.42766095199588,47.084573270094715
52.02819399353339,56.0374914418431,94.10540850576882
61.97931117523479,52.66545643283852,130.4384268680206
62.674689781748256,41.43846598664854,151.3372454258623
53.7258561850018,23.658070011617667,153.76102205614748
36.239552942771,1.711337865380352,137.1066526488028
12.65316721190303,21.203830781481347,103.97772218479886
13.63669899574651,41.588003279116,59.94794780458817
38.79732126765847,56.33934297401367,12.051961966666546
59.170499444521894,63.46052861634232,33.459206349815766
71.85991536999198,62.5069594480796,71.92367067271408
75.18207457516452,54.57814320708154,100.12072544812966
68.89406606542619,41.848291002541956,117.04655432535068
54.155831012084384,26.83177637738248,123.97016639972554
33.257187944469834,11.708862860765652,122.74467464173505
9.174150948348505,2.024392779484263,114.39481421028225
14.942415047902733,13.518625965716996,99.56089669870586
36.22295424300435,22.289655058194878,79.38606718692338
52.40605159079068,27.968646643275832,55.2839262742219
62.01294747615366,30.262241054025942,28.6758054024735
64.39813954748475,29.104049544597288,1.2086513558039658
59.72849723456109,24.852757263467748,25.265687151859968
48.92046229909308,18.32987807953899,49.10314011508923
33.53852420343789,10.601186905902068,69.55090218995038
15.641345846989434,2.631927483582175,86.67895392283334
2.4482514384046787,4.945836426414289,100.11952928483214
18.440341647779615,11.797740055776034,108.38824812511872
30.38556818106336,17.60616792803933,109.7581138062147
36.95349771592212,21.741479549378177,103.10669361856895
37.63003760336742,23.170361143124374,87.8685443324115
32.77828225970619,20.748096430886186,64.32938024479282
23.562587683030646,13.774485762124055,34.071439336631514
11.744941226100101,2.5280916099474413,0.6393938322644
0.6110822836726858,11.525287846247124,37.27078155200575
11.464253239599296,26.000760030128514,72.39353022157201
19.106515974794117,38.24382845331048,101.54510010103112
22.414297063375486,46.067555016684665,119.99835588528667
20.981920233410527,48.23966969003638,123.99639064336074
15.132108470994336,44.57380320696985,112.19623624895863
5.8323934187859585,35.71527067024774,86.46476306656254
5.472361649095485,22.827266785683285,51.44461124088087
17.074899626299356,7.377532164002458,13.03044389816943
27.22911310180355,8.917179476846384,22.401665270555352
34.374093542603056,24.104749277935387,48.23394551745138
37.342210373306905,36.13572307563033,60.13751834449571
35.54126747006356,43.19081740489418,58.37025853044707
29.093202091211957,44.125767080282394,46.593708197433315
18.876804874977317,38.846848592287365,29.843679678137967
6.430844488008687,28.40719796088303,13.316770462306966
6.289619318696455,14.776839046298024,1.1063543581867115
17.26883163318634,0.39057155819998157,4.1807411906563585
24.80073204146841,12.372183348592225,0.9008179247703175
27.773855326414516,21.591670446897403,11.03088548758466
25.829131159442266,26.014519911095515,29.0413074060836
19.361827280732026,25.124136107356318,48.42961348198217
9.395523521302287,19.155013094188497,64.14395485781569
2.5611096419398023,9.084310723357044,72.28106566034452
14.651067768545518,3.4419239512437745,70.86425169321639
24.845788910982336,16.316696397368574,60.054247502105625
31.164418127543268,27.32473116498789,41.54550793469957
31.966988574486464,34.57138246131586,17.681659824836938
26.31343136004894,36.85053817147611,8.609221893148934
14.26765871301441,33.81919219879025,33.72871238472755
2.9812621604512253,25.946372782569682,54.36745810521748
23.252449388658192,14.322248865816364,68.90011712496776
43.74697923529768,0.4486080173827437,77.57546828900175
61.55922673566084,13.921978851738531,81.48696097046745
74.15804465664301,26.90217813781736,81.58097875115594
79.70831268776448,36.62273914146832,78.10194543298078
77.21143637510639,41.50811239423011,70.83402310891812
66.52225678023196,40.63261752077818,59.90895239256521
48.34286829495391,34.02661063924781,46.2838776302371
24.227356432644893,22.792334262424575,31.422732186211025
3.4393934741259105,8.912589446852348,16.270675983021107
31.575024792155457,5.217921885368547,1.057397371993586
56.75167272067642,17.35246886868853,13.73519911392085
75.72702394043645,25.833688108750575,26.86492026905725
86.02427068562126,29.790313608016994,37.135943282202696
86.42042881214847,29.097273780609576,44.394999010476674
77.16998313809262,24.21109260386032,48.8817346716058
59.908672793273034,16.01695619172362,50.4892898435959
37.31234183655202,5.73785815200708,49.09648742074953
12.620694547906458,5.146199199182892,44.58362955877855
10.845660868810596,15.04073369576427,37.26958670965922
30.100539169558253,22.481671216900697,28.412908029339132
42.813268602142784,26.435159232720945,19.719020257263505
47.542366900964524,26.52673605066546,12.712902656676029
43.91371332122225,23.085721250849158,8.130592855526993
32.70665855863823,16.96878080793247,5.848894880467258
15.791078647476477,9.246894226012062,5.7798675183106285
4.108164311698154,0.9130051793956437,8.570863125441756
23.816399346885717,7.2629184200716255,14.791877989913946
40.20343779314931,14.698523852801756,23.095313250594813
50.65703205821056,20.872038411901233,29.797108905442236
53.456256526680924,25.24153207432197,30.845236520052776
47.99165305153997,27.2789475078904,24.114200487200947
34.81348502987036,26.60076376495266,9.627468828999621
15.532478259463984,23.123552986326352,11.209629050968973
7.38745562981393,17.150121617865505,35.43432823672907
30.93461082107774,9.330701385236413,58.75951851364763
51.9301621283478,0.5323197696306362,76.4951444180172
67.4395098182921,8.295681434599814,84.53257922154056
75.7286864166156,16.266771038197348,81.11879830150252
76.5121870171898,22.637619665702182,67.15464399867781
70.39664180935931,26.82605715018708,45.02880587194989
58.733411205126174,28.476468003566968,18.107830819214172
43.397361099916516,27.54273775682107,9.797782598148304
26.516897386487766,24.34978357903779,35.026928127011644
10.202113128709762,19.57625571086398,54.49715448255054
3.717713946442912,14.13177508554439,66.00443625534115
15.29764656361698,4.3201127905664665,20.41854544985641
12.01331021992264,4.974462857904161,19.170891234995153
5.473741691576365,4.656068400560843,15.505239002834125
4.34004507420812,3.0343923350944606,8.739625128334911
16.830152641853918,0.011387927528531861,1.414833118664039
30.680864951090197,4.18753206417548,14.572890013926333
43.94080001927905,8.995902946797298,29.803230387306783
54.29268186236604,13.586294954367688,45.7039442226185
59.51444306492968,17.025488926777328,60.30843023687467
57.948445597503415,18.48162931151037,71.35357563759763
48.86774933824206,17.413047615875257,76.6362103674296
32.73285422600588,13.66827272153235,74.47147159849133
11.292393823320362,7.501026258708292,64.35980650661425
12.779098401919377,0.4157584747263881,47.43472986443962
36.56819010763207,9.02868698547043,25.909322900562504
57.2840081006036,17.10172562921325,1.9762657097979435
72.48557102366189,23.422588595912565,22.444530443822522
80.39635855972463,26.9657876012455,45.32586696024663
80.08263504195456,27.08266824201001,64.17816556564468
71.64635067085976,23.6389771937378,76.5596135229168
56.3082243552458,17.10974877610771,81.58291231752922
36.22907083169536,8.5894232644157,80.25464410823156
14.160984321387728,0.3870904672454774,74.48855650573373
7.070136617145032,8.162570598368559,66.47671755730119
25.030173863307372,13.341673812157643,58.161988844614015
37.972328882359434,15.11682797763745,50.54462855291069
44.954213029894035,13.419727033464035,43.67728792308855
45.78374973364289,8.862348614308729,37.34497827197892
40.9508969464896,2.4939043201021343,31.191862916744693
31.568720481576126,4.487216945975915,24.38641907228323
19.308012719805987,10.94019939715205,15.915634683855501
6.268014769485182,15.863391603133524,5.009174241789031
5.3209319301081965,18.38936541877963,8.652151102154514
13.498807966271674,17.797680514090196,24.39876179581608
16.959207935877185,13.617753245136454,40.36952961088343
15.290883083970545,5.827093305248828,54.30600648381446
8.989473274000582,4.943939565352935,64.12667094200708
0.7249782761377437,17.352628000740403,68.02271379080779
12.186517371338578,29.531987807352955,65.11252272522812
23.549459975876843,39.51343712277856,56.06959624620505
32.97149343523985,45.73020909318136,43.17499733022346
38.75490527586576,47.374676741581844,29.584757818340503
39.543594949825035,44.467303899346156,18.008983737752967
34.585642669137094,37.64744664435124,10.193880486124732
23.987789459436822,27.81951710801041,6.9609030446863365
8.85234406030657,15.85464803362919,8.415013291365042
8.825938645478695,2.5038027110308616,14.320532113194272
26.51619027147402,11.464911855318954,23.696493016404574
41.640342909278495,25.049342631082045,34.822246479251476
52.04378493718442,36.92109580119228,45.664054956323156
56.31437841389325,45.572719982018256,53.18968497400079
53.88431542197273,49.675830305758645,53.61603521898916
44.98500857485632,48.49569536222917,44.20944593947313
30.567943389493124,42.158288403763144,24.461259502123028
12.217307625423878,31.650502249288007,3.612560575073329
7.958488615645026,18.553867552973955,35.54259789376099
27.501346699689268,4.647602855586716,65.51321769830501
43.9058526452674,8.395369186065555,88.22735991071721
55.01013978082878,19.125310042878528,99.7693557936073
59.37021352098493,26.309151144663513,98.3549774712611
56.507531029866286,28.91563177825824,84.98844040828212
46.94519206395757,26.220569233211933,62.15615441459326
32.05411355242646,18.068486714787955,32.984467589075685
13.7945938688919,5.181527172666563,1.6256286518163934
5.566890984047306,10.681704069914309,27.28061311345514
23.710111311011627,26.879314930072546,49.500178290804165
38.49699715446349,40.36700032884453,61.97544601907241
48.22158185991263,48.37260453183636,63.142924436608595
51.84883357986637,49.03914991384408,52.94711312426735
49.190463026614545,41.83403633225372,33.55300419911547
40.947909515473064,27.615880777208545,9.376741934355296
28.570145405260973,8.386424356577063,14.378477605781585
13.956136465376783,13.13325230395719,33.328296665040256
0.9028352262691522,33.98030979836953,45.18186735224483
14.235096630574718,51.37635874039626,50.24789929467821
24.674145908593623,63.0497006312905,50.15724605544921
31.306058551065068,67.49705991089236,46.138805104789945
33.639989928091886,64.17573258856349,39.08228451310183
31.574103666578395,53.57744155498389,30.175175969231752
25.40032304421789,37.173262813899264,20.821516639886916
15.83478753151124,17.213089782925252,12.462538450927543
4.018332291070822,3.6136758290825055,6.112596817228844
8.558263524763191,22.5908093973259,2.128107284066307
20.222413243369296,37.36453464124406,0.22283641567176452
29.354650216666947,46.24703155735412,0.9064687905414388
34.620486295367755,48.40993800075172,3.2910840579806258
35.1513427279861,43.94622006443013,8.703584631391378
30.67620378928172,33.81454871154766,17.758187902868247
21.588455461533574,19.688331121963742,29.297495354725392
8.937178809734,3.7125322774777114,40.70205361090623
5.6472311196505505,11.815241429846385,48.819365891393566
20.130737075093005,24.79739255214477,50.46701188335304
32.351752778930454,33.641483284813695,43.33553220880461
40.34463471675477,37.45683458153554,27.759572343901482
42.68253893002993,36.12351789896465,6.987992016545974
38.749740051320046,30.2244149576344,14.643561704846354
28.871035736127887,20.885563097615936,33.12632822213958
14.300919371280061,9.57974063039817,44.91101084396225
2.933514782927932,2.081935641211889,47.043823354193194
20.309539326497358,12.550422477181735,37.82728789458181
35.16525132460472,20.52841723277745,17.328699872204854
45.10005888173694,25.139671862559076,12.600626577166464
48.36331039978962,26.058112785260317,48.25604363767982
44.17488815347769,23.547861165916228,84.19321015973908
32.908220229670476,18.382658114477746,114.10434308743284
16.080942494811897,11.676207913034018,131.48668425612468
3.879145801525268,4.637797911024937,130.8971778679081
24.050850637918547,1.6805279925641123,110.56995543677168
41.50950211881352,6.535409747644072,73.06746924428025
53.804192614122854,9.52178808481564,23.6609556980488
59.31005661619953,10.507268742425488,30.375753713902334
57.40299145904571,9.527912819329432,80.42824347090058
48.48489912422617,6.724741745272067,119.27749635457141
33.87086528486831,2.3516894850172547,143.39317927468903
15.59450809111429,3.174382474953769,152.04035975348611
3.8372745305836,9.237895672492545,145.73562842769618
21.75154126779834,15.055022637302228,125.90388084218995
35.66259925095881,19.801032737979575,94.65651684637486
43.64382538391037,22.788422269706288,54.88549940561216
44.65930785410736,23.597210645983814,10.404096378532474
38.78809314459491,22.109194724689146,34.339455763108695
27.26026285953601,18.452430398873393,74.5995540507943
12.258846803635887,12.91706182897542,105.6399441849854
3.472179123263017,5.918246961550388,123.11193853871328
17.143794992279542,1.9699152014073709,124.07220583710215
26.429843490511487,9.931552483811682,107.93521649873428
29.840027768113337,16.891651434184368,76.5536315098205
26.91092236596303,21.67202864906825,34.52409222826222
18.19636256776046,23.286499493079624,10.77504743610042
5.104217362259576,21.28447551073404,51.02730954210513
10.354958017077973,16.00195010592584,79.57935931185486
25.869632809675014,8.570675185740493,92.64187243030597
39.14003014646351,0.6699216053937814,89.58055357052648
48.19455996087106,5.878369205889602,73.44655695454324
51.67764014945087,9.523171538835935,50.65380330634719
49.04185395727667,9.286930468420804,29.127995137705074
40.61116574183951,4.9154458404140335,15.5259428657547
27.50018604455956,3.0949960833743644,12.737747003372343
11.39875862344739,13.54304134153278,19.504960430690264
5.71781695938169,24.64420852175086,31.973776937598167
21.86606843525406,34.26108806904955,45.29930535192292
35.2743852260393,40.26246258862548,54.33118292442535
44.78177995995552,41.30148397360692,54.94909968888384
49.98372818369194,37.039174038110986,44.38151714713155
51.014527996827255,27.878596173881697,20.825822168125423
48.41912674064273,15.02016589957474,15.084035132101564
43.01683975267496,0.3135743159288324,59.148197477428106
35.7755430221463,14.079687793679243,104.36121192780938
27.70043595285408,26.128634754469694,142.99574818709183
19.726964513060665,34.34115077746535,168.3840195037289
7.705209695211797,2.0323626325993205,3.637240536473441
3.395771189371906,1.2066586845523315,8.118516189820795
3.3304651126293505,0.43598512955417357,21.422394846149327
11.949322215932488,3.1774919489092106,34.32006562218754
21.524618056700213,6.953505335343001,44.79984161414209
30.773918933148032,11.225529096680985,51.36190881650526
38.17868766794115,15.059080397121145,53.083267958784816
42.14455417913943,17.358651748173035,49.34798191747502
41.25607965184577,17.20122971539741,39.80421671854606
34.5830285039383,14.095114723168258,24.821598960505554
21.949771357810025,8.106490572638796,5.899288271990469
4.137945366733494,0.09868230127240005,14.871211475712645
17.02785951273057,9.343297085339206,35.30930206113695
38.912710311925636,18.35295530622306,53.12796993296054
58.646917556130994,26.14385547295388,66.30187296618404
73.68471673040149,31.88351545757635,73.63165358748373
82.1534751996818,34.74157555421084,75.07997739663374
83.00646592463906,34.007455442014866,71.1584185352309
75.98037043764991,29.214043677954017,61.66669005640981
61.50488116385241,20.37975794349231,46.031616549004795
40.652410703341765,8.187892686242916,25.089296149734665
15.124186120991427,6.050148609077287,1.7561864126834097
12.75512923689564,20.55309420252295,20.11619204579154
40.16730288245169,33.36820347035197,37.03667115971888
64.09734724173133,42.6742870574518,46.37252428422603
81.75930310845644,47.04646900035351,47.01245039310099
91.06415898615322,45.66890839038788,39.96552822004542
90.9547023029383,38.4656428031432,27.573368875779448
81.54155598421445,26.198623658046955,12.170110323237758
64.05924382455295,10.437370563489388,3.9737093416068197
40.66188636692325,6.644997947643847,17.882792858267862
14.154994463018138,22.61132629203933,26.108429372292733
12.270719913298175,35.186584992155986,25.7957646868166
35.3332396561621,42.644186230361946,15.513255212462205
52.00516825265443,44.06095011987712,4.123332164509817
59.9277106274756,39.39951721325139,30.357983030489436
57.863242843516005,29.432595679618597,58.97164069520818
46.05425627184736,15.590214722316738,84.7836587243207
26.35589493722511,0.21743967854757387,102.03091648300988
2.0556712413518494,15.799690122269002,105.95338457373542
22.653151051731914,28.92921336617025,94.8186154989419
43.437721026082656,37.65305315404159,70.16456755613981
56.624653538966136,40.64385659952788,35.8159227472413
59.839874629044814,37.48228387568931,2.874768724772083
52.369414399195186,28.755966977053994,40.36367263627208
35.20832783752709,15.938360924902467,72.70451507533647
10.824975264929598,1.0591449851823698,97.86739128448387
17.26560718518334,13.736469798247617,114.52818809860398
45.01321545701843,26.560915184200464,121.5488067903772
68.37442397903835,35.99333148463529,118.42822257768631
83.850053804498,41.12263987931262,105.14703183568571
88.98655680779355,41.48310215949596,82.63335352992561
82.77834106548205,37.00073461358863,53.58306896004385
65.88421147604674,28.0093531764488,21.243972814732878
40.59852703066354,15.311383181926685,11.401046568358606
10.535515376343692,0.21622101289210413,40.896879115991254
19.94656036271919,15.52308595146108,63.74233502403894
46.46273743488743,29.896216097006608,77.59324945585091
65.32138510783494,40.92474830631929,81.71916937126184
74.09386882858601,46.9886400842404,76.81601619784082
71.93270761877531,47.09830051535861,64.63183208022187
59.6325062947631,41.06875388578173,47.44829620385471
39.4387225787981,29.573747597464376,27.387825713512875
14.65077001674525,14.07138176776003,6.271379100804274
10.887886938311325,3.3869158529654024,13.687824983478071
33.3419737008879,20.439982845487464,29.42357679456788
49.42996705847547,34.75321808984444,38.06349633852442
56.89652080452207,44.36422146287749,38.381280418627576
54.81976053419012,47.96805702689333,31.07196052153807
43.70934958860114,45.086893047524164,18.554792237416667
25.387096967815495,36.12160653977336,3.9877078736398017
2.6620186267217374,22.284101555632,10.183333945703437
21.138832374103114,5.430240702335711,22.392372151276717
42.70554523406058,12.171579886500568,31.960943692454425
59.237036409791926,28.1295281380457,39.37853843314676
68.79409557770134,40.25326410045997,45.24873194010115
70.48898212541678,46.87834096727602,49.078028198692806
64.49291111354434,47.141919198320515,49.79083871220801
51.87367482789962,41.136142206640926,46.27570800097571
34.3343646535521,29.89211943483488,37.00088320557201
13.91042491978318,15.194282895413213,20.460683299664655
7.309083113867801,0.7279563262511102,3.78869524609707
27.38455835020951,15.552644061750836,34.24466268760965
44.664389374722575,27.203763190033527,67.03676185966606
57.85212663841909,34.14662317568361,96.65801773264319
66.01916610883325,35.6194832246326,117.21439754376888
68.62340053608511,31.768872537866486,124.02204306911877
65.55011987956229,23.640221775933806,115.08085690049974
57.17416548622659,13.000873652777331,91.47867886534293
44.41355633695501,2.0040064653833736,57.122254613302474
28.7069745673948,7.248311180147318,17.628555719782952
11.882830338666041,13.113133053550966,21.43895850910963
4.06696714185033,14.683837600063292,55.44711629090777
17.28126107056972,11.886196088380828,80.65489326071663
26.33992039355299,5.401246146898228,94.9174623091961
30.494686509607853,3.491146950203523,98.36230237584044
29.76997832703741,13.096394349213751,92.17973413383733
24.953380915411707,21.514668480304522,77.68496146044225
17.47577820918732,26.88842635268364,56.881191991715376
9.19471869828007,27.727890670863545,32.49781984496965
2.1203062857998525,23.279475978915215,7.496351336645833
1.9087918604953908,13.818530324340875,15.43144682733997
1.5795507231521777,0.709130227365254,34.328959218558175
3.5767527544465088,13.86471389756648,48.19104672838018
12.999912076554455,27.427034052859426,56.89805546000942
25.13169544471709,37.814341692633896,60.27313345647919
37.67725553133127,43.62749600912385,57.14207349979081
48.06597612510662,44.38850926044526,45.616082054524085
53.997276586695946,40.41138690371987,24.590325600224446
53.89877381613757,32.520422458916336,4.1898718493521345
47.19213939710691,21.816787557437223,35.89066693582455
34.34212356211858,9.56182473546199,64.7142974941143
16.728897525034338,2.874820319874882,85.59892468952135
3.5860080622512567,14.078449173938374,94.59657859010802
24.14531119708191,22.76848933180224,89.35660084035341
42.39577904561814,28.07126664913689,69.8882352323334
56.00732574059737,29.738077247296133,38.6691603985584
63.207122920883506,28.180390149698532,0.28686605444816776
63.071736647430896,24.265444031840918,39.21042972797925
55.7262143334952,18.952652974984332,73.58172555292019
42.38555505401498,12.961193590297237,97.7901779103748
25.175938591313454,6.651659465022204,109.00860365248914
6.77127910610291,0.1718403812161949,106.58327268903155
10.05453231867579,6.2590527181618585,91.88408387370677
22.863479376263253,12.13098661371864,68.90639861336587
29.908773379037573,16.64850859539479,43.23580592757049
30.37099933027911,18.96149701181346,19.797967761091506
24.46916824603348,18.486843158989046,1.4477333378101451
13.443597969491604,15.148793334764678,11.747693557385253
0.6268116391203894,9.398923214829757,21.13047395114461
15.165317254778353,2.0468845004456035,27.347528163049375
27.566968602804412,5.956865835297462,30.647535621666115
35.728128984247455,13.678679161829827,31.88295779128873
38.45928091884121,20.234538902214744,32.593605805125165
35.65833067124425,24.75102844878996,34.52295690738381
28.20366182586991,26.399539514496116,38.99295300059128
17.615216527301182,24.5724490316912,46.654207368527054
5.646846303916014,19.150398803475596,57.15846788919444
6.060017122760479,10.726051256149105,68.94601602790046
16.181162002126516,0.6229019303507924,79.5536592708242
23.762597799292177,9.368057617139648,86.15876114340519
28.208432954487456,17.457023363315663,86.18069054374511
29.456312082476913,22.464498513164788,78.68347028269399
28.031869757628353,23.99557017824789,65.0928554936779
24.818113201167787,22.23087120227886,47.86393843169549
20.82460446130675,17.800508143635803,29.145273381860672
16.934246851426533,11.60005530193967,10.48160107960179
13.701746959351098,4.61476342587967,7.020735774129996
11.274307407256803,2.1991940874145284,22.209917140274765
9.454615512244777,7.987366109926941,33.61763172427394
8.029736661083094,3.228045668385466,15.433128615298376
4.923616481670517,3.487298740537762,10.097886786779974
0.11849697570344771,2.859704406045723,1.7704664694782022
6.149034555410095,1.033035427109878,8.404171787076622
13.428863384870397,2.025843579692523,18.75243295040339
20.988161922174537,6.004330477022108,27.59847200938647
27.78027290315454,10.27864516156455,33.67383377214221
32.49830227505935,14.02726253129257,36.266020785704555
33.788936464024665,16.383962737700738,35.10620401968472
30.570834306764517,16.573291042474253,30.179564407656496
22.37199277364359,14.035974378281642,21.829255582365995
9.642040268479336,8.566587964699094,11.03811314246616
6.069241354417268,0.4338362996956966,0.23022975839633086
22.382094525287,9.624877196275467,9.04987887989475
36.73938841489971,20.453593957872275,12.87705324554467
46.90390716530065,30.474787297350083,11.03214052855765
51.268337213923424,37.87483480252401,4.523541186711174
49.07000705777099,40.97945343912815,4.681445200313618
40.413015877075175,38.60878758456843,14.10767980044673
26.247927287452036,30.385659838630204,21.356475854450302
8.300199263318992,16.87754331898933,24.261452619390884
11.097164224351696,0.46345198865100323,21.051751242640208
29.244540262834665,19.48211251403077,11.262798871030755
43.47058862484625,37.61016946280484,3.9139702322936905
51.58508179496196,52.2203819332878,22.370715085350408
52.2721722021258,61.03817662277798,41.76161118356231
45.332286370681196,62.559895997332866,59.659948798770266
31.6890472729798,56.378468898316314,73.38034299705838
13.203367686062029,43.33065561807314,80.07295133242036
7.64197547898285,25.359025792643024,77.66309354726538
28.100923323919844,5.1069084646107,66.14881042829836
45.50330527836944,14.636328956129773,48.34592041666508
57.563857285437294,31.473496822940458,29.39661217352773
62.64923149187494,43.72851438753299,14.526144053813749
60.00381252349246,50.51698976053381,6.118836911783185
49.89737849991739,51.63679810288308,2.9143094526029145
33.61551625554529,47.414292614467534,1.5658803519443214
13.259276773400423,38.63052975716978,1.717295847488432
8.596210620162363,26.522334912729598,9.936276400816404
29.294931455124974,12.757509784482986,24.28713307520523
46.45969388596111,0.7229375944040635,43.82265688120386
58.24003908180004,12.02894284716375,65.6549469150206
63.42808987656706,19.72355897610851,85.68824648205587
61.5054918322577,23.121721363169684,99.80141485823334
52.68540868648729,22.32815146333033,104.70851904034814
37.95865632048343,18.013468625765366,98.43274168987469
19.095325232366456,11.075983294554025,80.47722412828347
1.474899549148502,2.400044496180265,51.65652204768715
20.95166689368944,7.156462200255963,14.499209497338185
36.60554320594468,16.593138585891666,26.212349086566675
46.26193379556931,24.588719951508182,64.23400536986094
48.67064402003061,29.530468263553907,93.33131855060438
43.66896494231531,29.860559431331737,108.60781038516299
32.121898898902316,24.62136468080043,108.07993816954233
15.701869665282043,13.947307525843378,93.52922417884852
3.3694793116993704,0.7622256937677734,69.36704303436488
22.561678451338185,17.115253137669683,40.92786186905978
39.26271428716417,32.32894659984037,13.203151557236074
51.01849055227809,43.897467466874204,11.016438529387205
55.837061927913524,50.063241622550954,32.008579941696574
52.5447826485088,49.98529809300114,51.58230701611646
41.10607723014343,43.688966495644,71.14859919553038
22.77888241999017,31.951049800531816,90.62040892231597
0.0002949626198122609,16.23153975168962,108.61505935982005
23.993198528982496,1.356109004736467,122.93257815089503
45.7329420382754,18.164089786581386,130.32448859165157
62.1295378174482,31.360856474235383,127.31178044194475
70.96701892615978,38.51390208230306,111.25768415761205
71.19590241933007,38.23673745486258,80.9395591682514
63.00219246430111,30.636538017342787,37.852119928546216
47.68391174698761,17.32973217543898,13.412236280755208
27.39166061538514,1.0140115873892852,66.30380510915425
4.778888773493332,15.232175220342173,113.82727428680404
17.382651634629795,28.66992327094178,150.0820829563477
36.570111861966716,37.369606000864046,171.16315196949535
50.80732168905909,40.3447552984551,175.45844855034176
58.8484171221338,37.445162254193306,163.62342092866473
60.236976998025895,29.168987617828257,138.62161714515105
55.25642154474037,16.548005682302737,105.38401719873679
44.8138294751638,1.1079731629676761,69.33491659720288
30.302462507381573,15.205450988493277,35.047798517480466
13.46670444260555,30.22765578473298,5.601265800790869
3.7360324360172257,41.92964148102662,17.35995031871363
19.313844652807465,48.835930690570414,33.38831889663856
31.46584579415214,50.34365169537,43.56765323081844
38.824469431047696,46.80338411856564,49.81645583186864
40.67771734307021,39.31173202531137,53.63582631516681
37.09739972979744,29.30851595656529,56.01252870483944
28.925438994246736,18.176217055955966,57.53358135430274
17.638601770928215,7.006086146395753,58.24028085580823
5.128233253557469,3.417821994105148,57.4552747030032
6.568902246199755,12.467404542163225,54.17248201851694
15.55832095672779,19.49836860096341,47.96784337346321
20.36307659794815,23.81104905763091,39.10101447570137
20.159651173286026,24.793533311637297,28.299605925096138
14.954815314452746,22.194351944574528,16.707953708323725
5.659542988390033,16.386064066007656,5.495334727462823
6.005438381258533,8.453984400801927,4.563579129214817
17.788485381515866,0.03541447415386601,13.253144386596148
27.30863926494356,7.045912773007103,20.476761880364293
32.50212801812212,11.214882809218476,26.06660635204271
32.019672119262,11.48687988985493,30.2832537122602
25.46669476373237,7.628115362173844,33.581376135349664
13.455787364954473,0.12174418131935502,35.99614376115728
2.5022102806809694,10.000844145193511,36.57064868784408
20.239400547175688,21.343173465901145,32.84555247051559
37.24399628039087,32.28368915182591,21.665975909993225
51.002391075236766,41.09005885263148,0.8546590173211907
59.35801998591252,46.065354773557566,29.28455122995809
60.84698057299362,45.80114104766986,65.13503098208596
54.94570772261606,39.52108571418835,100.52846614722623
42.17999879657853,27.407974614438537,128.46806735766546
24.075543494801725,10.767914043133711,142.65206278171885
2.936624640176072,8.098413883959108,138.93040387735488
18.505690560138536,26.327820646701365,116.06997348546894
37.48250289160967,41.11294974564624,75.52347124311959
51.54850476240424,50.306690985288185,21.503371071258503
58.86745560341632,52.8245507911235,39.314476645236915
58.416163256172645,48.75442489166872,99.31184181686908
50.13238051832505,39.19213091831637,151.2035487642061
34.998843935080515,25.923584439222275,188.7501895490187
15.028540027854296,11.076534188902317,207.457940077741
6.914657024707786,3.1843702902163527,205.2500748488022
27.496720064318264,14.892923432593586,183.0828947957876
43.45146702993415,22.4788815461125,145.03040677336585
52.173063919227275,24.94337394831395,97.59465709220493
52.2068262392281,22.007665049840494,48.412978720855484
43.50140852316491,14.210925794851919,4.347612559995054
27.373146923793666,2.8863653881828752,30.514116656505742
6.218194100564332,10.024045053675744,55.6083934124266
16.92078756706637,22.286196029735326,73.01334958632158
38.81139135379841,31.750943126953086,86.03242694341372
56.42937292380973,36.713428526972784,97.52214365098082
67.28925531698508,36.172235728670486,108.52356129160329
69.72829216097354,29.940974215361752,118.47914382401606
63.1242400057861,18.6390251503406,125.79830435533648
48.0316147546493,3.577893054638541,127.8902139822658
26.20206670362627,13.426232285623161,122.00740278753933
0.4048949372960651,30.256758623151164,106.81850088820269
25.969208038926688,44.728889701378314,83.07232079861161
49.42614655678223,54.84999297419166,52.89518959545087
66.8882311806003,59.07526176516568,19.28040093930456
76.61715553940448,56.91773028371393,14.360562821477584
78.44923786064088,49.015112877307736,44.88653723689519
73.23111183012615,36.648890591273194,69.62044596654674
62.53217943553715,21.58000298598713,86.51689086471343
48.314782019904634,5.808066754406614,94.30368010118802
32.6347453886166,8.719534865277636,92.5992256626842
17.408651894855808,20.387426336368236,82.40825303677613
4.232348710990381,28.137247140823842,66.33993128109906
18.723467522880917,4.95333848241266,14.466024557969451
17.34741306008297,0.17632484883506808,22.022695735621017
12.344071624652873,6.322332530605841,26.442435085427068
3.535752030555959,12.563169765256573,25.783920681995113
8.585885455004082,18.03912390126575,19.444200508458632
22.850376790726017,22.11803772070559,7.605967277377875
37.50712975800961,24.43473117568866,8.869971564092092
50.42156316673083,24.787754085622737,27.99995448854036
59.36802330795776,23.040935899887803,46.822292830461336
62.383883166833755,19.074131383309297,61.994994205373565
58.12963474763246,12.842558355730123,70.56271397469892
46.23534311417182,4.613136487180713,70.84622979945763
27.59072215565968,4.7570159063141295,62.378614105262244
4.367933252570583,14.032832888523489,45.6650739704473
20.372127147108355,22.163996370276646,22.484039729521196
43.29295366088061,28.420861097151686,4.577037121034268
61.37731035334867,32.36455790772108,32.375489299604986
72.40788247976819,33.85318569423746,57.290639099760746
75.23726360974786,32.82436468031599,76.3550767728958
69.8377460563186,29.197371270295374,88.00479367962075
57.20673267980228,22.93953563946345,92.3363830270236
39.18719889049377,14.226367508682541,90.80594479305175
18.239389896775464,3.7130349294254605,84.80575366865004
2.8311935429911457,7.3589606431515575,74.93354177814034
21.201090099530123,17.278509553751213,61.55982202948467
34.424557798040766,24.226324398743508,45.31310599559044
40.84071829438531,26.78539878667757,26.860722887018333
39.86960150025464,24.35317603353607,6.819547078329944
32.11046179591261,17.344693115842457,13.952095366003933
19.206745140130508,7.098930514503113,34.34053893557219
3.505415707637527,4.428774565813688,53.050575290636786
12.373362808014212,15.051414847635774,69.03113353967464
25.9340426665332,22.74693080189123,81.90675574097273
35.11303213125127,25.975850244293063,91.6588038522626
38.47817562133466,23.909335569511253,98.22279110690934
35.35896113938429,16.582689749668187,100.96441824551007
25.951350331503473,4.927075644921979,98.55834658963187
11.367214702428178,9.373397901910183,89.7844802367481
6.435629519182729,24.203149153078794,74.17733075676587
24.903467723203978,37.4382429519698,52.506678621428094
41.317664080969266,47.33031165340271,26.797837846251984
53.295650687349706,52.72428233621214,0.2424227017827116
59.20738163600297,53.07451807053481,25.6738882090404
58.400736705327375,48.32276082035172,46.9345993145484
51.19727192021581,38.764643653605816,62.50857931282404
38.71000565333787,25.023664123131525,72.2916501427155
22.60428479296149,8.135296411365232,76.85187757971481
4.88164645910424,10.377129904568942,75.8833772746019
12.314896805660345,28.560560609790155,68.49137613638774
26.91166199893459,44.291012668155545,54.96541008550149
37.15732021929563,55.68331636523149,37.55214743861326
41.9033766477945,61.47479622711185,19.877769159050587
40.83442501236782,61.23502474156913,5.54501785487291
34.5430578544871,55.35813690771566,3.238900140417686
24.397690039736133,44.87887566615394,5.951044614987038
12.24406685695859,31.248230059320242,3.2091885088417467
0.060872340412477355,16.18036972343522,3.511175622879195
10.325721438488133,1.5565530273171635,12.180824084143167
17.427190924160637,10.710505566447836,20.98686969698999
20.18834780765051,18.93932703106177,28.577198534213256
18.081172128431724,22.054460976669507,33.674879975461344
11.252245701692168,19.935351341006253,34.86654444853975
0.6566760794030297,13.555356157900391,30.985675846041403
11.923905109260895,4.8127989834775455,21.467335724541403
24.07955797983761,3.9162041511932393,5.9943892666833785
33.22277051273058,10.353980175031122,14.941121631387988
37.172765168831155,12.798728855769896,38.616088853471766
34.67207056152667,10.369432465944099,60.32256875645015
25.66422751864907,3.0310324944058618,75.17923534593788
11.265802096157566,8.501501081014291,80.08473270399223
6.520819032765693,22.866641798715687,74.66059652780643
25.225519002928912,38.16238343835492,60.442997590572745
42.29660153679135,52.119226267444226,39.55584656840964
55.38764400975022,62.396603316932264,14.40530126047344
62.576581282206284,67.00582568892062,11.813571481372735
62.56575168892647,64.73907758000088,35.186866830091155
54.89087406887698,55.44284965164346,51.8985166254593
40.08984401544534,40.020983522204205,58.81092147480861
19.74539250139695,20.170258194535588,54.02710396033507
3.680274749893476,2.000933645028992,37.94829359921686
27.232877390797764,24.290194449511926,13.944613641230866
47.96189366680911,44.56406146777468,12.644694817606718
63.38427740380509,60.831811328097295,36.426884359958
71.79248868563697,71.34929571754797,53.049556578428444
72.35991944832817,74.8302538964738,59.492054190471904
65.11391392138863,70.76871081065978,54.46341284360483
50.849287401985116,59.716938698869875,39.04866516603319
31.04482289496199,43.33266266244377,16.454023263479655
7.801663512099527,24.096052340885613,9.40104105529725
16.27184963458373,4.746267279515702,34.75781145353223
38.29702046331526,12.313431297647089,55.667267145561254
55.49250093239837,25.411603912840697,67.81423770594174
65.60932861813689,33.70716415140465,67.7004666006523
67.32713841507405,37.033946026519686,54.063795350644305
60.51512914491755,35.676403786858806,28.311549612687408
46.266405381557874,30.221273865525422,5.873194383923959
26.699753384348316,21.52820359281736,43.12135069375854
4.603733562926508,10.771658517798276,76.80997282455165
16.993034011592222,0.5834640583480856,100.5219162252547
35.23899056357229,10.961508550349832,109.8620163970654
47.82432642352317,18.963952122659542,102.90319001098531
53.26566468843508,23.632331205037733,80.1048102217952
51.08206729330398,24.57396256336948,43.84893123585197
41.853517508576736,21.914587444491893,1.787115377436568
27.1335616680815,16.126594293834657,51.01609242094521
9.219258542066187,7.872776802755115,97.67390718247647
9.1921111441046,2.0352798964142984,136.2568405874522
25.416279947328746,12.574449431071706,162.1261216134011
37.16376050944281,22.42524613883045,172.22369575629045
42.82444783990983,30.02652530494286,165.86729648436997
41.64924878613621,33.84797143698936,144.95907828664
33.81330934826873,32.79120995480544,112.80751154240268
20.370665492387744,26.557971831277573,72.79274355233747
3.1309345264125503,15.813257829858383,28.38983653557563
15.529211656078504,2.0783440186519186,16.738965128635424
32.922325567407995,12.593138096717874,59.285689501859906
46.37943655552186,26.032135744741552,96.53748124470322
53.624107982774945,36.30325086215831,125.86445208721516
53.13624536149084,41.91574453309053,144.7969555606311
44.44076082024474,41.93267831431323,151.95588008689626
28.26468327957129,36.04306505356044,147.42413590219476
6.519926275381326,24.64247168833283,132.73276891515027
17.918868635523374,8.90878011993933,110.33072341627998
41.60395633153577,9.207586585928553,82.89182195435353
61.010792748621064,27.176695776686202,53.516017467483806
73.0816543616479,42.283146392060274,25.617533407811592
75.72272795990766,52.14799979524188,2.1368349064754875
68.1851147371802,55.229555504303214,15.26155639979352
51.250806821188775,51.12498539518591,26.509384350539786
27.151672385407164,40.60219179347935,32.56563387899443
0.7568185373032076,25.382381623017967,35.027412813535456
28.523453390256854,7.751260586867978,35.868264535821154
52.25864972266972,9.861662931701305,36.90007722424561
68.77294486001836,25.24167635135628,39.60342471782243
76.05222922469049,36.63914677909958,44.90816273006157
73.49731822602624,42.91138595201938,52.77315291737227
61.92694289398675,43.60511120322508,61.96254917076868
43.369629306125695,38.98066359732791,70.29978031794916
20.696675661768047,29.970770114987893,75.44530956697858
2.8215966147653146,18.07883190494906,75.7107558686305
23.97230922796281,5.1905317429332225,70.57743946890521
40.02845686261398,6.694519507202711,60.33927799994643
49.44422513536865,15.938638789183571,45.895602416767304
52.026840218197485,21.586648949229897,28.991050560952306
48.522094612956835,23.388021020218055,11.923057776742489
40.37954063759652,21.766006830955444,2.9824001810485137
29.43955866238247,17.64581668967193,14.115485992044952
17.60103809599753,12.210370017559773,20.98376465725247
6.534191917199511,6.628290355365204,24.00348505930551
2.5249908472145366,1.822464274885039,24.101966190590144
8.743328563580926,10.934912498787778,1.9586158995229281
3.5464220389990655,8.09114999004834,8.811379007283284
4.0595823951190635,2.732820562664349,17.472420240423826
13.371233755156792,4.947111331822178,26.571768213686443
23.27400200704714,14.30126530045116,34.10003713129533
32.36746371729193,24.240985052579642,37.81368171262872
39.138930710454694,33.337917399931044,36.0307134699373
42.140596191053504,40.009681118726185,27.979187025022927
40.21801383134597,42.7947664544978,13.743156152085593
32.71675510162529,40.63695707443755,5.6430675232930225
19.661127141933484,33.10927314149389,28.37907468762633
1.9679940910683649,20.57079392904719,52.07019505204449
18.39176191067183,4.252947945595023,73.54277291765446
38.72059910100675,13.91078763512037,89.32703616329393
56.27655716807274,31.701651432420118,96.70212463746141
68.63131151644124,46.92891353364171,94.0052586478393
73.92986014465808,57.6816927100797,80.85717398319542
71.18390030685444,62.61575141360791,58.52999388356266
60.314579952730035,61.12379381038771,29.26897524897503
42.178435751308015,53.45300322379636,4.226724289256933
18.524657910970138,40.72185317038173,38.41480071065044
8.176700466165904,24.734031041177662,69.29829388912967
34.923469802293425,7.657059330960556,93.51042485148426
58.511633265024734,8.39642070129728,108.94067219680423
75.92594389137119,21.74523600574506,114.70590364374893
84.75862957699556,31.348319868430377,110.7840879797671
83.61328757385365,36.8208615244264,97.9806916346946
72.34709524649745,38.28566782283255,77.90187705539222
52.1558966381234,36.1883043656341,52.57239774498259
25.460996673456606,31.170660359149966,24.236426167823772
4.396255902486462,24.03067519210335,4.8431383078033345
33.58699710757719,15.714119200920024,32.557841194110495
58.30554774226644,7.253685095225961,56.59255302175952
75.28308461191783,0.34950076456767326,74.24946639297008
82.25364532284436,6.286738717347669,83.219816420114
78.30011440174229,10.065318078106044,82.42965447281
64.01701623380569,11.50697194589117,72.20876956930918
41.458572200108094,10.659565837715967,54.38128524158065
13.859820038907758,7.694858613309783,32.207449780312686
14.829562478271896,2.8821204043579165,9.536966445610203
40.524779997405375,3.3084631893034286,10.14754797801951
59.60480781013941,10.065666252084009,24.18128412204236
69.43920825390549,16.1957629152513,31.03769371656531
68.77395597446872,20.271756225567746,30.49816311224941
57.92649444889825,20.98425242884157,23.632143411927682
38.758705748633055,17.577410478667396,12.758194872431723
14.413877542185952,10.181325132914806,1.0576934528585766
11.172534264113027,0.1263791429914952,8.122714941389775
33.91932696776382,11.564920065843097,11.57421110424406
50.27911408700917,22.087755804819857,6.592525680981437
57.82647086363006,29.841078767874897,7.498496649024271
55.63927331046264,33.49757121619144,28.07728342497646
44.3927835159525,32.4224686965878,49.84474589338205
26.167269060063266,26.704958284627892,66.54706791502184
4.040813725817151,17.11467408222076,72.90434693376972
18.428858014409805,5.02596335218913,65.91304145992254
37.74892193912111,7.72282286487531,45.29408353154258
51.00299775718248,19.06904736335616,13.58162779854085
56.25827860386901,27.064064633280392,24.544962427656795
52.81629018771282,30.272649793681975,63.418333946576396
41.28997957974397,28.10263775591373,97.56390547803903
23.48351621586507,20.93993377245662,122.6193198094252
2.082315329291125,10.051555815275401,135.40791322278653
19.78032774006533,2.707942425196075,134.3928916003077
38.99942712533927,15.282133418073297,120.36594217081766
52.92973982364652,25.777256893022464,95.5845535518366
59.69841599520676,32.711269553949045,62.9323305401943
58.38887398819258,35.1337212736983,26.224132609982515
49.108746520427566,32.68281000578556,10.272371822919737
32.945593878844555,25.593065649563535,43.39763166716903
11.831463731400712,14.653172195865386,71.69089121396829
11.677221654549388,1.1333755063308575,94.38919947301663
34.70046794152652,13.341801477162113,110.51457568150992
54.38922727165719,26.990278613306142,118.83128004500192
68.29152451527041,38.09253299609893,118.34012463557266
74.65385176649886,45.186901047963495,108.95501816872351
72.6043236570199,47.25196951317509,91.83140284922564
62.22322929425162,43.871557742493835,69.34038594892887
44.52488301569999,35.338857083655526,44.61869793717401
21.371814448435966,22.689374243861373,20.991873094179617
4.674212837781784,7.612864617863653,1.4792846169770637
30.584903358771115,7.800542779414186,12.097196783592604
53.21178379454715,21.42573662865383,19.463315949560645
69.74130470926288,31.496674019543292,21.415411569115637
78.17443585033664,36.90707029603803,19.56833664411242
77.68768993173374,37.32360758864999,16.085246053607186
68.76903687909619,33.11576117504057,13.251549058370909
53.07775302492525,25.153646131167893,13.356053618150613
33.05760596499588,14.601468526728354,18.553493878630874
11.453187445982678,2.8051425189654062,29.85978112787414
9.112066965834092,8.761557968729296,45.986702917234176
26.403282942141566,18.56580438983576,63.57763662335084
38.69554012052137,25.153849761560064,78.31347564170252
44.84052190414427,27.39119506220651,86.22336861820966
44.35349356829026,24.74817848430576,85.10216190285352
37.54493582715237,17.477066634441147,75.1341202414343
25.62755509040953,6.593062878360596,58.337604104576236
10.671226347575118,6.332307694546914,37.53420995990341
4.6807732136458275,19.50304269957903,15.7794512637265
17.71069847508595,31.203725726958353,4.168187385027419
26.187896306408366,39.97886672292986,20.782539658693562
28.81822313424297,44.70224081735115,34.24495090016347
25.448782855492635,44.59037278390508,45.811054547698
16.979381117813052,39.25862733981338,56.29517318444591
5.064178234946073,28.867078014588383,65.39741792530961
8.276323024110269,14.283319872646691,72.17415820387431
21.016422775321953,2.8569774811591193,75.2202325889022
31.369745174214252,20.29938346318824,73.2485475076798
37.94241924077726,35.553627856570884,65.83447607145341
39.85146998285499,46.403778096252196,53.42720618384146
36.823005435828826,51.37551479129868,37.47447574303422
29.249432115165483,50.02005436808507,20.143280322082237
18.156934543215858,42.93951099348147,3.6519730440509637
5.0626178391752665,31.577808099226278,10.002983311766632
8.274441520320408,17.88770762105346,19.53744027849243
20.15376780327034,3.9719342942943787,24.73060529032362
29.18955334775456,8.234026551462113,26.143109765293595
34.463912503101994,17.208231678269993,24.74833441609074
35.5698047526337,22.030281932554377,21.86907972925422
32.58072347119729,22.488604143240295,19.186493260333563
25.983123931460263,19.07866613887351,18.48991596979744
16.592483912420114,12.889389430847784,21.268619597118985
5.474847005359572,5.375145057918493,28.131176074050874
6.1317599610120315,1.9376375074303185,38.34767829084939
16.91701022511908,7.729537115729086,49.5951342483869
25.6159518515796,11.093432409734175,58.25937822683483
31.135162492827504,11.621858191218433,61.091421418712414
32.68938160047501,9.39059477686535,56.67571030096914
29.93111752326262,4.881826544958971,45.350454831630316
23.05578482120811,1.1240275415564482,28.799603601631052
12.86490037714919,7.652795855593061,9.809347184839353
0.7472129927149731,13.64177931483082,8.468439434485639
11.455923633935118,18.07411804601373,23.7829298803374
21.716480645914224,20.131463801289904,35.71664984763503
28.180608611465246,19.33175126277723,45.40477224388295
29.545365929698157,15.616644764017286,54.386108578967544
25.36691710759701,9.361545148602564,63.337827198407155
16.200746989398287,1.3054173989202422,71.2730925808703
3.5231818078504245,7.569686591850245,75.98979174476725
10.525163096982055,16.159457797790658,75.32709755399385
23.504449501922448,23.324923801917652,67.83854310485737
33.0701758030039,27.96680490548361,53.083021643726944
37.827035974469254,29.418265601842197,32.06518072116871
37.54033716364832,27.588488087901318,6.575540958191933
32.6377681315933,22.77273548721356,21.50415632295117
24.09440074678117,15.664592627481918,49.766998552815004
13.276424370524257,7.292325883433551,75.29715483434767
1.7462724747740621,1.1349737877450587,95.29596819699054
8.946621709214664,8.439574871062826,107.67356913992053
17.4752829715416,13.70871806615894,111.23501936885475
21.501195775006885,0.9213762701119724,4.438116014064089
19.34401169968071,4.052033473229782,2.947734270200025
12.682152723049736,9.703304846677558,12.932415537048653
1.5346072226198748,15.055778090343914,24.081663897575755
13.143274703083005,19.231655396453615,34.11644429222064
29.558926290568174,21.618534175982337,40.49038738437315
45.368138687178636,21.88768106320034,41.27845562126928
58.05864907822571,19.87919284628813,35.55047018186086
65.35284459628842,15.493776686682363,23.59512842290821
65.5594397917692,8.670354909648523,6.764883636294616
57.843039075987214,0.5180328043161231,12.986364514061808
42.43484537724362,11.625174408551695,33.283433294605906
20.79574466849971,23.577207664394415,51.47165990395607
4.439543647768645,34.791656584098554,65.05091614844589
29.900604980425424,43.65598971969043,71.96197402367467
52.100047387484295,48.874672273593504,70.68775264428267
68.03784845052799,49.661640796949584,60.90288433715499
75.73738687734948,45.817776474993416,44.101560811832684
74.53699607998682,37.57047175743304,23.351316859612066
65.08866295892054,25.409083711922015,2.549024830011078
49.133867217160685,10.036615765160295,14.636691148266038
29.117894244335407,7.552690741124445,25.729348407553626
7.7836970076035525,25.897279612910815,30.190040144255338
12.170895537051933,43.04304016748932,29.856196261975033
28.362053192540312,56.771963701812055,28.07155470059687
38.93646709999086,65.05684736980702,28.12535926693764
42.762308994039415,66.59313607809209,32.08326467600975
39.57833889057184,61.140558392076066,39.80763842232295
30.072712292320926,49.55286201094698,49.085740299958644
15.823476598060006,33.505983863101754,57.17940534060101
0.9227992726998744,15.065962749886207,61.854766080517805
17.58681761435906,3.675715528337135,61.664086763940915
31.656350650897167,20.77824763247306,56.054175709258054
41.05321495475115,34.479603488256295,44.56242857105648
44.39427501689217,43.21912612338018,26.55943349206025
41.139367567691544,45.805172257128866,2.4729870929278612
31.630068634834384,41.74821235172325,25.601484681087914
17.032765645022245,31.598424667073107,54.12595767688867
0.8115321475071589,17.068419113010012,78.40160394484052
19.624685167877214,0.7923103149422209,93.56616690661598
36.993065894529835,14.264536314545776,96.28867934825391
50.696389445606236,25.525690000994874,86.17187730046642
59.003853968827606,31.348655548411074,65.94377944763366
60.88485315309635,31.20337038948375,40.45705723285634
56.09812060807623,25.494502459884878,15.235922665327909
45.16319566134101,15.208327115222543,5.184426986957856
29.261790196244725,1.619159812414367,18.692667248513754
10.102728607850388,13.818599137719604,25.488437307031802
10.2347599322866,29.416515381313666,26.526679036322722
29.480530771538636,43.194373140530054,22.887966087489232
45.39020177889855,53.025480013800895,16.427852745048312
55.99532957198716,57.03344939052114,9.830386532392628
59.86667229024829,54.102545958968236,6.055428969842328
56.350470418064994,44.28783339332876,7.5936252406959746
45.717504216817474,28.90762351702365,15.412478268305314
29.180337213661304,10.236672931007021,28.36697927553474
8.774545141870629,9.057747595897526,43.4478707025013
12.875707649586833,26.49603278304556,56.53719160539843
32.88840147815844,40.18158413299668,63.62955479608781
48.52245151948254,48.91465467613243,62.305717090269056
57.59511551820991,52.09727700827958,52.32099199178873
58.849912214903114,49.60500500454299,35.05762905053918
52.199028792199606,41.7623844524381,12.903812265637853
38.776377136903854,29.44836540026445,11.143803047110856
20.770306117669087,14.226903796627486,34.01006325219344
1.0530295401211394,1.6648214073399876,53.340675630988564
17.31665856642084,15.594194591896448,67.62721354359553
31.596374792121992,25.07584890395419,75.64477805878407
39.783179067175844,28.42002947003898,76.96520268144789
40.90356002723968,25.23138693686173,72.88693843587433
35.1268301546255,16.53530582662689,65.70295503352219
23.717777827827845,4.4635688211899875,56.8818944487808
8.84008025945451,8.384423287416425,46.63284456323452
6.795625231013255,19.652268648072628,34.78108536807287
20.400227198413983,27.729814937908895,20.59630873286417
29.623099687516408,31.897723359541295,2.7153643751242913
33.008639816284074,32.13887971913535,19.376302089931215
30.258411508435692,28.79653910886878,44.30919366538192
22.210910169291008,22.321739811842072,68.95407041481256
10.556051110628283,13.237166169026176,89.52584518266029
2.602930251999533,2.2755870660718704,103.1179263675107
15.199759654995331,9.469842502453757,107.85156754526898
25.53537981773261,20.56874250711476,102.35905597835264
32.42652963232921,29.524436156297725,86.07586932663996
35.21339813484932,35.19371648441,60.01909506087217
33.71026522180533,37.11944307624949,27.194437383105676
28.171267135580084,35.584160105064136,8.075976006959895
19.281730694857192,31.354345422772262,41.04236156108243
8.143188237437263,25.24787414408039,67.1192299445025
3.792676861525775,17.809601757958063,82.97721455161336
14.898879840725874,9.314199198646126,87.77777610157652
23.630559033608648,0.06672751680097096,82.91635388972556
28.767049750931776,9.221637146023856,70.54351641423497
29.57225649838122,17.275701238844807,53.42677367983015
25.834503570900075,22.494798454552726,34.985223423489
17.81155877571692,23.527928647837754,17.722695539163247
6.172601173283955,19.896814122822217,2.8909755052449433
8.012536662071813,12.312822368056882,8.669435774907607
23.26455581286837,2.5068587686059747,16.388654722999746
37.72092959848739,7.340115530458857,19.769292512313793
49.27210673313436,15.266164900235157,18.837716219980464
55.86883434541302,19.97943821208674,14.96430703629424
55.94324263514014,20.93955827545904,10.62312685326964
48.81535363484868,18.146727627378123,8.45606126574383
34.955928354796534,11.898307075631346,9.993464124145703
16.00346097524032,2.737169146268016,15.02272117228599
5.469107193955105,8.397492748578355,21.989018317975447
26.3865624887662,19.995524175004736,28.654749160686656
43.707291480284184,30.017072616632653,32.69452280914544
54.92692991941031,36.28962918395594,32.296630464712834
58.48583334394765,37.153413200589,26.80428074735553
54.05563208136087,32.02946375645816,16.669887092158895
42.63955943230316,21.62593409888216,3.2446213042666643
26.450323871512545,7.698370487043477,11.209321827946923
8.562447027721023,7.504754128010715,23.815757358763594
7.645847809321256,21.797586674105634,31.20962822340229
19.153327078818002,33.36204675367454,30.56409991978146
23.883895774070893,40.779181878872784,21.219046450215174
21.067458276412523,42.93566540174084,4.709704927114759
11.295560876711408,39.049507497435066,15.89530181496809
3.7069656351514095,28.94022285616473,36.20568332096133
21.47352745545512,13.409083413514715,50.94321532277382
39.19813778495191,5.545806232921848,55.27224027103688
54.0781018629634,24.925186537113234,46.31615408413336
63.59892142315466,41.37281648266817,24.055699971105813
65.8165155465383,52.028567877261096,8.211357232210597
59.67961988261912,55.22179961092545,44.88443896774184
45.3260090675376,50.732163689176794,79.60646969902196
24.23727439275065,39.571587886157324,105.77676682905633
0.8835817837598191,23.493439636261005,118.00619370186101
26.58393903812678,4.558849976429252,114.03174211294687
49.35948179330595,15.064183610409861,94.60715411831512
66.3503828627066,33.1226562292072,62.46759236230197
75.81685639642025,47.306433958647666,22.159898519148296
77.26979711854064,55.49936964242406,20.11925755179351
71.29657223951514,56.26935819890066,57.85586201466696
59.24136608660954,49.37480495264648,85.91453097014252
42.92805133370433,36.019660151092815,101.45546811291096
24.489477727345985,18.655567326654065,103.86827875431354
6.2372625927829635,0.3513421739895515,94.39999530107696
9.51468044077255,15.999251655489179,75.78160438862211
20.751358392319556,28.287987916976448,51.52357533989453
26.363865467532147,35.55009856859668,25.320768026340815
26.384133875950518,37.86652839090885,0.5179542794264914
21.749501997599157,35.943195852123395,20.55712224577381
14.073077047629535,30.780884498681523,36.552642466222764
5.236842369020505,23.470158988191887,46.83420200838635
3.054533642234027,15.132963328437912,51.70559696775656
9.61111515253297,6.908586888307639,52.10753394099514
13.874856049862593,0.12971750370813293,48.77908447655349
7.795219173109362,7.683391397376777,20.677666044682397
8.095396158033,6.395083970646866,15.227503491930738
6.627960358880654,3.341912865591792,5.744658864460479
2.928978224673927,1.343384236923033,6.768478233896847
3.0293555155041627,7.2141141077181485,20.818776204440418
10.732361149293915,13.536547422228475,34.42594204010523
19.148969950876758,19.336397266293524,45.57955897809372
26.872674732274685,23.509945387264676,52.60769535969944
32.35128069273154,25.009525886920397,54.10477128217177
34.149554106312486,23.089024981427787,49.17432397755715
31.205508682038662,17.548194305282408,37.975224151583284
23.08392229280457,8.86691704381103,21.803483654280555
10.191768089163252,1.8153534781101561,2.8034934631144264
6.15860103546837,12.865828737641065,16.249739235646494
23.873592947971034,22.529236115337557,32.69554385974954
40.337474727473335,29.408949617570855,44.78498356746313
52.83685400823275,32.75296534229184,51.3888567779937
59.106679812673356,32.43428338476323,51.97951004271277
57.82371159865425,28.71911758413502,47.259881845435814
48.916462163860935,21.98666019976008,38.94027335637391
33.59037198220306,12.61798695254736,28.740748684920163
14.060947080880469,1.1220974999425593,17.73030994587599
6.8878355123085795,11.593652711987962,6.635918496229801
26.385785741504495,24.032113720009523,3.830986418613566
41.885378699199116,34.22872409817343,13.199516372098014
51.45839952273092,40.18541153671109,21.348809047752727
53.99332708075399,40.45241175640713,28.337582444127083
49.31125841425415,34.61031272331091,33.87699557633765
38.226810854786976,23.39850871135397,37.283945779527606
22.514688255742403,8.441585243352002,38.033682884906824
4.708620421806279,8.248303494945828,35.49201842290759
12.27852439186961,24.718722224254364,28.297750911320268
25.66595180464174,39.26103567105653,14.886608542124769
33.32806807491676,50.321752021654206,4.6891444721604305
34.174699123550475,56.35714859562313,27.74188783887611
28.301180501739367,55.88775567850656,50.32221335612166
16.90548961716666,47.87527020797149,68.72545744588308
2.018799954380442,32.3274408971052,79.89447404884841
13.859088859139428,10.787584157637896,81.92609208091744
28.117871301574407,13.635623280400653,74.44194378844733
38.346199587842825,36.83168785683527,58.4494851390927
42.60759924895704,54.7218800130396,35.826310624310686
39.70229975591611,64.33956243555068,8.688937606425242
29.39900887845242,64.50291243507957,20.600530233495018
12.581344939676967,55.871600602727675,49.02489170234909
8.75553091874997,40.44314894842467,73.36230215190861
31.714760519211705,20.813708153983203,91.52238469704017
52.92724354323915,0.4030553118154268,102.74410493565098
69.11189143762654,20.820592658077533,106.53406679038373
77.62744005871606,38.25639892550965,102.78228938181117
76.90095952731556,50.67129621200422,92.66025132488427
66.64350703934295,56.30982226174205,78.10406637830307
47.85217903201215,54.09371316536301,60.24385583005124
22.653370140542734,44.07751777104936,38.69150255439995
5.986575467942817,27.675834995179,12.413903754078811
34.63680192500269,7.471251686486405,19.107330044802872
59.827384716204485,13.372287228648233,55.092860543997205
78.50344748173312,31.85468153710781,92.38953047799686
88.45025279502178,45.75333640997833,125.5489899101176
88.6121812294176,53.90511837074221,149.0197692757526
79.22297295029688,56.13202624057675,158.92712606718928
61.72347785848045,52.97305091213711,153.5091124093464
38.50987537701699,45.38796525505646,133.21223075569236
12.568825078296484,34.52980682267577,100.18131044061897
12.926734580473035,21.632966965810258,57.71224719000173
34.99926824331769,7.9505768055970085,10.16595425656913
51.20913680880248,5.329537718910503,37.525565701322634
59.95136578983089,17.1738410622753,80.44430872815877
60.672722639623544,26.77271168077912,114.1067453301209
53.94639647439687,33.580719379724286,135.13980889022264
41.354054400340836,37.3315584738745,141.9631218889071
25.176776950118576,38.04893593509982,135.10107389617278
7.949769436845178,36.05927564660599,116.64650089561484
7.996180569361824,31.987602552843434,89.64393964315778
20.874585176193918,26.695089167542893,58.10673728815385
29.60568198653845,21.120025051116944,26.57800151785737
33.798824016070945,16.059971647530272,1.0884962997509917
33.61082068906019,12.008723691590426,22.72025723623068
29.57886560120952,9.122735648649233,37.49669409337261
22.49729014332368,7.3057521985979985,45.400128241494706
13.343532748210983,6.3527499398490965,47.4371639994076
3.222370434271491,6.037940872780647,45.10259598177781
6.691237319209863,6.066517321071099,39.89543033763771
15.234591228961264,5.9627208128871825,33.35438877868464
21.38803218466346,5.025119564503188,26.542188374231348
24.419581027387096,2.451483989377854,20.09380345729638
24.004112465051264,2.347838484714603,14.26458974826388
20.319660646035004,9.392846279300173,8.93256822311497
14.09781950814777,17.942680265213777,4.482050894950572
6.5820246510229135,26.611373452238137,1.6443300948666808
0.6377355431616595,33.76862119948919,0.6159249390711797
5.901920126534744,38.02581137420262,1.0148926723454448
7.806770897464503,38.59822883771326,2.35797393278922
5.518390977028605,35.41095777492848,4.7288082801694555
1.0119385988430225,28.946069433732013,8.492605168445438
11.006916535728225,19.990823253012504,13.675567231975592
22.971428493032107,9.45953698039714,20.3397326669181
34.908061831698944,1.631600398220564,28.423391609187565
44.59765857696654,12.10821801259035,36.84140152818022
49.89712931948566,20.66732126409265,43.2576826677953
49.05579077045361,26.076525548095724,44.871883606341086
41.040994495694136,27.501065795953494,39.576950869417026
25.82118804986746,24.803149030678256,26.649829558232128
4.534600226844547,18.63146224905364,7.390141436442342
20.547453696820487,10.240424653992104,14.872254621525187
46.314905333953746,1.1154122687315782,36.02437630272772
69.32925133129355,7.414734303411176,52.5947424086446
86.43297979262391,14.386409820593132,62.96054672612197
95.304881650514,19.167866587117608,67.1466858925117
94.81889266509738,21.294804838647966,65.54315506887637
85.15066844532203,20.366590833626276,58.726243334416026
67.67633350283131,16.09910372871863,47.75060088497516
44.71545891930432,8.527819216758896,34.342845683227026
19.173416693245056,1.7428525141965603,20.639851284729303
5.844554102557747,13.4411155057565,8.51935106734485
27.431912730295753,24.777097440766806,0.12855843275083242
43.27014782334302,33.80956991396641,3.9478387821252148
51.949189808479375,38.901433944048385,3.5833344529872133
53.164220664668484,39.06459018725585,1.5304937738459456
47.71832903533736,34.101249832596196,1.1056617611774968
37.32234223667601,24.557906161412372,5.321624253022014
24.251369141871336,11.578649314331663,15.58842901590325
10.928660860564865,3.2375043153700758,30.776086282911855
0.46175418345914143,17.97751481853734,47.37276838683071
8.256486940868456,30.59224342755374,61.17423582782889
11.47415899874768,39.14320618042034,68.97705839243135
9.86678280069156,42.15393070061393,69.18537766506472
3.877729268951497,39.00512711406699,61.78847207536693
5.463673363296859,30.212155966455146,48.089662217825605
16.675939977514314,17.430271320927027,30.33801944517551
27.983204609957326,3.1304765719023635,11.074692518150558
37.51385250811367,9.980825505426205,7.307685544259936
43.53246507910258,19.612163819626222,22.66001491403233
44.68682731166856,24.37709659709958,33.564040239539146
40.24921177415229,23.972845712158612,39.50060561985615
30.303185270151165,19.04308221644099,40.62999542710173
15.817937070697482,10.849989667667627,38.18423799797162
1.4330602737063145,0.9379237316638522,34.25337064844423
19.11720108090979,9.091633427930178,30.78631083143797
34.70053821103818,17.69081544152014,29.174438723057953
45.83561307198426,23.447614363808135,29.78864513972399
50.71068873327215,25.24236989880345,31.65091113103993
48.648518273566836,22.831387594427547,33.03163928821207
40.1598723377636,16.95223520429552,32.19076458038771
26.524219339698035,8.848195823325506,27.94452827683293
9.66531523804193,0.007230166562758941,19.98727606104197
8.08698476417248,8.156839201217474,8.967387794026878
24.324120648124715,14.590220291927169,3.4601562793263736
36.94174298719928,18.765445416130174,15.029724521896744
44.509847755856974,20.669016492046755,23.7212930884176
12.804145448672237,5.824889749975392,8.985819872625918
7.492402593867559,3.944653655949184,0.5696335214026621
0.5795294749048039,0.75439977417801,10.738272836014074
10.499186012512075,3.914597666624787,24.821878187129897
21.013537175355758,9.899416205574896,40.76802554442268
30.760692580881212,16.541577259359475,56.212782834370955
38.44867868832266,22.739749138158892,67.5363713977924
42.94307169471484,27.19666138672116,70.6361251632844
43.34009122376391,28.784013701359772,62.35862135554
39.053610241025424,26.820917674150486,41.98833473594668
29.95304421177026,21.16792209599994,11.701696650036157
16.595557883584306,12.229966078303036,23.906927889601615
0.4541620739497054,0.9380342160800131,58.89094263851622
16.328614485442596,11.49627820619472,87.75106423024285
31.58725777728185,23.85563031969414,107.32683769448835
43.506265118829084,34.75988436254611,116.58971254244813
50.85325340112202,42.54547485552904,114.55383371408215
53.14211735135827,45.55429202210075,99.94640832801598
50.46036281682663,42.60229181759377,72.96045813658446
43.27551462104632,33.565822889772825,36.162810976653084
32.31428895875329,19.707286880023627,5.987858829567813
18.520042961269862,3.4433390438967497,47.99971999377626
3.1721422029586064,12.303626308569791,84.28089029813067
12.063066693785622,24.943132007764753,110.3191871973213
25.24931622605615,32.80291626203504,123.89092345780885
34.48185306770824,35.24130522283085,125.28262123017227
38.29977166017054,32.39666212496536,116.25619852097074
36.026283966791766,24.815797037864357,98.93983592885438
27.94095338529725,13.28729459012825,75.3180007067477
15.234627156772705,1.037997257276376,46.86334158817347
0.19017607833433092,16.41317679065936,14.749024102834168
15.985790947311683,30.435784246426422,18.843570140775007
29.643609134702118,40.402705411005975,50.3467318236103
38.79471553559889,44.01487210588804,75.95765653536759
41.57799055143949,40.104704820766784,92.38529711806079
37.03698035149593,29.03717154689015,97.96282848674014
25.437509398336104,12.589602295003473,93.5616271672624
8.376827924364846,6.608985506378042,81.31739398212643
11.430742305070973,25.772406384246416,63.67109440471179
30.675865921334047,42.4776815467871,43.37833341794465
46.14012060577492,54.86128022515367,23.041040113366417
55.33777915818693,61.57774802829819,5.0155586629167646
56.921326129398054,61.747465217290305,8.952731065584718
50.77794436100683,55.05867253914354,18.125380777686992
37.88474237440745,42.009136980987506,22.233483701542667
20.054756622817568,24.08286233941543,21.59930816672932
0.3270158511027334,3.661562926042127,17.535638738587373
20.55569309623954,16.380214453293142,11.897653534082895
37.888393361655766,33.28549895459596,6.780384807305204
49.88831225674922,44.9933740726904,4.124087625407184
54.81243300345734,50.47220436494035,4.790167808739732
51.956609424445375,49.721947275690574,8.29382594292015
41.817600423461414,43.53081039067656,13.263117391134255
25.994212872833806,33.173479555002466,17.561194946935792
6.854237973709794,20.17495320063355,18.708636679298937
12.923985525677063,6.170082731023065,15.333065330111218
30.78871949342744,7.185212135443551,8.034061578733805
44.62829401632174,18.336172072481517,1.1420297190832898
52.923041062073096,26.01129024927181,9.631809249084759
54.78187481972837,29.40708323361012,15.215046932100943
49.95484928960163,28.30286224533124,16.364096158368234
38.87305703865347,23.066326278664683,12.331043101247909
22.709447300052492,14.55294789525281,3.440180870248825
3.396426403260391,3.951428501908387,9.347590809250187
16.49102336312839,7.3653149228987,25.067573090209006
34.04580764603803,17.979087693400352,42.2534542572108
46.50659005821963,26.574185310660187,58.29522952074138
51.79173876255051,32.096189987026285,69.66496437191573
48.949351190016124,33.90165057012919,72.97327072051533
38.38914600484466,31.8564635722122,66.31219414462365
21.81920835657503,26.345244308155,49.789808430879525
1.9147884507623543,18.178213658411096,25.344276229656558
18.18082365602534,8.419665837368632,3.5752986737501726
35.38181308148579,1.8046199839005708,32.75692122520394
47.084083576350395,11.469671489970938,58.21790625492379
51.44459155925761,19.758928369824712,76.83526686410048
47.543228552511785,26.111255751260963,86.62852479755135
35.48470937205243,30.215416744427653,86.83604201475045
16.470502545245267,31.967533944178967,77.82770172406458
7.203735702928987,31.41304077429756,61.115926025641556
32.31896548382834,28.703926583209558,39.384704686035334
55.14391655690952,24.096916292861774,16.010211398162227
72.07401483730554,17.988481953399187,5.778168942608543
80.35330208880214,10.95758472712344,23.38166215761002
78.63407667016791,3.778982496058799,35.14629626892542
67.19763296355246,2.644910613790726,40.758118036431235
47.800547220295776,7.460083533454513,41.019037594444825
23.219632065642614,10.093674298576262,37.171392108065994
3.3209083782461497,10.438587893509096,30.3530702036716
28.636390465365697,8.898543623492342,21.401918689581397
49.89697923863501,6.279325044662262,11.44968890530416
64.82583659334598,3.586143346133616,2.1377332525139687
71.86529408522838,1.8073458504149362,5.202906591780909
70.37189449456638,1.7505533137802651,10.134982277959848
60.82594431866103,3.951199417022546,13.438260873232926
44.90975578986628,8.609913645453242,16.64983826592183
25.328051497770502,15.502554014535017,20.636070245748925
5.350753013112803,23.86463154028212,24.816159327261513
11.841661118393167,32.33147898394574,27.184494569298643
23.80590277249032,39.0438865257529,25.374906876203465
29.2660562246214,41.96963701780346,18.362248898590547
28.214346193371124,39.395080181171174,6.908998833181749
21.70168367141112,30.44270948039833,6.840581694823234
11.459530680615305,15.428263863612878,19.898393172353813
0.4995119066601707,4.073293841607999,29.736705670066623
12.202555609200237,25.48693314161205,35.61836313960464
21.911473072363783,45.74336060667318,38.128663556248995
28.22940765877327,61.87045633679956,37.870344655147555
30.185376419586635,71.5183396109912,35.276654393413565
27.330973618515937,73.31915073160935,30.32599558262654
19.833391936368773,67.03567279959555,22.43765716308935
8.52043099682351,53.51295398812369,11.586369778402386
5.166958773180461,34.478802176258355,1.234667226188656
19.362101231805774,12.255871394758518,14.00643481913831
32.082034421372086,10.547694128718653,23.948649003267512
41.5713207279809,31.340840947099213,29.086707402081984
46.593274969180044,47.834436055365444,29.420190491512304
46.586327829707855,58.30384669961754,26.828224140001847
41.66046147278334,61.82712720345432,23.775582433113165
32.48475174236355,58.468296205082126,21.403350739568964
20.127053937578207,49.3376380320733,19.34357362347313
5.913052263443735,36.42938184137006,16.728577405621273
8.650917421574212,22.206298005546493,12.775363749090872
21.942037588782835,9.030933775181252,7.517526680088526
32.354148257797874,1.3757038523449459,2.084668877394359
38.52429722496102,8.242045489631446,2.3202941108906434
39.621034036841785,11.70482659550745,5.012509719341593
35.58972706259835,12.466937788309115,5.084163590119117
27.2210646369348,11.348098887410153,1.646699085638887
15.986125016176599,8.983373297216719,4.819577457835721
3.68983077324407,5.808657880502484,12.63384776695679
7.924712750557035,2.270752629433054,19.91018746081792
17.468210095682686,0.9367478478566384,24.87105179539623
24.011038641840177,2.824790413453344,26.108096038780907
27.0437824986869,2.345950598329649,22.55992589719645
26.41201367679907,1.1838899941571261,13.340160937061928
22.322618952609275,7.724311679293661,1.8805065456527295
15.411634049272257,16.409390427059975,22.321223234441064
6.7770632647370554,25.772863505189825,45.38758661256384
2.1215350436086746,34.19917900129232,66.70308689260814
9.735754881373177,40.348145511253094,81.64969884143404
14.79350376014408,43.360129043277695,86.72909244110296
16.7290023346647,43.06672783333845,80.85890608804121
15.690882593661453,39.839328253941034,64.91972324146467
12.233267180019984,34.18376524278141,40.36366668418811
7.1374508139164465,26.658509724065176,9.553421780319828
1.2270415798692973,17.919715858998988,23.647726287373835
4.744513299192081,8.801431407781246,54.35169823078316
10.122213224989117,0.30498920349072317,78.55918084806585
14.33195922287733,6.566915844547916,94.06586478486201
15.654391130927912,2.3896970278718133,7.502732761288938
15.522270140469136,0.8365977566435407,16.75863520681769
11.616253185170047,1.5150523997660514,22.266107799987523
3.43839318043924,4.501010350070942,22.911057784988657
8.538977028222648,7.823615493684929,19.422117633567254
22.847744079175506,11.04327328136208,13.573445929575922
37.269426381936604,13.592041529853313,7.152232738714312
49.25565199046787,14.835604111275197,1.4067243260885038
56.39801379806181,14.183298010638325,2.762424049876171
56.84468695695117,11.218617133027074,4.747650337053738
49.60920763212612,5.83203316933539,4.282013611768588
34.775539617984144,1.670893137588066,1.0548051707785924
13.597665052339773,10.511536019597937,5.795025543301491
11.583487098017056,19.49748853351984,16.137208663996272
37.592064245503536,27.239608103663837,27.134344607120923
60.80540511980559,32.419897884677866,35.152888465177064
77.75969981832743,34.02368570946195,37.595305821533536
85.85316636349427,31.509306286641383,32.82165127808974
83.8794974248081,24.8826706906499,20.611087969150468
72.24265335784294,14.708223421266823,2.619915047668008
52.78650125945015,2.0833310911752503,17.65746756969594
28.338946523048836,11.450767258410462,36.28393006467741
2.1581452516393345,24.08414298523252,50.654123430411914
22.58127375706954,33.99784720645871,59.749334069179945
43.151414330630324,39.6778908586292,63.805394106282726
57.472472642075985,40.22427343361801,63.51670574491214
64.22751242869101,35.56871710036737,59.541021698384576
62.95795025687487,26.523708286869677,52.67369361312665
54.14211598088024,14.625782068545456,43.728660096885314
39.20980253673369,1.8044796029141166,33.38485732619241
20.426071250908617,10.017381286438019,22.28860454810955
0.609316672783578,19.26380349036342,11.541369221949088
17.27158702865438,24.890039199242228,2.2951775602374447
30.566411180287535,26.404238999687205,5.324908506316307
37.38298310347672,23.788284302768734,12.138876528265993
36.874117701590166,17.416746650441848,19.563927841831127
29.33730615138349,8.065206082045075,28.783416556494558
16.129592850768802,3.024048617391207,39.5136761896971
0.5726846934112056,14.142152808476782,50.28198114457187
18.10071311342988,23.30454296274016,59.086886943296946
33.66623656923436,28.6613191266344,63.57361749699724
44.75012449041895,28.992817820451947,61.815656861618436
49.46199189440207,24.10503869139393,53.41349020371163
46.83217997350043,14.925204116429754,39.781053375360266
36.99256076977297,3.194180896807335,23.419592724353322
21.197013223416477,9.100593023047002,7.240802109955297
1.6462831883770221,20.28418421292927,5.810613925686604
18.8736395972265,29.29177788331054,13.390236523216643
37.4701723959782,35.60740562870389,14.406400725899738
51.63452547624805,38.971493651296356,9.133220283923944
59.629036639764884,39.10979390714655,1.451995582305693
60.685535193778584,35.72152638649782,15.936310502259989
54.99687652419218,28.762095792469964,31.96143710305003
43.558878019904604,18.819925480262494,46.28275414838378
27.952899865696804,7.280503386558549,55.23301902431178
10.1376312287942,3.924381671428762,55.68526392031323
7.728387728383906,12.911862042618958,46.6332319043558
23.473091533002314,18.514889984992735,29.31038838763198
35.148093128120635,20.663828624525472,6.2507843837716095
41.307407098422246,20.25102169100417,18.89354031033498
41.28267234818793,18.57688883899702,42.15084607604118
35.364851753367525,16.685084430419273,60.761490253599256
24.803627364388735,14.94483364783966,73.61701394284275
11.611761327746196,13.119117350292195,80.92610104486333
1.7896884067823318,10.820771251081645,83.82779311367077
13.007800047969054,8.039304503331383,83.99371744799936
20.075087926461624,5.406604364452327,83.17432123787991
21.73983394722804,4.002433068303368,82.36929594237047
17.641136530204818,4.816191020798489,80.98352096037694
8.36085886596159,8.194451357059426,77.09753976000184
4.640491155103468,13.578983054251207,69.00625477719741
19.202026303608122,19.6727752916094,56.1035965876601
32.762726279735034,24.921673340957092,38.50738081775294
42.757388166602524,28.026322443604123,16.919516623747082
47.05101575019736,28.223674038371644,7.403044198491113
44.33432986710176,25.263167484116998,32.883857251435074
34.383694873876436,19.185615665293906,57.814359083956205
18.12869028016919,10.118900157775757,80.45048416867267
2.467766957528843,1.7109500724632027,98.45152822929255
24.700304421904168,15.756039952050855,108.91721642455605
45.53412274169544,30.892275456963855,109.80228165651607
62.06231473776047,45.33957540180609,100.84890476239485
71.94591884719144,56.897067602046945,83.5359099362844
73.77025972583746,63.46234250903829,60.57798223018333
67.24004999898702,63.62523500756647,35.479702496567576
53.17840092071128,57.085694235489306,12.261679640658715
33.35317239926801,44.72339758706461,5.630478229514949
10.173356983380504,28.320182085703365,16.731138188744946
13.670718679817963,10.104342926654468,21.674352658659416
35.53995168697829,7.695676868986555,21.956695384285375
53.10502282516788,23.173388803440183,18.824318830182573
64.52425159960069,34.90787589102213,13.29998273852275
68.58493534592378,42.02108284818515,6.577045886783369
64.83290181583776,44.20643817087297,0.005177364209956274
53.664864660344556,41.746823529494435,5.1491593153012625
36.36670296146896,35.48481992489539,7.552266734219064
15.054492401575102,26.70187861072408,6.031704746904481
7.539513211335956,16.8970453511805,0.23298894334482265
28.417200976569777,7.518511864307026,8.848366870193868
44.727686493711865,0.2557788240517478,19.399429205440974
54.173214121467076,5.6170452012579855,30.064752884537153
55.351007624926666,8.118498768649312,40.04402734710422
47.976365049536845,7.630349430618605,48.02850501364516
32.95514425443102,4.329617944474715,52.436590148950025
12.311344800389124,1.2425080083497948,52.178338737226056
11.037449385733497,8.125583624824193,46.67671043709597
33.64944173093668,14.98389376867093,35.950298454568305
52.02836370450906,20.30600243973652,20.422625520372897
63.14067332675831,22.74269996522272,0.8459844979889838
64.90351548161179,21.435048966831793,21.18958245132971
56.56657920320666,16.18100365709485,43.23385245677577
38.91423455670853,7.392983110245826,62.56316184206015
14.232593143042187,4.102273339585712,76.79926316678493
13.977686491400346,17.274328363618118,84.1779771342226
41.53600166349243,30.973845584343934,83.38395183668091
64.26491924412026,43.87620312893148,73.69771628757567
78.6738480289752,54.40339250632201,55.57008020058781
82.5375883073313,60.79488080736725,30.311756185980567
75.25763413293592,61.42334056031128,0.4526939345663287
57.9206376986954,55.29353855293619,34.06230725232814
33.06865419032542,42.49903769642603,66.89482865286907
4.255229301450096,24.390343016936818,95.5552593803236
24.506454060257898,3.333580310286753,117.0530899471411
49.306495248992995,17.863978510566948,129.09267676825576
66.8543860663142,36.60127230669402,130.45663736147932
74.8903558035805,50.937837551860135,120.54485176180721
72.45343669780553,59.719362730763805,99.47595141976439
59.99429980154982,62.432314871841946,68.47701830367032
39.31377146503482,59.01470565015819,29.805814259305627
13.312423385604909,49.81445077436366,13.357170698246831
14.42634643158469,35.72925096691083,56.996343230955986
40.149749750099026,18.393104508101302,96.36262695972623
60.4531378609443,0.17724205556575465,126.67887158915153
72.70976195440394,16.14072094020585,144.3705816129275
75.36162238274515,27.997692245769482,147.63146551859705
68.05998226763302,33.72310220561771,136.5132324650572
51.653267899603485,32.972480608375,113.17208839141084
28.05637834830814,26.734876692789435,81.54747785909153
0.03479413555414225,16.923578661322807,46.324154507532995
29.096057326726378,5.752959757532081,11.922266873663762
55.842869159544485,4.801351567871658,18.453464657322073
76.9523505524119,13.265795014632342,43.144585409531814
90.34268343970237,18.79144286870136,61.06418393044193
95.3992272497488,21.067374408476574,71.41930698747255
92.50302128037256,20.13506295875492,74.34689490254382
82.87662842471522,16.377506673436947,71.02295391483906
68.34702502590058,10.545370703810962,63.470237466658425
51.07079418968375,3.7199865719161567,54.00382136016789
33.260462500789586,2.8455339148863694,44.648099721483895
16.920139710398583,8.002173997212628,36.74923241735683
8.279886468864342,13.39601825649848,3.1943956162578213
7.506907352885133,10.1450000442452,4.056125941723759
5.4079567691624515,3.362687315408709,4.729900127938643
1.6896013942886707,6.448193283428931,4.8004019229165245
3.8187555032121914,18.015664227127086,4.261866082749828
10.97063349992135,29.55632131574465,3.074339170730352
19.134601651585054,39.14331487518421,0.9578066159134081
27.15500954755282,45.055114690135646,2.585835598559727
33.52271997811149,46.0121354639093,7.900010461258415
36.704691603020926,41.29873906848643,14.896044515991955
35.51683546105452,30.82329313083311,23.14203507929715
29.449052554068743,15.19184431630837,31.514773150312628
18.867406830179554,4.166728904857473,38.01446687386929
4.93557464275508,24.976393215727203,40.438915374709616
10.720895080166239,44.37996156626511,36.91856510917013
26.27885023277188,59.4561165003564,26.411546465372265
39.848940594020206,67.8544721297548,9.394961046929305
49.61973503328281,68.35872216002129,12.055178748102048
54.04404334364188,61.117498892532275,34.65375201901825
52.13425116799793,47.468608424792514,54.50201216186806
43.80063615039041,29.477596229795793,68.06783607070231
30.057155325327,9.405799774312971,73.01711182423409
12.973192195206165,10.651210365167161,68.29098005660157
4.699653430002503,28.87129895038975,54.015574335880274
20.10969378437643,43.641583087884825,31.64784926715231
30.900351176951858,53.4892283207652,3.9521871324430458
35.63644628303785,57.17946517428569,25.25996138556568
33.944800800810704,54.00990196088411,52.01562225331253
26.422753833494387,44.1608246981381,72.84877309031478
14.434229316859781,28.888846810195094,84.49508095554147
0.09796013290324258,10.401186528049523,84.61736752334963
14.877255493215193,8.5807217594437,73.15221110112867
27.466344758516616,25.406061495325943,52.159614938600306
35.61026815116408,38.002138034526375,25.019551634407946
37.626276985216826,45.122620927971425,4.232861189440323
32.77267338891097,46.337010097804,31.622213376309094
21.4555619763543,41.88331307787571,53.75981808026358
5.175285710721513,32.52070279322877,68.15764802523884
13.77768688203838,19.47537918950518,73.59276090375604
