12.38584133789296,9.952399361208363,4.2048913762674305
6.8572638288529175,6.635156366328416,3.3558523887761016
1.3608303817921226,1.047782341632134,1.7361106509665167
11.720562302592686,6.530960216621894,0.5091033089616291
23.248885900601802,15.411251940984531,3.0805537814269752
34.547596131280535,24.496210537878238,5.607493912570872
43.9143318153795,32.394615667526274,7.744845837225621
49.569523160724465,37.614243169042815,9.218743342051402
50.01145472819404,38.842242988568266,9.831974827876756
44.33635898072535,35.22264546792013,9.463405733600439
32.46870747820993,26.55531825350312,8.118745897799824
15.362708901231944,13.446857172710477,5.959213048944454
4.88068397091708,2.598450932913103,3.273511515753472
25.468491758964966,19.425962361691965,0.4172323244318076
43.76454142690353,34.77753684868932,2.2977429876865663
57.60628690723667,46.64566162764656,4.641361475313141
65.37594635755025,53.481735273123334,6.462343966094669
66.17383515771053,54.40080293748619,7.737498974689205
59.832136274797605,49.246521628773436,8.506488563930757
47.02197937158504,38.629948541890045,8.76301491606002
29.316352300191298,23.910489843654023,8.47734596885657
9.029372211102213,7.041214571110586,7.601549128568706
11.066697872406804,9.680595916893797,6.029851491153888
28.23073434194476,23.994250066507185,3.657243485775201
40.22513322207117,34.055787602179564,0.5147562135046527
45.64282798712866,38.708326969637326,3.128624279599999
44.0726699681862,37.633582823165604,6.784036784118038
36.05627354823558,31.341387225862544,9.927498210637031
22.9636046300138,21.032791536098085,12.211056745195561
6.794381464647244,8.397600319400421,13.425935312440703
10.063650889335582,4.616536171150502,13.332744309698937
25.092990991411018,16.054793101787443,11.678993317092402
35.98235462368165,24.212066911944262,8.343994623529145
40.98565316584945,27.861776577781253,3.4671979168859615
39.223266569842,26.438436437168914,2.537977875436522
30.849041443283305,20.137500011037464,9.073353712343632
17.026961417106605,9.905271122139494,15.3815955086634
0.27130333822145475,2.6922442003215017,20.651117494303993
18.588491098860057,15.713569047697373,24.17743378267552
35.33990844354466,27.142843470344857,25.38818051115361
48.156688774225664,35.199961807199244,23.998633075929312
55.18618202171888,38.61305631793081,20.183994292953667
55.33202475113529,36.7966880452181,14.454577980127711
48.417945643566505,29.925940598182407,7.482291446919954
35.25191886031302,18.916209142636195,0.028113180996474488
17.55749751083483,5.28877181510229,7.481368195536023
2.2537902107811827,9.07374184064989,14.373668825451345
21.437755316776027,22.21751984865472,20.10034443590521
37.32981764924831,32.39380882193155,23.92373274890322
47.73824072444674,38.28704506868513,25.30173890326388
51.26200080400423,39.16508960583449,24.192842952933415
47.48151370540694,34.947019182353166,20.969759818360583
36.9938156043676,26.21689887480094,16.21373101625491
21.319411772751337,14.19685383400023,10.673899684978998
2.6877449161480254,0.6396879836349282,5.151649965299501
16.271925515515722,12.39487026942014,0.2583106137776276
32.878695308598694,22.86936730939607,3.588678728217774
44.7649702856988,29.15721801396135,6.099145644961003
50.20327081686814,30.394336029273003,7.248893060443488
48.344226052772584,26.65995328240784,7.209280594110411
39.34755344460147,18.905116389068905,6.1337020544146466
24.377196064764558,8.671879634417314,4.22903558249369
5.458493587111596,2.2834361885693975,1.837664240325415
14.794633625961051,12.329633284310555,0.5953720280666315
33.55587512127255,20.14651865953749,2.564959892423293
48.19702666712622,24.756568876092388,3.6113014932413146
56.6731550311475,25.504355490335666,3.4252861410456523
57.81350870551714,22.093893276173304,1.9980030801633197
51.45640716158134,14.714435985496717,0.38731995092025284
38.438061662120724,4.178073817925818,3.400879870938082
20.469710362886754,8.049091887650397,6.689177707310043
0.07886333943011624,20.028205078262673,9.819103198453147
20.463092188854965,29.74345206468842,12.42968928376458
37.89667971002992,35.56753916638617,14.294749287894625
49.93528406687622,36.60558005268015,15.264615720096616
54.85694674476786,32.78558270561562,15.295101264976752
51.95498912953633,24.700859339832068,14.47987669077582
41.689742384547856,13.337124113893822,12.905940977595746
25.630543891660427,0.14650311346715628,10.563278498647698
6.177385286549731,14.472922225048553,7.486732679105992
13.842797334008646,28.18773108976474,3.8196332564041775
31.608074340568123,39.64624230976589,0.2553220814178889
44.689097249482316,47.16855293219635,4.5353155150450055
51.33638197144376,49.38152396368779,8.713141169079408
50.663735840397706,45.62808430661744,12.340501992597039
42.74977364345779,36.239966614206246,15.039322894416024
28.65449509282344,22.53222570914003,16.658485034774486
10.333329980110282,6.5126082271729135,17.214996030707045
9.594052310063784,9.562479061356019,16.83386082182068
28.231496102483877,23.61046681611096,15.615600801211123
42.87179815803138,33.998752971978185,13.580856984547047
51.44269344122589,39.64595784513438,10.833454752965977
52.823712873360165,40.03271802320628,7.65360166768665
46.9597269280213,35.21343458480746,4.456978147990429
34.80111407634477,25.861365028251246,1.6564602135156328
18.11359542090026,13.290323496500264,0.4812539419884849
0.7977134156788808,0.6519169897243223,1.8645046899555378
19.376376233645008,13.842720232265286,2.6154873870108335
35.10086615265839,24.262437642151006,3.0214996776192034
45.80049843170093,30.388293733432732,3.361721640455351
49.96686650637936,31.44194039181177,3.8469591082329395
46.99575024858191,27.4380856401119,4.612262499671658
37.315934707243954,19.087118704471408,5.6413305128597475
22.349570327694536,7.6177275516915435,6.70214978973443
4.283968181079214,5.40709801299079,7.462751049911376
14.28203007881869,18.243230082143025,7.740390454392016
30.727706806899565,29.124943595619673,7.565653617741256
42.77294522142961,36.47652145545803,7.070466023565283
48.76260251500613,39.15346920557146,6.4000169073665125
47.85020646358699,36.6591992573103,5.708310242804198
40.10643321160042,29.271277056023283,5.148736387475224
26.547004664173393,18.011093865514006,4.765194219398108
9.029824758011054,4.4659495471143416,4.487994877413516
9.988106937677983,9.480014010780929,4.194928289840924
27.7945772734965,21.935288527799496,3.6860446722639812
41.82366418285381,31.243817128463775,2.7475147964002393
50.05640218479225,36.17475977105901,1.2354938128280983
51.32440154352599,36.06187215221957,0.8988022472486742
45.45122296663029,30.893302624057792,3.546562588282911
33.25345183529872,21.356614146038606,6.437652606195284
16.423414330363286,8.792454738260606,9.224707197869325
2.7082439945916263,4.977498907044953,11.53128492775953
21.484141544409734,17.91656618695779,12.984932762608985
37.273596518756214,28.08465820992656,13.326113252587954
47.84770320399998,33.94531497479137,12.513264801014266
51.705661091186414,34.59179538847589,10.719647467178534
48.29652879717989,29.856459255014908,8.24854710043514
38.10577975222867,20.33067267810398,5.4799224620051445
22.587039537318972,7.291087337593191,2.8728393170216107
3.940972705561398,7.457106389006568,0.839897964614018
15.21192792805279,21.79778656870483,0.486159301639982
32.18800601937138,33.604151630709545,1.3172634439447648
44.60083972397059,41.078031566768864,2.0609583388762576
50.6948817074327,43.04799900878197,3.109463160893104
49.594948050524515,39.17391889583622,4.71113212973974
41.4443573184639,30.001690901118454,6.947532437925729
27.40407082476356,16.863575278690558,9.71180891300367
9.501649869354436,1.6537335118163183,12.682365429023367
9.662730395419546,13.481899457319418,15.36181275728106
27.31791235185481,26.459605243528433,17.181414267281088
40.94209350849686,35.522308294057055,17.62095257235033
48.636250496630375,39.455396297205574,16.370169581204912
49.700721426797195,38.00170440993924,13.509891830400917
44.65323743486238,31.86403632061018,9.445441632091514
34.747598190663645,22.302958994179715,4.724136585254316
21.74576229418925,10.927890989697161,0.06591638479298559
7.637281830606304,0.5672421890847927,4.398768312374771
5.649635249204385,10.669037455418087,7.849622521027186
16.51271974008025,18.260704957786974,10.099428822776979
23.882745239273277,22.75974735492917,10.986972059410933
4.242384920593514,7.661156323969941,5.304089636363029
0.9667784555047724,4.421509735733462,4.485679886173123
3.599488019762858,0.6627045063157335,2.616684741591182
9.224519840385321,7.1947251054147126,0.03996403688383249
15.429105315864923,14.448489342555622,3.0565195654265724
21.374053054416155,21.43865110049867,6.017904041405724
25.844570099553973,27.044438606637847,8.57274126680185
27.410846506691765,30.15014207878882,10.438508069472544
24.8232882624157,29.828584360071414,11.409261759626652
17.512919410951195,25.514040762634934,11.319255340820485
6.012539889728791,17.159847067028007,10.095408964366888
7.8645132160377695,5.4043890018160665,7.837990618797472
21.239811823385345,8.319125222141702,4.812287257921819
31.04796908623817,22.015151857586293,1.392249616187979
35.21079751074778,33.626481888170254,2.0059007395405586
33.255648273998155,41.351242514285936,4.964669525667326
26.399329116313726,43.906296183806305,7.164804027710958
17.188243256637328,40.80183097289304,8.489317999822012
8.61360839304136,32.4066842534847,8.995138227472378
3.1742572215783853,19.920176447143334,8.828278282403943
2.1606381176875034,5.1971632398726015,8.154107286103677
5.348272219814484,9.587976947518973,7.109649979082223
11.222973488214802,22.30210051386996,5.741362247372796
17.511307415036395,31.22227605187525,4.009608754679981
21.854678851048206,35.279647345736706,1.9327853136612816
22.38465154457269,34.148608016709595,0.336039535716708
18.028767598317465,28.210563616426775,2.5378762489482587
8.577699192421354,18.412161717246423,4.352154255028423
5.395456091709659,6.115402306773301,5.4771307748142455
22.624864688634215,7.04862517587295,5.673443944440539
41.21715028590824,19.322251107872166,4.853024426219467
58.70108315349541,28.99348232606379,3.2096932299972774
72.1809939249036,34.640057653772736,1.1733424065852025
78.75225781656547,35.39334969905903,0.7405494378417465
76.17369403603944,31.140290651806147,2.1019108159104
63.639377713523906,22.570193874055196,2.6909450672187742
42.312788138950545,11.020164811337215,2.4401488290659263
15.310918819281735,1.8520761304988436,1.3814420935012068
12.978962919134114,14.452759968708124,0.261612405734476
38.079814922347325,25.51237575643299,2.049648452970943
56.627523241353714,34.12180966274068,3.407307452934345
67.11272864591179,39.593360435524055,3.696450183034535
69.86740730507478,41.30460863898056,2.4171038025434544
66.36414080349383,38.68800138352765,0.5030811269434105
58.272866637130726,31.422843722832926,4.615539101330076
46.802600533001666,19.760402841263158,9.118502059554148
32.65618689235307,4.800138005512383,13.112135443899046
16.491869768858702,11.489665494783264,15.729512558906139
0.5276238465293964,26.594794497446376,16.23144170289029
16.543847013816887,38.02768678533764,14.239500886241032
29.412697542699025,43.92515917721202,9.872797099955546
37.52631788586736,43.44705125157904,3.630476285255964
40.549412308824294,36.85251098664743,3.7448734320750288
39.57965070978956,25.28584016918244,11.349417418955369
36.56836584945876,10.434927596273353,18.234830120016007
33.301704841523325,5.771878917929536,23.51309870665975
30.480917375847348,21.34024498521554,26.43587056326623
27.405813206491658,34.288694372824025,26.530265994946912
22.426411528195636,42.76887930993231,23.801342942067794
13.888834625119474,45.31894328440448,18.827054319197334
1.0817492724030282,41.22620598560586,12.57947942541779
15.293884207512358,30.858387160965542,6.055290255884764
33.30718294153285,15.765861191043419,0.02019868426951641
50.43159896224469,1.548734359949365,5.30644275469786
64.25145944647153,18.16218626103311,9.799861381301547
72.91178271619017,31.40093641039951,13.576935857098512
75.23968924923541,39.39960300710208,16.59687512583816
70.68427299833124,41.376521492419,18.734273418881656
59.27258799442513,37.59883474610346,19.804672846740804
41.68851651096615,29.123920311496406,19.667116537154836
19.410542139701846,17.475156008554666,18.388228608464985
5.267178059698118,4.378629708083875,16.188620245502328
29.47950908318379,8.40137585462864,13.256169019567322
50.2753061327815,19.177262880656397,9.675539037653044
65.17728496601207,26.477565483883858,5.588392343048019
72.62624579890166,29.23732851653039,1.2911209274838824
72.1700314508549,27.00793640334534,2.8807659701120913
64.4038704495847,20.104905310886565,6.560934700961074
50.767741844193665,9.617345502733505,9.376098602392087
33.302765336721826,2.756996104841595,11.081682545358326
14.430434604285384,15.024853321473298,11.583548360773714
3.2695280607452113,25.258171505958984,10.925553098317408
17.352412231930494,31.902505085279174,9.313335382823247
25.866677436509132,33.97232544122698,7.151359952555972
27.692973930193233,31.12872479885519,4.949039831576713
22.758778877068075,23.677377770741032,3.1159956430898053
12.058335282742744,12.514558729068831,1.8873184589789622
2.521786999049838,0.9664172141452327,1.2888927030920905
18.51782307049893,15.022885858759429,1.2121838250614116
33.249346850930216,27.778900531857595,1.610903465690945
44.15845854519946,37.486271165955046,2.479377109772426
49.129968012949696,42.78360991727494,3.676188925329161
46.80323742690395,42.90394429273685,4.899087079392492
36.84916766349708,37.78470692211086,5.866846551652073
20.1405876666549,28.05689880229718,6.43194202977267
1.2789040956353743,14.94299598283268,6.5381509254248105
24.489512819748764,0.09277851230016058,6.191235002524281
46.189356428029235,14.626630264355434,5.3806647925954545
63.246401403300545,27.346905234087608,4.064697985956024
73.19554678240318,36.399230666274946,2.2491810010847026
74.57369729293383,40.50713783905781,0.030109203682694027
67.04988505555269,38.96170560325407,2.7140807808502383
51.41786638398056,31.741441006683125,5.64995828894225
29.52302348934349,19.564593199274213,8.558768422195806
4.115613049697985,3.871004295262621,11.160651370182519
21.42956034043272,13.306235322474524,13.273905499814099
43.54793686787917,29.582596075638484,14.695421829447971
59.03946555359106,42.53993162602251,15.179137000415857
65.64006666835874,50.0927341204839,14.565472267488937
62.42884254345052,50.8426533491644,12.841877404279499
49.94285763197982,44.35171761772877,10.134668164433801
30.01000451237631,31.27099362438077,6.659463866918256
5.388985516380553,13.261946856026192,2.7089665489085775
20.664220464644153,7.274424245596145,1.3862770717586927
44.79317051640304,27.599717408563848,5.309028394566401
63.871302377529815,45.08598070932298,8.714359389714781
75.33817160698261,57.58988836346436,11.262911233675348
77.57955856071835,63.69345437913179,12.677956565128284
70.27085476202167,62.810195417326156,12.766717942726311
54.55732468077452,55.17995866950652,11.507043740417327
32.93963833188565,41.8013114339518,9.090735557792494
8.813585296300024,24.338147171925552,5.864618336054314
14.241162724799468,4.975749495658842,2.2338178950626615
33.188968951105586,13.830794051568319,1.3495772415792575
46.02343212823113,29.709535503513525,4.376537325744344
51.917923374902806,40.76768442054739,6.394385702978036
51.07933072086344,45.931428837899205,7.090388989535162
44.45429101868453,45.0997480055417,6.321516753294585
33.50543475455687,39.069427322676695,4.167218302590842
20.1027466125544,29.27227911051834,0.9520134752688142
6.422934636838067,17.41599096701798,2.776660246748808
5.2510703641008725,5.190230181793789,6.33039871525114
12.886662400082656,5.874501067513543,8.973570323795798
15.148968635286137,14.445081215795124,10.078180136124985
11.752121445436185,19.408770579983923,9.331232786781696
3.5274043898798446,19.983515832653936,6.788737083149987
7.840713989117019,15.9411787177329,2.851059996235202
20.295568081614366,7.830755300780285,1.8150399493666973
31.894554154933598,2.9454930273767763,6.43863774566883
41.11589467375852,14.311911721258127,10.227419849485553
46.92713515970248,23.959002048254565,12.500476934991873
48.673892620733014,29.89693647110066,12.878218924712575
46.24582623389245,31.16525897823219,11.340228376316155
40.063679454678756,27.93356822210953,8.163503373094722
30.83709043262412,21.063064921457713,3.850967415995015
19.613334069837737,11.844386318070832,0.9230151381748852
7.75899858939812,1.7050704506114251,5.414652418265369
3.219994585041029,8.023172693215948,8.971166847050098
11.986118639736315,16.240482134033286,11.192495066153679
17.674772270655463,22.131562310364128,11.987829577601795
22.97214425852859,9.531762402249571,5.3640874492372665
26.709808682898554,7.831806565783024,4.641374186762224
25.747780542998807,3.9616925799774085,2.940503659988017
18.63040452540872,1.9449802996189005,0.2774168006349714
5.3109069929942025,9.297696371182472,3.1212152499586807
12.664387729031953,17.146801147717166,6.873522922210655
32.534742421145374,24.35219725651604,10.486099795165924
51.1000216604306,29.750735360181135,13.370271396921696
65.49921625443679,32.31058231531526,14.97544816772215
73.70390187933563,31.24457482700125,14.902260388675819
74.59429078342579,26.127873885652683,13.00353594051022
67.72011907550817,17.063118139440906,9.498287713014399
53.08098828225815,4.840834026784165,4.879920773709866
31.30553709360776,9.106531136804046,0.26900321353609946
4.052382857999607,22.941549083007846,5.319119297560262
25.850727860509483,34.64203552667507,9.582764570273035
54.56920659407066,42.347136717440975,12.454525101088272
77.85086450004572,44.79110878160766,13.604257627336551
92.05499014619008,41.5589895556643,13.010262431686199
95.11477606788259,33.170366898476054,10.975762224517583
87.08126584777371,20.945042463521485,8.103461515251404
70.01071433357389,6.707171916908006,5.085878564226078
47.229404773280265,7.523436877009609,2.469756018860502
22.406054394247402,19.832925634871216,0.49207590986230787
1.2194811409333501,28.63460271942675,0.902920467869669
21.18131849880836,32.82490724963536,1.9303195296045927
35.7301588548029,31.905327685295926,2.8546435872050244
43.68089346934047,26.051220765585455,3.8331917064118377
44.395562166138426,16.127664207605996,4.823415314064417
37.9926729744227,3.6069641718107426,5.545408595938135
25.64986323821728,9.617383727590099,5.548860571882017
9.733964530796802,21.508739024914625,4.553875098296375
6.453133494796271,30.22586492728099,2.647039535244001
19.33799132955468,34.43650268489403,0.1135476059528388
25.952288273028774,33.534709493209725,2.7074228441370605
24.711591241648478,27.715387328207793,5.430762951407826
15.807266043379029,17.90302830398327,7.651883178391485
1.1018860434822635,5.556104116747365,9.006062943645594
16.403170843556246,7.608154573261349,9.17367231112252
33.315860677891784,19.88733336929784,7.91031731545836
46.550042547862915,29.805903257698525,5.201333732113635
53.812330315715606,36.24706776412643,1.3431277454607828
53.82125258326568,38.52417192886932,3.086927238882687
46.31048990392333,36.42395062029423,7.306122271050894
31.954898483030277,30.23954515005441,10.554005522437533
12.301112456222764,20.790653712630423,12.286882294190395
10.312273670768693,9.385385512109927,12.239373815251643
32.91587479368076,2.3237182766631617,10.53591085479947
52.22128990332719,12.602538698830802,7.6969333423269335
65.11839501378617,19.96502150182949,4.375883804355455
69.29885605046,23.450766438160336,1.1178070809344203
63.79934220478981,22.769624116618786,1.664290094958457
49.24948915960481,18.28282877584007,3.7115192327678677
27.74437966292563,10.852737527160167,4.978583731660031
2.3867069829759378,1.6634773408481736,5.588695786645518
23.335632047617857,7.9352601476263205,5.782275993438546
46.11497380734834,16.548813348985092,5.828990898710355
63.2105839918107,22.83484053951197,5.905970048198199
72.66733502097279,25.64096970149713,6.123567349527079
73.44427703651013,24.2060034239742,6.465451705768383
65.52645287996381,18.37219760932377,6.696325757859987
50.01264871002298,8.713604199041516,6.542489192091471
29.07618064713583,3.4935694534578703,5.844792152550603
5.679628246948223,16.48051451087567,4.624362042179931
16.963414158962397,28.338608225953074,3.064013995693732
36.02179709250179,37.38567971434973,1.3119300437889987
49.529765173364936,42.42244737338043,0.512945851217101
56.55560341351605,42.84690132211859,2.2541304310079364
57.0613989812177,38.64546528598004,3.833461002182102
51.594302578530666,30.319461668184402,5.214856330045548
41.05763248168585,18.807570452731063,6.299999500105897
26.711335041278247,5.418410018470644,7.009886725947345
10.291218013502876,8.256280451199345,7.36843350236774
5.960559946558543,20.50310244266607,7.436985418777996
19.540802289535986,29.735695810445183,7.279548091371625
28.23679668626887,34.769279547239385,6.9706728497016455
30.743389864546796,35.05018109294219,6.513607530930532
27.04403001271,30.76917651383297,5.893527994151398
18.371098860769287,22.804362090767015,5.14044009038707
6.760957190269172,12.521002419848612,4.186208677250258
5.53444834216556,1.500053878212373,2.9246604284028663
16.490658081200056,8.7314262893455,1.401338136878054
24.487252670185455,16.887727451879698,0.18864282896082754
28.27910538967369,21.99918325364612,1.5448868129321938
26.971852472025024,23.426322216973624,2.3714841671896054
20.18498105816803,20.880201048818893,2.5063336777857415
8.370727023117713,14.480003677435416,1.938464804479638
6.937433735240448,4.8381899292225325,0.839741786357307
23.197185018159768,6.883213529709507,0.473372297685623
37.36340444576237,19.02371070640406,1.698796683118977
46.67683990759175,29.64225824598368,2.561273124075562
49.379887488948484,36.88834813755339,2.697590073535042
45.05627266422884,39.40744523807246,1.7034663647186663
34.49332456962314,36.63099352846359,0.6843073851816603
19.218529614537157,28.867414516311413,4.443827233114059
1.029164763370961,17.185256944366763,9.14896801488461
18.25178112716556,3.15139175093288,14.026932461666554
36.76167683899501,11.45471186915282,18.246018814629508
52.47620218514671,24.858306992339163,21.02359040008938
63.22785225715503,35.424733997237844,21.643773516434003
67.00860000158218,41.76706982667261,19.70914514054755
62.463574511309986,42.90320529870082,15.267165912038408
49.36466988707945,38.481729819547105,8.751785480926708
28.87866019682075,28.99700310244553,0.9612889478738861
3.506163874273225,15.85536017577709,7.0871315894073845
23.302755284304986,1.193102584973082,14.369232611100957
47.72473902085577,12.543319851478573,20.044405255558747
66.17747928184593,23.129144867572027,23.652435284915235
75.86311159167414,29.02245469905299,25.15053830055859
75.19275005535847,29.594498900870995,24.78540217538112
64.05849718601162,25.09003222750554,22.98484802499886
43.89620067883019,16.43176490247709,20.274159236169563
17.505295826870125,4.99841336179494,17.0491617470011
11.359976053072511,7.549639441755626,13.349920924781546
38.56375693190664,19.393044130419202,8.924037234914168
60.20263873120505,28.70616640318128,3.4718394279616773
73.15900138588682,33.89629488041522,3.054600660979659
75.54811645477922,33.91157525866722,10.337597714222676
67.01087635779291,28.52930633779362,17.9649287575814
48.81834477806884,18.482333055876136,25.574557899843633
23.76196417035412,5.341333361986804,32.67181626498452
4.232076594341495,8.819708390465397,38.56804070638146
30.78602533976756,21.864525451058835,42.52016528591901
51.91469038899939,31.979302924663013,43.85089973264527
64.7791110095508,37.88892644386226,41.946010449808014
68.12532529693735,38.92019313426929,36.30349502647344
62.3005167669936,34.985502526442964,26.819106849103793
48.91365927409667,26.554500871605907,14.013265368776063
30.333638457408362,14.65237564647472,1.037210218594979
9.235345599687971,0.832117361527658,16.881766324727693
11.680082878073517,12.968451465083653,32.004231336427374
29.83833975975087,24.693191875022592,45.194110859461
42.954126188597826,32.51627246069868,55.622110386451
49.287146404749365,35.19730724446875,62.70074412052492
47.97711037167567,32.3134944684212,66.03785985878088
39.31256735870471,24.305594350409393,65.397904790765
24.755069577398423,12.372190210161339,60.610306693128955
6.6661954626583295,1.7513723612576273,51.7464500249369
12.181352020214492,16.06959024560434,39.428729137605764
29.130843580900965,28.59543345750424,24.73253749042426
42.01227878390732,37.59062268796899,8.906890825352342
49.29189243742695,41.75434514862458,6.700640462061921
50.51070615480856,40.64283509470999,20.676674928885475
46.231179898757745,34.733004790657155,31.8704162583291
37.4953524271652,25.092915814966286,39.688640130793395
25.70791112492919,13.233457665344103,44.00751951058312
12.53507357990584,0.8779881336219799,45.07020736300399
0.25793327797897875,10.321421330432866,43.38824305848647
11.059938262508716,19.051379086544753,39.5464013875415
18.703874408449586,24.514339244968742,34.179298897621265
14.309508011151713,10.06045288789469,0.013284468135356305
10.186418696539134,5.848044275832663,2.541613083419265
2.841183465952176,0.6922198264774292,5.522285686351695
7.237651902745247,8.921470407574407,8.44954422720684
18.965611182765528,17.90715068799528,10.744953050544074
30.80140664351927,26.57530317783677,11.90569580181494
40.983408306679905,33.817527853619865,11.614629787861828
47.78676916602234,38.55843993263244,9.733426874020449
49.77520194809354,39.86455564974095,6.318432072087358
45.998780324023116,37.08582209037138,1.6901402371895207
36.15834647824433,30.005712147580493,3.5933137078758404
20.814698815300805,18.973693806042565,8.857144191656742
1.6040020416542287,4.9544348420592295,13.34794210605083
18.92632010224835,10.757333796429005,16.34208109925972
37.90599450988569,26.97986126224064,17.399234463552848
52.66167898332734,42.66495038278657,16.5196002835712
61.166303041241676,56.67267644721316,14.104762594466132
62.4252042848521,67.59232137904755,10.746179669814742
56.549645440872716,73.64090670867914,7.079884654186827
44.6409053112011,72.96605479637267,3.712570216649216
28.526956302492135,64.31191514230608,1.051315570776091
10.417394458002482,47.712405184150484,0.7626342586970752
7.355071858339583,24.874983788600733,1.854122779238374
22.557114671725607,1.0748265409864026,2.5787004219473935
33.25293956335669,26.395397181798664,3.342440889158412
38.024370986510995,47.72408110032336,4.454989763021188
36.23016995528404,62.79259344015699,6.073947415544368
28.199013712757573,70.55089300799006,8.187954455370047
15.276393230873387,70.84264759267332,10.532599080681386
0.36948378224164974,63.99822146196434,12.563442707616252
16.16589352068038,50.73765601721443,13.668357835452056
29.629844563103617,32.47508500742067,13.264463862362605
38.78460433366281,11.707003711417126,10.84357713333382
42.388278120268225,7.998938526492189,6.2835336163306685
39.96155654064049,22.71921909576759,0.05731816109367459
31.689089148990405,29.402508254527326,6.877001435950752
18.31378557733086,27.043173130397033,13.269298184482048
1.0812675815182091,17.156654697453792,17.811375646664967
18.295586809885297,3.230677832379691,19.55843272761779
37.70946469511196,10.585278288348563,18.25536315210482
54.83862558839526,20.893174517651314,14.26565961610733
67.43669718052989,25.87596066659036,8.359749481653111
73.65913056906041,25.259208050197685,1.444188181623019
72.3554540846196,19.66469352917325,5.639615204984768
63.264781123465966,9.904407096032083,12.065839138586243
47.08960524035303,3.2829893561651033,17.068578306428105
25.466173331647163,18.95461075574555,20.119186067906995
0.8190395655611441,35.506482546308604,21.051761257264506
23.91726194324634,50.53086946316709,20.09715660361647
45.69048085605989,61.24830432509879,17.699784768208723
61.797474231596965,65.35934759250512,14.39148798097182
70.32805098783037,61.85457871006374,10.863097618415775
70.46773771534001,51.316007804550196,7.854294891040988
62.58895426621652,35.57736396542839,5.860012603832683
48.124003608252224,17.016692509742036,4.939758613829673
29.29319944109748,2.107150455885414,4.758372233818928
8.77343604270588,19.95562062472533,4.809232298177974
10.643732043221222,35.0248796158641,4.641735515804112
26.386207528963297,45.96178611608442,3.9808834059064035
36.44228318325921,51.58082152943503,2.6702558352121475
39.68884883889894,51.17123639356406,0.5224554792179522
36.1293053196255,44.90860218867327,2.7284419463334877
26.944618977518132,34.04412261697331,7.358543833911715
14.285238195655355,20.68160909787082,13.494337034655718
0.8334608016506592,7.206519869600522,20.951679531507153
10.75082725439312,4.347388060436409,29.242220269717816
18.34907250756955,12.662337528521059,37.64380339810024
20.704937231572163,17.101527884217134,45.215120960225
17.51305285599248,17.428877165140428,50.810645602400015
9.3554442950865,13.576018718200993,53.19483241691822
2.4548754373512764,5.66460255035477,51.41268528241344
16.061150532817443,5.725896941864081,45.176544991684
29.2535229388084,19.26534747437638,34.9167507818515
39.710129801886595,32.824896560066726,21.632309599745682
45.31888842414295,43.79462728389605,6.70975300505826
44.54260012996535,49.67400328706383,8.293370985875189
36.731672377040596,48.69548539778086,21.927392428654414
22.305262646878358,40.237289023749035,33.18744054613281
2.747257421542131,24.919828951815454,41.73816340187793
19.60206459258441,4.4457189953122676,47.76796774436952
41.88621888543227,18.68565721374982,51.587351821251396
61.130858902772495,41.499704662725414,53.49627451021474
74.64663225434084,60.90396108070215,54.003958954750445
80.40137980358952,74.11550676856035,53.851786828836964
77.34338559365119,79.13933635318202,53.73417179461342
65.60516352097893,75.19616286806728,54.02544430320884
46.54879560407827,62.94725756052377,54.409166671606414
22.611545199864207,44.39743780817202,53.73222652197879
3.0830198247303886,22.484428539418705,50.47109470345336
27.23844294724324,0.4966770936442919,43.207864600695096
46.90799976653807,18.4949960555774,30.899945203422277
59.92480572125996,32.06954377775036,13.239189297952029
65.12708752010009,38.73783944557762,9.052432519892562
62.3984010453914,38.11512937231525,34.18413424038727
52.595152455211924,31.003326338383687,59.53267851730374
37.42864303134999,19.352851976768218,82.09863271911878
19.333662660514747,6.004264117957435,99.16471955725345
1.2604890264033677,5.852677922571138,108.87034676257774
13.658462604559256,13.405820500539562,110.2866508416342
22.601316947050613,14.926416919057548,103.2928232476341
23.672826168666063,10.197610239209993,88.60245594981018
16.44567587676292,0.48370084160175364,67.82784632858561
2.2212949024189435,11.930299448751871,43.3609865336355
16.126697981528878,24.421741298034448,17.933440034983153
34.73683423720467,34.66633014463148,5.8647781641876415
49.59725212347545,41.0309415239173,26.050136011164774
57.376354861801126,42.68234512533513,41.530752859364185
56.000544971323905,39.498899315234105,51.936927021341454
44.88336447215489,31.916298373799506,57.56693983779556
24.87697350228961,20.8066505183024,59.351184193259805
1.93269042526327,7.402365402614947,58.433039683639535
32.46876170684768,6.798626500356019,55.830746688522474
62.93247372887548,20.180237503453938,52.2396347317197
89.19404797627888,31.20119643840136,47.98260553636283
107.37333999436571,38.61652346970814,43.19383298015676
114.55867585450929,41.66908711320105,37.89940745299143
109.45836723689126,40.211931137563596,32.018781685402715
92.7349555492968,34.76427605202342,25.481496922996104
66.85012847864661,26.471193298802344,18.356038976909886
35.42049691095409,16.931425866616458,10.850984327889735
2.330574971729154,7.8841268802290925,3.267872672130937
29.076241146102493,0.8004947014048672,4.022844611729529
56.48431642933332,3.486159502519652,10.710636410943014
78.65238019275507,4.9665418708913265,16.616455668689692
95.09895911594334,4.361254915848566,21.579779489755445
105.6008591946556,2.7721544925064743,25.380022870045387
109.73077965861351,1.2507372193312227,27.794844075769543
106.64842616224105,0.4952456712229688,28.774436378983026
95.22200281764611,0.8030343534187634,28.476131823493013
74.50829653422362,2.221600875672353,27.129573011372216
44.525490346550015,4.727339992881901,25.010372980796284
7.024317439558779,8.271758596371942,22.377335601971804
34.146794604154394,12.642019810898148,19.450605947417262
73.37355814647727,17.265421365274275,16.55901582757859
104.34863330185661,21.170904383023274,14.048068682643912
121.61351605885442,23.24184139526538,12.026624647105546
122.01403563973858,22.692014738637855,10.34767247468055
105.50347050494756,19.50111234981802,8.757485482660076
75.00588902863817,14.528475210947573,6.997365803760416
35.489190507006974,9.176792651239476,4.847997399403439
7.243680036017205,4.750992120077758,2.215004460596007
47.53054126036375,1.8683221632226004,0.86699531732747
80.26575905106911,0.6648262199661669,4.223510352115081
101.31037823777741,0.952663972436625,7.530768537130688
108.20188819521036,2.0914166280258337,10.41340017277064
100.7100287149859,3.320489210949979,12.523851920972698
81.05918877674411,4.055711547791992,13.64536813510973
53.66448518065469,4.017794821936269,13.733931064882068
24.29397417991159,3.193609719076771,12.886382900128439
1.2859030029032077,1.7293095505053873,11.338158425745004
11.375405702312555,6.406597647448366,3.225172985042838
9.688531175960524,1.870980082256385,0.5978735929029647
5.24134470478023,4.610809023825423,2.684226401935017
1.3283318281334493,12.724718043453004,6.317329275407636
9.115415847060644,21.729772070043257,9.985111286726415
17.220007119886333,30.391362760352752,13.221234781702044
24.755304657267107,37.11279764973446,15.47041534907694
30.723160026282436,40.246102860967554,16.204010717934473
33.932772301109466,38.51289365300311,15.02989242907361
33.17052562070366,31.340210795986966,11.773396802050708
27.568368901856132,19.019815571495368,6.53733692583862
16.92866385510998,2.760352413531817,0.2133692594175953
1.9026797500237287,15.354416216877027,7.579852107187627
15.729808911128845,32.866650261641496,14.413472194087682
33.07368623111195,47.674663742848004,19.687659307052723
47.04664694106539,58.21111545074717,22.696845429189953
55.37386670828485,63.37838264827,23.155553146736846
56.98002289912343,62.6041313678657,21.13827066269541
51.98176171760371,55.85735953260968,16.897592753963806
41.27717038789013,43.798127684815974,10.878828291083137
26.168206920485524,27.874153471241573,3.695864948710031
8.27199339461872,10.160145982662037,3.806530762464274
10.47199505541296,6.97256443876408,10.394758692375481
27.780478764771104,21.349258184250647,14.823038294830386
41.2674880923281,31.422508798194002,16.381257408843947
48.94772919403532,36.488627531762276,15.080910036137452
49.73439121659604,36.66896000191507,11.589336022692795
43.72261775780673,32.70751771700255,6.977381510311499
32.10947217063634,25.754756997658266,2.368618901697946
16.86376151397583,17.192286184847326,1.4661498636405064
0.31953701470373663,8.512904540306657,4.223540351535513
15.166863331393307,1.2085372462423676,5.783879901906348
27.436287122073107,3.402005971165313,6.111826612996322
34.72390228894467,4.389865505690543,5.325520025407815
35.89849577463028,1.4222335213254118,3.6472138238308167
30.71242103230312,5.132494173373344,1.35160612771733
19.954420381723033,14.242410493785572,1.1805380287738876
5.369845469278759,24.382279371531528,3.368021069558726
10.665682974611839,33.78984146893409,4.5839112058840845
25.61151943050296,40.74046711715628,4.451222794809369
37.214850263034656,43.79770197044192,3.0907396849369064
43.80330975719893,42.007930279476014,1.2971024107638363
44.39072208275971,35.04492756780229,0.22903791464455228
38.69565011661064,23.305717324212743,0.7890213399847704
27.16420394020802,7.915283391322375,3.286297933343886
11.014820271685874,9.38916885433021,7.449639778546935
7.762968113765462,26.498865917215603,12.614675448467974
26.561267563501655,41.26401835008639,17.92220034259345
42.50269694764052,51.84824325724969,22.59043265964088
52.92548925763738,57.02677789083114,25.90895813871179
55.87697799158772,56.34812791453613,26.85923516223629
50.50029365133007,50.14438780325752,24.280859441216283
37.240591263171936,39.41934325052181,17.40936735392602
17.830009006481742,25.651315970996638,6.118952117659667
4.94565455618235,10.571968242819107,8.874118376224764
27.658819460140343,4.035778187536247,26.032227434555093
46.78186501958475,16.507613061235862,43.35332779843315
59.30365207221236,25.441316053991994,58.596191808500144
63.2813800848216,29.82557638008335,69.46096357387853
58.15222861221488,29.15659867987005,73.98751392976338
44.7404231650069,23.554515400246256,71.03913036805855
24.992300357860284,13.842900042312396,60.638242802255434
1.5518835225373997,1.5238932084404742,43.824825174637624
22.664033597306837,11.370510245013065,22.280753879035135
44.7862498617072,22.558474036125563,1.7481390738490914
62.2105098566677,29.90778392476455,25.64587162855382
72.78974914899082,31.896321492019954,46.90887517166625
75.06894083986563,28.017354172235322,63.50777514197264
68.56018165750851,19.002820395073385,74.23220006613694
53.944930216400174,6.7648073266078015,78.91606754577879
33.064128399088226,6.018734126839052,78.1136122395172
8.635653626270344,16.595256675077312,72.57027923785624
16.226617864339012,22.895857420304974,63.0426159875701
38.50099713046413,24.113313391710346,50.206645139169936
55.64617712134201,20.850472119116457,34.69549577941755
65.84582779850024,14.769434253313333,17.406848098079603
68.10138859640493,7.899980111946482,0.598643863227849
62.29593813561513,1.901224028189755,18.389101830428192
49.26705311242795,2.386996262869205,35.095871577696556
30.8054941555034,4.935959421842252,49.82350637681247
9.50544677928279,6.15720775851932,61.57706217114304
11.592925805790728,6.427101383532421,69.39717479748147
29.507962758721366,5.811847625305995,72.66299913664626
41.827584235361556,4.14352026245753,71.04289334341073
47.08676515469184,1.3258047328532148,64.47098257320174
44.91468739718567,2.399925488028369,53.337321739587914
35.98708311971986,6.461984399950026,38.58974902774313
21.868491024890446,10.279361980145955,21.742638385592237
4.794873444151606,13.665618606660091,4.682529770624652
12.590075000452375,16.97046513699158,10.74304765589383
27.565968396299937,20.786736041157802,23.182168930473654
37.75617363191126,25.32767710205594,31.959573829532996
41.5839775149808,29.840433888653532,37.002596507756884
38.596508556060705,32.520583106738314,38.82176948354897
29.51614574724485,31.10359107828068,38.326363516299544
15.99459399127888,23.90189474254021,36.488562579649944
0.1519264951370113,10.796676038723541,34.146205303659045
15.889848318197682,6.382909433943621,31.86405647652772
30.289200207091373,24.342429769409083,29.907333458042626
41.54702746412682,39.4247657916659,28.352041012574613
48.43020789913074,48.81708262256889,27.112652790409296
49.9217919793449,51.29911784920617,25.882872496860795
45.32304416083322,47.24501094300238,24.14751708526879
34.49454992581394,38.043358567389696,21.291447033012233
18.13048470760778,25.355709996300675,16.770281377053845
2.0916014898513815,10.643336191839346,10.323596756099066
23.61275166699077,4.835909817846172,2.1497214438786885
43.351424961983504,19.71094217330362,6.997891971552755
58.23384288577715,32.209016067733955,15.974320518568373
65.77358482978838,40.18517702073406,23.681322851545133
64.55106289522477,41.56742424705899,29.29404354429511
54.49791635905362,35.06747260482093,32.36953954483268
36.959303287166016,20.810293298276314,33.07681453402447
14.504380838475784,0.5933229860890713,32.14046214840439
9.485961497746079,22.340980305226054,30.54266485245875
31.35319823941162,43.976398466289936,29.272751552433988
47.721101476577815,60.398626852662716,29.02394491151457
56.00777754255018,68.5902214096592,29.823827506284537
54.83009327943861,66.96009628848283,30.9620635748064
44.26390423774163,55.52258661202695,31.355450825755227
25.946938700844317,35.75789279440931,29.869891942815105
2.972816838363558,10.261013419793569,25.568655134490534
20.493136128794028,17.687874366563868,17.995000841298186
39.8862988809966,44.52998482819205,7.190452247631832
51.138653060348894,66.79819277200252,6.338662837846692
51.599953330863286,81.49697239908195,21.562913358310784
40.684566938874454,86.53148188641788,36.96288308572169
20.027145807536087,81.13834659762836,50.771956285240385
6.909814854270321,66.19833441278686,61.3612231695158
35.6510213196563,44.25438851996349,67.37985854132523
61.64245563710921,19.08179623130338,67.88127885504306
81.02416461374628,5.12918553210151,62.62284798981729
91.09882371590012,24.740423004535376,52.18534691267686
90.48652542678005,37.45533604110995,37.95968424964685
79.1084630342309,42.62685127404829,21.92128169694256
58.13106270732744,41.02414635325566,6.099931265387492
29.872620990630455,34.261505659174254,8.05699697827629
2.4031646045175474,24.20699010064109,19.94148239930069
34.889136494758056,12.624913247923752,29.36377581843538
63.81644220572863,1.1245245785275135,36.21599811176994
86.06919283269032,8.722648332839764,40.445257197460165
99.62462271285138,15.35426607977557,42.04407220945393
103.99723564316551,17.806157115038037,41.17623614244245
100.11567680781732,15.955047894926286,38.198075025421566
89.67397311584739,10.284214741365252,33.56162259365671
74.7074466857945,1.9248048878431097,27.823983195120295
57.28002859415065,7.520039241103752,21.66245450730296
39.31859532761679,16.346166157632396,15.760669260297606
22.55169944705878,23.171243660041497,10.595310698743008
8.431844504255698,27.21496271283228,6.384487395606055
14.068260539498375,8.192435846860635,12.723769138165451
10.452716745841343,4.841497950752649,9.401949478899201
3.6955090397350303,0.22696743164138766,3.5328315336935345
5.770826413683195,6.724025731370851,4.480042514801918
16.99439564795762,14.058264478971806,13.810591321022212
28.61721402929392,21.361685267427376,23.334287040690054
39.015177064586865,27.593970324286914,31.754239551809018
46.4752186650464,31.68042184725375,37.732369919811326
49.43670772536427,32.705237927928955,40.09233383099485
46.75447852585827,30.059400775793723,38.028448595982745
37.9341201801682,23.560146372178718,31.164714067643008
23.34722578954287,13.62955513463336,19.690619398644152
4.390901270406748,1.4714168736646325,4.721971116563855
16.66206287402377,11.216938509049148,11.689822247806118
37.13437791083485,22.805556288839988,27.094372202939297
54.38292449404319,31.824965401882345,39.181120448207665
66.15311893387391,37.035056056669745,46.31796591051689
70.86810321066507,37.73556567162026,48.04081044368517
67.75306702590403,33.92907793691519,44.904628098061714
56.91188975330888,26.450308141039248,37.98496697768908
39.40011763387358,16.870839036868812,28.572861292944925
17.23033617139066,7.100359497619385,17.90464746279454
6.755130548110252,1.0811182131927495,6.961041170801535
29.235244531322746,6.498145146716562,3.5611365982415255
46.95175756433471,8.784484607794518,13.124029389984475
57.32692294711567,8.27822213015384,21.13191215297578
58.95976525131549,5.730987263393363,26.899735136221302
51.83050157239079,1.934268217713052,29.79885416675612
37.21053807459214,2.4841282019173345,29.585886429156027
17.3608036394331,7.042182616737296,26.726178798072453
4.851012860660518,11.242034205018303,22.22047419619742
26.30536361966187,14.418312161587222,17.140639589402614
43.93872707555127,15.765990000653455,12.222967926921445
55.070254242814805,14.547403906381787,7.708963551591423
57.80113215029865,10.393533569351561,3.4793628529953637
51.428539217096116,3.5137086739482144,0.6505171437646593
36.730472063314316,5.353953771846829,4.573434307446375
15.961042429850886,15.211234792273116,7.889859115336376
7.528910720867274,25.109386915590218,10.173488823694653
29.981292367544402,34.3014998250551,11.164046981496854
48.0179481421004,42.133742015010476,10.966728978458086
59.25479443556431,47.76630391230412,10.10265886631164
62.57403731522697,49.97771050320413,9.380526645295598
58.068175739783364,47.306413365221395,9.587508759893776
46.78156004767827,38.57993962279819,11.0558090261348
30.421343751959363,23.622804652954173,13.397261696738568
11.154331933976213,3.7888505770093976,15.554457794396347
8.537902757239836,18.038058996092236,16.362299919567835
26.03201503622721,38.08443352655668,15.160585392117056
38.85606986299108,52.72306110825097,11.929141022932823
45.11421598177892,59.48525471229015,7.19749913681466
43.91146752407039,57.6242951490816,1.7175051697821109
35.61899390684502,48.034876937288416,3.805534625380659
21.839758605550415,32.70340480329755,8.607057186986214
5.056241810513,14.049689612511909,11.910318469532598
11.903279287714904,5.512334489372099,13.220667177928398
26.414735072403456,23.69103463037931,12.477690817756429
36.45469753274568,38.27363217359093,9.976424544689731
40.77664819232197,47.1888834712776,6.240631641783285
38.930758309243075,48.849697748196995,1.893135836252851
31.201882389792434,42.68252522639444,2.4147887006480055
18.54898133234921,29.53701767405498,5.902715122613181
2.5545767489886235,11.685969569411071,7.77018482083306
14.688047352965711,7.6891005297384325,7.476907979943506
30.78861298062432,25.35265600964856,4.772768685899025
43.39183972350437,38.826182604981945,0.24351012586181958
50.58205812764788,46.79440743268951,6.936417595478898
51.24539147487256,49.010961684618835,14.241284493293632
45.271969805259666,45.897251603732194,21.003573418717544
33.538530358043836,38.13660437336084,26.182624126999993
17.70842013579959,26.526326149823987,28.998239286594934
0.08667395812182263,12.131688075135056,29.06257620725824
17.571727981057553,3.4866867756742312,26.40714021208878
32.57701810143512,18.248424357182405,21.503089511017617
43.23860997874378,29.884340722282627,15.108927401215816
48.15718306123537,36.53709808263636,7.996751673994779
46.5447412017331,37.33185153723678,0.803604618330794
38.387620096245826,32.632373505770566,6.072888813922813
24.56053819702007,23.849941906746746,12.38824864103194
6.831193784072739,12.926251248279296,17.883413689375878
12.304167021112287,1.7792761869011335,22.348380100431804
29.973316512176847,8.063433428432647,25.69613284977847
43.39658840255726,15.5477533831056,27.94652128231134
50.388787048171935,19.985874911706073,29.232199626581966
49.78177879612014,20.957672501249622,29.73597801705357
41.64611682650397,18.3426542499454,29.49005261351362
27.271185503141815,12.46418323650162,28.277328762734378
8.918657738638869,4.187861105985952,25.775351749382846
10.599855770469993,5.154799756039038,21.627594598155508
28.435752731452872,14.019012584391236,15.497847491102268
42.1906824182488,20.990973222950764,7.282599190510784
50.25373257277912,25.07496856809926,2.859093292540226
51.94025162393668,25.812346782092256,14.46497179813798
47.42972117621013,23.232642506877806,26.468324455633855
37.554459867345585,17.742915366813058,37.19163988942319
23.573783836559056,10.067528868149564,44.88840302891239
7.011138106957412,1.2328991790282462,48.397751021171985
10.424920396850156,7.466350879962843,47.344817298916844
26.866696841983224,14.605419908776547,41.90769625424299
40.38106415980933,18.928177980120267,32.61018357880173
49.1953308234435,19.703097240748225,20.353084511136164
52.02520968811486,16.96060522822335,6.5303157515059365
48.40026114350024,11.48062364324152,7.2624493249136055
38.82736557639919,4.516611565518826,19.652777812857625
24.711070918792196,2.6020365768088154,29.49651039070446
8.057382594245091,8.802622595377983,35.884354560316794
8.92028380782441,13.380797270148731,38.310404982422156
24.132905182008802,15.891898399107802,36.84458903420263
35.7991365085946,15.996733412560808,32.22314158878889
42.50546240693806,13.421694982217094,25.60477887511969
43.27288651581698,8.098734837179103,18.33336081355754
37.730456382427995,0.40478246700570186,11.78513039033644
26.365859994581548,8.686573769910632,6.853634218217855
10.728779342408394,17.699723342719107,3.5814211882595806
6.607200410495326,25.027872248119074,1.4868778640492504
22.43702798116657,29.405117192232392,0.13412287946021403
33.611284408997,30.241111274007345,0.674985928015063
37.81832290166889,27.672392738594468,1.1756044344773908
34.16883300033949,22.312178724332902,1.824552474200108
23.384792618687428,14.871477195365877,3.0204171122408265
7.565651979443964,5.911544617906256,4.832188362721296
10.343925164603032,4.127284809796607,7.132551397164182
27.163848327903487,14.66187792793147,9.7355839630718
40.02518900644316,24.659689586274403,12.32421298104377
46.79199734503811,32.53708674660383,14.457265621132631
46.33381633231337,36.419289499529086,15.70867528414399
38.67256714505913,34.70350839522622,15.817372834817167
24.989358081916958,26.69576235765094,14.764935811854178
7.443674404241549,13.043210920865805,12.727441826677524
11.204206358589913,4.249304289346787,9.951119478198185
28.102038231532514,22.24453309608851,6.722141974428847
40.80733463871669,37.77427610525855,3.384615219885194
47.63998540035975,48.15095669326452,0.24795521767997034
47.82757659055658,51.65769993450722,2.4301824947388484
41.48443871101704,47.7244966301284,4.378017114607284
29.508547830809388,36.83536691507332,5.385415626462177
13.473683176868477,20.302152734762167,5.499207715621136
4.48470827665609,0.037943799024019016,5.055919152427247
21.87295051210661,21.613518557478084,4.362945619429631
36.17894729222309,42.02634334614004,3.535378545949103
45.306512126641074,58.51664775107805,2.6695275589744583
47.98592332211992,68.70138527133216,1.7766984361530518
44.325481640943245,71.32316110181328,0.8617020825454499
35.63247374567233,66.61451738699279,0.025239635938561187
23.668109206691074,55.95586368718902,0.687577199030734
10.268805188319922,41.56305373930029,1.2788567119560545
2.9533134354047355,25.98243429613798,1.7745958560363282
14.74539709807853,11.533859620641339,2.2071604306729107
24.19205902325184,0.1296518833709743,2.6248758477801224
30.640356738616536,8.219490981342474,3.0913113559547822
12.131232149702434,8.992509114666257,4.871697558679487
9.544953729465627,6.015331670483001,5.378653299297758
4.157035472480366,1.0956979995522567,5.420269076751565
3.725506329632545,5.590802680644487,4.860704681110362
13.271692389042672,13.544877696921306,3.596101180026607
23.272356582937746,21.895953070040555,1.5959809521225112
32.322122582929445,29.447185345105535,1.0811544884458024
38.99173066014982,34.820030789688055,4.329448790014529
41.993834015291924,36.70801875727672,8.008942087177118
40.33176930967301,34.155167146318675,11.845232410131109
33.46711517767989,26.78995679545328,15.383154364525174
21.538338829731703,15.024001084808543,18.053931534806484
5.561457683170939,0.19584215453674603,19.323700050076354
12.63174489652902,15.654400042363719,18.868518152084263
30.72128786814357,30.333922227729012,16.619333320549696
46.22125152908233,41.84388315736457,12.771064262417648
56.86943129295005,48.624265492008625,7.713588536221876
61.06723270162455,49.827341982543615,1.8433223192570765
58.12625446607785,45.41705985578054,4.402024425553005
48.363113381397355,36.1917815856745,10.40251966591596
33.047224135912025,23.659511178549756,15.432404024257822
14.207522061323568,9.718985913068833,18.823778759655127
5.612414972640098,3.6893585197650696,20.135065606282637
23.684766032152044,14.919570808233633,19.295564212679945
37.48950516595144,22.825779407332544,16.562978180160535
45.114358038560475,26.808019221477824,12.432997909022754
45.58600336610945,26.767113054915825,7.721571134901266
39.03801278620539,23.028867161175377,3.529340476782876
26.684193569409285,16.32133856444364,0.8850163296432624
10.58545381195596,7.7697024161415635,0.4037704315600049
6.7113555083740115,1.1678173773267555,2.1816814879613133
22.556657590044036,8.899076306799218,5.833141468218392
34.55289460951036,14.034550066711468,10.65546566972497
40.85314315184717,15.717067274797094,15.94438201484089
40.40222920395514,13.800717640090685,21.100894018430907
33.10743594662118,8.79692546577441,25.28818211496648
19.905965395550236,1.6236363197371484,27.239187044459655
2.671515346516784,6.691123599233985,25.737631524052457
16.07084800506203,15.203111710425976,20.198034959979807
33.55467890535678,23.057458669065767,10.695089522192875
47.21307539996624,29.360719944811777,2.1324480742024052
55.05369047770065,33.10701278065676,17.104758208453642
55.89577479774266,33.29893420728676,32.74212852611396
49.47810859885879,29.24926146920233,47.38816625499683
36.47725576261834,20.930076499129108,59.316448957940025
18.464399785073724,9.181922370895121,67.12011307678115
2.2190803295453643,4.365849060849908,69.97445899136112
22.709291598102023,17.663681931969805,67.59191869831616
40.00337914518748,28.73179673901426,60.0605626646927
51.45855856484988,36.06177407866257,47.80733311821465
55.30052586988668,38.81100756913912,31.63891021732118
50.99406164777971,36.787998910667184,12.806620995606202
39.36344886197102,30.336242493444438,6.851235230058348
22.408140346508393,20.249403578600397,25.1884958563131
2.869678988164929,7.746213076385627,40.48090210150968
16.316606957242254,5.558651327299306,51.816372949509095
32.52537094548622,17.781980079030777,58.844629424572744
43.77873652057051,27.05093351844914,61.450728869538736
48.889590757582404,31.881284053770244,59.86844461703918
47.435820875240495,31.528151842343803,54.76593312472229
39.651486002546434,26.158205988994247,47.0366564711759
26.335893798858294,16.767622629850052,37.69904817979578
8.82498588707865,4.904562134352667,27.762943730034916
10.986814496455809,7.6873689340289895,18.056177813209963
30.674131966525344,19.38601696349375,9.29022306528774
47.462343801425604,28.88556029211512,2.065193013934934
58.58827328424876,35.26108159394006,3.3263606986019503
61.80171787603845,37.94966162314889,6.98382418139901
55.8853834168079,36.715377480322964,9.33111537916797
41.03494557073722,31.64074513164749,10.95656949471399
18.978761813193923,23.143568895158722,12.360315732452907
7.203414072416091,11.998373710166446,13.849926872216136
33.51388825937947,0.66879126603397,15.577944755343538
55.65528862652688,13.442985713037917,17.550007298849216
69.74510377045259,24.7708701313186,19.61911868114696
73.02115428584193,33.20411786420543,21.43667940757985
64.45372173854342,37.675279785506966,22.513406534064547
45.12772221384926,37.72166526142691,22.46880397513343
18.214975647589064,33.57512414324205,21.18183002661144
11.57298711961487,26.074717821940123,18.69704047038801
39.002077551093564,16.44957831258846,15.13475998177487
59.547438570258535,6.063248427057763,10.74543500614734
70.44606380285786,3.7781277393502273,5.932877661765122
71.19532984251141,11.897715830488522,1.2807291550034394
63.322292525947766,17.255766254229258,2.5030757189147725
49.564380734968196,19.0010585504971,4.870005224110724
32.851712611606175,16.641423002258556,5.569794538184942
15.531167076005392,10.30542706171749,4.596908217967885
0.9039301604866297,0.9426368489365321,2.2069267815010734
15.639979163760708,9.708112602394724,1.090235544407338
28.211288982179475,19.450644818536308,4.584332030555266
38.27587857243273,26.19342045965509,7.432570565738305
45.59852506725698,28.529457707949305,8.824670971903272
50.14975270230828,26.06782014768429,8.22079325349733
52.13166112177271,19.385324745661926,5.537580200254472
51.807324113830845,9.68115097413169,1.2037030161237063
49.21482475683469,1.6516552966511555,4.010645702820478
44.01569413496348,13.317200693330808,9.33087443485235
35.68590557439051,24.16688530952202,14.101689497872787
24.050737799954238,33.09567219940359,17.734807429708322
9.879011664526505,38.97269389396728,19.864953828616
4.889071213078293,40.748216612481365,20.547524272721517
17.527633358305252,37.76043136808935,20.170017879461557
25.44674154034113,30.092914996339946,19.144839788123843
27.254550805880747,18.755769395382774,17.630126297405884
23.420332858263247,5.5690304178649805,15.530178783445512
16.17347239036774,7.235266167131339,12.740603528511691
8.664416643304254,17.538686755860947,9.23727233060535
3.8156510586802117,23.764629539195294,4.953661417062988
3.41581455788085,25.092665567163746,0.24908980944591283
7.7905408672316785,21.481114888753186,6.48989638671088
16.052159460489968,13.577266015330176,13.65679879357336
26.6527332589623,2.6114606345377145,21.19310823683233
37.88479666488478,9.690841005905565,28.114817775092625
48.126372889703724,21.24580100682775,33.07689096293184
55.85735930896848,29.87842666411576,34.55721557268382
59.63612941781759,33.72396148788499,31.362096575923992
58.21969072278088,31.663065062526154,23.0525045375393
50.8615040816422,23.63549617368276,10.236390476011126
37.650177441282004,10.700834353837802,5.154122936491805
19.685948895219127,5.189080017363104,20.2185226802312
1.0351037024949916,21.621842429915105,32.10699556344265
22.005596863211046,36.20509333843277,38.78726121132165
40.69811644219818,46.94314643163877,39.340551962476944
54.984782191001294,52.46111645473954,33.94723386847764
63.38110395966989,52.109811858629946,23.51740584475878
65.12291388134334,45.97845390708036,9.400381105673107
60.175588032562054,34.86614592033358,6.575800460902302
49.251667105293826,20.220692839582743,22.092234860715
33.82398846440001,3.9762632215146088,34.70776887809425
16.04687846256179,11.725753430787298,42.512559194636616
1.486618143820421,24.879527315398708,44.53427453169869
16.141152826094142,33.942706439986495,40.7949870160836
25.70917395283053,38.050336734065716,32.31436978355538
28.81458354275584,37.05091416630802,20.92250070166591
25.125613418431993,31.39456607510034,8.759853249941727
15.343913950318525,21.965633698705343,2.194509810683278
1.0184009623621535,9.944663285683545,10.668492561322411
15.734184620274872,3.253321237682681,16.81087000415922
32.538568613032155,15.994163795583338,21.9688872958825
47.046582615527505,26.49109760615602,27.347065001656155
57.173116389310906,32.99365889044031,33.104885249862505
61.714649223640414,34.598263707305435,38.83269098802082
60.55509586855055,31.469783141988124,44.06854238856834
54.31931181493776,24.3463493845429,48.38281040777126
44.239518510313594,14.43374442769799,51.515755570096196
31.929688991999797,3.223237871304939,53.24452469390735
19.1078278655951,7.749478887720145,53.24328361857599
7.321983133522552,17.137254748883638,51.16291563719606
2.257285238016578,23.951856617666504,46.86110077672593
15.628965680475298,10.046426016748041,6.499993809794506
13.125271613231586,5.43624991009955,11.41057140268792
7.4457450371047464,1.4972763736030705,16.069750973207757
1.0366329628002677,10.295708279561385,19.732211701299818
11.459514777794976,20.07865976538275,21.84504414203404
22.661652734750078,29.554474508390363,21.833791076303765
33.34610877993735,37.143896097570305,18.99074742348139
42.151578547902155,41.21419780592894,12.861845718796726
47.682579799999125,40.45151300917361,3.6186190475861904
48.604323278557025,34.194155778312,7.8755847823528615
43.86833832770428,22.649770161800017,20.30714598892115
33.07006898286471,7.026118941495626,32.346502723417906
16.860150830246717,10.485122465678336,42.70493980121902
2.854387223810326,27.272271603582915,50.172963028424135
23.201616075228156,41.13968901962737,53.87356801622418
41.011166919518544,50.53119294427605,53.33727814467257
53.52562649039178,54.48076994726704,48.72369850849613
58.96395885424438,52.62814289349297,40.94491598122011
56.79291889703366,45.101779159321325,31.17089821341398
47.68525461906714,32.580577176135264,20.27568042082692
33.308412937530605,16.397922507073105,8.8303076787612
16.06757326863808,1.5096730611239266,2.6516114699578166
1.1721007654302191,18.77460446498192,13.621095976786236
15.455131752602867,33.02319679506284,23.45401341046507
24.231411379511524,42.35636760971265,31.70151247303426
25.91319248150864,45.722172162294484,38.358242137142355
20.337591542365818,43.057960071362736,43.55282037392171
8.89699205234746,35.123154600511135,47.25375221588846
5.783394625198697,23.205572348646335,49.2294322115205
20.5221475957328,8.830211675615306,49.22476681020481
32.35175080903727,6.397101881072091,47.315310005178546
39.09171198493111,20.80781496959499,43.818631959603636
39.57136229450962,32.69264125691463,39.103178057058074
33.54901608664862,40.42406547889071,33.57503367008374
21.540010721330148,42.747306125789166,27.53979597843579
4.725590318304769,39.13780819331726,21.23780305160185
15.059884343700878,30.04696692516363,14.999671551803068
35.3824860787263,16.90006457096809,9.23063087121078
53.47123279406298,1.7961489987993196,4.283801377132844
66.73470530446819,12.96303425249346,0.33509298681929484
73.35914324169212,25.33748898238726,2.6946354681922275
72.71312540315076,33.852122795703686,5.089766893563857
65.34059746596014,37.68072509579702,7.171004561992081
52.56361771908103,36.59046922152825,9.295379522346307
35.948425899854264,30.86397032724389,11.862331875040438
16.92273528109167,21.277477019132494,15.159602698126022
3.271276248077384,9.099634368611108,19.316256946776974
23.342124025790238,3.971135716620321,24.284020174655243
41.69487471379587,16.00091150245977,29.7859124383889
56.40699772530988,25.162949486506154,35.32620297062079
65.53086697679824,30.099367860811274,40.29763079249515
67.5977008032251,30.154142286237473,44.11882694305103
62.06204263503584,25.42171925682793,46.27245857090386
49.50817026275789,16.63779538660925,46.36189723715128
31.595538520184007,5.010223977725404,44.229887356873284
10.816546457307538,7.922441394332036,40.04741968544007
9.835960381122675,20.389808881259682,34.239231439484016
27.25460604092241,30.513697564233013,27.285537991862565
38.69289563636427,36.539547057718444,19.670048660193096
42.32682063499149,37.17811283593399,11.911792056926856
37.77116234204355,31.97559094593749,4.597603566728245
26.306735672193337,21.550195913885194,1.659521643304462
10.606473961192133,7.540432134133627,6.471237231018961
6.018742999116055,7.743314947956414,9.85003678249069
20.54679329755231,21.831014392653035,12.121951518675377
30.922687419305518,32.571743521139304,13.708608965183197
36.22452206333743,38.42707322176049,14.915004311322114
36.35440736220634,38.559728835501346,15.843011720713234
31.574506770560614,32.811056220240644,16.5157841107013
22.271362595483605,21.69737786930995,17.094453885144812
9.097707893822609,6.468968456821874,17.84505393587891
6.671102568776772,10.864582597343167,18.95367263497123
22.951420463526176,27.70059309089818,20.502522974043213
37.15772266215293,41.27391454143495,22.51454083188392
46.94247952169294,49.254309578689806,24.97324561392876
50.985192964786656,50.30334552071587,27.747104891285925
49.365678113540945,44.35759963933798,30.4784754918423
43.266977570023634,32.517675936910045,32.645998508926986
34.19701701926505,16.63560458841463,33.727513334236846
23.23340450129526,1.1860204903716178,33.39033019584282
10.77206469299342,18.957941921542897,31.676069879648427
3.0744170225274843,34.91899638543632,28.93379645068722
17.74647303318834,47.500512141996445,25.433945134170173
31.73073662019977,55.33218730357266,21.1696831083367
42.69332365366865,57.40327278897882,16.095634339034874
48.25220895832268,53.36216647344874,10.287577938012697
46.95430187359061,43.78993404383406,3.9221936740302787
38.91478259608071,30.225958221028076,2.7759176914462707
25.81000758350208,14.863077737046108,9.685532263251979
10.28590218459837,0.012918699136001261,16.695395604588427
4.851048615260148,12.433989696811588,23.454792574876052
17.256846450952626,21.31285631054027,29.40972971257855
25.29940141048257,26.176093897897747,33.97649182726656
28.026740749519462,27.085077113541384,36.7128527602943
25.095399287241325,24.38960014257447,37.45770102600997
16.829911329262107,18.641011014656954,36.31238900422498
4.376185025667462,10.655277061724712,33.45085335457897
10.26351011685861,1.6033420514370755,28.999806373978238
24.49285568498601,7.023319127573732,23.22974234211417
35.670200403504744,13.643977037585298,16.77682611071401
41.73737745601627,16.957506703996998,10.516193341941978
41.64783664222728,16.26333221116288,5.158224300532455
35.44665066623986,11.58900032922727,1.1040778210631648
24.05258225338054,3.6214314310380944,1.3654081135606508
8.937426647774295,6.499134289061329,2.183792557032401
8.086238882258781,17.40900561316661,1.578808092633086
24.940228311783272,27.660961938362664,0.12070962913627603
39.36539024478418,35.7878354339117,2.4427303756618683
49.16136099550553,40.39954292329735,4.86114062098587
52.620146777131005,40.39190818380236,7.05137470410619
49.03091969947658,35.23174667203812,8.78320738464707
39.00251769784011,25.206497003976985,9.788865409028029
24.402862006402113,11.5141325300033,9.757866638445917
7.907012159323452,3.8845453347263827,8.318002602207876
7.675408996611635,18.60771599746532,5.128685892782335
20.02343029671168,30.27820369739524,0.07455342553642062
27.665976187763377,36.92714555461021,6.606753209814432
30.036051014852426,37.30994720822028,14.396344431915667
27.30074909586102,31.142029963587753,22.61988633722379
20.13969739094984,19.261196581945782,30.422540829766273
9.61585539853538,3.664549678164118,36.69975754430519
2.86000483993935,12.696228275566435,40.447397932368524
15.54037066058484,26.457952632211946,41.2147024809517
26.44823282191299,34.64218899909728,38.8935974092187
33.66033970922007,35.455775239784444,33.742329430938845
35.70482051195002,28.796758088530865,26.798358825613033
31.95504212420715,16.232285157189562,19.569396125091448
22.8515485071622,0.4339351382417344,13.60066952830725
9.827099351997713,15.680688601344974,10.102864942461778
5.049761713010359,29.699717737668202,9.33339414852663
19.59651770309134,40.062617590249836,10.51798888279816
31.98919286789313,45.96741102235213,12.162282586242462
40.99759302347714,47.049412896107036,12.393943734971522
45.94814783508668,43.15664237657967,9.544811165901544
46.52468473828962,34.39943033062546,2.57222366408858
42.590298412599736,21.399692522124667,8.89232304181937
34.18748494495464,5.5019177345124275,24.44754224909498
21.76339014178577,11.329645922549124,42.80500230438912
6.456058142446947,26.981973046163418,61.95194019024689
9.819094063426247,39.78938066249018,79.40635327077942
24.61953900448251,48.910675462006566,92.68958206047081
35.54095180945223,54.248675366945115,99.81171211925098
41.16000125154512,56.26440618388214,99.5824046522504
41.34762094333045,55.572459820073114,91.89522963017929
36.90007447354845,52.46595227369221,77.91608983178354
29.237736802356178,46.93780067310187,59.84408609666841
19.965616044155237,39.00129475076334,40.381162856788315
10.486689472936586,29.087695602625345,22.166137324963696
1.805015639984572,18.246512016608467,7.123662197875485
5.442457866544847,7.983159949313836,3.726032371314733
10.367453587515287,10.710867775260846,0.6691790429164208
9.213137185480775,9.898729630467896,1.308687683632565
5.476929956054714,7.2632490120248185,1.7427802034790612
1.0204519306552446,2.9670723869859015,1.7988452838023075
9.814284116920454,2.712322463468932,1.3950843190561482
19.802926935025667,9.404806858592057,0.6943045476512028
29.411242757717787,16.56114232421623,0.08371674989009839
36.835486861595335,23.35077996073771,0.1369130569392178
40.34689449568375,28.652587377055614,0.12709369502455525
38.59419729012351,31.257945431507313,0.8688689159238331
30.895856476242564,30.190244630977634,1.9733042530514922
17.511475076145807,24.992333338057126,3.1805886913980435
0.21222807404159041,15.9364209782926,4.094686666228644
20.045619492189918,4.225019869593852,4.255299899171963
39.29821997121645,8.157103281346242,3.3455035026565265
55.13331196520202,19.160599951577407,1.325186463749995
64.97288795595291,27.23795090632394,1.6196356556202656
66.99367570853265,31.487459605955234,5.175643270265104
60.44119523338314,31.6295190667354,8.924098794417429
45.81229400778758,27.813665660299453,12.254954099676684
24.826954359488465,20.536347090290263,14.414619077150716
0.17471945586338533,10.72687851646756,14.772007962719607
24.851800570222355,0.189221909956189,12.97313049412899
46.860098394415466,10.322510834583492,8.94337152375993
62.8877702136196,17.624130306927782,3.014140080709957
70.87049115948219,20.38852947573487,4.059490179631477
69.95802428936214,17.75965744216888,11.356864714242628
60.562894129105416,10.04637663085533,17.89029634015186
44.17049972213398,1.3368779546974519,22.64198839620538
22.97362419870379,14.228710028533646,24.78695876400283
0.5117959013319516,26.243393010352438,23.862367350705174
23.70112347647392,35.28840689163965,19.824516569307868
44.077553277166096,39.91667525881987,12.965452391432663
59.29727753004672,39.47161193277756,3.805096116818155
67.38064761395002,34.03964487273533,6.885734403514194
67.03855719039078,24.308865527088894,18.080103804174918
58.06151625611859,11.39655700792759,28.505062462440936
41.59295519733963,3.327405188232197,36.72221890828523
20.068442126954764,18.374874142261174,41.39167143806928
3.2285182417352964,32.2469920166317,41.59391651342328
24.838165247596248,43.53632067636736,36.98804505061705
41.800064441973205,51.04121196012773,27.769421629738765
52.10510318539974,53.91653885078295,14.755012761251232
54.825258422674146,51.8340947665675,0.5286186823173881
50.01807278115579,45.09123331729733,16.13305986968587
38.57457024984308,34.60498849637594,30.182731995898926
22.121860590376205,21.757586517050964,41.28667889926905
2.958780869825077,8.12922239768867,48.5775131022657
16.08224773023617,4.782351801763247,51.543824182156264
31.968822124314585,15.751203856105585,50.03084270651722
42.02207327769839,23.87301992912512,44.28293497832594
44.519237542441886,28.52111611647946,34.9515560097786
39.11573049662042,29.317835148340592,23.061688412919565
26.92189320949836,26.199041606339385,9.900889943632587
10.200236818970867,19.564549014558906,3.2303205354895868
8.188196393519805,10.427815615634062,15.279439424486426
25.377457311597198,0.423491283411259,25.511465077383367
38.92681441827224,8.436767965668139,33.51822988271331
47.03401880857226,14.226106603547407,39.02693412173466
48.62101477619295,15.610255780695327,41.688671704383474
43.3763507614708,12.201130414390434,41.22153045924613
31.821972333605544,4.62273209753671,37.56176073292665
15.398316162526163,5.714490737280856,30.908934616286658
3.562394765655983,17.003028382652843,21.758565870191628
22.09309694276593,27.42436518055924,10.950009456122634
37.084433266673244,35.41368025984046,0.24079755508619763
45.91114440160258,39.77769074604697,10.320106224553705
47.02637670124084,39.73649150989593,18.031877529839278
40.33746803333742,34.97738191436021,22.58748764055948
27.22087224807753,25.74010625241939,23.810772752174746
10.179436152287657,12.882259850265635,22.23243769674742
7.733157263213753,2.148844938774923,18.856594256090357
23.53853859684934,17.48618803568727,14.937746899926935
34.82648720249231,31.140721704440747,11.882898601203086
40.035238799992854,41.34688884806937,10.582630957400484
38.53281047457389,46.85324508225822,10.606475073095826
30.569115438281326,47.085218520433905,10.634574349244037
17.190819958721132,42.170076588632135,9.590854303855272
0.15905701979626696,32.854801961275506,7.027674309923278
18.159251198277378,20.344370608430904,3.072328464872694
35.02110769251382,6.09782596938535,1.3956693640570956
47.720950949229554,8.369816052520648,4.760864838367158
54.119788526669375,21.645648662355075,5.157738908055806
53.12821882573807,32.50900409457204,1.296785281801629
44.960262107699926,39.943581335773004,6.840141678711001
31.040724694685824,43.11529371152653,17.95495848255768
13.58059618899289,41.40744118229767,29.63261373090223
5.012817361154419,34.57370925675451,38.82995027450943
22.6232764454327,22.976241385203643,42.704235891713346
37.62280436137256,7.779108453655925,38.97711621978584
48.791684895762906,9.064433935477835,26.343161618040117
55.13131189791186,25.112897998941605,4.891943961993923
55.792440500990686,37.977977217156884,24.102241467123765
50.24738102956633,45.91164302927247,57.904606703724575
38.64455080089181,48.18472714425824,92.07242028371299
22.121818511462635,45.10579477917759,121.53380333631618
2.829055408463212,37.71128082509748,141.9071026781523
16.437171933341396,27.34354027570729,150.24095092808182
32.86216035467274,15.376167295146914,145.3465437466793
44.232188847016644,3.1876765325159475,127.79194246098338
49.283079882256295,7.734114526390578,99.57804949311239
47.691274178959056,15.787873158478673,63.701568973458734
39.84175296566442,19.52273566969874,23.602769172564823
26.602543719406142,18.15298433744507,17.627020689347066
9.259386052451427,12.080102452993179,57.490299479128105
10.384381149349126,3.067331414963625,93.98809507080323
29.909543313902294,6.147495023684319,125.6575378333466
46.422449937159556,12.691891951678622,151.11891372108846
57.03287545253294,14.468123272716433,168.9390556538144
59.537953649215694,10.725103730001445,177.85928142820475
53.02904248608755,2.0744075243453883,176.77441617866802
38.16317972987812,9.983895878735298,165.17382941625937
17.00060406830722,23.687025418617782,143.51975176743485
7.5000250862564775,37.419397794202574,113.41803070186377
32.08140683512305,49.764642641099286,77.61365130488342
53.65612158249073,59.314237706579746,39.30624468736202
69.57902909095414,64.52438395636715,1.8429326898313714
77.80135091442311,63.88420953329574,31.454810209726265
77.0278110722898,56.40395881790269,57.9909752273858
66.93107612906844,42.17954575418729,76.34506900722853
48.37047362552975,22.700528021710955,86.32139887716475
23.455055017994933,0.6782374591607031,88.64051135834085
4.674060473571165,20.58060112371383,84.66395464588476
32.31448162803005,38.000028509049244,76.22775933325066
55.823956523512166,49.42740681374487,65.35152043650862
72.21660019416153,53.97455291589885,54.16470363022774
79.56775220779703,51.986169813614744,44.572046171622816
77.20256127850287,44.75820401233364,37.75779124435009
65.70393253107282,34.16423794789639,34.12262246417073
46.7977279258407,22.299188662975613,33.265218377312216
23.143739373349945,11.183758789554428,34.14406144491188
2.001986970135854,2.506611404866069,35.49420462198444
25.239554738852327,2.599298700308455,36.16633846975361
43.533957851120164,3.6901171320844535,35.304974571444
54.684384093790094,1.0227811023649902,32.381514371783666
57.62781311982182,4.551651464269289,27.35359392456571
52.51792532045168,11.775923869717085,20.640247879781835
40.605661376922775,19.190633425675248,12.835196264502386
24.004650431010013,25.32625788001119,4.670305687507745
5.401793942622993,28.89553046234109,3.0632664202671713
12.288149721417318,28.993683490434748,9.652030690597222
26.340030352327947,25.28078239700993,14.400356040632879
34.972581852446986,18.339743038970568,16.828434051751387
37.63275829129411,9.458392273394631,16.898216000540078
34.737405886996555,0.010182221905616764,15.011470573310891
27.55344179070824,8.90703220650673,11.91543691333374
17.899910623424194,16.43540416851877,8.457490206562499
7.727538726312474,22.19810073484082,5.35176193414755
1.30115367647118,26.10400658223134,2.9941028644088217
8.108691111965104,28.199325352345394,1.4384033208399352
5.256069198065884,7.878637299258552,1.6798985102284902
6.1457795947795,6.907742417965175,0.8495177499651789
6.3514158058670676,4.069822328990114,4.280702922771831
4.784239786033172,0.7602568890934505,8.231905664668938
0.4847851456002069,7.217275591705321,12.146605482259428
6.856053044334836,14.469034519852112,15.344188169195569
16.559897501081316,21.383384260151924,17.090303818743564
26.945152847316358,26.746168323909675,16.721707918987818
35.6868066774749,29.473790816907588,13.87770368781156
40.396853152617616,28.76366330104789,8.630698561149373
39.241303639794836,24.210518877704562,1.4526981052361696
31.469483024965186,15.93465173885771,6.819298238526821
17.693202502483857,4.6898090669365855,15.00328382725088
0.408679812283205,8.286166285513227,21.85479176242365
20.640698438459548,21.520298576354087,26.56492372028571
40.44168390188463,33.30608393065829,28.6989282375498
57.003723617204145,41.849980574283805,27.836757533660734
67.63531066956233,45.66576424697328,23.81438373933977
70.16725879009762,43.8843341542997,17.098401702602178
63.5138682526755,36.50810651007645,8.845811808295917
48.15161002410721,24.467004659611046,0.6881740080093931
26.233518870507243,9.429698787690079,5.846217066265647
1.28929724893372,6.485592045595426,9.782277074257214
22.538545548400027,21.09075575206887,10.76871087248946
41.453183809351906,32.46733069244252,9.176241921778686
52.85248970309785,39.21486705122036,6.173891471916786
55.82502675890145,40.61303656952002,3.403392285290384
51.13954898463057,36.67683923959069,2.4619553842993835
40.81149639876194,28.12030270241939,4.522224551733925
27.430446852660502,16.221355805622483,9.839105664886002
13.499687661813411,2.6377835001248244,17.27072091596826
0.9797708292228624,10.797222233733885,24.51104212215042
8.870985794806444,22.281343720473597,29.142215552677605
15.399731579424255,30.24124025072734,29.602845405795176
18.370280766302553,33.551053036895624,25.45786579315307
17.801204994130753,31.735612896352993,17.38075197095086
13.910918898334348,25.109502324698724,6.794581527851335
7.195154580148194,14.792416692904137,4.61423364570752
1.4562710434049975,2.529004971584265,14.913964310324952
10.733959922156554,9.663572936702725,22.20380923477899
19.03353705718988,19.91169466249799,25.263678398688928
24.722728581221702,26.823484295171802,23.710763599482558
26.474457909669333,29.62771313343123,17.704594279785486
23.52661204691781,28.11658348414533,7.902373626676504
15.796369266674096,22.514332992477957,4.057745823915432
3.8579678648174,13.385754442237353,15.415269436454277
11.173126214073749,1.6383734980808462,22.986769711010382
27.775393377497508,11.415612282120408,24.16366703109865
44.137634062116135,24.06320006350095,17.933176620343875
58.26414655302175,34.36092853390598,5.4845072797118695
68.10654361932708,40.473890995216536,10.2188210204841
71.77027313177418,41.088382754003824,25.752516518460542
67.79003706913988,35.724956701912234,38.320101855450275
55.42075378370353,24.82466785420441,46.16944286029995
34.87727402267116,9.614006725011595,48.86757376472782
7.4565351725601525,8.168721145361959,47.00252305152264
24.513675407246275,26.56283666639809,41.60697781146133
57.89297392201334,43.587640395557216,33.914876961123504
89.05560685830758,57.36972706694195,24.913679706142545
114.29223027108044,66.26501992761517,15.17574966554256
130.21711158960497,69.01680686522593,5.099027471114958
134.13804014605557,64.9570725068938,4.849788361998867
124.41625826710836,54.17392790504667,13.928301091689416
100.78321294468337,37.54293174884827,21.562047187115358
64.59025884024017,16.622482308927204,27.916135793483353
18.94935575281753,6.537881078941339,33.656049436246846
31.379898184998193,29.621327003681657,39.276547892131994
80.46566472590654,50.241802035023106,44.63887112929759
122.05285006629269,66.12550939339835,49.063160210687954
150.661941240252,75.34715734705784,51.76178511918461
162.67781159129356,76.65284668050282,52.22534362085259
157.10808449703674,69.79898780269775,50.32065039765817
135.7434609604975,55.78033402636475,46.09996893925357
102.6721586644387,36.806500048114685,39.83271771210976
63.324566140652784,15.954224904100798,32.1462486090011
23.36982024562635,3.425811933355137,23.974504701890115
12.22632571264421,18.37528090790116,16.424916964536397
39.83184839250029,26.877108892870325,10.346393534507266
57.44390179163556,28.161664754891827,5.88204984470962
64.75298067982898,22.740216227378127,2.444344218315595
63.06692869260715,12.21468418046496,0.9118091433368164
55.062010383673694,1.0265525380830283,5.0088587521316805
44.311746078927726,14.17293567303596,10.463348311846225
34.556626554246606,24.412604953472492,17.701868265946565
28.82308049780451,29.38187900062937,26.756546841948296
28.69031235351923,27.5985096037462,37.17896420465283
33.973970653867724,18.785036814607746,48.067459640255784
42.95858081051726,3.9821982582744204,58.218938186859596
53.083383689314765,14.609999413137512,66.44514454617962
61.760105154990384,34.062856772932484,71.86491840585124
66.97907581347316,51.303426605822736,74.00806583025296
67.51072653987104,63.70474462380209,72.65596928467568
62.77267115712931,69.54754770269486,67.83522889898309
52.60579203600807,68.24191894818678,60.023997353121715
37.18979632265696,60.30143908698235,50.1515645818816
17.187702943406354,47.129376221641394,39.40116891153383
6.018903837744955,30.68151372842837,28.727455911371308
30.243137798493997,13.093439330619018,18.3723367113242
52.72596863761279,3.6266675453982975,7.957504971629609
70.67394718433674,17.791540518754694,2.9945612225226386
81.8799223838352,28.130785926617662,14.664630910331736
85.17271861596562,33.83035682837105,27.017801069906167
80.55037278163037,34.57331932749428,39.77672964420874
69.03058940772829,30.60980829643206,52.167936267226004
52.37621970213582,22.820004734691622,63.17630362178846
32.828797239727734,12.70664800904287,71.81060472533001
12.908330792907188,2.2477619869227197,77.14940641283434
4.771025967399483,6.41985590525112,78.64779130498097
17.787092688773313,11.423130283721841,76.23426074068522
24.318911253391157,11.553908681657088,70.06290617835296
23.573571729601294,6.52638872800133,60.457687989442306
16.06260011959016,2.971658032923372,48.12715867893197
3.578933354942874,15.4358442435105,34.206232131984684
11.149448893523452,28.85302724026409,19.999082324627974
25.043729190385807,41.05614713834852,6.6955282516767625
35.32233574702959,50.05561083413227,4.989760610937008
40.01681087890128,54.32122296443334,14.882333367812924
38.26063653304254,52.990411928913325,22.948262646748372
30.332010573509216,45.98811476128205,29.133315216254154
17.484983186250247,34.04677980647202,33.37933016446476
1.6472616074277477,18.5975027047383,35.55535533419847
14.939604370769251,1.5354419369942351,35.37767386340821
30.07021888647261,15.080144838949902,32.41436804288064
41.86491821246083,29.327180771229205,26.57249811489225
48.968552485059746,39.66452832778146,18.41549097882091
50.65599639065716,45.08275747108663,8.89436854435862
46.86673733490159,45.17338737306529,0.6633043964165759
38.183702353965636,40.14347447096428,8.63504357648578
25.763442902746153,30.796239115070673,13.595274100404499
11.218389815650962,18.46704696220491,14.665649961067581
3.566425883500995,4.884586801710196,11.744687602543616
16.677431675106995,8.042122243003877,5.578055271005591
26.421967322484832,18.478876276727352,2.6111065496698886
31.51500226272631,24.923370181710432,11.630049224265612
31.169235289575838,26.406787552860273,20.326779442476727
25.11085227625549,22.592824459935102,27.58091968201955
13.571310428931408,13.803270117449442,32.80661135522168
2.6782026880333976,1.009968581865661,36.050354155115464
22.214839017603378,14.221651190981031,37.65245021439358
42.86113321999555,29.848531537126632,38.049057574482816
61.73900366474796,43.55335447247308,37.486257795360885
75.58443301786876,53.07797117741182,35.92073268807134
82.16892437470862,57.011957491045365,33.4892990565533
80.85471022636366,55.06265274125344,30.465638972054318
72.01567182428754,47.74520857656402,27.013441793591234
57.04030827490407,36.31679358058856,23.25223752147525
38.11717572418041,22.558682301980525,19.11118995712665
17.84951868663719,8.45200318784529,14.329980443910895
1.1973225884672098,4.170945731269652,8.730184188777162
16.897284144353367,13.920701858942348,2.634097687473393
34.83635960032768,13.549513831640331,4.793036723172052
27.995231756813038,13.480496548590443,4.400137799126984
12.602304197261208,10.167327382817367,3.8638157073385218
11.454160648528113,2.6465890537667303,3.2114709259417595
42.40831240250195,9.132764948175845,2.1385920606274826
76.5812654322394,23.945370339186315,0.17884766680488942
108.88911118487056,39.34262895893474,2.932891112455243
133.7149340391983,52.157505458031245,6.9442690072981526
145.94668561097615,59.319571687778485,11.208547012036856
141.84855959632378,58.64897930737419,15.012412405872277
119.63473146416017,49.36083513331489,17.635887017129132
79.88258903984767,32.186156487646336,18.52524206818667
25.843098522867958,9.158658715659667,17.552845544297117
36.91064356893815,16.911213524857743,15.000966202825847
101.43509645720613,42.985926169240976,11.561750900087993
160.0973724386129,65.98818964113296,8.063735935064763
205.43901126854317,82.91853826966302,4.914417757233103
231.50647786445123,91.19302377620056,2.115152539949052
234.9470120709484,89.13292992459532,0.5193161476691218
215.7436403371883,76.57954900149396,3.4252597269977008
177.2177968299614,55.28613428567024,7.06619771324337
125.14028789051837,28.745288204078605,11.633857059715876
66.41835791524854,1.4282531724955463,17.13480550225366
7.69671928532314,22.370825086998437,23.403469893558693
45.60026437435195,39.604295332203485,29.961608958975766
89.60183877395632,49.06484177974475,35.99134696242651
121.91522630361327,51.336790113734814,40.25116405897421
141.3885430731618,48.211308528873275,41.22298380597657
148.0296594934408,41.93315925616433,37.648194940610864
143.07347974965643,34.57515297846507,28.87878872823812
129.00321745605982,27.710858119408858,15.136826522561778
109.31576910893583,22.360677899009815,2.3478307381313765
87.89346925598997,19.03326728678698,21.55844895576337
68.16634429675464,17.739734852830843,39.829154479716095
52.40251306657338,17.975494233965613,54.27448812271492
41.40514663953783,18.770051501649835,62.66826832366099
34.70659550810673,18.893678010636854,63.9615285687658
31.084825911403282,17.212186510583564,58.31385491585145
29.09246887123282,13.058070552273637,46.79950030643979
27.374507285224954,6.436980241619828,31.017302829951415
24.734321448641914,2.0283524670847264,12.879165800538075
20.064648823503337,11.375076452445684,5.523507750126644
12.351519534815177,20.6213288476496,22.231196974090224
0.8686518801762392,28.97502689595345,35.76506547382906
14.518592491256662,35.88046549499149,44.98161303751014
33.11056688280713,40.93139330209912,49.12092270693927
53.33873749430818,43.77909716818295,48.45940734059347
73.00360050520989,44.135537682369375,44.23000891477619
89.70057561272567,41.844699769515245,37.89584227715818
101.25465237727362,36.942597788369824,30.630124771352893
106.04794478332809,29.64680994230888,22.972761349127033
103.2090439037981,20.28876107142892,15.054258434856438
92.69340902237488,9.250390606297064,6.953249590931974
75.31043167294852,3.0137829833698113,1.358074130060917
52.6980224414251,15.85090257742106,9.818871260989114
27.209155894398023,28.281451208099146,17.96943754476574
1.670484047338547,38.983324376416014,25.07088025945296
20.988054022200895,46.47778516876234,30.410725278808734
38.14803564339413,49.50398636701984,33.54027464525471
47.8659005810579,47.42142978836813,34.428484485587084
49.133927734595495,40.46346975103982,33.325662769710085
42.01955723459938,29.719797314999663,30.526814015370455
27.694564991384553,16.862013546281585,26.38418955487329
8.383322409158222,3.7460090151497742,21.09689609824394
12.79408964273412,7.974704414304461,14.756724067474032
32.15308038025768,17.09708336891093,7.988731453204302
45.96042592257667,22.928901103151972,1.8523017126117358
51.091737429663766,25.22365625941137,2.7584590169301255
45.72013867578349,24.079950018253964,5.441473055871669
29.828909344827018,19.86938690189202,6.474333742808337
5.345935903635633,13.19812486740704,6.457453794392236
24.180174540945842,4.892173812498601,5.966552558071633
54.28304675458059,4.015314322937727,5.750878223307028
80.4737747686126,12.33026994457025,6.628023695180401
99.06527152651091,18.780838758423812,9.011213433491944
107.69387559481339,22.166023083242276,12.68467205655636
105.48230775348921,21.574182961891825,16.887310351591868
92.92338788879822,16.604369333235564,20.66422463832332
71.6361952774575,7.5405629724440955,23.33530201616908
44.13303139359837,4.594117846469181,24.50698954825855
13.624458403869687,18.16039584803322,23.828219125994167
16.218452938201263,31.165961270826216,21.117082449111514
41.677222679617806,41.610457159047186,16.432761979182644
59.59996525962531,47.8118971496995,10.079409394415174
68.067474255443,48.628475226681815,2.652334593412919
66.87492462412956,43.59733670717107,5.199402923183088
57.57529522474813,33.01338650501093,12.834538116391437
42.99385984288237,17.955827724470417,19.511793581620942
26.40132881430257,0.2534349547878673,24.262344863456523
10.688969096490451,17.69030641106095,25.86876372199103
2.114178550128913,33.264592010875006,23.365177624890244
10.846723322416214,44.162411452207714,16.51713079556812
14.904937702592322,48.91084939363202,5.940971116815848
13.951325744917867,47.23438918814158,7.096233992017254
7.92572223923558,40.07070889140722,20.879947556070054
2.6291645832592034,29.22751642970712,33.21709709182645
16.188918855997386,16.836982175597075,41.805846861613105
30.180598023175932,4.806877720868629,44.77665268938125
41.45096757860959,5.51286643396559,41.10242614052114
47.15311324178697,13.357423342882681,30.941818450881556
45.655478371045284,18.38723207116721,15.53270905387758
37.015511618890436,20.491792855168296,3.1856899186689063
22.792462704489918,19.686719679890782,22.960263059094412
5.34669346577941,16.17412182790627,41.39101683736897
12.982137538118357,10.47838923517236,56.11751698378547
30.39374818775948,3.5211128591935252,65.27919355201036
45.65846413577065,3.4535235153791484,67.73249267278914
57.82046223073158,9.114788390171734,63.38804075463738
65.89655457141357,12.337592201114285,53.43508224122925
68.85080142192581,12.437977191960506,39.7726565108884
65.88949451354004,9.289228434634298,24.468782809754053
56.8383804077653,3.301418008015685,9.43828955836949
42.32419804156747,4.670763408945798,3.8993265661710343
23.650128431166397,13.430047189447304,14.806247072725272
2.4667421291911356,21.54632249457592,23.26087485257019
19.515492040139275,27.487425663249738,29.622235388019966
40.58278562240653,29.792939411107522,34.19567747406137
58.86813829740177,27.32460375187561,37.116265812116474
72.23329004074256,19.5689660173594,38.31449128140874
78.44728736378927,6.881307246893306,37.475557014644586
75.72620942175293,9.422995729489465,34.32392133210102
63.44011791354258,27.175574274099567,29.05548642917229
42.64050488339721,43.67193816977417,22.279199175469046
16.108171923134663,56.144532935761156,14.751173059236285
12.150893754537012,62.28575883704967,7.293196762766036
37.76754050281979,60.694006524433185,0.668794448003932
56.91055704553733,51.1449626872191,4.373429784692009
66.9560277064343,34.632813329108956,6.944896329255951
66.81740508962847,13.178582751933984,6.365511160236987
56.987695413475365,10.530706187677163,2.801316471728563
39.3928456860602,33.59170251103526,2.66499937427354
17.112034530383585,53.32309485171432,8.518381651646479
6.07305507132182,67.59500336700206,13.245847839855502
26.31724540713602,75.01857617630097,15.648487756990644
40.43919319203953,75.00947225239608,15.130749527930352
46.561445776488725,67.7615364985884,11.894215152795896
44.44937365687234,54.16656462815637,6.761500804072902
35.42387590208933,35.70679811556875,0.6616239242728467
21.89675796715834,14.334722680899993,5.593895145359868
6.727815972578377,7.683718163107633,11.311801252567392
7.3554409038349275,27.98668656019838,16.112917634673085
18.144341671912663,44.39673337616947,20.028549522656313
24.53644625146497,55.48915231720382,23.032422759443044
26.581296559346846,60.8051450248513,24.908206810570494
24.929899135832482,60.61025959655075,25.61683391656608
20.56819395996051,55.76365389251592,25.35553431087646
14.619333184623823,47.52129339014127,24.593577724930665
8.195714958328802,37.316109365072684,23.925506906400166
2.2575769289447183,26.551244079490594,23.542709898885665
2.512817903657689,16.44364317367311,23.08234940262839
19.566381779872867,3.9000135760068013,5.572151067619229
14.431932593033174,1.6319774027949594,2.712770907865556
4.581829428922932,1.0220086038660297,1.4095460418102799
9.621870662954795,3.678893363681346,6.555977232636298
26.67805302597378,6.088538541582672,12.174986167225335
44.03260564689375,8.188170743712803,17.519967093033923
58.564789152450345,10.073903137746113,22.001988373227793
67.33453768308787,11.875747695494418,25.209056485060444
68.36866588348126,13.613872783964789,26.58195578808768
61.13782579371771,15.073328555194399,25.52453126991703
46.57020846396041,15.763946446434318,21.725363353199736
26.747338242545244,15.057842685337635,15.141470919393768
4.492876365763001,12.476337493000166,6.205559423456269
17.33754540771965,7.825995665004465,4.0835803381388915
36.64036720439162,1.1809842917845508,14.587369075898659
52.16905148638599,6.962081680831795,24.18942721942119
63.25802613063795,15.583801648738335,31.9353618166031
69.619839809905,23.29055381019412,37.35530122687429
71.1485380877679,28.562099318721458,40.32326907805768
67.95047454091339,30.141133352966737,40.75840337008645
60.50113468551451,27.418403036529,38.71009625421267
49.72107976887461,20.647198111564244,34.514346629232286
36.94779721509244,10.963525062660995,28.634782070201673
23.710807020694645,0.14572030524816168,21.513253358700346
11.464355357747644,9.765647540832363,13.72998482510644
1.3774174258931426,16.882429277805972,6.113720376052031
5.781314512061636,19.861219939795003,0.5969340272682089
9.632328695504011,18.185878418337214,6.264077159822876
10.180905611315668,12.319430103218941,11.213948039876888
7.865326105846367,3.673684058433398,15.842715696534146
3.668241808305526,5.628593153209294,20.662747647894054
0.7679712586103596,13.195947918439435,26.016802495155133
3.1701043287195856,16.95884218334691,31.678914478616495
0.9054848365317425,15.72517104511473,37.023472518792104
8.401683286255372,9.518999610921275,41.15686578633438
25.981492862071143,0.42971085768700695,43.092155461172766
51.08456778826731,12.064749773751403,42.12030262731134
80.55450821679638,23.077199450816508,37.98667076162263
109.09363234292228,31.433978935605307,30.965592833690334
130.32933403461655,35.692867597150716,21.830979936661844
138.42279659725264,35.05366415458926,11.68736410829794
129.68042657211913,29.256908506381208,1.7733749042216829
103.57472955310884,18.50723575599495,6.627748265395219
62.812377863510584,3.50967209902301,12.32957877102681
12.520631435853765,14.42600380576303,14.79703311749686
41.03169101230996,33.35351064475649,14.521491141729841
91.62868912737788,50.871303392445775,12.729514531610539
133.85847234851067,64.53819189288329,10.862612184887997
163.41844096953852,72.36735920953492,10.09956950900949
177.22017182512505,73.18940008593698,11.168599500616013
173.59812726499192,66.75125441553493,14.293378051838618
152.7145838659002,53.55219805076971,19.066323905003614
116.9678551314888,34.60625439616016,24.6067848528119
71.01118733763904,11.315924211456446,29.776065218592667
21.078043290448488,14.502388421570453,33.398023436064605
26.26907696057191,40.52165977678856,34.6037661473979
65.55623152457888,63.97044688682616,33.003864305823214
93.46378627770828,82.02531023642466,28.768831545381747
109.11258790049715,92.43370923556589,22.47280874764439
113.55735571241952,94.1207186414027,14.886004541408496
108.85650847981962,87.48515322486762,6.979077312638513
97.21126990032546,74.21292453796514,0.27349949453628175
80.52909175457553,56.70198118903207,6.22301178502569
60.451301363772124,37.38342528441532,10.793629592495396
38.62353121564903,18.231794017991525,14.429109627831211
16.879643859768812,0.6203304569192407,17.75981865311382
2.8721457609146026,14.530867393556958,21.292692760327633
19.011874426225393,26.541127238660465,25.149296220283098
30.613794432455727,34.89540304643039,29.1431911073821
37.660020413252035,39.34207767526859,32.90088141796652
40.924833770553974,40.057034953645086,35.73022227482689
41.58608529676237,37.707644734474286,36.715824218915714
40.75836867392816,33.32469805986774,35.07808454213326
39.17822515456397,28.050788254153417,30.731854070356487
37.15648397008147,22.900722762527558,24.254531103211587
34.75890974467267,18.652858373285525,16.11183352577275
32.09244240926184,15.887038354241199,6.663465449094361
29.49502353861664,15.041171098289546,3.499644035877298
27.48905252779065,16.35547247977702,13.728180536988063
26.52601652977559,19.692616233053595,23.352242272334422
26.638290708672034,24.357929207273887,31.795056721622394
27.185583134845064,29.091041801394145,38.63500787465852
26.880271461443364,32.30190066381524,43.25775603376218
24.141067659572055,32.485144218324294,44.83375246489693
17.647947406600668,28.64411074190385,42.839111977897076
6.848982858271691,20.545379140597955,37.41642669032151
7.794725165900617,8.734482815915984,29.246530095402154
24.90520927187901,5.62202613314728,19.31535040867721
42.54840467839955,20.933364841955566,8.727931693843564
58.66143417534929,35.33204396209199,1.4883210560913587
71.36274326241383,46.81579503849982,10.551592059833343
79.0836844852437,53.490188234349596,17.96210952238306
80.61009689956447,53.955044706739756,23.19213527952042
75.18053281097905,47.75131614073737,25.77839830571781
62.70958610404138,35.65246791882397,26.034636453355247
44.064174461539544,19.595181231534912,24.931694842198482
21.189075803154658,2.228126530694108,23.306258830258894
3.0854313572051293,13.767537627539403,21.609747258821418
25.56412056049314,26.310441725757922,19.997108140953056
43.392230589042114,34.22335490911763,18.453555567952346
54.66997499157665,37.15456259323587,16.804442471433777
58.737734437955496,35.29702055316108,14.574906547985917
56.065836003936155,29.141575265106997,11.200678449866558
47.87744103484762,19.43274690137196,6.523924780034661
35.750722138742056,7.2928598329548215,1.016178323271292
21.374925475477195,5.69400842969494,4.460255888834399
6.494424401768227,17.61562643538866,9.110275519325317
7.056418793012789,26.620046858471433,12.45957640263984
17.39675675269595,31.40518540620988,14.283834970400068
22.83112264485638,31.542890994565187,14.497016770415682
22.23288164014224,27.45926786432142,13.200127844740837
15.420306408513236,20.105200671276364,10.70307869760431
3.355575499882342,10.541681443057941,7.451658265357502
11.954204521258626,0.30058206659508013,4.126714793194134
27.84257337709461,11.557360452747613,1.7650600122524238
41.492450277363865,22.17416353659787,1.3256623317541938
50.39573465269401,30.724870961185843,2.9048937974874884
52.652374210652795,35.51216704095753,5.597501670481329
47.101311296661834,34.99634978130489,8.049993094389471
33.38802872521165,28.381762446254626,8.933905380377377
12.076153931303235,16.062111825852003,7.166736958893223
15.170517578582402,0.29498165949351285,2.1471796014695603
45.43903167053239,18.08575844421196,5.883062109016813
74.65001070674333,34.384690275117435,15.633621101752926
98.04023229897618,46.573952794746916,24.885453557356833
111.06296406727313,52.79984195357182,31.095473420075862
110.49009310627606,52.17840551095343,32.461530145872494
95.34404479118439,44.80082859636849,28.442666508396908
67.29813972354816,31.640699625847255,19.515980784481812
30.353571988178714,14.400878344947435,6.78709067957762
10.097035019189168,4.68062034708736,8.448650235805534
48.473505502898135,23.08755507681784,24.85292243455678
80.04742999495889,38.37706405229689,40.80334782361642
101.51653877342952,48.56318249428051,54.18459415584133
111.12426547068637,52.446960569032846,62.699561686012075
108.5259037585976,49.811151394883375,64.79020856632373
94.63856031193122,41.42191837443123,60.22195210116413
71.58976748969388,28.84970079788613,49.85666224733333
42.65437922825598,14.150696766739406,35.19275910035899
11.975680625156523,0.5126061798749542,18.067446036367755
16.05802734899545,13.2320602686393,0.4735007643873426
37.68496321264961,22.631664304155798,15.778202467490138
50.905103324404585,28.152661550161582,29.37522062567242
55.7013506143453,29.996114128036005,39.799786588532626
53.35496796394848,28.777654359247137,47.27483739280539
45.88226331078738,25.316587116727817,52.10093945794257
35.41099370433492,20.454309973809398,54.2839724155695
23.726098201260385,14.932668339746664,53.655750270123946
12.137107003210643,9.36547915808383,50.19768584795802
1.615230580914017,4.26053239715654,44.385688704709544
16.58256797393574,9.3709312845453,11.928255717683319
14.700911373307397,7.650670426321154,5.19748160318762
9.123693417865331,3.477552938925763,4.33334576991511
0.24407722766221585,3.2039133490728915,15.7145135521504
12.586064751194328,11.878455064706998,27.606993856148488
26.28368277292842,21.44837484178248,38.491407756914334
39.26723341575895,30.36105838125703,46.84539551619257
49.445479661063956,36.8467988961453,51.23647920223855
55.11283158753011,39.2451357601823,50.536214069311335
55.177176607723574,36.358886150964686,44.10359119840945
49.2191908470895,27.7626239122108,31.889399256954665
37.517657905827576,14.017886543811422,14.723723264556506
21.080517492065464,3.2712183708643123,5.3723022991233025
1.4283795938742745,21.75024105903505,25.552916016891164
19.670406094031183,38.84002387918329,43.19423454805791
40.09049695332906,52.15798660970456,56.41562052559558
57.41200890712744,59.87617657104287,63.97964603414747
69.36779384456544,60.99700737291092,65.31295425878365
74.2953597808669,55.41109576500991,60.58033781073853
71.59510352568365,43.84576874120198,50.76416191880928
61.91384739970828,27.738476739828812,37.45515760470017
46.93957307885531,9.05941626160811,22.365435042254
28.99682142419832,9.8907651640923,7.194792538924748
10.513295254846703,26.769170527971735,6.3548534386241275
6.362973858006867,39.53566553758886,16.908209446824923
19.941137608447466,46.80446047490004,23.923180594544935
29.04890350333048,48.09718043546212,27.673915161185356
33.031995575866354,43.87365593202459,28.714649804718373
31.84868103219631,35.3205885048231,27.59598087709682
26.23305665489143,23.982736493200452,24.778579497133464
17.800384102928895,11.40630181488687,20.623691908343368
8.924951398051045,1.0672029066888011,15.592452491364847
2.2662742089857857,12.30302821415453,10.170533125013728
0.033851602654585054,21.261272139947874,4.500061412524076
3.23852722510876,26.953557077178786,1.4734182695793228
11.279810003177383,28.570339872316417,7.453151938409223
22.084139050333434,25.751105264412395,12.799065169807532
32.75320606179904,18.855540592841336,16.79112912087109
40.46681673773832,9.056794704882837,18.681642067961175
43.237854717827744,1.864177618306424,17.895438767526283
40.246214186301934,11.969033215050397,14.134958657422724
31.72699859057738,19.64872113252068,7.3189982620497345
18.593531567677804,23.958918270947805,2.4292863791357022
2.107344571101243,24.70424464427868,14.532187070170506
16.223520922531574,22.30266583458656,27.470156012118064
34.583227318940324,17.561927864331484,39.07926906450364
50.81941139276412,11.490942489691378,47.40605864685092
62.653250077286884,5.194809859105169,51.11652724439919
68.17041711248191,0.2054997007505069,49.67360673670411
66.37881339281303,3.7106589706678856,43.36625754131097
57.52285332699484,4.662333010607159,33.093365041001064
42.964496131176645,2.9763388024168993,20.126902377182816
24.679927459688034,0.751960643108194,6.124707414498135
4.665902192468885,5.348197782195572,7.034319119712224
15.407264174827324,9.340713048555326,17.930565930054097
34.155496928194204,11.324317082177961,25.848566055182925
50.17564953589644,10.26336670396343,30.6091920472587
61.817837847194525,5.638505759702064,32.505183875835385
67.35260153191093,2.544158258022488,32.12031773449933
65.55051875181042,13.77574728283462,30.335126338770255
56.39147390510329,27.03843965355493,28.142345593975733
41.47154130736011,40.797237971781755,26.238801197825858
23.781598874074135,53.06528150973804,25.124801551599543
6.873153758571563,61.6445618746904,25.06259670418329
6.234416365197565,64.54837567586974,25.859462972646618
13.911323124033983,60.47438516927694,27.005914599821736
16.166180285161442,49.165005464689244,27.745832030126174
14.25454669153998,31.52293592863608,27.23576475763387
9.963882713757338,9.430069481485543,24.962923885375485
4.978128797171845,14.644026176639102,20.909004453680907
0.5838159102555897,38.060002066616924,15.328298755497851
2.2808879126600883,58.32553690549244,8.612116352753134
2.8707927622875022,73.30870403802308,1.4151980691755077
0.596109822175486,81.39498718831202,5.466780389465963
4.833478816371472,81.64086151442926,11.521079413538219
13.187374810753562,73.94882700848082,16.774705709215187
23.649980837843668,59.20649641669568,21.56697008376746
35.05281641754737,39.26210717269372,26.149630096898537
46.27979346203186,16.654468879387128,30.684516121889967
56.5792968575719,5.8391273261632115,35.076560389428515
65.55096271895003,25.699287003066367,38.73007714592171
72.77860383674401,41.05314984164978,41.02053327255375
77.36820959808898,50.83136854257032,41.49938702492719
77.74555135964708,54.69904167087207,39.58811566040608
71.9318333699669,52.87652752728064,34.80124232866662
58.25311390633638,45.98368910735163,27.141891080972815
36.163976399834546,34.957384541953594,16.97300724104057
6.7764349292186585,21.019104231036977,4.719729711650034
27.168576422652542,5.648135438637133,9.01354465309481
61.85921449882246,9.515393950171934,23.162649735953117
93.22204694015593,22.837612359340483,36.1459101705286
117.64308724928685,32.862423346406445,46.012007293363396
132.4091370799295,38.44831284100039,50.85183732490945
135.9041151013547,38.86089683022291,49.39050594328857
127.70595693391459,33.85668323706506,41.567755716271
108.70395746660981,23.78624490321178,28.64094802768338
81.20228887622366,9.713708774574743,12.640467524643926
48.808574480596235,6.5294691718027815,4.3439235223855945
15.935025277820827,22.49773473002562,20.56913159805109
13.06926297781843,35.51450347484307,34.411459753569495
34.89275432426977,43.21551878149273,44.15046850832655
47.941721172719895,44.10826875316358,48.438438799182755
52.45276536669197,37.92161372333713,46.98203854633993
50.04173729961817,25.632179203580804,40.51992971735107
42.96120515946876,9.19434394844009,30.003122470002285
33.44051614710823,8.89738431350613,16.63340527160018
23.342853849078654,26.028205236166997,2.515707163696042
14.152317845075563,39.78431319670952,9.974711426211737
7.101036738614838,48.19129984425827,19.104743771242426
3.199013714038786,49.93010768071182,24.031584325716796
3.0814047483466642,44.58490622671518,24.867920536128608
6.772524137504977,32.860880360749675,22.521641080456526
13.571619939669255,16.616720566745737,18.44996277089013
22.20018443831932,1.419035341843536,14.199869167153482
31.16467356967295,18.229117377194683,10.855626060713071
39.145422525128886,31.21190307830193,9.065054548529659
45.216199715606166,38.754906597009494,9.48445210869028
48.813341185804155,40.45173880923911,12.575947566436193
49.55589614809848,36.93550231738136,17.795774711306613
47.13572241457183,29.473862479986195,23.6043254028017
41.39118003606939,19.54018871145461,28.188938214359453
32.506757676989025,8.568485010374856,30.160864128192333
21.1705079410419,2.084885735980053,28.980724733662928
8.512848680239037,11.127799658948664,24.687670475109126
4.1768986885033925,17.408986929127575,17.876990270700905
15.793093482572889,20.118204735627597,10.006540432109542
25.605479958833364,19.02610991665439,2.891892711891404
33.186181571293716,14.597172464147679,1.9142544548005227
38.17857049463151,7.856554441279533,3.518468269466502
40.14246622254007,0.05308874490874891,2.122590132613492
38.65912834206237,7.711361292337744,1.0622696810134769
33.692736737367674,14.680617489495358,4.220115926104261
25.986687309311684,20.365596989131813,5.377922581146605
17.175687094225395,24.293661852533262,2.896637960675643
9.432443006179115,25.818420244642198,4.29902954650502
4.778999509321512,24.167010601703584,16.5172133915631
4.384235885741703,18.748491432554808,32.99272416829194
8.180661149482892,9.569554959733951,51.82351238060218
14.99528130331854,2.49176851507509,70.33192834550661
23.070916155619635,15.729306669479053,85.6469260145116
30.64495162545434,27.98693389604458,95.11966704832457
36.28672459651846,37.2118803625645,96.7124033382746
39.17677476301462,42.26949341559515,89.85085697444947
39.028377774442866,43.04491859649221,75.59214001615702
35.765219246577956,39.912756870726604,56.10887490964182
29.524162430284612,33.533250621631474,34.29747328502935
20.795980718985643,24.71938186595131,13.162070084201938
10.563093355087812,14.421504680210687,4.838781826132024
0.2667532916536617,3.7606435338809385,18.248182857338374
8.475388473659198,5.997983978354402,26.575251557299538
15.80716562640738,3.821983228788592,0.946287184280602
13.056412504951764,1.5742142413855555,1.643668603690402
7.20890626238684,8.197736506696934,2.059913027988244
1.3305858541706654,15.085888158468741,2.075437980157068
11.623956048546557,21.195493369623314,1.676815078658824
22.30130509657345,25.586614701188534,0.8925872975358847
31.753520166907027,27.533255355088087,0.22132271691901528
38.4251297212436,26.529608974623233,1.4980004566393061
41.18847557131004,22.3063833071422,2.663855590990523
39.668299308342945,14.85695366273915,3.479040113757436
34.340870234345324,4.524685829288336,3.841453695605865
26.362238909893772,7.793377350097356,3.7817788325624795
17.219012371676616,20.476512126407897,3.3752431433582077
8.283879833860915,31.55124474242616,2.707772249790197
0.35428111857406513,39.39402984478194,1.8140258384774162
6.543735811867879,42.98537951905382,0.7052848157699224
12.891925651610382,41.99957708148107,0.49508552029074543
19.152015039630182,36.85041707354944,1.7378249788617273
25.291427706088598,28.39940196521612,3.2439472379558554
30.64594392025897,17.67978838541948,5.433511328492098
34.225147454010106,5.692418114762074,8.680574252278719
35.26387826746574,6.671900076778984,12.765923545686922
33.68232806461263,18.478037826729725,16.67775962189708
30.169000815152263,28.639164344104362,19.189332675379276
25.86670721176811,35.914006121600615,19.415697812114633
21.901267228014216,39.088337228586724,16.854757000493656
19.04294079857983,37.31869029999353,11.252399705315618
17.679694067793108,30.43681628836549,2.6792235250822265
18.00503174727698,19.138981386466487,8.173881473955799
20.143688301550913,4.930562968544783,19.95177505851285
24.0211481062615,10.143140757675116,31.132639545635044
28.996377823486778,23.843342321931573,40.355027908320764
33.53957868238163,34.09385687170896,46.378216351245214
35.3110323593645,39.25774419749425,48.32170738415395
31.781041750636774,38.33784678292657,45.74416838321208
21.20508337870325,31.128467567598538,38.53985003266164
3.4948866453816594,18.296549984727747,27.298852550078102
19.492016051520945,1.3636028520819068,13.487861188047177
44.42899383718453,17.45983478794522,0.8806629152207723
67.53290916736144,35.5865855714596,13.811348333621057
85.61628819749819,50.4566314044218,24.01825003093391
96.71024680749967,59.949039842318015,31.064484325587244
100.07142895549431,62.69663470990884,34.87203721297518
95.78191175073577,58.25721388991816,35.52671831694372
84.35363996504408,47.147690407629256,33.58126841828738
66.63487712498227,30.762873099443908,30.171607483558958
44.03445325405369,11.197922331130505,26.563508704191428
18.79366313876766,9.050775446406263,23.558445328037617
6.054391043247084,27.48391299228301,21.52721708726803
27.202228093593796,42.02645493502933,20.831870013690974
41.88728287765545,51.392629733304865,21.595759888090562
48.62775717725662,55.2351192753723,23.331407669301537
47.52483682303885,54.02350037973553,25.174532348975013
40.009219516397664,48.723475510837076,26.02543571313601
28.258632408554718,40.42324951060759,24.760548609301807
14.690703059064932,30.111300484114995,20.85493703057355
1.7782780497684962,18.677815084884713,14.69912723106955
7.866539061369079,7.0701395207171425,7.277760201612215
11.471893176621585,3.55265070065749,0.6092938616768775
6.500457307677819,11.846591807307897,8.716351507172101
8.470564572395094,16.534297169393113,16.919941087732468
32.68111577715437,16.78550235574796,24.949626307876247
62.55139847629878,12.527939375148595,32.47867422492598
92.03470361097449,4.528159405598068,39.216933055772756
114.0335122697511,5.7577056418711505,45.00491180942579
122.42054471415997,16.480630192504375,49.65777551301705
113.86082536320905,25.683749655567777,52.87330412451588
88.68504970536472,31.46751770925838,54.603368050387786
50.51805112769238,32.10626943733659,55.182917780428205
4.974313038063458,26.2387920351799,54.89383412224835
41.88648255255329,13.204250211675479,53.56143132259879
84.70749716906727,6.5231263398226575,50.423097666085084
119.26948596417917,31.007444718461844,44.3341034185335
142.3914776627682,56.8850673881512,34.22731728628737
151.80105413509614,79.88205451143504,19.486599960512997
146.3165537830208,95.71983152495505,0.38354569807325106
126.33016570633048,101.11871553508345,21.71298098903138
94.24649922214033,94.54802160355567,44.883425399946645
54.40037765593995,76.49924049859001,67.11517461644213
12.238830220788495,49.26366024457234,86.16037776537914
26.999880471146593,16.369770034190168,99.64193415865432
59.53400950714618,18.071436552919547,105.6008319814429
83.61207236567206,49.93280019037991,102.95843365391094
99.18419511790347,75.52593109067377,91.76183110190225
106.95383002292675,91.98754345041156,73.12821906536011
107.41464568152449,97.62267196391855,48.980706684333995
100.45021017635885,92.19073771832656,21.85810085785535
85.69384860005769,77.02064848185408,5.3950959834318875
63.371245729950175,54.82694377030055,30.021478579847336
35.06643118977846,29.22026552009386,49.69864937048877
3.8947829401794283,4.011299598524381,63.02825088238969
26.071648322640613,17.49066757606845,69.73475140276625
50.85108037742251,32.9794545156395,70.32959827926139
67.57006073933071,41.365847962735856,65.59510156336565
75.03416265027796,42.706432624379254,56.22174152517618
73.71508567573093,37.95119905567322,42.90430125879661
65.29491914266818,28.65092092790579,26.68845546822139
52.0811628415033,16.686482775989926,9.164592767343724
36.54851872083577,4.037929761618092,7.777722369533555
21.05245560082316,7.40497308273375,22.532008089855122
7.6436853321181655,16.018325037094613,33.939659722635405
2.109085131228523,20.621488713384885,40.920450309985
7.319486359255804,20.622252297326746,42.36326586502827
7.937207654056882,16.094043142127617,37.62172888609621
4.76423605302554,7.78764184978994,26.949382943726853
0.7139829816286442,2.937739809743706,11.512774987648221
6.63426392274752,14.292445560131931,6.676517172731322
11.102101519147052,24.34020804326115,25.097842426545565
12.522116272130337,31.339905986845793,41.22060595504226
9.85698511243975,34.05721215767904,52.733391874606454
2.7980758463690334,31.969142587486335,57.90597897859134
8.136439868385144,25.300291011999523,56.149511797150346
21.643872214410294,14.89338205730276,48.35405458605313
35.86363315929243,2.0112895332693506,36.6721282925505
48.727203399320906,11.847056897657104,23.523406442852593
58.33685236679774,25.0736012539649,10.687250813989953
63.23520133209076,36.02982072828457,0.7796784702246602
62.479783555840534,43.162597214894326,10.483279079172961
55.58992762326674,45.22435954462329,18.647252364278287
42.50282769951541,41.569169615460495,25.72613584427648
23.67175601174037,32.405086890563936,32.078975130913975
0.33276990258755995,18.862406214732427,37.83279076010413
25.236596395067888,2.8019389584714083,42.76054505505424
49.73492916286672,13.593748298925508,46.32679309648779
69.29819509999069,28.289009482350856,47.95570224187878
80.3626511104987,39.73634474757995,47.36743996242507
80.66720857211688,46.97857182526487,44.91789791108434
69.98417682511777,49.55315309370308,41.62978732779423
50.25783250625525,47.35641896182519,38.40843011238242
25.11429031921579,40.60071792418574,35.48503247349459
1.0683302213563548,29.883459715604072,32.878893349564734
24.16411886046698,16.285660750351965,30.521416343800382
41.04023011444246,1.3666078766538714,27.79249889153252
49.919201766117844,13.031633355834414,23.33803261302821
50.39023123948792,25.13275884873967,15.647728693343685
43.23603907869195,33.583816329218145,4.174671073413225
30.23335390745487,37.655362922115785,10.463935037332073
13.927219185881908,37.240034587917975,27.101266834993712
2.669696907155707,32.73309873234625,44.163554995917465
16.505457782002605,24.90418717157012,59.55686479861198
25.04083892450368,14.852853713182066,70.9211795144654
26.79695642412018,4.029880063624409,76.45153070969553
21.963539314757288,6.2250059759195775,75.22077305063559
12.302432914025307,14.864128012615573,67.04261781144963
0.3468843999887801,20.91436561074457,52.75050890336566
11.31716554084956,23.682313020457325,34.34363315646101
20.682188660429368,22.991171238605126,14.726867283582225
26.6628525328536,19.29771747423954,3.1881350504669608
29.114317766666957,13.599363146107166,17.364391346852674
28.58817248854145,7.1689552373249725,26.57341550922363
15.008549118453654,10.117304544050558,11.964405963969531
12.733889183064733,6.207073759661251,6.962844620767748
7.633135774471296,0.12456708601532492,0.4437626802017629
0.35286568531653045,7.76591586960982,9.287412769912766
10.772473705488062,16.739279601216733,18.463614793201355
22.633727151409897,25.7041611493992,26.880807416534005
34.51878543365548,33.31454405615226,33.69933111595161
44.77180396121682,38.17024969790183,38.321985042819534
51.74219860393784,39.09246298224238,40.090162389437914
53.987288624457854,35.357476798212936,38.33768402799032
50.44131130604115,26.834724463472128,32.68025399919961
40.66434410038478,14.103752696838074,23.171480084941606
25.15330292424718,1.4438046047182813,10.501118619811056
5.3287321601979745,17.863368036494307,3.809394215152846
16.769937889293054,33.19608579312811,17.818243076882357
38.5962528531542,45.68537855334603,30.069848110072893
57.31334267259591,53.85161033306987,39.92602234886866
70.28409309954307,56.66013203282376,47.13029408272778
75.50467469756683,53.608578164097324,51.51043863527517
72.02191999632545,44.86457539141146,53.112181508043015
60.161106789984,31.34215037848199,52.10754801312288
41.45329912092337,14.585243801362887,48.45995943410583
18.416819716527318,3.45335887605319,42.003858767682395
5.824055781381742,20.748204675340414,32.68078132633318
27.958401358714063,35.491893733838104,20.704564796238408
44.89291832578687,46.25447772873541,6.938951652502992
54.179022266659175,52.05905025032176,7.096022821904108
54.38927207187535,52.4018238402823,19.873662195025705
45.40481045749073,47.30201820631592,30.543937453502167
28.511341170030146,37.3688657261718,39.05274946318983
6.218940072802917,23.80888160707991,45.53604824995676
18.145852720262305,8.306683108096397,49.80952834831021
40.96774008838413,7.24915499901482,51.41406466640522
58.84727678686428,21.126430486134176,49.89210757096454
68.98749340307354,32.05948579439833,45.083252977312455
