50.54500052201105,8.801724855146878,1.054771342954617
41.124581569412236,12.625798251557146,5.0153788070910705
20.5143154640318,17.067742975187024,12.329788630096287
10.352685732715125,21.015582350225962,19.465163419289794
48.21074746493428,22.809579588377346,24.993146992938062
87.95247708880437,20.631571047222725,27.827254890880372
123.51515978661725,13.056674229340933,27.36273697842837
148.87175076286542,0.3856197100184272,23.42480266998714
159.08117522618176,18.856682690542268,16.164886380238755
151.1339403698391,40.1536977109961,6.063703762739712
124.54855798131693,61.00645480515245,6.047784158950016
81.8230158781373,77.70201814877159,18.91987491174146
28.57616646658751,86.86309650908963,30.815431097455047
27.539930709400856,86.03332737645432,39.86770429267518
78.72694432670721,74.1041818001929,44.69790485498277
118.24820041051522,51.76561107873695,44.77552260154908
141.6619171038855,21.54656163555399,40.57094095781575
147.97440823179957,12.618050971266277,33.37031080365987
139.51928528330305,46.00446694563785,24.74337272318003
121.05241470259001,73.94785314104651,16.136117533317186
98.20850740059267,92.67839853763458,8.521069812871518
75.76972221494069,99.95301210465914,2.0984236124983724
56.60636161356701,95.44295205558507,3.4991114752692236
41.311191575255755,80.71924756031316,8.64203728891339
28.68847150742333,58.90731538072268,13.373768601697616
16.75290367089831,34.0803135301835,17.495601151498953
3.7559048973349203,10.481695324006726,20.81185499822825
10.969336396061419,8.25727824007699,23.270802120353476
26.66766873265917,19.80304930183256,24.960411512416517
41.274517123760205,23.53578535023445,26.051381688348823
51.91809667072647,20.584832711788824,26.712341054733084
55.70262288820109,13.45794999316004,26.991875893494843
50.55924237342863,5.332845006010275,26.702140113137457
36.04601919029264,0.7788090703676509,25.45733429771921
13.868499243341041,2.7664196149263836,22.973002535390783
12.035997121076777,0.1674764780524605,19.296319568969974
35.98012877517467,7.5026179822831605,14.751173519936755
51.647117714152266,17.707941207677315,9.829808177443304
53.679398202997945,28.710644789467096,5.073315469421534
39.38839016891841,38.360101660243295,0.9071049430948837
10.021055302901875,44.78123504251373,2.4955038625409767
29.008617509959592,46.60836300448198,5.266212957272502
69.20375978505866,43.13535019568443,7.632881966997019
101.23279486852569,34.40937480516616,9.644611677264272
117.72698957258972,21.248027988215657,11.25530950002505
115.64960147043777,5.149255259794252,12.503912479674968
97.32611573452967,11.917972956835163,13.441005394613235
69.74478342304586,27.8180871700888,14.047994936498062
42.343912376990886,40.57423167271059,14.303920038163916
24.065918146832942,48.63606297234329,14.26563327153812
20.70755398241625,51.0509920890131,14.05639344489095
33.32502180398499,47.54768588015991,13.684973127288094
57.9907767802036,38.556857719820606,12.919232001372327
86.75345374916976,25.17115055854811,11.482861478752294
109.38379587329882,9.017084795952902,9.326102828428192
115.48831914169956,7.9780936232536375,6.708841770233702
96.71727171320755,23.89219000843303,4.160616298917933
48.90668838418128,37.09746023093276,2.3622234255544456
26.13950225011027,46.41742368882337,1.9071078476280547
119.79362854144723,51.10232789909077,2.9626342283213054
217.34091543294682,50.68492142927763,5.089174020576395
300.6108751511537,44.859679630224136,7.438977954879498
352.12728596763014,33.543266268764484,9.109281966416068
359.7412165449561,17.149065918122936,9.402179103630479
320.1749017179548,3.064597787245939,7.9788755065151165
240.0977146557254,24.827386364139656,4.92160989530053
134.32304955495155,45.11051337657691,0.7315278958296472
21.754136688188083,60.81149614638111,3.8133966381349618
79.42640496698739,69.62167988658548,7.865167769870764
155.63886904070358,70.69753383859637,10.57054277158018
199.8474264097839,64.78147023149478,11.185013820837554
211.49190864970595,53.69425919209928,9.402874993124227
195.1113241697735,39.45643444548774,5.625531655492466
158.56458830563628,23.475083217220345,0.9029426662062965
111.43336499370577,6.2210781692926265,3.319305271058118
63.6867638173494,12.454964022898722,5.492239757064138
24.328216198558323,32.59335437937856,4.454366292223335
0.11315693822636898,53.425304670524696,0.01985277741867013
6.939248061244124,73.1262166968499,7.065853651196932
2.1259564761293883,89.19502414323763,15.054102925712902
21.603064401842964,99.25977294553088,22.13927936604732
44.15473676999535,101.85875717017551,26.739229999777987
63.09081203176575,96.80322665678365,27.868369221654145
74.44963283785464,84.99560777927454,25.313304826695997
77.7657850964169,67.89610917420929,19.580790714932807
75.30819849106221,47.026480120897496,11.76130523655877
70.30134438661626,23.803523264910158,3.2723973943438396
65.07293085382436,0.2781839659155694,4.594429328414232
60.00176063673794,23.36017014752891,10.895396170204185
53.63224299059135,43.195213957689354,14.993267114516414
43.67777863873968,57.581752516236044,16.69639749851903
28.25753227129399,65.12736929613048,16.380145211621212
6.765393516039199,65.96168347854984,14.780683990677648
19.92138566915259,61.945846266194565,12.743738600820231
49.79177553385542,56.14139207858957,11.02109610337979
80.2756446965278,51.71956399924185,9.9288528043929
108.74604188936738,50.78096087756436,9.165023075740798
132.807959988857,53.62232389297244,8.031766847902638
150.41304295719578,58.79571094961207,5.763429808360736
159.92913645060116,63.870769746571774,1.8899538194086263
160.25536896647114,66.47260374234527,3.4364153757218903
150.99304070858545,65.08958654859738,9.45137960562101
132.61817529527218,59.31563359092916,14.92800046741541
106.56956179287398,49.55859998012037,18.41373304742884
75.17361983998504,36.511998885539434,18.76897720459503
41.36712337623238,20.73878239554921,15.660576694874148
8.241758804587104,2.6162145422800283,9.751751356436408
21.47585495445633,17.375204453572678,2.496322451340502
45.82568610684293,38.26824980148964,4.503646628008512
63.737660289619974,58.402391596803554,10.059791001341555
74.83327640915302,75.562381293525,13.592602378923864
79.01118017051311,87.45724879237082,15.110836879329431
76.06622783489128,92.34898811670072,15.061187295581892
65.62066839965946,89.58474800501114,14.215393976193466
47.50914011546065,79.84429930934938,13.52418376623428
22.56077013024168,65.00786721563466,13.69374307152865
6.553596715268561,47.691685498397334,14.783271958398943
34.89856031258258,30.59430505819782,16.26134178961256
55.58798746485765,15.833412056396066,17.251440525880934
60.97166163789307,4.499893842117052,16.692537491682906
44.656462347629336,3.427241607211345,13.683652010782247
3.9571413944131475,8.81707821949134,7.872931968661937
58.33379905323458,12.862697711754729,0.4301797584722098
133.91880716164286,16.51860295661558,10.27465257036041
209.87851783411176,20.181884713242116,20.19597112457153
270.20155391854905,23.719009994109495,28.518829891221603
299.3616653467035,26.74784201088892,33.74256626578689
286.57683867861823,28.97885788596902,34.936421122460565
228.82503739272894,30.383697584635264,31.95881804084255
132.36492657360884,31.08489678691787,25.358202056867732
11.838485426173635,31.097216176084682,16.206573792861196
112.78044053971807,30.171486789024183,6.003345599821104
220.41546222665886,27.925740350421346,3.5754872205014183
293.40827937788276,24.251163735025607,10.9934728135356
320.93988923224765,19.73294039218336,15.17194769793356
300.90283405327534,15.743108697888212,15.865856892234284
239.9462409694511,14.003251855260709,13.68976816620764
151.8301472348448,15.718625042023877,9.75742355508666
54.74462865883736,20.72119138986472,5.3756003155571275
32.19143733105765,27.140790243395745,1.7310440788156936
92.73315782989772,31.87933257137046,0.5305001019389153
116.613989691159,31.76122361385328,1.41576500829502
101.38090535349518,25.301379735108476,1.3095692993896528
52.68715831233647,13.23997028651513,0.6242025585685446
16.85112283687281,2.258134057920102,0.3870558313888134
90.92904986212936,18.33839752233796,1.6212206503149693
154.01117312328643,32.37394271094754,3.0329646157762746
194.87957170008823,42.65959795215654,4.504641363162733
208.90483332695354,48.61911307551308,5.767645516111703
198.10893932653147,50.54293219996937,6.512583178345325
0.5746559870107234,20.681017931720902,1.0447605866939758
24.387977798457484,16.615522636297502,0.7094755345196847
47.052465949194996,7.267588163126684,2.74850869804899
63.793996490454695,6.514891192119535,4.549186528898454
72.00047773124159,22.69338785088168,5.617546816109303
71.66742935803316,38.526101059228914,5.5992335729895775
64.62076692200063,51.2245339873992,4.370422515466631
52.99158165107973,58.556488182314894,2.0647243108915396
38.08528578846241,59.199944144460794,1.0416863246752666
20.07189793576701,52.818453035511055,4.63941278480259
1.318474631526613,39.90408318430328,8.354477821104338
25.27451406092092,21.535689710440742,11.712450926903918
48.57811057410368,0.7017438330214489,14.158102251157914
66.87803968035377,24.549121815475807,15.09185574753903
77.65312606729691,47.078840032826896,13.992158972910662
81.00672491842349,65.21486598423233,10.569016417970527
79.12861836714136,76.41765923588538,4.935007411965336
75.22638794160682,79.26509817956588,2.1830325041267558
71.25954691430697,73.80224327808672,9.56690241712672
66.72476018450826,61.409188597067896,16.027109549285893
59.02249965816003,44.30153166905906,20.7582503103222
45.00149398764305,24.87885187584868,23.401730332162973
23.249170812999147,5.146492302756225,24.02240496669149
4.696466478364875,13.495026361402815,22.94176392092245
34.68001228498605,30.093537550509094,20.51918342047132
61.635463515639195,43.78829023388278,17.053851000335445
81.72350720872856,53.51567837757902,12.809505755758217
93.48869786773412,58.02792907086801,8.173318771992408
97.69141780484868,56.25926541571751,3.7307771369915375
95.98128347542797,47.90653710458287,0.039507977489926634
89.45836963470771,33.91087272754631,2.645661116478382
78.13164558429767,16.537061637984323,4.464154240586484
61.43159214538316,1.0368806206928114,5.908834934698527
39.382150805749944,15.489383693801843,7.707364333467537
13.51473252994479,24.189473488546742,10.634294944626168
13.123817018256592,25.799010587500412,15.147791784827294
36.9085632371939,20.465377631476386,20.95612185064384
54.965945885330186,9.609877936139076,27.055644570532937
66.05858775671629,4.52641436891723,32.205635844816754
70.58612367928816,19.38950679088553,35.256603963717325
69.80965043387924,32.525565517120725,35.39734350074692
64.87142855183687,41.85757339970013,32.39738935127172
56.2628550963211,45.86894849715391,26.55598830002452
44.0646107395737,43.72197001411016,18.517373418590754
28.77902443598539,35.3251027520801,9.12551086847456
12.13199388195307,21.346885364665983,0.6839139261802215
2.7638689942640315,3.1382296488097525,9.906215911313764
12.172834273100587,17.45344254446066,17.567293243987308
13.23467821487053,38.351137755208256,22.943070827124497
5.525494090003719,57.53921499824514,25.73034082171882
8.107969569522075,73.30888697686036,26.074579316857925
21.946145324608917,84.39307293844001,24.488314280580678
29.01401787733562,89.97377709288418,21.775642178651356
23.384428288581468,89.60878950250503,18.886283511174106
2.2641626430886372,83.1326922581393,16.55031408803937
32.9847192311314,70.6115328904038,14.952361899336411
77.1800406447144,52.42242520921813,13.840754936463371
122.69445569922863,29.44409891833638,12.833715791776953
161.18007201715912,3.252259324141032,11.51859875857716
184.95662850499292,23.846808894680972,9.549600314633377
187.7845848435592,49.04635939633059,6.8448619249303375
165.26945174949813,69.50884237844284,3.6682885935550473
115.43176333363755,82.93299442264338,0.5413888628985746
39.73921347837895,87.99134041592085,2.030356506878217
55.731248824119454,84.47384027622476,3.7793135009479255
159.80834359774454,73.14467290897902,4.651247264490658
257.2469963154961,55.46784254216762,4.798323224418024
331.5538611468228,33.396681879627636,4.642473326021871
368.909838359687,9.33058773081696,4.772009288566855
361.72708905937725,13.850142929620743,5.651699487822268
310.4657166322563,32.918372657612444,7.385232703189856
223.07473697847834,44.79010622430204,9.769589010262736
112.48591497511892,47.29894197147177,12.57267805651882
6.5656669862689325,39.944306991593194,15.62097775359076
120.10037606859962,24.232727750483562,18.585513270476902
216.27341751201834,3.3466487308236386,20.96045475244925
285.87082006564,18.793075780252135,22.270768163638614
322.6284797346157,38.639328957806015,22.10313780506593
323.86635161092704,53.786347647137674,20.092213901694365
291.2955336978837,63.103105546015165,16.062794465208594
231.32640273571826,66.33837620126836,10.208222145594775
154.2028862080518,63.61323208921774,3.0894536043729937
71.90469005002124,55.22767610467553,4.591250764409481
4.4288687007207415,41.920727756172624,12.12913861981173
66.50224785406533,25.31673631167236,18.770098650039436
109.57781701445334,8.06581219451814,23.720534387339832
131.9074450872647,6.669624797553485,26.34061884091586
133.64958631736056,16.304358238786573,26.386989503080958
116.2122094428279,19.96492323829631,24.021197183280293
82.39358567941483,18.98762626833958,19.64549387321496
36.932040621404795,16.39848716840115,13.856549236419797
13.333559194731807,15.574080435155903,7.5393978246379385
60.2958436907079,18.77102253866581,1.7644791948687817
96.31370602229677,26.270643623265048,2.682799592030531
116.06967506281904,36.53751586457772,5.4991042955948055
117.60747685425933,47.217943015730356,6.6403183348908295
102.08107620967886,56.32335962083934,6.288160416858641
72.5271043385038,62.92366921640597,4.838942294561051
32.513286147935766,67.052129883281,2.753337759561887
14.537430162537712,69.04849276848829,0.5003703900118198
65.08876886397577,68.90808790364049,1.4760379527344458
114.75382606729708,66.10497110854342,2.764386957253695
157.89848958946288,59.98407130267723,3.0359798398428306
188.13903289470056,50.408289423856196,2.275793871268699
199.72095718197585,38.16541223667038,0.9618064537918357
189.23605367179053,24.826075045685208,0.09638471817586557
156.90858458451711,12.115381752220586,0.18323219024772885
106.89698557786875,1.1795833541557654,0.8948931376336078
46.541575500369504,7.823193028499818,2.629213333129705
15.080975778590533,15.607352681077693,4.03346631462346
68.81856773039941,23.244432075679807,4.004415507373607
106.9215560955632,31.588328058762528,1.7372052917692828
124.1031101533546,40.932198390500346,2.737490260092145
118.14306842049612,50.97877820958656,8.571745844748623
90.05933589105646,61.01259029664003,14.650931513552708
43.909749681798175,70.1027974716487,19.876899008260274
13.655788572809923,77.23851110861612,23.377457185639543
74.0106125243261,81.4161277933863,24.758793686302518
127.35344968975723,81.77954428675038,23.993553702172836
163.82369317908757,77.83697527156822,21.19105558040478
175.0049489757187,69.63981850182105,16.534210302689264
155.69094792050296,57.796092988126475,10.34032124586994
105.53481955575768,43.27087330153814,3.2035445552985466
29.91024597175036,27.055122575992918,4.056706631994914
60.668349727589344,9.90809857958146,10.586071905941719
152.6746878443251,7.658170602858864,15.535802811177566
232.6124868851547,25.167515622149267,18.281664547033547
289.872918733292,41.904708194520715,18.782824760960366
318.38677925371815,56.77384149058589,17.595494088847357
316.6196170773412,68.40347611729965,15.68243110280964
286.32795484941454,75.43824517215303,14.0418749104226
231.08886678040574,76.82501236147287,13.19396828928465
155.46814151162516,71.96565666813149,13.11537125214469
65.0694211149517,60.78029260607571,13.52176912323305
32.982769170765096,43.80425960116914,13.977893421951203
129.9379065390834,22.39490123583605,14.003787370017587
216.2141088912566,1.0374464121497537,13.28279577354522
282.91804616977623,23.027061299551868,11.682686549334072
323.40576471030437,39.53174498141051,9.162662074014845
334.2065188663109,46.9174107914459,5.815963261023917
315.07753134392846,43.11399359098807,1.928990571686192
268.50229126297285,28.4166913857436,2.144815150654611
200.53443424963174,4.937685703644809,6.12341922034349
119.43022058510793,24.018885743790793,9.800483084395344
33.01915703129045,54.15189371338505,12.905886649568712
51.27339334481765,80.98757466064671,15.058307493258894
126.31325972541744,100.74639176616402,15.945193691308164
185.59258243848424,110.99132286004682,15.487766464139474
224.14073599274568,110.9266274891131,13.890207406671093
239.6234800205578,101.37617892963812,11.532887853454522
33.73497870929422,27.695530732659407,4.648614861611454
42.41558845831481,30.177942139856885,4.683987076437102
46.10130075406345,29.134182231085603,3.90922020254908
43.81885241923716,24.430736514827363,2.2675585277022052
34.92489323667392,16.22933329673885,0.13549494799276082
19.04892313690655,4.676815284347966,3.044738235854543
3.390572066477563,10.141878972649566,6.007814574773636
30.546533676458132,27.9442903290138,8.384535360295112
58.7397182749007,47.83906641814243,9.561274698416812
83.04849624012887,68.06427334718283,9.15842360381524
98.67952314148826,86.07565071421665,7.054727022189054
102.17688208515395,98.96621097350126,3.4326606660299217
92.0961011257703,104.10334125459312,1.1174754163548297
70.30303475933181,99.86895364662615,5.635396446346318
42.31079678522605,86.18030873914219,9.048668705862186
14.263256654784431,64.37100257885594,10.536493515558519
9.719093465417355,36.60140530311256,9.719716543321665
27.872527117786944,5.329725071538201,6.675454426005617
40.31796603419918,26.92956843820503,1.9291587369067837
47.480430122647284,57.58704055084342,3.716006119818665
49.053530154496606,83.95286452105583,9.436155966560401
44.45577322414642,103.47889862761379,14.478405468112012
33.88594957609395,114.264930389023,18.186088921337337
19.541447350621006,115.62436846223058,20.08437716932425
5.560825787953064,108.39475378084997,19.959593865518407
3.425850042307057,94.79878908456145,17.94375923454344
4.227970230985204,77.90513611853166,14.561023820369904
3.4242329732491883,60.90396194903734,10.548896749441054
16.99279964309368,46.47320842034645,6.611790366292378
32.6440004440257,36.368235559973655,3.2371117216782195
47.25103280043535,31.220124800443568,0.4129349924451885
59.68931066095591,30.485533287094917,2.4251393310688782
70.64067544925717,32.52293351001635,6.081073561553112
81.26884120936502,34.83619074175398,11.271762127640528
91.585387898214,34.51862710276143,18.203032670368657
99.59579761987744,28.861033995661902,26.21192358277083
101.77828257626105,15.973780765203484,33.86891115086592
94.4862550676393,4.770653598207289,39.43337852413802
75.47931683032839,32.59416274671816,41.536876092565265
44.7725949925762,65.45400361388567,39.74830480953339
4.502809030462493,100.32443806252981,34.5157381903877
41.84144647453234,133.4890500740608,26.75660729636429
90.22475042451423,160.83046297013607,17.626213294681506
136.4068417818502,178.21041686990714,8.31380003089647
175.76535837690446,182.0489954592714,0.22069234236088686
203.08827158769375,170.09061307313758,7.3287983324866826
212.92075586839232,142.1513848017464,12.70055829011699
200.73151974509665,100.50188885412757,16.331864691556508
164.7305380211103,49.635614758748524,18.380701161004147
107.62198178948961,4.558350847229755,19.131489178318063
37.324628260480665,55.95716484916834,18.98475487996753
33.952347141580574,99.2729031936884,18.493359160682004
92.27050135305916,130.6876273874855,18.375086815915097
125.56774949316244,148.01796315927265,19.153096254269457
127.07236802151805,150.58914331185198,20.761466435298136
97.1584498827602,139.06244001386685,22.551875594515366
43.26984821644157,115.35009626845721,23.644318017802036
21.86528982100075,82.55419624223221,23.437465782829015
83.34928245769035,44.75372411031053,21.896758966028088
127.34502310884534,6.50159227503704,19.43456907350141
143.4621077898947,27.877808527351434,16.619792579982658
126.17487404179955,54.919292580718825,13.97020178648868
75.3174621011521,72.34014100671375,11.827064729545045
3.8980536492706004,78.97312884795868,10.237762037497578
101.16799521200682,74.46204616067996,8.96990291992432
202.00118271306908,59.0402255575783,7.6162871891386645
289.52266159808676,33.644356030983765,5.670607738037753
347.4279720940658,0.3179095138903965,2.6938513104651287
363.61072852200294,37.42073923012304,1.4544325438615022
333.2882793051895,74.60500759342946,6.624237150106386
260.45925633002133,105.44818355019036,12.679378733556385
156.93543352271908,124.46858091921848,19.570444873883016
39.125368072237386,127.70949720684652,27.05003805715705
76.17877146847236,113.62411881855597,34.52589691313644
175.31238850984798,83.37144986247566,41.13306315864482
249.63953980392168,40.52569003540345,46.00677481581982
295.70818328280683,9.584489577633619,48.542592089274216
313.89869591682094,60.671803218646204,48.24924783850163
306.7495887326699,106.29008544708239,44.62392512554635
277.95568727485886,140.6292812160523,37.298699431769435
232.06160882966446,159.3431111064723,26.179730968377395
174.60250617963405,160.3140299796569,11.694232650065972
112.06163272824648,144.13007654692856,4.999804158833291
51.238520864044055,114.06469088724697,22.110713205779547
1.7884989990279934,75.46542568082823,37.48945702354356
42.739310024977065,34.66472171675327,49.03469110426898
69.71440570043694,2.2658515250576783,55.15720057015563
83.0856592719278,30.55766149161418,55.1463324066423
84.89926213720841,47.372329587683076,49.415626445234956
78.10108553294552,51.990734996429296,39.521312217434655
65.9273073871594,45.67349671944959,27.709224418522556
51.57041230845928,31.327069425387993,16.197583635490933
38.03639876065641,13.02110891061088,6.693807749671744
28.051848864509854,4.654754662197078,0.17425258301919364
23.912183969949286,17.371245225975148,3.1585036105521285
27.264228355120085,21.859941223869804,3.827811414714199
38.848668509512045,16.524284939238058,3.0424764255246166
58.24190170655446,1.6706837016465996,2.436763848715326
83.6526684148248,20.69581126258599,3.5849786150841982
111.88651369840436,47.41155172565575,7.453044434251443
138.62389595265637,74.80388081189741,14.006008051518812
159.08271125062353,99.22906599661424,22.289022434370143
168.995208048984,117.44386279672702,30.767987364554983
165.58732595092317,126.89053723677296,37.68087312298267
148.12984853171838,125.99043709910434,41.380136870209256
117.82501551896648,114.46304661221374,40.57833285725736
77.1202872487787,93.55004040007263,34.658531730115925
28.880731234678933,65.9516135953724,24.03604416871093
24.056329998247136,35.359177553550516,10.197153922413579
78.7238913005088,5.664935132755005,4.649473609117785
131.47840240206705,19.905279097378177,18.07202170784332
177.62343084791007,39.44783097064386,27.928715417905533
211.7594630823503,52.620952187644754,32.78808758316774
228.94512746796127,60.45493737743791,32.1970603453693
226.20095870111365,64.87979652068414,26.81266559727503
203.62497136016626,68.16446641790556,18.223068206406268
164.51675535713824,72.39976206332507,8.49383800874907
114.40675986456674,79.05175807084431,0.3016066663331955
59.50399134883411,88.58649771005594,6.632254404750324
5.335515066888701,100.20097714330818,9.83368907799955
43.871629374325806,111.75209288577827,9.876472319148213
84.95845470669857,120.00366648039702,7.148614099681669
115.14699675799078,121.24338612786218,2.4270439663126036
131.550371435767,112.19346654438213,3.271633795446033
131.2939030184359,90.98916922145062,8.894520320432765
112.26440840807707,57.934963577190814,13.62808281486633
74.20122764651829,15.818298798714645,17.03606656334583
19.66662438138803,30.33554744317374,18.867666924527676
45.556415324238564,74.05873964770095,18.962912486040302
112.85892266798932,108.6382801728287,17.317487954910913
171.839128877459,128.4906625178352,14.020725050629554
211.80904570642707,130.4551799334547,9.241451693360945
223.69723974720662,114.68330567852529,3.337001234331517
201.92773814304851,84.80607610340468,3.1643460735011617
145.7933047842469,47.250933425315736,9.662584658389218
60.01534629944773,9.839837890239043,15.581399917339079
45.7412976783257,19.968588063951422,20.486914589781467
158.26403664118328,36.68546454524291,24.087424168715764
262.7416719423456,37.79297281538382,26.205660271778058
344.9168493016703,23.939876933648808,26.791930338805265
393.15276959655495,1.5434757569342206,25.834824255367128
400.28654588544833,33.48752332114759,23.31688649786721
366.0650241683878,65.96704540726397,19.349323083015364
297.3586373118224,93.37262623646414,14.272670329575236
205.94785507648368,111.31436520192314,8.714655160667286
106.36945740479118,117.35963276700778,3.4975377268862458
13.148055806105244,111.39137890867403,0.7064916699191355
61.92539059812219,95.50451801445156,3.5733234216201746
111.79161721738133,73.44149083761677,5.103454060074875
134.99306482592496,49.66967964641695,5.543870860925421
6.9947511926643635,7.146423489371635,5.250271897502915
5.157258213629827,9.488340122151644,2.328139922595333
22.05846977745969,9.710778123965591,2.030705081121823
40.24140652456025,8.096894626597424,7.469824065764753
55.37949418120507,5.499992246197842,13.3874992939049
63.65694497537695,2.885538810469312,18.92528737219996
62.84747292351815,0.9619828986181346,23.00637747696786
52.72390756752166,0.008008489242115127,24.49809427408241
34.80582214378773,0.009204399557258273,22.473503613904676
11.699779021443435,0.845314427877857,16.385425996157778
13.677718654964485,2.4018384059111106,6.289239537357119
38.736184278626816,4.673833023705344,6.733946975933134
61.48040468853542,7.757337060946178,20.538808599058832
80.35291663130728,11.12848298926269,32.67483944071492
93.9728875410551,13.00322962655671,41.13601043262223
101.19908864104882,11.223422531592973,44.53557932978526
101.49640092534408,4.4824373610441555,42.23558430679712
95.26364954063138,7.021606359344752,34.522328597115944
83.84111540061703,21.277189769591505,22.474335387556813
69.08869440450995,35.104236980901085,7.655505442273623
52.69805161509895,45.290595972672044,8.136576264650541
35.594180605169974,49.58963726284586,23.035243102074293
17.725105342112453,47.403276460785,35.29929928941747
1.6309528493340146,39.701451526959175,43.55149357087025
23.133560098000775,28.456610883953438,46.97234888873942
46.55842443299105,15.89308768603586,45.43796325539947
70.30736126652508,3.8108559368356354,39.49514874625314
91.5539703540169,6.706971731016634,30.22777510463913
107.07002181164236,15.280335501304583,19.14545259552139
114.43845388699258,21.977577342234518,7.881242024263411
113.10472791057327,27.025619371813814,2.3428273101163017
104.70227487571285,30.623052015631647,10.939750419113627
92.42163196382748,32.86109776551334,17.6662806316037
79.71272077954879,33.79857202325975,22.389336459475324
68.94667368534093,33.57562872709737,25.11867082170335
60.70732433244099,32.46903139674923,26.011962840275206
54.04061154424252,30.83235725697258,25.325467175250235
47.38496917251335,28.914486764816477,23.355699505251383
39.54705004295889,26.67528755203612,20.40394401649393
30.144912898917177,23.71711090631461,16.810616622251025
19.331001476804598,19.445803164715265,12.960606463924956
7.137582717958919,13.455895390748328,9.237180910602692
6.9562891273593745,5.943285789212613,5.951379111407557
23.854485266356615,2.10807342339699,3.2525003571924564
44.1911100468487,9.149223189929907,1.0959922476117938
67.6821780027911,13.677744137305494,0.6767332326994586
92.9671659640172,14.970352723973498,2.204412976736911
118.04439053626301,13.544132175475864,3.5551244678336116
140.88329296836298,11.060762483141195,4.733672235003501
159.65682558862292,9.665293084269727,5.688404212088265
172.33394563713475,11.041132037830911,6.412025696159475
175.94605409848737,15.639942955301718,7.054225759744044
166.32996578787834,22.45371776105512,7.8297161934440584
138.96876528485328,29.393588273199263,8.800215142003614
90.89954397715749,34.03039383575592,9.770010581939559
22.955000800894275,34.30372707089977,10.328752145834317
58.84295403340348,28.92409692849772,9.979938682323276
143.63624119089377,17.448254216168223,8.291767045306727
217.84283218370533,0.2110167783237476,5.064837483927233
268.25859270731394,21.636687578504578,0.5091820209304123
285.0628068749772,45.90759317679246,4.7117042888427685
263.7738898579678,69.1951126831083,9.605572848076982
205.82730150426036,87.0305185263186,13.108750738695933
118.11452141576832,94.57287186793894,14.385210305645355
11.936602784845434,87.7880712198871,12.99275955463652
98.38664592855851,64.71796988736496,8.897234194284405
197.29266095085305,26.3333902969651,2.4219245084283956
270.29687835264633,23.343846653637517,5.769243173319468
306.6725285520722,77.8969474510772,14.669891697394995
301.8735787123446,129.67451016699118,23.02160991937317
258.88138900533284,171.04714575715002,29.502257651677372
187.7466939118193,195.49827285109498,33.04023281908675
103.23057055006517,198.47610404215195,33.09355694746063
21.225462950313947,178.06824413446188,29.63700597626292
45.01496212785503,135.5476415867524,23.08632828011615
87.77220184907034,75.62190912691284,14.239032175543421
106.11679155421743,6.088774644622311,4.067618615259093
105.4142837427803,63.269382258637506,6.431921841244533
95.37987338279237,122.47759250196314,16.302482469881266
87.12775606613592,163.42268852790082,24.684922338106905
89.96159879609773,181.50635595201624,30.802663283583982
108.68421191436384,176.38224102593787,33.96540904505373
142.07505790773564,151.59722533244462,33.692668378808776
183.0800271554345,113.34830048475897,29.928163896617242
220.716892261192,68.89243570083288,23.275351064100185
243.1100092661446,25.136774579521994,15.053716709848258
240.7667149993512,12.317004126559455,6.982899856812574
209.04657387907926,39.65209827137004,0.7286989398978791
149.1326028315006,55.002375190285925,2.493481964576356
67.53452656854705,58.479426098750814,2.342003394209266
25.397948580276413,52.05779537815914,0.610853499879313
117.35557766421557,39.212824706871665,5.319949492038308
195.92717151155765,24.232707042873013,10.586436992194209
250.38011131679085,11.221873223161994,15.270771709334795
273.4219396553485,3.056156654532953,18.432775303126594
262.7763387417437,0.663235699893539,19.19850197244189
222.11647569006615,2.871212383757965,16.800638224569095
160.71829564087142,6.907378030730616,10.890818981853915
91.45624049973888,9.37631820943691,1.7454318590028612
27.5504346934843,7.357497843646412,9.687692499687264
20.857483769782846,0.7291585624133143,21.901814807828192
49.02112893047405,14.74893744807792,33.107609257394685
57.856986218003364,33.00764860114831,41.66925135600902
52.235950324952455,52.77195363325954,46.56679717942629
38.34792722997569,70.92869356953892,47.57423315283733
21.441127995388754,84.5798699911737,45.10596745649287
4.904242452672211,91.45499436176755,39.941968097273865
9.167797165595674,90.13112595480912,32.88992666964978
18.729091617537208,80.14091489687316,24.377368398315824
21.022360244219218,62.02963771532285,14.383368291510063
13.01912774654577,37.36027332704963,2.899817494147979
7.094324594453208,8.616140567248461,9.630389918432758
38.20974632796318,21.09656266718232,22.20055792193226
75.41903140756057,48.57106097971988,33.45300085058618
110.68752312187688,71.15538926668927,42.10292964190198
134.93390307541864,87.34408216038727,47.13846103784799
140.66404349420947,97.05433418191478,47.90915092337357
124.1527071437825,101.45189980925049,44.319368335838284
86.42348699115192,102.37342888246424,36.81500590135805
32.844491945726155,101.56177788213925,26.287823409724332
28.277009935061756,100.02789512835577,14.063081158070059
87.49104029590332,97.77748792218836,1.747111127621294
135.901854213912,93.95469983184933,9.022366967952202
166.50619757740964,87.27635299584425,16.871204728203537
175.1372952227724,76.54842699672477,21.048275363544565
161.0686528469965,61.08396575393964,21.675445946391164
127.23450388625872,40.94445074053181,19.728980452782043
79.96357917889135,17.035930116113157,16.670352855558146
28.082018675313485,8.880183528923553,13.835734166699288
18.664658593575567,34.28179163796909,11.915012375221677
51.616895811222726,56.17834906849358,10.752856732038623
65.21503315868146,71.64355417787922,9.510394460865436
58.49499840482207,78.54646643755535,7.211377068600055
35.51186607140092,76.29796229182602,3.3371145762099625
4.47528318329939,66.26848930708061,2.063068923821903
24.237626400816925,51.62132949266669,8.441694492052417
40.753338023214276,36.557647690297024,14.79286650700417
38.29687908873728,25.19743506994514,20.029973789465693
14.91950140541933,20.511027060295525,23.26892696138527
26.091360854685863,23.67998053874203,23.767357458830134
77.2027915046656,34.02471409699957,20.981187274168914
128.6514713886162,49.399560351942,14.694673166438559
172.01946568537244,66.86684866463047,5.145909269494093
202.32308992087047,83.35773085075736,6.819340314929591
217.58594912807942,96.16022489156505,19.71076162595733
218.25866196936383,103.27371865873182,31.54271211500431
206.27439279351273,103.63503419251388,40.269480470462504
184.2511556680556,97.23753755353727,44.436042135168805
155.0639022764469,85.12249315998983,43.65289272595973
121.75587878147073,69.19020051617744,38.66113978070322
29.27892245345566,2.744786684443087,3.71084462608725
29.11794885448597,11.36847569500855,3.965342400095879
24.40032384334342,19.712714170945084,3.2366016195532286
15.152660706388453,26.24977533135985,1.1883004831873174
2.134122954485729,29.818988558878967,2.119259389187456
13.364714920295894,29.769642078063946,6.162858779185793
29.79175734914079,26.00133689599041,10.041363486547304
45.597979003308424,18.90679035741109,12.650983339134001
59.37186119316796,9.34802006363611,13.07551599183829
69.89913239812286,1.4768049402361376,10.980299026398182
76.1394644834624,12.243617382437384,6.688167215851491
77.18223905480417,21.586020826628996,0.9489019869723289
72.39862050231223,28.092243864290968,5.387198397299635
61.88210000325835,30.938129103785375,11.536854105538465
46.50030518986391,30.6381886876258,16.72329075409086
27.33235642251731,28.562058782283035,20.133304320149932
5.521575748056687,26.184712402717988,21.065099249972377
17.463475365620134,24.704377568606727,19.089517255757897
39.70084386717401,24.5761356256369,14.199132161843849
58.763234826693996,25.507506626941524,7.005658373390983
72.11611251461338,26.68711761369647,1.2972703634952163
77.9126223652029,26.964083156128858,9.247270733860242
75.76428788921629,25.14658118207999,15.541559781829548
67.15982276813416,20.201197897179394,19.493654295467923
55.03988635071008,11.530838768663616,21.154265293280073
42.653361342332325,0.7426562603558781,21.047213620898102
32.210636141215026,15.676423701854004,19.86353679185625
24.02619412089602,31.609409321806154,18.158176793385778
16.791046789733002,46.61350795919835,16.12149464447718
8.82624404312443,59.07209386006217,13.624218511125774
0.3923514798456121,68.09394921522447,10.439333156365546
9.38261236627339,73.54517794249925,6.447160696383812
15.13216015444282,75.65258713776885,1.7295441083012673
14.704418751650682,74.49377010258931,3.5330368361798254
7.033049465325809,69.71285757808695,9.158219076887695
6.267146785419136,60.6633085105378,14.885979313618297
21.644961314262595,46.91489458238539,20.394497398518332
35.47453656780711,28.77228122238045,25.25548597555621
45.86329357296639,7.427553938283407,28.681691742978177
53.20632351413923,15.362044563432075,29.590995488380084
59.09972095841518,37.84197536557583,27.004681734965665
64.35214515805828,58.67187305144846,20.50287683711715
67.52992193069343,76.87126958437031,10.728565374482601
65.17379250817517,91.38890546789999,0.5409341374342904
53.680802061304185,100.71910694661271,10.949095453002837
31.73539758760701,102.97969849374962,18.20496658099071
1.7200925026526508,96.5644066187969,20.647762838958144
30.965509396928216,81.05989380625167,17.783750797205553
60.38166438703993,57.88891943282391,10.499627002838716
82.82711248170746,30.214585623407583,0.6847782623260709
98.2701164545965,2.049992254081184,9.457114049174987
109.59632409429035,22.95500649998419,17.878077626561556
120.19690487447676,42.39384272296442,22.960383145391923
131.49957757798606,55.25227920393376,23.7677293773131
142.0370431682714,61.40984143704533,20.081139832287302
148.57390600441562,60.96155512797045,12.251054940076484
148.45410614254223,53.909356290551315,1.1346415664944942
141.57679048478562,40.459532091606015,11.857227846774444
130.6762255849977,21.66139244287279,24.77383696726566
119.68455113680825,0.13484522208782593,35.323005769743226
111.19915266802,21.446811828511798,41.403697205017245
104.65087989075727,38.508212292525336,41.85821406631563
96.29143931381994,48.36786583915495,36.799439219419035
80.94151035255946,49.67557083182173,27.47161765137257
54.44358592466418,42.80832055481655,16.003014612095892
15.505659141485037,29.39274005172131,4.775116051268913
33.917861093495944,11.61794165647279,4.438580945722807
89.6089113438732,8.25506456925763,10.942188586085406
146.57037110923278,28.009374959936675,14.947400284583098
200.11631380783152,45.35764798549661,16.97638183074867
246.1557131454877,57.95152726459633,17.46064770543317
280.93796660211785,63.74699737437677,16.670568572587836
300.9147892243431,61.64249949992653,14.733876479186518
303.18397905841323,52.05480081735254,11.784287928577795
286.44988758592524,37.06211807512063,8.13608529436935
251.93224232492796,19.948473276822774,4.33377105647329
203.56176886985784,4.31666363787909,1.034853236095909
147.16530190011724,6.848007202295767,1.2628789149731188
88.90820258673232,11.83691450265244,2.400706080261761
33.67090619509135,10.426607539132991,2.4652633634217116
15.901122595107644,3.6909699461939365,1.6234149089160146
59.26963194789346,6.3457036144390235,0.13882698481814237
96.98724400761382,17.07437635369306,1.639807756885408
129.37387223627917,25.677422941864375,3.478525696796859
155.54529831462472,29.549705001038518,5.266569867957487
173.27271143907143,26.800372522495625,6.862692517215577
179.71724081198613,16.75928915221411,8.126369643553973
172.7051537068422,0.2859402881910374,8.978110680983031
152.03932320986365,20.31878505634475,9.40551305418705
120.32232731536564,41.83834370426552,9.54452137355327
82.94451539517178,60.9447201722177,9.644309439804504
47.211110088789795,75.00161590119816,9.850537557363328
20.821237199159924,82.57149690296065,10.116672011839542
10.021686224694342,83.4648674053912,10.203295671157916
17.882149428092113,78.39637986793319,9.631126996368943
43.15898065093238,68.4720284450695,7.825240811607264
80.0771159603264,54.75998063499514,4.397776082107774
119.2068043465246,38.10287736549519,0.7087162142776269
149.33395578821592,19.17212511608937,7.2385531858829015
159.94204537991178,1.3440608388133968,14.620454898899736
143.79860560445033,22.58260151642924,21.840888817021142
98.9898098287362,43.50696813447293,27.544739224387783
29.818770214665363,63.05120788719385,30.488601888966734
53.66671433779011,80.30101467536124,29.822736637703
137.51312660564975,94.58005300381521,25.232375713535927
206.73958936661407,105.34132931792684,17.26684080844504
248.58040400758628,111.9140115069898,7.354970132884558
255.39986009470073,113.27392883423134,2.7011746329854516
226.5807603452413,108.03686553404546,11.162846796015438
168.78663325682373,94.80751859856622,16.63552020166267
94.4840092312721,72.82050895343714,18.34542776235615
19.03814691907744,42.60913155637445,16.171495737331387
42.960573936510556,6.355200363105556,10.57613296395225
81.12444760510711,32.32334377512385,2.616321423207846
91.48113073866767,69.13714748046637,6.195144104957635
76.90418568971889,100.15581674797839,14.195735170976679
45.73203750504099,122.6811535718195,19.955502274817206
9.135633810242838,135.6449306495722,22.499526389492733
21.891760452834575,139.43223778661152,21.377923713431052
39.105769661508134,135.30796523198592,16.89881429827912
38.5659328956139,124.83439709353802,10.110043745880876
20.99089019588802,109.55229146093716,2.374245770184051
8.885832423367535,90.94831293319012,4.926691198965474
43.665744666887484,70.56171684517979,10.664499766792398
75.04034532616154,49.981865658768754,14.4012240462983
95.59941405474255,30.583655519646385,16.470444328315747
100.41902699807335,13.099360042302429,17.491123554965746
88.13016424939943,2.675379828723301,17.90005254675401
61.137815421958784,17.771457194387708,17.82022809727013
24.935881873297312,33.49075858889829,17.1361764959243
13.272429428772586,50.623002717847626,15.69811047381874
46.2548468694145,68.8275010278652,13.458976216559858
68.21443625251592,86.50637709136554,10.577221290710515
75.67985313081155,101.24417393732324,7.50958713787597
67.74742560179638,110.61213358933362,4.882727068061808
45.84515353263521,112.9584678797106,3.3252725565592582
13.29432077722631,107.86677572652023,3.3140084522197166
25.161786033300743,96.16000289865329,4.942141808725524
63.869865029246775,79.549142331664,7.8273096988635
96.92589509940863,60.17473491070247,11.186558721111867
119.01471471145355,40.233812708028076,14.041736702366741
126.27087622393734,21.739797551964788,15.513357774169098
117.53716398860364,6.239769695160084,15.146058505083513
94.29462019343532,5.321627490104375,12.834845689744794
59.66276359425076,12.56993916322324,8.568848428179047
18.10783019433854,15.728587433268926,2.5470323794449543
25.100523797694525,15.557280181098873,4.6600756549044915
64.58235485595968,13.167197312844264,12.128941262653052
95.58823104304372,9.748780204010938,18.772136705463204
114.7043735455399,6.292284934475821,23.58106640478186
22.79755566747641,16.86971595720842,1.8414208213804653
25.339746217287942,17.860280699809504,0.48110346414360255
24.268510849937943,15.955634827228808,1.82826946739154
19.039010006327022,9.848141412316052,4.82565228478091
9.761114397965434,1.3620130064574365,8.046391170059048
3.0294547187580187,17.62988171339987,10.863308069243656
18.6152208238836,37.56602877028322,12.646666638897718
36.170753577046824,58.39379940151887,13.000344854209741
54.620964365587454,76.37746905083294,11.754816473578346
72.39045544250071,87.6248466800818,8.843877813141262
87.23415965816928,89.01531406056395,4.321180736668028
96.32006426412659,78.98244108754487,1.5625779020476844
96.64811152512941,57.91847470184371,8.288845002863983
85.77167519503871,27.982288164709633,15.04801042318108
62.724505543946194,7.56362105149422,20.84050554360128
28.78557256037456,44.98572142509561,24.73925345091674
12.424809823810321,80.5065576050554,26.185010316464776
55.52253777814995,110.5944471185211,25.08211196646989
94.34938852358049,132.15656014661536,21.746081695686495
123.18563636335473,142.83228570831162,16.816156901659525
137.85307775533727,141.40973796810437,11.041999674837053
136.4534307877706,128.17097532615495,5.030046857832622
119.67192628145287,104.96499498528425,0.7971936546264533
90.62179921411018,74.84809865178902,6.092781518252376
54.31985887057548,41.35989089174715,10.619699160684362
16.94154497685596,7.710509864948565,14.287472881946055
15.070275458345586,23.76141085436173,17.004166307144967
36.04070539063734,51.63888846736464,18.665072921433957
42.21637812191194,75.07869927484447,19.22420170028786
32.89556087726155,93.36315041620702,18.582043955998557
11.182376469730297,105.68975323628796,16.497281599313595
16.115689174484633,111.3555557025287,12.658283977220123
39.78890665449873,110.18210974497369,7.014783170585933
50.69327440086768,102.8488483404616,0.23659399291831104
42.727795825773605,90.84979988341935,6.266921734150473
15.174068429954726,76.02202106792917,10.779049801068151
26.604766274956255,59.89645740550054,11.747381305074134
72.53641799851285,43.265347646571286,8.288781918375559
110.9132845760612,26.21805553014416,0.702127716732922
131.9421713777323,8.606303003785335,9.475426040940022
130.37079152854125,9.37821547940774,20.0177162751674
106.38361373863768,26.923770587780844,28.691867732292636
64.72758465330111,42.79278931049994,33.80685238054887
12.817118104558123,55.832881806209954,34.47567546607473
41.12864610362034,65.44566784057226,30.45772479576049
89.32071998105437,71.6609075388879,22.023771757570376
125.01992387247667,74.76442088602325,9.986068974204954
142.9813286777824,74.77152529420204,4.373901245439395
140.13913433879225,71.14917553022966,19.348647144819534
116.4580050063382,63.03806857576431,32.873181176959825
75.43752949187163,49.86265717904685,42.85994294850441
23.68450850349591,31.922193257098517,47.78538213157049
30.6331176402578,10.560550182127836,47.26073551807043
79.96905567218981,12.218374399496005,42.10628746828082
119.27060697692178,34.44656450747263,33.92351560489
146.7179897049443,54.716376856426706,24.609370204961554
163.10577100798082,72.1776696248345,15.886739552150141
170.2956268391108,86.04593005608768,8.797394214208929
169.6574025602367,95.01114516214145,3.5029922449790107
161.31714453022218,97.06888148155053,0.41628557125581533
144.42013126691847,90.06367096056364,3.5767103568603327
118.10976399594196,72.75544260906067,6.559614703491495
82.58625587747217,45.85615698729486,9.7016573660634
39.648949606885125,12.431380092994079,13.021821301894201
7.428047604697912,22.63209771411698,16.319100514724738
54.50108993978334,53.89876513470617,19.273900119425328
97.29764073770694,76.8355533908927,21.56365799769479
132.03388691656207,88.84435498886668,22.883585995504404
155.88558265930462,89.57010016959946,22.895415695264827
167.35619231139708,80.57105122033384,21.3711095456894
166.54000715257712,64.69945001491264,18.32470502416382
155.14603065672438,45.52112346963104,13.977652601618423
136.13564572100032,26.874437319666256,8.784733601620868
113.01187370504807,12.463777224088934,3.3502798465891
88.96432022255934,5.3181500653358125,1.8439550826610804
66.22560917024424,7.083244103141362,6.545795315188578
45.94611234371825,17.36404409421697,10.647338161024239
28.57046296066891,33.467640488022234,14.035953519115886
14.425331237605194,50.799648697137386,16.353081784877897
4.107296601381802,63.90622126515467,16.92840701271841
1.6105265964104811,67.87262503463488,15.124724417445915
2.2770536289259775,59.612613563839496,10.652489327020092
1.6671015757836196,38.64534047855937,3.6337910662247124
8.631244972174434,7.177119944097836,5.252978570747466
16.113142910279322,30.46294340380087,14.733386877182017
21.302248165164013,68.76704731745714,23.251837912065422
21.70757135661876,102.08639318029027,29.34606590286106
15.471520186184902,125.5844917281882,31.849151675560915
1.3272050664955826,135.96820619678485,29.983404103971537
21.538784082786407,131.92865876082806,23.579587403930873
53.335460578740765,114.27316170968719,13.259602408396601
92.99960219956488,85.71762963355846,0.275190556053584
137.26491857388726,50.372938227899944,13.69927089867912
180.0312089492174,13.044730002090674,26.70910306880035
212.6448658193951,21.509801735519126,36.78499135863124
225.45403356140432,49.22420996394309,42.300216907226
210.34515754186413,67.17469910251843,42.43570365501393
163.46498054047902,73.85764666369697,37.51413546893555
87.12557101532033,69.33480086836153,28.842906212282827
9.934331688165399,55.240299991595464,18.19404030664712
114.04755107686248,34.5978830876388,7.30467433181235
209.35132813595544,11.365767244524823,2.4510905867719504
280.92312664577145,10.28192838309368,10.244238708540555
317.4568512836491,26.7871708930531,15.733153086193074
312.9817766363192,35.938329166654185,18.88800526898697
267.5701364337767,37.22961987723523,19.958393575924326
187.1938551594458,31.69547291687992,19.46526114000242
82.8989051820984,21.32611076536814,17.99766921215751
30.66510403912917,8.328939289265973,15.91299931468462
137.41015366469745,5.447429240755322,13.281848388600366
222.5119891364789,18.71891166090847,10.082822472399075
275.1127067226337,30.620069405793664,6.321956675771076
290.32665686911434,40.41367273440974,2.089964087211064
269.90804069824645,47.31890367668814,2.355878028616338
221.30605067872602,50.58145033123687,6.5511989990237085
155.4713766166258,49.71925593117349,9.841557982423037
84.15565712784246,44.76249010242936,11.618721208184127
17.535287190904732,36.29487717845803,11.646311369773969
37.20112992151331,25.232263126411603,10.088462369269983
76.19980904528775,12.472370803954812,7.396250620404773
98.5182251045227,1.3507292409896139,4.254489852303463
105.33270095032184,15.86891542635218,1.3682256157714925
99.14435756434796,30.750585675782812,0.8799742894468463
83.1537434386384,45.36213556511578,2.457030411682165
60.831908830688825,58.542554912432195,3.4009412511267287
35.676272159324824,68.6571427150785,3.7409533339076764
11.08161139326905,73.90794111734249,3.6247535867233536
9.729038012117394,72.78467228345468,3.3304695604773626
23.78770777461706,64.4999364252879,3.1478465532058664
28.63362313438867,49.26349016232594,3.238184152153013
22.79362803700612,28.347594773680513,3.586301643500706
6.346191898728351,3.949379909637805,4.085262273413793
18.70477729888448,21.118553253089303,4.607372531339444
48.54567362687941,43.869250083172716,4.998343348363473
78.2847138417287,61.6511255128378,5.104452459059295
103.10888668165131,72.59552775884968,4.845170640320164
119.43040723861039,75.88131221302362,4.230353865167758
125.52772466096184,71.76198850718434,3.3283213123736717
121.43088605867663,61.36786425578522,2.247876673422185
108.21130847334297,46.38240879383521,1.1034298835516514
87.08422195540173,28.74622150041957,0.02204100092551299
58.80102531346548,10.485824519039113,1.038615566674914
25.68943232369068,6.361968172985948,1.9052007729075342
8.145665861401742,19.995716837228677,2.583098637705956
39.09161028624106,29.171721966602473,2.961552994073118
64.49670523615455,33.38897546184616,2.956908583557741
82.98929715171693,32.98324301408898,2.5244682032866375
94.51330617713545,29.04896809670069,1.6794223763270226
99.98279343959905,23.167902587297913,0.5424155972980547
100.65047144161937,16.981020055827358,0.6761277603977841
72.47386992703667,0.3222368645297391,4.4423633019266395
43.11919793452326,1.817474931376157,0.2216138410827603
0.1516245136427656,4.276988007883877,5.0715058757684055
51.84555157726073,6.626149404813481,10.46601021102269
107.04449435935243,8.538746903161073,14.820626078085402
159.37405883383465,9.781952392681259,16.970203117101413
203.2178862965955,10.10943431995242,16.138655318392942
233.649174998977,9.2023527107561,12.36885113467678
246.72073053843053,6.772581216566003,6.570806598856733
239.68356064065526,2.836240528360088,0.05295835727097027
211.29538847353805,2.012888130769133,5.953160590180316
162.67922411782132,6.555598561569587,10.441040105470005
98.36311262671457,9.243173882177212,12.620126642821589
24.774670364102132,8.763500017448559,12.044331185344133
52.9248595984928,4.753108873916971,8.80316290847272
131.0782247424592,1.6638820372623813,3.431003096472362
206.4255241475107,8.054743944648397,3.1562135298722045
275.351491699501,11.598752471976207,9.717547829359793
332.5372671692525,10.258527505039549,14.955839909690093
371.03878942533436,3.661874430316848,17.691902219034766
383.7124953166725,6.807002792654567,17.218709952088517
365.1350454569544,18.72659843423062,13.580599910103764
313.757900692719,29.712701006354273,7.361284520241589
232.7451586502922,38.27892585976454,0.3796703416012411
129.6025140357212,44.02634935819203,8.155615864497184
14.903144460511346,47.19853819866813,14.567333700314416
99.36138397145429,48.03511667751213,18.91903524853388
200.9926887696841,46.408019248574945,21.400613624115937
278.70732997258193,41.976233006114,22.664015568219266
323.35956346987257,34.650938814022545,23.24462181188894
329.52996413128835,24.928524768603054,23.22202921602433
297.27209435862954,13.723193744844345,22.18913490201584
233.03396878459654,1.7211849652923912,19.56624340324573
148.96792252495854,11.282263161943895,15.008102815776375
60.32550864061919,26.493093519794087,8.612209769337406
18.301423953309797,45.39269595585668,0.8588333806155087
76.42023392780226,68.46672049070901,7.528453812923658
109.37727936897241,94.09148907010177,15.641259768990432
117.86187409244292,118.29330897278253,22.547321040320014
105.86253512280277,135.69490695065076,27.550985382009266
78.37832105609542,141.27172378388258,30.362539355404174
40.15707654122515,132.1023161399017,31.087374603506586
4.095084943007091,108.33655186743928,29.994543322834936
48.71682464740356,73.0081010774924,27.263041478257147
86.50225314330945,30.93777638012897,22.910903809886737
109.45848062304638,12.600751369104167,16.89830809813703
110.922694170936,52.85101935671909,9.356969962556787
88.12000398711652,85.98013919419064,0.7598740003402362
43.86838726881956,109.12926672679478,8.15691497505641
13.59041273117371,120.49429345683757,16.606134818673073
72.71335017273678,119.628607789152,23.92811034025899
121.82280658649643,107.7903861794449,29.61872514851212
152.0512221871973,87.96462602077779,33.223321734240145
159.008697311541,64.26784619016928,34.380171931123904
142.77979282325566,40.816044300153756,32.90827707447767
106.71196835676528,20.558126646336483,28.689111872721877
55.891989523113786,4.660375217650666,21.656148480660764
3.931609997000213,7.237045049287827,11.982189871857857
66.69157628274088,16.05564735650067,0.2610098776159481
125.90298729563806,22.217382177694525,12.287046556255106
174.76404543985504,25.128734486892995,23.846647524416298
206.9520700822163,23.485590779291087,32.45429868645046
218.0608481494027,16.217878612241943,36.45172618963596
207.05380730617853,3.5144950422811165,34.867301999565285
176.87463093698858,12.699727866475815,27.85245178843681
133.6497910257308,29.098692931733616,16.710262817289482
84.5977686193957,41.92139281675382,3.3623692944400805
35.50002233857828,48.10834186605527,10.106399482345747
11.001738028686969,46.09423734092353,21.61141496376151
55.40890393698,36.009170962906346,29.341366274870655
99.72757965894981,19.37041529837614,32.100028018255024
145.05021522569234,1.4666514344380694,29.3630999430898
189.67480311836138,23.79725311136167,21.23798999474769
228.83515036333057,44.8548542770539,8.694052547337183
256.13815246950327,61.956898206120684,6.3183062826697
265.8813717237234,72.6719216229196,21.29298635979866
255.07070612046797,75.14434521865665,33.62867083431406
224.23156656064552,68.55087757270519,40.99425108629688
176.8858813291813,53.50416203803308,42.075649841404974
118.31683340456634,32.18214650814955,37.10309672432284
54.45302640062146,8.037862034997113,27.55469688110744
8.692965411808304,14.92125813772369,15.608340560061526
65.1991044876002,33.09443896364866,3.643538921995364
109.54092623239872,44.14235427592738,6.323501243125819
137.4262603952386,47.42665513418721,13.038268941370621
146.98779467199697,43.86484743115808,16.09579574883237
139.65056095828209,35.25096751394679,15.8978382270006
119.96331258755127,23.36236071369609,13.54931785159264
94.21917168100406,9.271122268972043,10.519232874457366
68.45351701966536,6.835613749504256,8.173395880247252
46.78773305256276,25.233558508392026,7.530411882455531
30.906347721321964,45.83073757954018,9.171880593479774
20.80711294334589,67.37483259161915,13.069481011548953
16.148801897712456,87.13782396128241,18.50327014499027
17.194540460883555,101.28824335209991,24.281559860287587
24.746256807175918,105.8680614883393,28.97505806110559
39.17184347514115,98.00185013014388,31.16503767066457
59.20727442985199,76.85836136915685,30.03024157341068
81.38783734585228,44.01328085003707,25.702534808831633
100.59631202555057,3.11537214220226,18.963431437251394
111.50969728132132,40.953271879738594,10.809081795150004
110.22800913932679,83.06425057409098,2.177162478085883
95.39334878786794,118.65055586187249,6.147117984559724
68.41522881062173,144.16887432324157,13.536267579215544
32.87506136718941,157.25044138534483,19.613048389083474
6.426650547585793,156.73261974901342,24.263657996327453
44.33096319986586,142.7515056149761,27.48044365012909
75.91640487393573,116.92153501845168,29.28000482472597
96.91879963012936,82.47221361119384,29.714382740816692
104.15836246972063,44.085817838365855,28.794120972052074
96.09006236756386,7.23344360101791,26.47720105219022
73.41599367478057,22.949662526833784,22.758734420733628
39.48845867121801,42.94095082607476,17.64100586288222
0.20854891945738277,51.77057879256536,11.173787232789552
36.74437316926023,51.214297845484,3.628276447382097
63.34892365160025,45.11154253475366,4.437102255361413
73.08881008049704,38.05949412023615,12.198546582853583
62.69701771105207,34.03814558785271,18.723949608128926
33.207400641367975,35.48665826481952,23.260339489993584
10.085344379197004,43.09028775496651,25.389086096007354
58.85145289406563,56.17076634253761,25.022730459415026
103.85623414679918,73.25561680492366,22.359921356592583
137.31248325509137,92.40988457378639,17.798109787481064
154.67678899300188,111.17596000393047,11.822557270548078
155.35781048146393,126.32669244000563,4.9421672376959025
142.23565053158373,133.88872682406296,2.3305562688767623
120.34182986966422,129.7709275744521,9.48615602642619
95.25069284562879,110.94639360590081,15.982163428792353
71.68782301191715,76.76277573261596,21.261128819845496
52.65543009599586,29.759692112511146,24.893673268918157
39.10965302079276,24.50569095804773,26.684488639255463
30.07427084882321,78.65292351613549,26.670755964790192
23.061433430620184,125.21507628606035,25.03585720635229
14.74470980214462,158.26223609164296,21.93215769902931
1.866032961588533,174.3684850103505,17.376412972565426
17.741924746700974,172.75798630848251,11.365431691362549
44.31499267945677,154.9137341337616,4.105497399469222
75.84038955083528,124.0408300546032,3.8580393944111715
108.4236564408664,84.6378631684414,11.688929812987025
137.265411099768,42.17131803412744,18.34270878175368
157.92277031311113,2.5931666356793484,22.73749619602982
167.39521843012292,28.50744858015813,24.198149668591725
164.12574711044033,47.5267924496503,22.690108900525413
148.26481598298568,53.585365134663924,18.622805014278242
122.24175093464513,48.09563712267976,12.66103667355467
90.25089938221623,34.32222897550523,5.61481028438063
57.3417095011196,16.4732229217284,1.6648763937906799
28.335153445465128,1.3834377615172477,8.364185115182774
6.820227061978554,16.207646711645133,13.749138411628646
5.547841168350106,26.38964987639403,17.255489249277034
23.051204659505917,15.288024990371245,28.19845906715395
29.270575859138628,14.572006032458257,23.653457419476542
32.75950353274749,11.559519979019846,13.934399547903581
31.09568062613244,5.335593917690863,0.14048168735123026
22.423141252957567,4.516205642878527,17.068533838319357
6.115570442695405,17.515463180751,34.846902075840134
16.87180748719415,32.20584368948814,51.21106335067391
43.99907320133626,46.40378459416846,63.89762805676957
71.4411849518171,57.74420695972068,70.86952036921801
94.5788701801836,64.20299525584896,70.75906117569149
108.62767379561281,64.45530322140105,63.18429743186321
109.47643702809398,58.14192288860216,48.76651717846091
94.7249258531004,45.98852193517289,29.159781496692062
64.60332499833511,29.264712298898633,7.163781753687719
22.57802362532897,9.105920335962471,13.623250481162593
24.46319842620801,13.19843124578013,30.09237373824671
67.06632760518487,35.822677148644765,40.81482736399551
95.38374425174827,56.53043154029478,46.02478891743185
102.065105123749,72.92955919515175,46.85854368376829
84.90490831339275,83.10936819215455,44.73034790964191
48.03769073600699,86.2078973411077,41.038465532514074
1.0661561302291742,82.53624931057301,36.92411137138561
43.529473739845734,73.38727469938935,33.1477614812085
73.83043784383925,60.483610892849285,30.115520323125597
81.44291634234607,45.481191507181975,27.87272484539962
63.015135734393375,29.722080107695728,26.169607205019425
20.237926904774174,14.232603835435112,24.515670998853487
41.1447992427199,0.08947459739642882,22.287164111781472
112.52657674623347,12.416970995612132,19.065991091596693
183.36307095865666,22.1239265857498,14.836852046534608
241.97596125735546,29.06539049509673,9.880296737092408
276.72912657299895,33.830248084714235,4.628237208131287
277.9398110800179,37.69215750619491,0.3590093848013737
240.29828719900405,42.20312203446359,4.452251223921329
164.9388847217045,48.5226125133005,7.282509624833909
60.13108369241597,56.748941082268956,9.042045646568996
59.978550160355205,65.5779059322336,10.293881804724975
178.34761519962453,72.50268702066504,11.545851031301861
278.73730576950044,74.55407438204124,13.081078300286471
348.82316878525273,69.32302452284792,14.978043781050285
381.89168560538405,55.89937326201296,17.21098763520148
376.9420515796983,35.368981637033585,19.723149268922672
337.5563035624206,10.654997869902635,22.346241402522928
270.33055436662505,14.256799450433626,24.820152279306253
183.48480024649749,35.44889014140728,26.879332831062882
85.84092856669173,50.17546553361662,28.28322779253294
13.866801069193128,57.56624212568461,28.895833155741546
107.4915243669577,58.70853042737387,28.704824099959907
187.87163639681435,56.11609053334982,27.768980192953503
249.12544599293423,52.79657766470629,26.11390858979429
286.83023934846153,51.225340859447854,23.692683426268687
298.1604747254914,52.53132456324918,20.49860860925235
282.1064815265884,56.114695164641134,16.547518521718885
239.76722230284255,59.766010668639495,11.865944650990137
174.60746355395807,60.232185190304,6.6112003655948515
92.47085136902595,54.11069679513224,0.9635631462337022
1.172666072798455,38.875879746682294,5.041405023309899
90.22380167639075,13.79574228461402,11.428639285191197
172.20468041822647,19.47570548031345,18.125865267049022
235.5235993920413,56.83794116258172,24.895368222510072
271.9061974107749,92.32205225009572,31.270277079163336
275.01022554390516,119.2270020227511,36.42944542599532
241.81241196896372,131.5976913887899,39.329546506157655
174.1824116382199,125.69130596369507,39.15236425551664
79.9406794078514,101.0412338413735,35.576695857255736
27.479357642091518,60.810026793681395,28.854188810163052
131.26146232964007,11.287326494344908,19.792295244989866
214.90155278300833,39.352135274771804,9.46168160778857
266.12844919759084,82.73032199830519,1.1066069588095861
279.62350702519296,111.97835884103559,10.90145873478485
257.52710562482406,123.04610988536854,18.798786724532732
207.7594777972761,115.2956749703296,23.77413567542395
141.18000238376686,91.28533620518523,25.307962981854182
68.80877952468383,55.895010306128704,23.346509004180064
0.01587049744780793,15.096176539432209,18.119952653020135
58.35838467154695,25.25132741648403,10.33536857013175
101.79956072993582,60.27034765065907,1.310630368818906
128.47504058212144,86.50660289041616,7.293733823377148
139.11966767748098,101.98133147848688,13.879792204199592
136.86169163036882,106.0370439798765,17.22341566423841
126.40080710837971,99.1753361039443,16.8659416214653
112.54870844303196,82.94238284800605,13.362362454798044
98.70169081775126,59.81280565688876,7.952723045527316
85.99093082771414,32.968206146536744,2.1408850215638973
73.57289952954322,5.90495862445733,2.6765494025136505
59.90642037825784,18.087318525006314,5.733713400462863
44.20235189322367,36.45445165182999,6.985151710839147
27.181113711319906,47.757488389216746,6.764324885275926
10.781928654669041,51.79781710310898,5.633218674615372
2.915876901655316,49.485773395084856,4.396937996757564
12.816443769621447,42.560168104743106,3.836543068637664
19.276642933121387,33.264686861768354,4.2085861805521985
23.754838200793213,24.01290917121725,5.227607697218266
27.985228649098747,17.062510754712555,6.501906403230771
33.25574467931601,14.184755206909033,7.654718304682481
40.18476721061778,16.34058319820625,8.171875786895077
48.913519197640426,23.456993423781768,7.4653969169113665
59.31551981540527,34.38438781471016,5.120819473356476
70.89678483402528,47.08283530057141,1.0102818443319534
82.3799118257023,59.00156940234151,4.6289638200748255
91.32343051876342,67.53069129167557,11.01526292608536
94.25081941509106,70.4166383485391,16.890138555610882
87.48793437911965,66.07633002845691,20.83653079917327
68.48234253055257,53.818684216613995,21.689121439966105
37.06968189531937,34.01367085496086,19.04265720913981
3.89223864970061,8.203606457353896,13.42684171528042
48.812304574107586,20.92271656598827,5.966356081600221
90.44426815709765,49.80525257401617,2.0702063541817943
121.33251019921107,74.57046622260799,9.541297917757857
135.1898952634522,91.79154395376699,15.567669936804279
127.96261799462862,99.24007990752193,19.653843038290844
98.57926945130374,96.35746939941865,21.65977634766256
49.43472603463435,84.28873611317557,21.647079634327888
13.47548689392346,65.48680439894275,19.84236187310533
80.93496950167236,43.058592437908565,16.675009831669772
141.62646803258883,20.12896624113687,12.731645110226129
184.0646359996445,0.5694425758330642,8.552027596219885
198.99339192758535,16.84631205572789,4.407614473315803
181.6187566066355,27.054434603534705,0.28904081260790604
132.9562960941431,30.116424560473195,3.915728565707652
59.7773869152979,25.692271122058422,8.213012831357748
26.788651044839973,14.446314349694466,12.410878474249033
113.47857298638745,1.74119124042324,16.135153147962143
187.2861430078436,19.80321194209542,18.878009839262266
237.4295183057807,35.8742544996374,20.05872137814861
256.64033438370046,45.98601514622347,19.158070715618784
241.88670852327667,46.85940155018967,15.969959616977699
194.71900341774796,36.5488039824688,10.70047333649234
121.25256311306129,14.786856149287525,3.9016954691609054
31.549980792854058,16.989931028984955,3.5137402485563705
61.84850756221177,55.83563482946972,10.43683482621348
146.1656481451348,97.57367099239862,15.923416366794068
210.86918490008574,137.08199011917796,19.377828944761745
249.5335212237883,168.62718959155944,20.55281180962207
260.3172561011938,186.42242466570417,19.451425788140522
244.92587099478575,185.52321692006151,16.182315070969686
206.76809227930968,162.95948243952841,10.92869984140986
149.46923502256845,118.82387097002454,4.047479877612758
76.59613258339715,56.87518309917087,3.9146066566437376
7.366194774149715,15.7445071357914,12.250931369985613
95.66590604488063,89.74268421415809,20.043810944119443
178.8606024098652,155.55515578443533,26.265710714430266
248.1353145854733,205.64237776280794,30.22620659702921
297.6850987011911,235.67109894821982,31.74238330928619
324.3587341409985,244.46606162587824,30.97038205365046
328.1325485937002,233.76348346391276,28.29002980616425
311.8195290382628,207.50119111580776,24.209479513778238
280.0374640769288,170.89592019955705,19.296596029481158
237.92169739655947,129.5412940358376,14.022004775571203
190.20332914659818,88.66468798897742,8.725750244899695
27.145325527108856,15.062367791764478,0.21199018713280043
20.66315235143709,16.624639139021603,2.258978693836881
10.751741843928992,15.574627159788143,5.104245215014036
3.248744918178308,11.096876346475389,8.019431162485478
21.391333144801997,3.1254097215191208,10.624792394087722
42.39428667299456,7.606648039814353,12.513893319177635
63.553764712602074,19.78689964962695,13.279636257562581
81.27162174844463,31.81347783802766,12.52805566386531
92.06258455060353,42.04467526135589,9.977694521762631
93.43193256410147,48.91925241877869,5.5724819114012
84.39362273550906,51.05003813558409,0.4452667343203506
65.95892739403527,47.47493389209279,7.482621104717363
41.56984175014182,38.04367056665366,14.57100500884724
15.966175812586755,23.532879534331745,20.551160384255862
7.0078843284536845,5.632749943883623,24.500594676249566
24.888701423592888,12.882359820656653,26.017968376144914
36.32529302288499,28.56377389825845,25.220058799411436
41.3210386721655,38.35322992513902,22.519117645722794
41.126648828136865,40.53893409884437,18.37472439350374
38.150935830267684,35.362649179473046,13.286709333599784
35.37665775188963,24.900416026393543,7.790688449657805
35.04244261466742,12.269300235619369,2.324899697686695
37.584755573580956,0.6901189164135844,2.832311152011054
41.23417819260625,7.30420902682894,7.552121491324331
42.85911367187133,10.191102851759046,11.837034399510186
39.709410770063016,7.378752563573118,15.792988064949393
30.989557909371086,0.9657774162932754,19.496920035195053
18.497110652900655,14.010556182042482,22.89263648393635
5.825492526786343,30.204454579907587,25.894523141648005
3.2629571856562554,47.254769436148955,28.451386916016887
6.256194195881864,62.33462392947223,30.4700849985719
2.328024000567138,72.58997215196649,31.73927524496705
8.338694565043326,75.80234773647926,31.826677787751418
25.534903954338432,70.87244860292982,30.076576392850683
49.371464245747646,57.9055584076934,25.882061717975876
79.51961707609036,37.90388369630617,19.03243955297751
113.78660433574188,12.279668586805963,9.883977219292147
147.11731569225486,17.49370411151552,0.6973936657510786
171.92810048071095,49.87717076513133,11.610175451669399
180.02716067282114,82.95864824455963,21.830367455644023
165.34368164796606,114.13116777275867,30.4951062770134
126.09015418389725,140.0565710110781,36.8281134153055
65.37789290892438,157.0410205041908,40.20991152229514
9.8691208286611,161.72631740544168,40.36166790845528
90.98019280548053,151.83757403351208,37.347791712159065
169.4530875331706,126.71653564318176,31.519283021711498
237.957639057373,87.52342872374788,23.668679630091326
290.38716973182346,37.15585342340495,15.08458677971925
321.55640824597924,20.01399288748569,7.255625505211266
327.3372984218165,78.52526353900078,1.501493515012722
305.600708028227,132.35855416119472,1.374670307865778
257.62753531341014,175.66567324416354,1.4850291273411873
189.15858735770286,203.67073772013924,0.07569691377791853
110.23524677102817,213.53835578515793,1.7046361031095412
33.471496946126024,204.90446460745503,1.8377921496309797
28.859688257986754,179.84854367174333,0.5538451422407299
68.03224619109433,142.28612259751912,5.534355367464331
81.29679840937206,97.01102331521383,12.271299178800646
72.61150206781349,48.78466213278055,19.422800320197474
51.441868432693845,1.7638594744767082,25.40787524765905
30.084218195686116,40.69127565144157,28.690946407322546
20.260847612636933,75.98685090727685,28.223685536374457
30.003196414857722,102.30712801789109,23.742386682096168
61.7213769207618,118.80251981350509,15.6870287733864
111.79078249549582,125.83355122436524,5.123630748151919
171.5694720058421,125.03602493890905,6.259930686162547
229.4248509887479,119.01013722577542,16.517157678072245
273.1357748325817,110.6538390910806,23.95166931005889
292.21144009699213,102.41472272175751,27.351509251113306
279.87390828861265,95.78306244472485,26.108626030033417
234.48563873519882,91.21325404990294,20.45081495236235
160.2258549416035,88.40890770891164,11.51173954571282
66.7613305254179,86.67905285463368,0.9920743630262374
32.2987809010974,85.0982766113652,9.255512779259737
122.02487710621173,82.43126873578532,17.591930910052614
189.33535930030362,76.99434915051808,22.98783284250571
225.84717231463904,66.74514101143843,25.173891334268554
229.44620653905915,49.78427521409493,24.52601233532529
204.09556975884212,25.11719779399992,21.83346317141847
158.10700348477414,6.691935147040075,17.93595978510373
101.61861873870279,43.323501818106116,13.443302110705424
44.2674078331417,81.1269338351054,8.726839994137759
6.238804160366579,115.9925488801019,4.029591470410386
44.5938495374159,144.25890228370008,0.4730489112116113
67.80070812539329,163.2929200063393,4.599901552121368
74.98229088482415,171.62516566794045,8.091889099266103
67.3305235825433,168.80710714293463,10.668601823652015
48.02388421069398,155.2768413876396,12.152118986491766
21.771997339227184,132.40229460209136,12.584783308295924
6.1408171772087785,102.63475937932749,12.229739847261634
31.073437486291184,69.5047218402099,11.419202033936292
49.98212704310058,37.214749912385635,10.50978529816118
61.667423654842494,9.825770735607255,9.88422868548919
66.30725686341552,9.707212190722245,9.776238475666794
64.67224012258806,20.25575617047772,10.158591785885754
57.53664414758133,22.67657359310832,10.825041566821538
45.59472582281668,19.35473973408723,11.476101426649729
29.784321982283466,13.38190821866425,11.71360643570723
11.596977699032834,7.737607681908375,11.000871900662142
7.0051345545630435,4.7247400560357695,8.838037826822541
24.066588100246292,5.732357249839658,5.057651888908069
38.1592692765696,11.224866320497485,0.13261464944546164
48.538689826652046,20.795251850311498,6.136152495470752
54.793486714134275,33.22052254888215,11.921274125376659
56.273553708931104,46.57132007920272,16.344007368645133
51.82061033737492,58.478946443659986,18.55906321721086
40.17870770523625,66.59960252004097,18.062094022344642
20.968903924253503,69.16471849264549,14.715963992343553
4.336154621963065,65.426283508867,8.999281957095128
32.033076561680126,55.86257527695772,2.082141993287912
56.74063978537433,42.11989049007968,4.312899582700387
72.70139995726244,26.750896918976323,8.306572625276601
75.20522079219873,12.845650864436495,8.658027004782753
61.60153166256409,3.5889310168820714,5.231370622250344
31.721193629971314,1.6989969378590686,1.185359778651138
12.12443801324712,8.748023281428036,9.161750976304853
65.27806302486924,24.481153138667164,16.87109350451176
120.95049210848201,46.39686369226157,22.42963374953442
170.70937903195963,69.91727336162712,24.37079749700358
205.5356162838146,89.26993099703326,21.928945583078058
217.5672229480863,98.8891304134088,15.008763063686487
202.12340744131527,94.8992229156484,4.311067146170319
159.2365894915346,76.11338840400855,8.609659921755272
94.02878615049663,44.18895779363226,21.690091382004454
15.689465847343762,2.9859844079666455,32.730913904898436
64.59884620216307,42.513594516851505,39.73955664504743
135.99938132662203,87.21053604245725,41.364131127286555
189.87426967445933,126.46759697656925,37.24128499386277
220.8317749469855,156.3124034402296,28.113552927368186
227.02135628924177,173.54676621636733,15.699002661660279
209.92896933106974,176.03905627344912,2.2072551919055203
173.94016426107132,163.2778693336436,10.390757445214403
125.68548251367508,136.90940143184366,20.75289843121566
73.04600721056597,100.79791884874525,28.15507189397452
23.809211616386044,60.343610990846926,32.46629768823551
15.76909972634054,21.16983636374883,34.00311667540444
41.99260848917191,12.331448195599124,33.23391355470905
54.00507388462643,37.96844296715713,30.546021509924184
53.3246371533027,55.85238044262982,26.19630979270458
42.904123118100976,67.67733653891266,20.371686689910366
26.230141923624117,75.598596048458,13.191667147210945
6.83857343804768,81.29344225524864,4.824773360357167
12.274987323419348,85.21968751374507,4.248216026981865
28.913677393347125,86.87296366350829,13.427428945103717
41.4188868368925,85.76466187520487,22.158131512019143
48.69296403992234,81.9227036901564,29.77973360225492
50.39433959843037,75.9965505746466,35.677022460322576
47.10556871058441,68.96339489601509,39.40186926709958
40.24379247721878,61.66049499206807,40.65534332218484
31.654599232344456,54.452394897218895,39.395950868209404
30.484599186823456,1.6093180467921853,2.2493194360090447
19.72388571662486,3.5621585093215473,0.42359796678113304
1.1928560201912835,9.643914806637884,3.12746206410632
23.29178388358855,15.597468014273803,7.669371111428548
50.38113925131029,20.45878613344937,11.926454667043686
75.82262665031176,23.476703551047002,14.57294499245872
95.30248698239794,24.097518312410376,14.651315986378357
105.22007164894453,21.895136437943805,11.840559755091514
103.20073693528475,16.588476099416248,6.4847062680693535
88.26775058518885,8.170769633656992,0.523250154458836
60.784146948489955,2.920839808728525,7.9922910523857125
22.48421031590831,15.68026487655049,14.774269030837786
23.206737323866992,28.546392952757504,20.023057126184927
71.05758900660878,39.71439767273375,23.152477105397935
114.64695074071012,47.6995889465035,23.72121257808421
147.38557571606458,51.71826929768509,21.641181276635272
163.68053521904451,51.645437658529346,17.379476840200677
160.13348526427788,47.687190214133025,11.906189158383258
136.33438594652674,39.99901824648748,6.445014718950225
95.03955941007796,28.563461616995703,2.1337492935320994
41.675823701427305,13.460880113031795,0.20267696375020378
16.707860991793115,4.644722670766217,0.3729476706076433
72.61840186605721,24.154045176950486,0.9996327831339105
119.1139049427292,42.659800392531665,2.805048549959633
150.45136141992802,57.585093080945676,3.862428843988868
162.48200451787778,67.0306781720055,3.24620171807587
153.0600334979879,70.37205128189433,0.49911860944032066
122.58314453746061,68.26062759207886,4.355762308740142
74.54316180309158,62.08538220752668,10.847485413237628
15.667124071399419,53.25996410005371,18.132315603041604
44.78367999063528,42.7553299135361,25.146636867580753
96.66785344209343,31.107487815958383,30.798282295352514
131.23517554588472,18.747264037086747,34.19083612082452
143.25629614478638,6.265659667241359,34.83835277570446
132.17698046982557,5.696969272918627,32.70323051871092
101.86949444282372,16.93206157744002,28.025099228842304
59.19077443400769,28.09824764421663,21.193191367653206
12.00359800240294,40.60411997653497,12.762473529327208
32.54896662003747,55.7778238582109,3.5233936050619423
68.97154493285173,73.6434585564486,5.583310098453205
93.57109115006416,91.99675988080558,13.6896070941669
104.26138310501707,106.46785523045808,20.04141028646782
100.46587236233532,111.77143651691811,24.035986831209772
83.29080485681015,103.65924377514733,25.46718114920406
55.718110338829455,80.65691968387972,24.591595945726702
22.36201391211671,44.76993357606333,21.912688852503948
11.475074858455587,0.8688111235451866,18.067584211385714
41.2299560125523,44.85326979503821,13.853477406724213
64.35261956080943,86.51708566452245,10.156889986524023
80.72610742192943,119.57785914105001,7.739895526620748
91.891116884526,141.0091450933638,6.96775015091864
99.41730470776542,148.96553986826328,7.7035940988241105
103.31703351207494,142.50658610015532,9.385297973871396
101.45404035579817,121.75881007538321,11.117331112397117
90.38336507427266,88.44038227727641,11.858185460307444
67.22133109455774,46.26559250565148,10.677058378079339
31.583970760380595,0.6978633549636644,7.079636923376756
13.425582283164633,42.07466870343066,1.3436809396531213
61.76515898771938,76.58561759696401,5.533065454442662
106.23412816757602,99.33389656289151,12.234187844322207
140.50906750562208,109.27190262546219,17.508342051899668
160.50674682107868,107.40533990540392,20.46000667136897
164.64102518525794,95.87358034593161,20.79470279617537
153.2286988091734,77.08995709096044,18.800362058935878
127.79650281932082,53.32896816081119,14.966547164033575
90.88843925267633,26.825023394385177,9.788480906870724
46.41344842202228,0.12517662317122694,3.903892386585478
0.030971468821224445,23.746567287286858,1.887523984110458
41.16225733908084,41.55301620523092,6.773060003399131
70.01391319988345,50.45681929590011,10.051017769842991
81.38475814566802,48.744718798948796,11.177911683764561
73.9753496260527,36.366231284455154,9.917388377202156
50.937760913051385,15.107989865848031,6.535517146369012
18.871472065751846,11.612497594827564,1.7210398277313081
14.312153245377239,39.27712099855032,3.6113431348985285
41.67407347560057,63.000828019576815,8.470018424612608
58.726944235799635,78.381995744702,11.96926613287476
63.64087543357979,82.36282701400684,13.502768211672127
56.50810284622483,73.86745707223831,12.869428436684863
38.44825478399871,54.00886195324679,10.246802548729828
11.168035350954657,25.75021547727356,6.033367248179975
22.890058899108553,6.9155971129156475,0.6991207140082397
60.196759558246484,39.942481037742276,5.265825869438392
96.15495310221182,69.96389289197262,11.263796129785069
125.77064932445106,94.54669253687446,16.6089949512871
144.79518378424794,112.01873901941917,20.67728774963609
150.79737379982762,121.14470060468076,22.879340292634964
143.61960813169296,120.98416057122617,22.649692946499798
125.07954542196516,111.11792804985784,19.745462340440522
98.21584975725682,92.08430352739768,14.478850680742932
66.54445139795405,65.6794499791801,7.5691733751853745
33.66224375544904,34.8545769000712,0.1187805403017776
3.15539323886427,3.1658199715597437,7.727949945815355
21.539749497713036,25.96365588498388,14.437867818338479
37.63727399190442,49.80627716178567,19.452324975470837
43.87112213731543,66.5128519291882,22.12995332077974
41.34600916189233,74.96969946190977,22.15753121916428
33.813955639727276,74.61723365003363,19.527001461801664
26.99856568551416,65.5160857978891,14.551237777299828
26.98709309712126,48.705990196813254,8.126748326309103
38.21061975744921,26.61310196833773,1.7884931813012124
61.77273177349565,3.118506782290962,2.7851656085897782
94.7286633077709,16.974622584558297,4.476728415753354
130.59388146343707,29.030683102004403,3.0940175708332758
160.91902281776723,29.865096508522523,0.7484771550448946
177.3845967011277,18.72099481337804,5.86662408574825
173.80655845872457,2.4288053525674824,10.763665803513739
147.56020799066198,29.33255810599016,14.059909381111895
100.11245670108026,56.44674848971742,14.773832832327804
36.644155209914096,78.1223523177874,12.345574175845169
35.01722087199717,89.70463085164353,6.6364896570789895
105.828355279438,88.35563795442128,2.138625766440134
166.9653158930956,73.52812135745519,13.33582536980333
211.02105287196133,47.05832776086794,25.681441968300085
232.90161882151347,12.817242954429716,37.437172454564696
230.43876294969272,24.069799072631618,46.681268629929235
204.75120741794595,58.298899058093745,51.441068141396244
160.26625587876788,85.50459974624044,50.1063484067448
104.18334781265332,103.06202215529126,42.064633798651116
45.24875000829819,110.29873006608112,28.024628939219983
8.068994917021318,108.10905300737343,9.886512830092492
49.580069628970826,98.18136068473783,9.724663471820904
76.83748888580776,82.18641295867678,28.052213345019553
91.44422017720257,61.27082789993056,42.65143269741148
98.01139724826999,36.00404706179231,51.74728079360757
102.10500805662335,6.733499904515433,54.562364619959205
108.0047429693107,25.843679258237213,51.37023729630088
117.21709821884664,60.15044964421079,43.33781713378647
128.26603169496244,93.43950799824452,32.26644398784788
137.68782728265035,121.87489260389793,20.152236597032218
141.65689438155925,141.0559829786665,8.771020313257058
137.4170025783783,146.91797683996964,0.5637080081559614
123.93600525871486,136.80076379344274,7.072745096773349
101.74469841915464,110.3969185852892,10.452939242183994
72.324764789792,70.23201238989627,10.928287964149245
37.559219199127895,21.430765190464456,9.25528283648521
0.38771324217617475,29.196982849050634,6.5076384979666155
38.79562221596305,74.50238317827913,3.946242581075789
74.09465361422895,108.39628157421285,2.8083901831288838
102.0125429991951,126.90078674999636,3.8412289491676015
118.38365806496138,128.65654992322106,7.0172444863028085
120.40938190935944,114.92039561045087,11.605128329686968
108.23487871824278,89.25490091038473,16.375321570997173
85.1412001686209,56.93258720127349,20.022136517855714
56.22215258187171,23.935804875020896,21.67779779308696
26.983191351167815,4.244949261921327,21.140841507257072
1.9405068584929408,23.68732340379847,18.833868612919137
16.29513621095099,32.75409277086126,15.602294362218602
27.19847407316798,32.262098168183186,12.353531497771321
31.82522064688976,25.014093954115715,9.661154787597042
12.945667593158596,8.321780059418867,2.9748023767756244
24.350616872103497,9.85504134440567,3.6808645824181405
34.76135579955799,9.88693460894615,3.7681122247010714
42.449898897789396,8.107503290574801,2.870012302695676
45.95739147649772,4.551924928090819,0.7856190518713758
44.11416465029637,0.43299865714340974,2.4409878191869905
36.10550689150904,6.243937988805858,6.463214204809933
21.573696657315068,12.081993066361926,10.626054646492841
0.896777371901816,17.03711086487487,14.11218758454271
24.610195561474463,20.23428785824922,16.174814873459482
52.61803058907691,21.04176134414011,16.302498465000184
79.65512336407136,19.24356948837943,14.257879243670336
101.14570014679059,15.08324314691242,10.043518209526242
112.70681230819208,9.222073073378171,3.9252878451856064
111.84467100408921,2.6660868025969156,3.4922835255316764
97.99895213451065,3.444257702338351,11.272705405785052
72.19142856102442,8.168145379328784,18.288467317776927
37.044329338529295,10.978410807037152,23.431179542496547
3.590916575602961,11.757584127226218,25.84554471768079
44.780488342446866,10.656825339434109,25.175462403455082
80.85419674008419,7.936872820496697,21.645435798093445
106.28329341450669,3.9331508006873053,15.914261022711496
116.71947991981587,0.8374297638071746,8.915339359226047
110.26981657305444,5.565624038071268,1.7378180732812782
88.31387732320637,9.19411325685523,4.523995557205869
55.49167753632222,10.675154303350011,8.954405488801934
18.830848408412397,9.348233057141385,11.010051908740742
13.938535691624413,5.258617501773843,10.646556608276795
36.22304804952063,0.7616801651949828,8.318334453081116
44.06130308722128,7.307489684715709,4.87565615133572
36.89661791631338,12.79507897085378,1.4271877309036127
17.470648503538968,15.862929515708721,0.8715177558876962
9.014968783110488,15.642617344774395,1.2399150957363478
36.21974496448871,11.871074375474365,0.3194559772223618
58.10357390345874,4.894700255080127,3.1184399720643223
70.22721661885046,4.378044870947538,6.234006862925743
70.66437099029952,14.538061795675803,8.794181510257575
60.3092123338076,23.792667513612383,10.200988393727402
42.46435898358317,30.20811381265577,10.320077977511339
21.739197831396204,32.05141349857114,9.303748443839016
2.5857793261940745,28.124854568842935,7.306086537256554
12.054658577886832,17.987300904224742,4.462321046542823
21.513728133650527,2.0036311123481014,1.0313897961016893
27.27967691226807,18.747778673515338,2.468835070388229
32.09225144721258,42.60111014660085,5.30212466733834
38.66026901229742,67.37990932573207,6.745493486439699
48.561741875716734,90.43164712792013,6.353347766154186
61.725430055387555,108.72897598572808,4.180821000422727
76.56058738893697,119.17767605144972,0.8433511837048107
90.50900974685592,119.15411368750419,2.676341815103083
100.70269276287787,107.1449293154486,5.359471430500354
104.54492774457964,83.25216332952704,6.603748223107728
100.1908107352238,49.327690638627615,6.583012011352594
86.97628744216047,8.660420177604696,5.99375490463793
65.77395890035666,34.66401335641159,5.4029281975024075
39.105017903504915,76.47428245100465,4.910769409569326
10.75743984874755,113.03857718474931,4.234489045220159
15.20590996497035,141.3097810687957,3.000796775260308
35.7768386656911,158.99415844629377,1.1007954765908579
50.08641677945721,164.6328301498097,1.1542866346971214
59.65518105448085,157.81279310110682,3.191868733252657
67.55285956034677,139.452179197983,4.480319659195065
76.8141236373966,111.94642858002891,4.838278387535962
88.85780139732715,78.95237103912191,4.551593074410087
102.65988897148182,44.743100800897885,4.156979517194137
115.09119915473569,13.297229293587325,4.177797827462887
122.18036784639655,12.53234618152792,4.955049552562586
120.58701252994969,31.433852165497807,6.5014385190921855
108.58864955671214,43.49559223514949,8.525152753068658
86.26009388238016,49.64295202541722,10.573653119936477
55.033257604726366,50.98799364489364,12.166020169049514
17.115528043147734,48.41720573468574,12.959628405618446
24.849631911501717,42.577983438485205,12.79706658330619
67.80773207022285,34.184957519787886,11.490248067307622
108.21835646518062,24.36085928678204,8.639736919718215
142.1969778763588,14.728646437076835,3.87880903576236
166.02032504718798,7.156818503565896,2.6763867624859454
176.82919455600725,3.258720205337879,10.257723268614026
173.21500091750548,3.8811377601110535,17.625105421982447
155.45905482700095,8.84356638132562,23.395213024824102
125.4079846916788,17.044784195226015,26.327807033542133
86.14886210438354,26.84814941203953,25.616124988034805
41.6490159233376,36.56334317753998,21.143249843571652
3.6136415483849125,44.8342185196419,13.442732735140604
45.13568468283313,50.81400871989421,3.4753883625050905
79.04061774648267,54.14341288277289,7.545998322774464
102.78467386899705,54.837019255194335,18.31545577697019
115.66672195891773,53.19036560915651,27.634170355677732
118.86476323146472,49.73006451796587,34.61519004955512
114.90835189277055,45.1694767735118,38.77633257216492
106.79095796599303,40.34108666762173,39.90304297243916
97.09923017544615,36.062299114586104,37.799261485185006
87.45595138574592,32.93215392266634,32.28725109183772
78.35621403381172,31.123518711587,23.37382481161645
69.28942756882056,30.24607295285459,11.241091650210546
58.97643756815314,29.320654908560353,3.6761468777327377
45.69019503065874,26.88869523357466,20.329516568373265
27.75447785069422,21.293589590761723,36.905208054174665
4.270939884167102,11.080964670145764,51.21475156270757
24.041783218272634,4.597100282875158,61.27994131554015
54.27642498454542,25.64678328669953,65.69258930080427
81.47941189897485,50.86509344638375,63.70140754964579
99.6835130456509,78.0285129700359,55.181329501153215
103.62076248342001,104.22052704452993,40.73904282692381
90.52731797865678,126.30679588132266,21.908753135936916
61.31720305668969,141.44856203349684,1.056014273133483
20.687323455346647,147.54133619967064,19.003570393347125
23.824629314300687,143.48080284995345,35.371500959028204
63.470207845297445,129.2453521905423,45.47675089823376
90.10248648376107,105.83933980468225,47.7735291035576
97.74112661524384,75.11965775718853,42.38130530185873
83.7005441329234,39.530580995794125,31.02373230098822
49.179200150960476,1.7808858636825124,16.482394312405937
0.8062763103116255,35.48401987103443,2.04202100130566
58.173044532474236,69.96963061412977,9.254312986980176
113.17547338313396,99.93306256124797,15.433954080016017
156.23167650419967,124.20559321623595,15.894199510349297
179.70927982418033,142.04308945210545,11.14202844983098
179.23867802937664,152.92072689977388,2.453819548859705
154.2753295896193,156.37199664142497,8.405702898383046
107.88633425473209,151.95928318870543,19.466949497929896
46.00890935182316,139.4082346692239,28.770922255100754
23.555285277107373,118.8578393078731,34.60597195673024
92.26805000591607,91.11415452151998,35.892255544942934
152.01816499277473,57.79355911066066,32.47881033484243
196.22139867243015,21.29968050359348,25.090700393599104
220.6804845512472,15.407860533625234,15.086106477453628
223.9253765186082,49.21650170714329,4.127381472579756
206.87911103616486,77.34640431574623,6.329405332106933
172.0383078973322,97.84592266793955,15.374534993189254
122.58836907402359,109.97035092226368,22.55713611345385
61.92535343978992,114.33445849947768,27.75641394972115
6.17276197603645,112.76874700251102,31.113285331314096
77.00810670511649,107.85958120412425,32.82292418334257
144.67156486252674,102.29150871578167,33.00074932633702
202.46383381980195,98.16465230321184,31.719345003747506
244.07814520916804,96.4661367149267,29.04072364827956
265.08371494147286,96.85054803499328,25.04475573114354
263.94772751974,97.78062669723293,19.870897315562733
242.08360480729962,96.96830349125891,13.82608490459425
202.99873176236858,91.95804992875071,7.436016634897173
151.1247678617961,80.69414691912958,1.23923735253675
91.86983351196398,62.74060095443596,4.3528860782342225
31.328931101123572,39.381988598649826,9.015676483705972
24.750461892368172,12.663869199003775,12.502958623369889
71.25660917353983,14.86529841595317,14.668990332995708
104.18788747868805,40.47718863705309,15.50757256835974
121.36685515193004,61.61925994136044,15.168056411986138
123.08084930441862,76.28404552012915,13.874706510052844
112.17920267098556,83.32615541561356,11.83664029214228
15.839084664899522,10.634597092718046,5.317887225282262
13.074168396546828,4.468042162439991,5.0936434988926695
8.308654434906327,4.971359374336176,4.220843880468673
1.8382058674435446,16.528014153564804,2.479061337197278
5.437112647145146,28.253768125338446,0.3019149026838937
12.08124267801759,37.80880516530913,4.165712972134366
16.631368175889815,43.027641577118985,8.824354713540481
18.335822598973067,42.441127677456606,13.531800340592772
17.829168266194262,35.62985742335906,17.334659148854833
17.295008978806663,23.269865865554806,19.39869458850401
19.920862872279322,6.911290934293751,19.156382595505896
28.87397470958217,11.298937525078475,16.523998368853547
46.12654183027731,28.823916234500825,12.160586426951117
70.99235543782008,43.167364222206224,7.226721471235622
99.12220987915615,52.44336985223496,2.6862550917604673
123.38970772500463,55.56215146321808,1.1324190888370917
136.02595452440443,52.31473255857326,4.439903072247666
130.86805956875523,43.47183321538997,7.660137441483842
105.24716464289945,30.556465894982143,11.170224583055434
60.580343186807475,15.431711735179611,15.007789205593832
1.636217666824351,0.26347698034255324,18.75494662424954
64.9369459146603,15.62860742945618,21.908924672344767
132.22768746400658,30.576820462270852,24.095525448772847
194.04219916840918,45.43264514873283,24.961589506383497
245.14357145544847,60.124791635170524,24.19640697384319
280.99577855756144,73.40122009732016,21.50385414801534
297.51070105714376,82.57347151196656,16.639522330517263
291.4056382187236,83.99441241503531,9.61698226242151
261.19257344422084,74.21142393569497,0.729535332723354
208.36761798536452,51.336977663227884,9.500555304653698
138.07742464787688,16.05171194536838,20.238627620172718
58.600237108414966,28.176060203299226,30.191210908784164
20.490097034404364,75.69856382621425,37.61902113138284
90.8751327624137,119.79377144278295,40.800800826224986
147.63594799071743,153.86636863068944,38.7053452768978
190.02592047718832,172.4430002441743,31.313556640299822
220.49470622058772,171.90555283415108,19.577311768700756
242.4092998819985,151.0617381192573,5.201760151699445
257.67544999240755,111.56619738052723,9.825151430944299
265.5080217569785,58.05934292561531,23.649228627071466
262.8972089351491,2.242672932829041,34.56913910845805
246.41830769751385,60.68609619445412,41.12325480677283
214.34125676965337,108.89720266571732,42.4537229382419
167.83613100796984,140.60113501809735,38.48540162779338
110.67644945447226,152.8972313175602,29.821638973995626
47.77442922932282,146.53094890115383,17.54604770969163
16.45439256821138,125.16103674394603,3.1015891194683665
78.87163115319711,94.03807541402566,11.74140830853003
137.13731052239683,58.68534964919413,25.07549643921579
188.39652563022872,24.032793887932158,35.119852548897946
228.18942334308696,5.914740916472134,40.48872624497874
250.60797004028728,28.13179179824057,40.603409265060805
249.9375481411096,40.66596449362413,35.86669182659434
223.12328543237265,42.879744126375996,27.441490255401714
171.84842724107105,35.67614761041015,16.95698313142942
103.04503953580675,21.420259686974617,6.1897542490416875
27.422896176489203,3.4097844620141444,3.2622015933769415
43.38799529932286,14.96067048337651,10.286651808438174
99.88135364137217,30.972325988867237,14.447503139242105
136.69105276773212,42.92575632527233,15.931934795477362
152.91103365475817,49.966718807742566,15.44844295553917
150.93855486824228,51.6385325552748,14.049832356238264
134.722885307579,47.55913462307119,12.772941767238951
108.32860197904658,37.51969337714426,12.330813813210764
75.33001814843773,21.946357420976195,12.99169158072956
38.98780781340425,2.3443855187377305,14.628255448588499
2.673094339947502,18.676013181290998,16.831783168418422
30.032100125585348,37.94676793256667,19.04006003248501
55.79302451157369,52.65227001593121,20.69674249456162
72.33417735357762,61.14297209384691,21.27302798723349
79.11812930070869,63.241039066706996,20.217556475226402
77.47772698994493,59.93928456934502,17.005508530764065
70.071345353124,52.752422790865616,11.252688307283005
59.87251530290789,43.14366393861983,2.987776768359654
49.157751757782734,32.3110347754949,7.069842698926141
38.910378833803,21.31768518288931,17.491536628910286
28.841928187612787,11.327405767160593,26.366683645833785
18.0079990762279,3.6502551501359433,31.824526773638834
5.748575501506643,0.5246319798145287,32.70283990907691
7.464809602945656,0.5465557467429484,29.052200792095224
19.659846192532875,3.4122234694978175,22.13735495147469
27.729044669939586,10.412333453296196,13.773719448943426
28.54932072801356,19.141304506437073,5.681540289955859
20.510771289136525,28.401240957872492,0.719389913320133
4.824772628884917,37.37200518428935,4.496841555185282
14.071806984875668,45.485873102985266,5.4074300779639035
29.449024873583557,52.00429076770895,3.8749194965178395
34.48831480974593,55.5777133938453,0.741479738992697
24.87383810927425,54.10145731524403,3.067709048239093
0.39803712829071086,45.03359633704015,6.725907757445871
34.66198052481575,26.127727489902153,9.476003728905118
72.21027666682194,3.6439533656730845,10.596663460904058
102.52092338111363,43.295337085411504,9.5897642180248
116.95818790711941,89.41469393642014,6.486322530069363
109.82472445093838,136.2882743800331,1.9872222028948026
79.28407000214672,176.60914572023984,2.696690934881794
27.307659539939227,202.6649104034721,6.270389801446214
40.82295962191403,207.79003961645552,7.807130653857255
116.84374615264247,187.79365537688182,7.134983842726108
189.8692840109751,142.0373719939686,4.955009975968682
247.11254353888322,73.90839179909982,2.417430315498246
275.5885886226497,9.452482912600491,0.6626501768554296
264.918684655395,98.12477488358157,0.596658800783051
210.49875822205095,180.86872073413105,2.567496597048077
115.89491318533545,246.80290445382778,6.2043807738991115
6.85715074683213,287.0412039090544,10.624407968070672
139.5880354102339,296.0828351208622,14.755965745446321
262.1565749257016,272.7563897389482,17.74113883548667
356.6727581604308,220.5249645485815,19.162201657821523
410.7030678666921,147.0105808541624,18.812751173201868
418.91887250656384,62.69109061532889,16.42999574324207
382.3976207849401,21.03201081219008,11.804559432581144
306.6285226730209,93.96890425869567,5.183788146621284
199.96891872413045,148.93965616773485,2.442505710899053
72.90316632058621,182.72763801428363,9.616993115840977
61.92654511644447,195.9921778798439,14.941089293487751
189.82146415344778,192.3150346286788,17.366208443012656
295.3613132813188,176.80866833136542,16.49979831046757
364.99714066355097,154.78603632114852,12.816304786531378
390.21971931232883,130.82230483876924,7.316759185019914
369.89827971141875,108.28377811248103,0.9928022791413986
310.60479465097706,89.20192439203181,5.4780547060436
224.68215593232492,74.31043625987519,11.809856550907247
126.78985239071905,63.13608694673518,17.858058386325336
30.465905384619994,54.17401184327547,23.177838415064155
54.064458117037205,45.255282501138765,26.850096695168133
120.43063072043778,34.11544735356048,27.717146106169565
165.43522061208972,19.035740140571686,24.902604105121608
188.15999312536215,0.6305328545671103,18.344099602253074
189.58431325385104,24.227506573697347,8.912779475528806
172.72340665105665,49.93285775493055,1.972991371354729
142.7714056369781,75.17251199248896,12.997402278843351
106.58743674984957,97.15231373488776,23.426668341410483
71.29810889712942,113.36507930028262,33.0694648659794
42.506033040215385,121.99053986971218,41.9121940978654
22.95302365835184,122.16649683341865,49.6201330019063
12.322797345473791,114.13086274434308,55.140109809003135
8.223326907949508,99.21166721675274,56.92005305505816
7.704656533369672,79.63115772643678,53.64449625831096
8.483289658986024,58.12925693105357,44.906601127239945
9.311788949348395,37.485509999118065,31.530601405314002
9.521769000835816,20.079161109762087,15.450073229847066
8.969472640790999,7.444720262379801,1.0394883394693333
7.6158851963360314,0.13985451824689293,16.02836390924906
4.897950039278864,2.0881545929580163,28.25762151518941
0.19512885630374988,0.15698493011942588,37.13171692217871
6.524006747501915,4.57106596892723,42.4786910452549
14.370723445397,10.530210290187393,44.2971521727858
21.77182847341046,16.190843120725532,42.73888472143203
27.117211650625087,20.280793541511542,38.211594869239626
8.968187890924664,14.296304770993743,0.11279857996495066
13.359858692334488,14.78999575674378,0.085562596156334
17.523508379255645,13.582416413650241,0.13822149880836127
19.292364891890955,10.536356845208006,0.49166358686825123
16.20954777848786,5.4762345704339825,0.7602770727619182
6.427682905212529,1.8807253480703576,0.6345603419699478
10.400636255841107,11.796449713060191,0.23115694826657726
32.560695003489755,24.201332956300266,2.1279154791994284
56.29382067136836,38.32924578400374,5.069101996782444
76.45142149496398,52.53251256443411,8.587038099246932
87.66786979525568,64.42776502650104,11.828445104508905
85.78381772158316,71.3560563190535,13.950384175078993
69.07840423614266,71.07590340189924,14.421397959180899
38.781288303573774,62.445948688794545,12.957427179951075
1.308699281719236,45.74484406941654,9.434314375426883
45.719130777365265,22.524156339836914,4.073183757656542
88.31494956998458,4.814669832596531,2.515794394388157
123.18654276510601,33.48440137246845,9.629880250998424
145.24228690143664,60.65035571015306,16.616352333208408
150.5668252209565,83.60360950854374,22.818363268052927
136.74640665083317,99.89526712428827,27.60441600865027
103.33952754772022,107.56441711996585,30.422990763439525
52.50055187781833,105.49217855944303,30.915788711716697
10.533288662485694,93.79447076621955,29.009524386708726
77.55531041151437,74.0451500535939,24.895540561195272
138.47371489889608,49.14895214281392,19.044010188074743
183.297386775456,22.802364606284357,12.153284060674393
204.45868180201035,1.3467929348260301,4.923970601487094
198.6157225879487,20.5251280423076,2.194836354646522
167.15888552197887,33.34662060237695,9.035872479682348
115.27236724064943,39.876387891386294,15.433689399818547
50.11714880641924,41.23348011725036,21.003012262509408
20.94653101694478,38.922102217784214,25.262648870030535
91.32623549814639,34.21252150291087,27.807545558760555
155.17955157839276,27.826805663473166,28.27638051607042
206.93982271502173,20.043066776004945,26.399368622330748
241.24550643451178,11.122909060719069,22.294715669725747
253.76166508961063,1.7868452082915365,16.627071606636182
242.62800289886567,6.556728941160955,10.442469299460873
209.67672278686092,12.007120782718337,4.937218950174535
160.47408284583955,12.778529094850342,1.2318101417596259
102.83047233719124,7.957787950362443,0.08394274004247249
44.338961790830325,1.982010233187061,1.6193127127181979
9.860094669055073,15.179386204374076,5.285008418260322
57.97189019630404,28.937646889569937,10.08308686196775
100.77015348087147,40.610364114435484,14.87511478711114
139.71573437970824,48.40867181935043,18.6283708921963
175.09777794798904,51.79682943780821,20.53183480564264
205.26596841872004,51.35473500157491,19.988916654217423
227.24171319149005,48.25092050674936,16.66616382541153
238.15697608766556,43.671957966728705,10.59923784044909
236.5883192252576,38.51800769390624,2.16876137841679
223.03727718625893,33.44306177468252,7.966998001845968
199.44813907931015,29.069402560327447,18.76493182556389
168.24608318415414,26.092749091942395,28.81461785099007
131.598638636911,25.0762096228761,36.74822922568838
91.30971519571548,25.982383764160893,41.65986954232386
49.197708136405,27.73397314843335,43.30184989215343
7.478433701227241,28.15971879060581,42.18274330412736
31.3198010078182,24.534251290306617,39.411607442259395
64.99175221735084,14.566492190443963,36.15611011414183
92.44741427230416,2.614657665063212,33.0916220883739
114.12200496788839,25.94538482265528,30.152687200510275
131.6569905612069,52.644354362373655,26.560963867608777
146.95594234182323,79.06615955061258,21.202951339697822
161.1019689557262,101.75431361078176,13.272284543712724
173.66825596696324,118.21002004074789,2.7402629839778494
182.74125353024849,127.10517218338971,9.569835295848621
185.6041736957944,127.99526056346062,22.249964874860748
179.70985186745654,120.88067244297147,33.80026000877426
163.526248883072,105.98879887032584,43.04329009966787
137.0292162891516,83.92431218702744,49.23135461575002
101.80810779784579,56.05061493734161,51.95921493409055
60.863967176488195,24.765035442743812,51.10749166065139
18.21105562021433,6.648620740783036,46.854087448415335
21.699121525698295,34.65606614431497,39.57578346197724
54.72303334376311,56.35768778259531,29.875517192899462
77.8413779065079,70.21395260259183,18.926306998665414
89.84389977281297,76.26393655156784,8.439790298315385
91.58687362063674,75.77515940116726,0.10644738186510092
85.61961859897855,70.56863499817072,4.880205531117076
75.25438910694,62.383808875342446,6.231496689864832
63.41311009145261,52.56738474591492,4.898321691619776
51.70064925270028,42.12806199038775,2.8043864300248242
40.11652093254458,31.957357829971716,1.9811215531697637
27.510026524841347,22.947946748330722,3.770221473795187
12.509266761670322,15.855446467404231,8.472121378390144
5.461518138433344,10.97527810902372,15.437238662290076
25.50434272433178,7.8875571216348375,23.519117479371896
45.188021440614605,5.510313827730806,31.490609075231486
61.03161101384772,2.5238972386496723,38.196629583486555
69.33708896455771,1.9956274808185681,42.74093449014495
67.15370691180303,8.062667755204314,44.71209574043095
53.14063369247374,14.687321868043862,44.06713632605337
28.190169897169856,20.27695242644357,40.75690955867393
4.334285451813368,23.340114122078074,34.6788571720121
38.950768520681656,23.135341519792284,26.030513955427008
69.10467739387379,19.94298185264158,15.489121026483854
88.78629476581243,14.842884644293445,4.099393187945314
94.34813445683385,9.157505715025719,6.895846856823978
85.87924369860096,3.872313362493453,16.38306564320884
67.48837995672486,0.6887833291605939,23.81569274615379
46.27639825388349,4.808677142060009,29.39106247477386
30.24505074106955,9.045935424379884,33.78169751646982
25.83170970260421,13.875847258397252,37.670592052386546
35.99347126370811,19.505082880953186,41.427010518257596
59.40950535702432,25.883264889085602,44.94602427490565
90.88565993451681,32.79202068765162,47.65217710218106
122.69147029504984,39.85286035587607,48.71292146022934
146.29134653068922,46.35961794975136,47.28345242622894
154.0323664923007,51.03412700417689,42.74090273374085
140.60639031541788,51.95951176907679,34.97019567718772
104.17522188380038,46.91258753913543,24.41976366638898
47.031841807308744,34.11288183310227,11.891926765789774
24.403996795874754,13.12186479778819,1.6431411999349441
100.50744566838009,14.530225024238504,15.177901372049998
170.2814969519977,45.36295488374116,27.70484256765433
223.66575649015115,74.71308412743204,38.22392618393211
253.64178116168148,97.9385962075918,45.85940297537996
257.4583558499682,111.55387170574676,49.93045309073019
236.6483787639016,113.87727297603924,50.04467331887729
196.05177326321936,105.00486647147378,46.35660098918545
142.3835258062974,86.30717341176207,39.64159149925345
82.90728306751765,59.8818200962618,31.052764837383382
24.520982059295473,28.268043507805512,21.882333324411874
26.82402290309231,5.556906043930005,13.343316212368896
66.60416848863089,38.12033937191443,6.2629364359039545
92.18313753868446,65.66328050166298,0.9049767802261461
103.11897013953002,84.78579651004307,3.0193296380412633
101.08059997667891,93.32088212889462,6.236634282306392
89.25244749609776,90.99479872304379,9.54779582558353
71.43313593463809,79.48822693186501,13.368967372545555
51.22044998944704,61.796441875824534,17.51843068631949
31.597097788632098,41.196520311658304,21.225751177801122
14.978196708012401,20.342107654927005,23.3863410159148
3.4283944636600285,0.9143056014215074,23.0631587339006
1.3740804077973998,16.08219039859448,19.934395214490028
1.3999945340519633,29.737575222482896,14.397214176524104
11.08293682955888,38.87443885798754,7.28524730665096
25.208001293976107,42.20733522028241,0.4039804139065034
39.94569803540947,38.9806296054803,7.610292660440797
51.22553043077253,29.675740170915777,13.455312344777482
56.59839997497542,16.080088009302916,17.370466471821437
55.88236496335131,0.8406665946769555,18.926205273778752
50.37218071585563,13.182372991043835,17.77527230744718
42.07548426907796,23.747235480329323,13.836543564626052
32.7575625351033,29.798539810791304,7.521148986193714
23.320312566060657,31.519404023257483,0.19882061661073028
13.857219133379841,29.926721835737137,7.908427299447499
4.26680305592496,26.28315775256592,14.079988561198276
9.629454799946878,14.350361920790641,1.1608198195635944
14.875811013012553,15.569743782969221,1.6430506806372187
19.292461129331095,14.850848191733126,5.043099415371122
20.933462928146263,11.359353676984078,8.277668833705942
17.644350525592007,4.663726036743977,10.435320494701294
7.675730170197447,4.959475131734342,10.747610636985016
9.478278180799055,16.44198429919656,8.946724859705478
32.33225202839705,28.136789566761458,5.3958096175654715
57.185684618403215,38.25778211329306,1.0235727061836422
78.67201021351411,45.35177380889471,2.874725432466812
91.00703779507204,48.62412304842287,5.209173222645969
89.5048995095144,48.03664351665704,5.6464172744895285
71.76300461056051,44.19712667302948,4.533812040343394
38.172576606015596,37.963577598090495,2.4910600801662417
8.162750724912767,29.914799932627652,0.17249052668534728
61.875473331328116,20.16456804548274,1.9236381130307714
115.93522082395269,8.566024252049154,3.571876241818566
162.23642111263192,4.910593871876818,4.646422577677816
192.27083549991838,19.76254085949684,5.016822638087567
198.17457187768878,34.75821548920664,4.541393217781932
174.35959195115805,48.06455343845989,3.0432682221288205
119.54347810445356,57.64150977548813,0.5290039001968276
38.417502616207884,61.80904561383381,2.72675931565208
57.95849507893081,59.77276092640916,6.311013178935069
153.6238699717638,51.92234890162319,9.751349322346936
230.9979098269302,39.78953437352109,12.757926805145765
275.02817316870744,25.667101687864864,15.322781175912885
276.81278089638226,12.043005929168448,17.632458620461378
235.58620566694174,1.070508552690237,20.052675803162245
158.58559754794175,5.74184050378674,22.76883980781172
59.13146853016906,7.59076883278804,25.28168980213054
46.21297362324644,4.3016502247314365,26.48366799575136
140.6311553592756,3.7001828920556146,25.258229070822907
209.723329892945,15.265506353944824,20.991477192710505
243.66733604328363,28.363376142977508,13.7117422509031
238.76782885948367,40.14107763192141,3.9815674826197065
198.09317790543238,47.412301184593545,7.296056302954587
130.81332458042522,47.558294552039186,18.988722506201647
50.13358480235494,39.516945727378136,29.898353641282494
29.771268752869094,24.362487080984202,38.97204072018481
96.89654349270494,5.0886276312501195,45.333353216568156
143.51441671802664,14.408330475203247,48.44094726377397
166.62600604991187,30.718597879014425,48.23441237704864
166.99470535221377,42.03209434141068,44.94056336037916
147.56033468180817,48.45452437556373,38.9588914655708
112.12932682968659,51.443818101637845,30.794898043592394
64.88237653924304,52.771906103772466,20.89161669745339
10.506883342996073,53.63044116258476,9.699579367352404
45.705886802694955,54.32616699475271,2.0812075023397583
98.28462026153808,54.595203471916754,13.464221299263126
142.47271949918385,54.17880193369037,23.37511789770827
175.02539367413115,53.19851461957921,30.781203043759817
194.2761192993104,52.095458434596765,34.78669305165929
199.34961854799246,51.25831744929372,34.893818339617006
189.1186804290583,50.6897578687105,31.1833484161532
161.8451187642494,50.00878720178188,24.296415575068746
116.08089003935572,48.787243022834254,15.36451103709181
52.557023932294015,46.90847260715966,5.835845540360995
24.054347651338315,44.592074287582385,2.8425941825235985
104.80688941383829,41.98266960813073,9.528255185057722
178.1927972231338,38.566086632889295,13.508364397097047
233.3677165349667,32.87219400337131,14.547946803009863
263.3812525007585,22.800507636745717,13.012900909328302
266.8716944907903,6.525670865831839,9.785357115444206
247.57435130562325,16.47785916267432,5.83688377700922
212.09733738516644,44.86105447111825,1.856968358702267
167.26356904482859,75.59372914231001,1.8932297596103997
118.40847997938234,104.82790607210619,5.60238184409903
69.17408312782814,128.93948794469316,9.717811201749294
22.324940561369225,145.22237379475266,14.514186438150375
19.374341825207257,152.04407113690903,19.799107823482707
53.05070255116465,148.64948202222715,24.961664563328878
76.51399711693453,134.99004887511583,29.05841564633263
89.32276031694859,111.84383636202476,30.943179355846233
93.30692753202783,81.17635238576543,29.73164667565956
92.10799711407202,46.368647704352426,25.27469650883561
89.92558430095139,11.887486503038495,18.085023861095888
90.11633106231945,17.681198577752653,8.960405865006212
94.29067065652737,38.88177630587986,1.1770698551452332
102.17498943876838,50.35023840105434,11.349801484723454
112.03835331164129,53.00620008092762,20.5690073536867
121.27731586012798,49.3934734276432,27.74814835681261
126.91179310834465,42.56062859574732,31.823464711253763
126.0128252196301,35.07653642503902,32.141365801200465
116.2340885768944,28.60301533400623,28.828452216364283
96.51414383676313,24.0625994050075,22.928164055050644
67.71502615549568,22.0992511873017,16.055303298368905
32.82826473422383,23.384483685855507,9.858315472747954
3.462020844809546,28.485047727858728,5.64672667402064
35.773808051974775,37.39257300730865,4.043103323171263
59.19097210359393,49.06436853439073,4.816908368807557
70.16841924533551,61.32006041314083,7.021656836325974
67.04472533695635,71.24765579722484,9.285813410920998
50.29739744444504,75.98911569309593,10.396161013376334
22.75133626604237,73.5576228178211,9.85754080693203
10.23636194403822,63.33923267482121,7.819113019948689
40.975405804020994,46.15232047744286,4.6560957111179695
60.499537730828806,23.950336164110315,0.7051704093942329
60.636025690557375,0.622334068701291,3.811796547077575
36.64974476266841,24.60458526193118,8.694409758235864
10.567196594756243,44.94824720614607,13.659224057401852
73.8437591579712,58.6790635602014,18.36061905275169
141.0751230938914,63.16255201038771,22.426033300577775
198.22131278670318,56.60111591888552,25.493029259605375
232.9329985593927,38.704063005327136,27.267585325481107
237.47317293779975,11.310633927313168,27.526657610473947
210.11293186498497,21.35348295822533,26.11998972752383
154.99050728487416,53.075079733378494,23.015700061069236
80.87679266881692,76.77811600430172,18.28696229072827
0.5485212242044534,86.12349634289096,12.086286847358155
76.56914700330762,77.11570831520035,4.700801410903821
135.47087243782113,49.20385929582894,3.3933554395558745
168.68481357866835,5.4840770364297375,11.551483382049577
172.72340094018122,48.01756432851939,19.06252999593339
150.31598978756992,103.64969647728692,25.25271568261616
110.03215318003805,153.57891173714077,29.572691445701853
64.17824166991754,190.9419105070496,31.70080627638211
25.489169622526884,210.54519489082028,31.56071286935725
3.615319280298422,209.2643325173047,29.283686881860937
2.590223815967727,186.33924173117612,25.18073233173783
20.07650225862955,143.64752302986983,19.727254822064495
48.3821400311601,85.78889058272274,13.575579939549636
76.74212598883008,19.6527280264318,7.428040812575206
94.17310741035402,46.68973482009297,1.8114364337722866
92.16108792593434,105.60367141119066,2.9705502373518207
66.71058378978668,151.50279699757073,6.7619999696514865
19.45822311279609,181.8015556683886,9.563799311010815
42.45525331201021,196.82134287244097,11.597274340194039
107.84673716586757,198.76784257806347,13.207572683817029
164.09108137635002,190.3505198068,14.666501257033811
200.2623932438995,173.7547642781481,16.12375925717592
209.81843867196082,150.43078885780477,17.583027829101855
191.9434339283253,121.61091116374868,18.836703180741242
151.20878195032907,89.02089959315641,19.53400617142846
95.85644016244107,55.225333629587375,19.30141442948377
35.52170248335428,23.28958668951116,17.798386760155978
20.71546199774409,4.07707751450061,14.818232201464559
65.5479350528032,25.337428847506132,10.45226532691835
94.05270747716975,40.42359075373163,5.2105934925544775
104.01965553070261,50.37962230379875,0.05242213259204664
96.24630545123668,56.61755336968281,3.8839364758681407
74.64175944544483,60.28546054602475,5.831576492159263
45.026476229557026,61.89004236570787,5.594538606898586
13.723912933952848,61.63593408984191,3.3854079894602096
13.40344746891234,60.025408889548174,0.33103772776678503
32.26549141620353,57.90281336834249,4.976955923258269
41.3909282401121,56.175008105797865,9.87192499089316
41.91432468050193,55.337112878004426,14.283793625128164
36.67787125477386,55.10139010893637,17.60254790482071
28.874505757413587,54.419037022138575,19.39165064734898
11.680699499891697,7.5475709693582775,13.412639008150485
14.085734622065694,5.059186791729772,10.884242336935113
15.311122760326086,1.227493598314933,6.041963747186543
14.13877299058608,3.549691540537722,0.5843892564141383
9.685932611477847,8.583617519398581,8.152357166088274
1.8382658433190986,13.05969553260355,15.723019079826049
8.694815883718222,16.31230007603402,22.347750973566825
20.69040377706861,18.066657268724093,27.161232028960317
32.800746237895865,18.535362437645382,29.549280139526427
43.73469116405639,18.282691743231744,29.17968860699615
52.145557119552144,17.947242011286356,26.04599710354591
56.46632199325997,18.01945486947936,20.59093691894333
55.06354786890096,18.771671379333295,13.697620990794453
46.77510813125846,20.05678967981871,6.622015889692327
31.443620745790565,21.071372595974136,0.6950041753629251
10.280563180596497,20.58870417268155,3.2922627938593654
13.905586295496443,17.325440669354645,5.499645857515284
37.06951513939711,10.168885116389243,6.865816357350717
55.014707716893376,1.516245031727453,8.466020850714903
64.66665628292441,17.63300542183729,10.994109684730065
65.01388493601586,37.133365970791914,14.67200205588094
57.28559963918764,57.88337372592122,19.220201023576823
44.34832905544788,76.8311902775953,23.88623216166402
29.744477665769576,90.46665550424898,27.692293956686715
16.769319369077806,95.56540548413079,29.746927360697047
7.833882923877851,90.00767422635958,29.501791648761923
4.074895347666276,73.37175620528961,26.8522206254239
5.087168879712549,47.12785623104724,22.062159330859956
8.81388697109836,14.363759860749733,15.589737095985644
11.786536605690028,20.8099052637306,8.020649202821694
9.972634599244072,54.01048288593543,0.10399366703556592
0.18398037359519437,81.32440717333303,7.337971543630418
18.427451201887592,99.89240390340035,13.533963465410247
43.470571532443714,108.2828394972826,17.918832865388687
