3.725819165469282,13.757988971431127,0.7193477855867924
5.2708865408823735,12.872478150151297,0.7684341597401557
6.554721145815992,10.636720581989712,0.8524352470940348
7.046829200547794,6.375977157420166,0.9305762527886311
6.177700817913464,0.6704588739906925,1.015105779063299
3.5307350191649363,10.867179641944727,1.1289146615128511
0.973997877790026,23.781074358927487,1.2224525294641733
6.984660744060706,38.0833830565486,1.2352402331129249
13.7236415368319,51.816815575919826,1.1087079310066816
20.11235381473776,62.84056512575082,0.759199236103233
24.949076021840295,69.19721569284349,0.12529981693829684
27.06420661200898,69.32214628825476,0.8160486766107807
25.48414817670567,62.20000869937544,2.0656700740933744
19.700226366870858,47.32649310158721,3.5470631946504274
9.874442648176624,24.569633996055238,5.055706724174834
3.1730711918384102,5.428780739939268,6.310076956005313
17.95642521572358,40.46198794976622,7.0562581813069425
32.35679862060678,76.34139989403265,7.171212736328987
43.924881843038115,107.26280275180727,6.669562679796098
50.35792736511274,127.13522851358815,5.626233455429647
50.07150028716482,131.43386290108802,4.152555539023029
42.65987548545855,118.70043879624066,2.371344801132252
29.020308464826766,91.04900178822355,0.43482894274832296
11.137983481283122,53.459464344119354,1.4023253811336462
8.408513464196188,12.270184374171572,2.8833996593300766
26.999867466892923,26.409909292463137,3.8591033378323973
42.38230491784316,57.781722007111036,4.25085221028507
52.859643767770116,78.737599113623,4.082856304619086
57.28953701756523,87.80336630650811,3.496910731400574
55.06438388893569,85.02470992242769,2.677044939693651
46.19896338999533,71.98390646663923,1.8388893969027769
31.49396531570006,51.74837474229987,1.1919018489836986
12.672623465590807,28.435833557829078,0.8873654755483122
7.688936757443551,6.284822807422495,1.0411850683830493
26.545507068280166,11.54761497964334,1.6963706886008443
41.004235990805064,23.86631640239989,2.7931422322637847
48.975030132207365,31.456926330500217,4.182195986868793
49.59843039120227,36.161794409443715,5.619500690224227
43.30330525537078,39.48213578452789,6.852760315637441
31.539597728428905,41.51284433663599,7.674023224930168
16.352902910402253,40.82306859301984,7.893312695586627
0.0037623039040946336,35.34345943616829,7.3998930501583855
15.295381290506127,23.70463230163593,6.193781141710698
27.40935617125776,6.216363388256536,4.3413985504879085
34.4921245255673,15.029088324526702,2.003507887956867
35.228276895961116,36.89826723493465,0.5551976983458211
29.240956576399103,56.26788085584939,3.0665201422274464
17.43499785218927,70.75258104028705,5.288934759886615
2.018442802513466,78.82764999885265,6.983291203141101
13.927451340846625,79.56379642438039,7.988771717204138
27.225965409082463,72.47463280535722,8.244314738365182
35.44872492366117,57.78661685267182,7.733886806652715
37.465447021475825,37.00044939678849,6.539336423985839
33.49904622083378,13.239782850249338,4.886096817868666
24.746616658286104,9.154401783605687,3.080391164529982
12.815178938871519,25.873022840153375,1.4035551881495751
0.7077046685004464,34.22353013521215,0.018808515714211972
14.38381691228043,34.20809828873663,1.0022058439293615
26.829820813283597,28.452767225152133,1.6321992314407292
36.60557014281625,20.99786946478065,1.891554231534545
42.286824976686304,15.579552993897442,1.8023728829314425
42.777097241599265,14.300497331679187,1.4121149545901883
37.7161119170058,17.311947773518835,0.8607108834129329
27.732761332998376,23.45792930009003,0.3141974113920536
14.357130463106737,31.29646116302584,0.12609550800787375
0.38162360457881545,39.79309551996127,0.42328124296435105
14.46577547893996,48.317329725603024,0.5748744947854937
26.269507245032386,56.14351080008201,0.6285418589293676
34.662387052133546,62.005601670532755,0.7146404784492246
38.878315950824756,64.15018342524715,0.9801836403382347
38.36690323406374,60.934833087720385,1.4619504119350177
32.81974468349596,51.608598541563595,2.0462854086568187
22.395359846368944,36.75512698034231,2.512547435997764
8.01239269436688,18.120370519399877,2.603913058850634
8.519908653631262,2.028049024910091,2.1643308952640923
24.69807246317101,21.585833627472905,1.2748634537697734
37.82266809870488,38.956677163696234,0.19711540980305733
45.624590675433794,52.9839586932359,0.8006721902806142
46.767449000055095,62.71050795297097,1.5672515731451984
41.054431923821355,67.27928165846743,2.1242002335798658
29.342237531799213,66.1137459946469,2.556671868512901
13.27012753082768,59.2435940537325,2.8377053164710855
5.045031207226896,47.48549537689695,2.843169224830708
23.246839143934572,32.30182312914445,2.4960910015007283
38.95392473985763,15.420600843678738,1.8182377372932046
50.021008182801594,1.5120448117335739,0.8651705246696183
54.82680139675338,17.001639656624345,0.26328913829203143
52.5518535408286,29.512765642628988,1.3357104435502745
43.36671251277604,37.295413555358884,2.0660886359068997
28.4198098392735,38.54602511635119,2.3039761132357826
9.632859041315902,31.996297862246532,2.0930660471809226
10.597999544861787,17.682338020604085,1.6258029941215382
29.697328926896915,2.5854217303293745,1.160909342395736
45.14621605473932,25.447171295721034,0.8655008379934842
54.702323969260654,46.894221543708206,0.6906360723061636
56.68159862026835,63.408610093387985,0.4196122691132794
50.30973725389587,72.78709853466401,0.14745764526989782
36.05606657723999,74.31631879047012,1.063104602790405
15.785092893992529,68.40824874942169,2.2081407661269763
7.426010756791162,56.106719795314014,3.331271063999838
29.846290645093667,38.81812200695096,4.228837445484644
47.89276472405872,18.33594137108631,4.850367080563278
58.90235016214449,3.1053033126598635,5.163842964565408
61.60570986063824,23.10972541503847,5.060288787698501
56.173583272315014,39.80908216900395,4.429105527509425
43.91854955442662,52.610307512527164,3.2798320651659716
26.847573953970972,62.41701740506939,1.7215630661484214
7.248656022406018,70.98049047657682,0.1296808995546104
12.570134422634471,79.62597108726935,2.1111182778656428
30.41593717344687,88.0668901535536,3.9959799170661774
44.33871925105534,94.08396418776908,5.5276388542903865
52.83159669750615,94.40411117785386,6.452190554530104
55.09352824777729,86.3767291777165,6.622435913433047
51.23624018997076,69.48661253045759,6.020487493724733
42.29313004230733,45.785328694101224,4.722743483926565
29.97814234732921,19.007828007054588,2.912349111956645
16.27016213480899,7.06022258732661,0.8503410829744779
2.9849255765664715,29.971415708923725,1.1904389031906821
8.515199414908295,48.95878073476562,2.995442312058991
17.382381026748625,64.1865158213262,4.407755822032842
23.15021493180077,75.62125185462396,5.264061900946171
25.563985821560774,82.44925126119985,5.402045086492907
24.50559709472073,83.51314477664968,4.78976675201804
20.06882120953994,78.4262001398528,3.6177161426843427
12.734300262479705,68.45572719327531,2.1247504666805224
3.5030774629517234,56.35552889701477,0.43951256691794044
6.119688149724998,45.05750221655131,1.3267079544265274
14.329787565221753,36.03286723559219,3.0196622894303786
19.367398428324154,28.426897951392903,4.4734149991348815
19.88296287686295,19.629227348185744,5.572533286051633
15.226393202428396,7.07650885679231,6.263475294823016
5.596906412118117,9.81448305050276,6.464819122743727
7.958574350041783,28.84462260705121,6.093108075355545
23.66453589787698,45.92458986381395,5.14385098097051
39.21675826837476,57.179000887243824,3.692424807780248
52.048060008518924,60.975182868603355,1.8835292567766522
59.657610157671165,58.65414882845506,0.10412087739099213
59.99805078534919,53.55196930814338,2.061015192513271
51.89521610398771,48.9333783941466,3.7517499907619976
35.41982385453454,46.13657637563569,5.004721357365754
12.09241106242244,44.03246119277339,5.781382770426264
15.18507298179267,40.033684775174045,6.127626505376499
42.99711326602667,32.45835789976189,6.060828897950991
68.24031212767582,21.398561511882892,5.583231612501114
88.35284664257476,7.981821140273898,4.7864467450130315
101.56534950967446,6.113346878209979,3.831910022072422
107.02834354705504,19.41028630354273,2.8485796299168373
104.8302648825851,31.119101084088594,1.917971542772279
95.9210776199556,41.05436658384583,1.1374363594643118
81.95112333954525,49.084771784032725,0.5983412202318641
10.30150834172071,8.27795823543812,3.900103236090376
11.17426904437637,9.920298608639266,3.7987145204096526
11.027563997082753,10.206331587626032,3.184052866967901
9.4896130264363,9.035446383540382,2.021759199836381
6.080429850766034,6.403083320903686,0.31482007802515183
0.3913049500867366,2.4499829760582643,1.8202000963912075
7.6448680576872885,2.422738650698706,4.142260888499157
17.536002444945286,7.56478205650003,6.3684236337624025
28.15781936225207,12.183190097255961,8.234966903111385
37.92379209130859,15.610248345047502,9.50360984952742
45.099703266539194,17.502894735093175,9.987108850035934
48.127417212389204,17.728341175138826,9.611167067868536
45.92908139445672,16.1369656638197,8.478962687941987
38.225844871471025,12.968247709995095,6.807495113903841
25.535831061781188,9.167841253945381,4.783108781918967
8.76705836140105,5.558312922888713,2.5738919419863833
10.896192925787908,2.3763913892049793,0.33451101153937157
31.809966458158108,0.4312897434490434,1.8298305210091341
51.80187823177448,3.093239139801588,3.7830088621746025
68.21372123895893,5.760446211523875,5.410660340682061
78.2912633348328,8.448055657525401,6.702705626114255
79.85480470266151,11.183843261145585,7.661202072698779
71.92473680455876,13.932295110658947,8.275352659606293
55.136393492642775,16.524633876709363,8.530890168144255
31.694437128471517,18.528314469950214,8.378442293829147
4.9128214581754746,19.283363213349944,7.764953017380315
21.46088815356869,18.24150358930433,6.6761636831639155
43.93890723194861,15.371351896353172,5.166325000372307
59.779163974559296,11.425707912302213,3.3466047900176363
67.25199761685919,7.729538741252552,1.358872966948363
65.74363365703897,5.5562524265186735,0.5989728907263074
55.77211148599583,5.4186426845260085,2.282357221335983
38.957319303619556,6.652704907475198,3.4622203882536975
17.882251859011514,7.621070753737549,4.016199185070573
4.207108894759665,6.438914786578651,3.942850780479275
23.88976575130402,1.85969201731675,3.2897297692779004
38.17214856504465,6.148972741899672,2.1709164817751048
45.03903505162408,16.411700792387236,0.7704861465088904
43.81279260619444,27.021253134839988,0.6671290579234372
35.218609769194465,35.97803826346517,1.8170867169319285
21.148314718493967,41.6709619284652,2.395533819071139
4.227798275560645,43.0624911196324,2.2843583398530685
12.684616556347795,39.685291193825925,1.555994121318272
26.95419665239344,31.659580823464893,0.4418305377902004
36.51738016948289,19.8117086009251,0.7763443500776095
40.10460877816775,5.773196970436692,1.8725166168424685
37.33274273758818,8.140034053676672,2.7547887398176725
28.696535977076465,19.417010572792446,3.433139078966414
15.482073485108566,26.098711089018824,3.888605303611409
0.3953067177938721,27.434330015069985,4.015621505047025
16.611460525122663,24.12120747919417,3.62533080580297
30.70426600061031,17.986358202007906,2.546163170840165
40.377844739625644,11.279468560327778,0.7888695987508075
43.829623474797295,5.938260640140361,1.3772995896315259
40.09591348107893,3.120836378944768,3.4701359706287045
29.338042921979376,3.1147385391204003,4.97436773587268
12.961192170089149,5.48498617029491,5.511880500567605
6.514914300973147,9.260653513360243,4.948596980976784
25.872755295979665,13.091734023402676,3.4297145244359433
41.827517129703715,15.443869142788834,1.2393843215567608
51.68418776784158,14.976571126882645,1.3010341538295314
53.83533938926683,11.11085016143967,3.8423297011426434
47.97893293195912,4.535943174497721,6.064955289900782
35.021061699740144,2.7096341769911154,7.711139840612976
16.774600890150435,7.815891684083814,8.591202836389039
4.381598865110983,8.326705907513858,8.576228439097388
25.79501970408476,3.323410257330618,7.604019467528572
44.76881220286489,5.9754571197568485,5.716730015831663
58.79333542226819,16.55429425770162,3.0877063677405405
65.84916739336796,24.753547277626314,0.0701462856024214
64.74081380987914,27.717330769766903,2.8259435628066445
55.354230398272,24.414849431161173,5.111191029297147
38.72814261634798,15.77875004015972,6.526261973245467
16.872786928998067,4.0323506980305455,7.098126816351016
7.59138412413355,8.354369776855837,7.013001770532497
31.811694736344414,19.50416773448387,6.494595640861852
52.98304342348055,28.41596785787001,5.706019801076772
68.51149934913717,34.751819741650394,4.690392249549386
76.15547521665631,38.445587979464875,3.4760055186572982
74.28566731367793,39.49148772582422,2.169239891039941
62.29504113990251,38.03279046922318,0.9250692614607987
41.03305174883133,34.56950372174494,0.13216385088375643
13.036067604819918,30.01182923758157,0.9623031341315704
17.670095954567138,25.40495062491961,1.5387975944417267
46.23524828154157,21.398090405140994,1.8006558522919234
67.94630394946601,17.79761639538466,1.6970476295722463
79.19122640890299,13.55522172641942,1.2732276076933573
78.12422458845589,7.2582763732635165,0.7662751770972346
64.89215702522289,2.0703418870763963,0.48021001407913905
41.47753842182271,14.224355642635377,0.547109875505018
11.321234212340862,27.53265121776031,0.8771898896086493
21.14849774060236,39.21528778997537,1.2742379867542464
51.072758850988556,46.2509586784638,1.5913856802774309
73.84223597383854,46.434587392501854,1.7897287673867273
85.8716833088841,39.20416414512214,1.8915353446447167
85.31944204418122,25.929948624964613,1.88197754100402
72.51590993012704,9.584450167500004,1.6635759984501737
49.88415827363758,6.078200098311821,1.1773752496702576
21.31853927593483,17.562705806076792,0.5092748433418448
8.77335148784217,22.57059291473186,0.13709094243226425
36.41613989928411,20.553483347199705,0.5492974702473123
58.66411053732493,12.73608020466619,0.6226784222884273
73.72658191561374,1.6486132081654017,0.36324749181507693
80.76618784585067,9.620750564380193,0.15431856372527875
79.64277698166465,18.195963788764132,0.823664928397668
70.81466871245425,22.002478441069524,1.5033043025719794
55.41163470348925,20.07266167316516,1.9413972262250754
35.321602095210196,12.623485362020517,1.8621890934973384
13.094305658671956,1.0147663935098763,1.1610274613058214
8.435343018709796,12.38165217556682,0.036318671195258355
26.696253765686,24.445030167864388,1.4367192751605207
39.85322594579506,31.805922418637536,2.7351763772103754
46.99643838818664,31.627499718565385,3.7478751902376044
48.0328856125833,22.50929600060969,4.416685407768204
43.43220125746594,5.172624084657218,4.728152278595261
34.024330003523666,17.439524152453263,4.653921291003335
20.981084533278658,40.82062225229329,4.185079194460526
5.915975412174405,60.15063658195922,3.3547234545063565
9.093186488788835,71.62875889760008,2.187739313091191
21.711551729531713,73.31514689874436,0.6613162699159627
29.80379757102923,65.20326129282978,1.2318029773387986
31.9633045464081,48.645824718705846,3.348980971670792
27.870445336184307,25.605963799330315,5.372152935037098
18.326105070296485,1.754651578406418,6.92632733966091
4.956854710761782,30.96658181734318,7.754540882752342
10.222737292399287,58.870608241888654,7.8000756342858635
25.17716696532756,81.50531035699669,7.10381583758836
38.067002926118455,94.6968309263033,5.758292136256254
47.34344534337358,95.31633530905427,3.9111718101883013
51.81830909855413,82.66373077336273,1.6787291382343377
50.8002459977289,59.19406205550557,0.7931211772843109
44.2734493748533,30.059658839739505,3.248618316529063
32.997132781239664,1.557193258921468,5.415172912285377
18.432220506599652,20.847618509344965,7.057971743431039
2.4876365412865185,34.001875869621536,8.005875055128618
12.838227237948377,37.426034177820924,8.195006545494913
25.768536631966693,32.58195383723574,7.6883298550817845
34.92201333578152,21.66836823427117,6.6546125527261655
39.387726192709856,6.738825483856594,5.293185776616589
38.7777538540911,10.421558918478333,3.8207982812380354
33.32922912959902,27.809578925930694,2.4136941710200888
24.031174012797113,42.70566211563577,1.0668644190030265
12.372395293784828,52.358552176446494,0.2961374783279502
0.01571950313145963,54.97562749212586,1.6541734669314498
11.527309683679443,50.204076578871934,2.92613874381946
20.836967351928266,39.49667710636619,4.05324605308395
27.119378832884884,25.797744423166286,4.971769265821952
30.138383996320798,12.573651760258631,5.587605046440686
30.181664584787576,2.589805988765168,5.867929820806887
27.869180814846203,2.9668124664916338,5.813346702287021
10.336037494199603,1.2880507065966327,1.796020227840381
11.381827948601972,2.247037726603553,2.299494734006129
11.18641776334958,1.5207817663675849,2.749474071610986
9.135926841293,0.8919461477042663,3.054478437576549
4.684229029842931,4.029025968797453,3.0926202097983517
2.369828347924079,6.218805246920754,2.771124178879405
11.638725194622394,5.675651805740972,2.078166013458699
22.087166914859615,1.250041089509489,1.0998155632940603
32.1868881702505,6.924981442877496,0.11362320718020916
40.243814058736795,17.180743412728702,1.6509184839674875
44.74596137368171,26.589659774982255,3.529131587672203
44.607293578315726,31.781005428582173,5.569777569991866
39.321519384532756,30.138291739649784,7.566152027152211
29.088042377049778,20.837971801855232,9.294224699922056
14.738840863872872,5.105336061779455,10.50729326403601
2.5369654466059983,14.24232776942653,11.109599521275447
21.2412726567268,33.52062770669182,11.11002691860287
39.4607161063527,49.04819597554555,10.49087854214303
54.95560153426142,57.96080059486389,9.21651118372995
65.4262177936901,58.67220032197894,7.187656047387595
68.97223990163694,50.94109405162182,4.3214266328632185
64.59594474254138,35.63756276554342,0.7458028635745965
52.486121681133945,14.44209215966116,3.220493028624289
34.02611780012968,10.332789761922694,7.165712926157871
11.528162444298568,35.80862990801279,10.678118729845263
12.151493343078265,58.63124080045652,13.446827369266556
33.96368899947523,75.34854620904146,15.22367739201812
50.96077671765313,83.16039871920515,15.890374671472316
60.57109681315534,80.77186957858807,15.576511353865266
60.95453037060446,68.92352030339657,14.456517378062415
51.4382875627192,50.20988026784138,12.616007738005631
32.90254131659996,28.110921596345868,10.126104093825797
7.915231032495297,5.656768609401909,7.0514099335774
19.547037305792376,15.55054209322258,3.594086265148887
44.79248358675516,35.40077857952881,0.15718816266380312
63.363619944360465,54.37941425773589,2.893998294566677
71.94045772998497,72.257678051095,5.359795018049646
68.9346969148163,87.23600655584855,7.186810363672241
54.68061301793,96.14711895166546,8.430254911168612
31.241062492153436,95.70332540868561,9.172131211491985
1.9633543273781242,84.14008197577512,9.462828580854877
29.053219103096797,62.328692805829995,9.26113375088628
57.50477608318757,33.7453090743094,8.458040283425252
79.43244757624734,3.3109128529322143,7.056637105705498
91.76463465153087,24.26854135863726,5.261046087967074
92.79490365882472,45.78219967807661,3.359639949211098
82.48999386645825,59.88649013686542,1.5933851715679228
62.512772097472094,66.65466821191661,0.11716133462490701
35.898568430411906,66.82575355708042,0.9723140465913677
6.45228487964875,61.3374947895667,1.6615450258110436
21.95155075434734,51.386187371261435,2.120867656394572
45.95652382796743,38.75951261749473,2.6105015433244314
63.07703607142164,25.93219834492751,3.241704844351412
71.81487159137839,15.589457587057355,3.9178614369726232
71.62672193422301,9.684582929651237,4.46291708458497
62.87171949037824,8.546898697706041,4.766289213555153
46.78930668319673,10.645513474573793,4.763750096545576
25.455672770563197,13.229413758883108,4.309346704719528
1.6507162935264483,13.52840274680221,3.216896151781843
21.406118221377433,9.889709361370036,1.4576012908204077
40.44780733859257,2.2626968747555862,0.7936066771126239
52.6215416941975,8.139933076962777,3.231870143839285
55.91008095268528,19.683195979410904,5.452189031345567
49.43312504159394,31.085926550927,7.055514291282652
33.622706755082575,41.6750380745875,7.7382635966519
10.263412677727288,51.0843497871956,7.331831725519842
17.614225893078714,58.74490581137764,5.849820560202455
46.01238162033574,63.59261913567997,3.4480818409353904
70.4698429008388,64.22766490075034,0.49959307209983406
86.77015572654025,59.431709879223,2.3633249727692487
91.74292046207216,48.70768496485487,4.522915457953009
83.95294329930005,32.52891674318613,5.644131694454086
64.0199796940504,12.214038139854265,5.730456081936348
34.45606431723745,10.429098882027448,4.957978299191647
0.9094025252949086,33.44984998983914,3.5100192274835416
37.70778297570545,54.93449607224588,1.6386273434560183
71.72441610111224,73.0606817410784,0.2887384970834422
99.32791081223102,86.17254701417825,1.8667835716976422
117.6568961658621,92.95702513755077,2.8256743805220665
124.70205251599657,92.67793546129771,3.130065680520916
119.42513512342488,85.33636476876265,2.917630538711885
101.99268965195606,71.63440871716381,2.442249657513931
74.0426748438717,52.76373119663037,1.9131923174522967
38.75681806318718,30.18806917055011,1.4205175049821692
0.5655105376197854,5.573841214766698,1.038057200097928
35.54595115090969,19.131601903871896,0.8357581111896145
64.98386537515411,41.64185070166537,0.8438455644574419
84.44597766765159,59.511451238564895,0.9314147483085956
92.5111166135606,70.62746427006819,0.799697897490411
89.75575121588079,73.84270748650609,0.21290732354270575
78.40448111796258,69.41710504009178,0.8314837877390631
61.71280677322999,58.981435228213336,2.092451806726162
43.264225782038636,45.01236181290021,3.2888424093159743
26.32787521687506,30.091011736879913,4.2530926917941265
13.385684064852807,16.33238161161518,4.873769098635205
5.838183674861685,5.240969577971488,5.075166239882459
3.88649242925011,2.0846567728987786,4.810184527727237
6.577835021812347,4.730069073187472,4.093760687518201
12.000613276163946,2.0554851692049763,3.0527028281512187
17.627124443358106,5.843271892975664,1.8881303574486639
20.776813176027225,17.587842852530645,0.8119379702938084
19.156723946399556,30.336815935582642,0.06269566391182577
11.389158807814459,40.29998310543717,0.7181062379547425
2.5900918274886724,43.85870771684755,1.1579460518179354
21.36600609842583,38.807663193343814,1.4106453523757527
42.202662608609074,25.123355703778675,1.4802408098691258
61.55875701712188,4.888151230506232,1.3955103231887585
75.88834481865385,18.54675187591228,1.2733998896061849
82.5146084831591,41.6962341019208,1.245373698483616
80.28703646255417,61.81092237388248,1.4469722912377339
69.79031760348768,77.15147609652136,1.9253633818962654
53.00731823488538,86.74327802415009,2.5605773929402247
32.585354622647685,89.96417688163196,3.2164643055559403
11.051169504526122,86.33965705112035,3.8300407538257066
9.69678565756107,75.68370944504677,4.397774291434356
28.435830676394453,58.42107943760564,4.912327539884699
44.28983004122661,35.814574462372626,5.232376399846559
56.3246159479379,9.909100110953027,5.179384568515669
63.38169158372055,16.78587173447035,4.721323184646584
64.30784008487483,41.676576221540266,3.8818933100083064
58.45836665907177,62.33573499382547,2.6421327281276756
46.162322162086056,76.58585105215587,0.9900224895777437
28.870725854117424,82.5789067218127,1.0024493561057395
8.87566160109077,79.0761527585957,3.119148199845198
11.269355222727855,65.94427936186179,5.074922695314971
29.31419386586505,44.65762806508022,6.615060844700123
43.58483025876236,18.447846068367085,7.551725922271161
52.91335472909846,8.174296321337467,7.8413183757217295
56.402192622090524,30.465699425136897,7.5790698956996865
53.2917144120814,44.69541108346562,6.877240826139233
43.11945441486549,49.092440570111265,5.800191255873827
26.11932853290522,44.12335483309781,4.426894991473291
3.62507401913459,32.070788311965295,2.982957143289912
21.792161978885915,16.20244053307102,1.8471507907052966
46.63410078600559,0.06133034477841944,1.303872064084425
67.16881768909505,13.703682443197236,1.2700796229747053
80.23555606931335,22.399628984512947,1.3795356839270634
83.85993939772402,24.708884459684686,1.2868685694004856
77.50250838092333,20.31872531843628,0.7882728984922881
61.973095753726454,10.298214055084475,0.21332742795821585
39.16176357300582,2.879560216785427,1.7948154089956263
11.735080754996922,15.794587285151225,3.9452852469835786
17.196704448035963,25.21737908992366,6.4093340502672
44.496160545093545,29.061981239610443,8.849214343152507
67.36144202572885,26.79293152616922,10.997112080577182
83.62139933272597,19.554903058677198,12.616123804713414
92.03464570232504,9.697782266963912,13.54963146535673
92.48693535258501,0.10256051362982904,13.705938843134328
85.98251073032876,7.739652502711001,13.024208552574537
74.38766973120588,12.225825244931823,11.546535969578029
7.052263298563592,5.915130129157223,2.9265850191282587
10.77582998367564,12.581572879421415,2.6177127303653696
13.924024906544993,18.785637360337162,1.990267191348244
15.60213820118205,22.36911379862663,1.0905540944354837
14.905390110177096,21.7034363269751,0.042176277301371266
11.133081845564325,16.25934234952609,1.340696778772045
4.049078451917315,6.66536456520031,2.6551967713571396
5.900776946807061,5.69675074202414,3.8287657078656743
17.466668712064426,19.25386729170992,4.812443949382589
28.71764954646918,32.60732218631682,5.610975155602724
37.398756862816484,44.53698921149648,6.1938737092342855
41.39714800588025,53.73897108543102,6.51045017874055
39.2511792462528,58.57117229995893,6.522678964213384
30.798565636247794,57.11421913104799,6.24082479428389
17.485245915080355,47.736325212571984,5.744559379223435
1.7942637674834567,29.998298658390066,5.0658518323617026
13.52820951746262,5.3408394718435215,4.065680250007898
26.068571579257178,22.925997843516466,2.6378472907284145
34.255857608752166,50.396122358574075,0.9217862971856821
37.43701801310845,72.78541966231822,0.8782552870716789
35.687280723083155,87.01260217896524,2.63918504801669
29.59024095799184,91.69242240422648,4.247565124944858
20.042025685738857,86.99206772311254,5.582953844709914
8.249920951727262,74.10958996854977,6.554322293839661
4.233408680649158,54.76178389634763,7.120819832961158
15.56839357559082,30.926481979014607,7.2828768914908375
23.8777579755182,4.818209982230155,7.088898705176731
27.69536330589468,21.09661681333918,6.641791470688889
26.36388186184704,44.2457405153031,6.02963356600254
20.20534007787202,62.30322127662944,5.308235024716831
10.351214906419147,73.6244540439992,4.531798966749009
1.689154281889993,77.56120347592349,3.676957408381212
14.460827960820579,74.51879241211994,2.6894521397469124
26.773615449152125,65.76149373330756,1.6840742999347822
37.585497043450545,53.04777760445621,0.8170478328685962
45.71857375868609,38.221299856878595,0.02811535698892366
49.703096137746456,22.87487345750426,0.7911145765694183
47.966290707196165,8.138308390032833,1.5780339051432755
39.38802733584923,5.367069833178425,2.23337955650065
23.990649674654975,17.39515426379801,2.7540221298762955
3.3850307838535,27.807737576707904,3.1843583269578835
19.35173410511629,36.26745185662472,3.531533146568848
40.386976411077626,42.079533731553795,3.7527300316636913
56.13775110894172,44.33184864229685,3.84496212814185
64.1659351146586,42.313847526911864,3.8724679613384243
63.620752522797424,36.03805822920243,3.873902485362847
55.14431852668986,26.55623657660248,3.7833223629873456
40.447426187225986,15.813314444168865,3.451718758402209
21.861256439824437,6.040656573935816,2.764559354513241
2.04358196409082,1.0343858470310536,1.7196687352962805
16.18155174591134,4.76469521156275,0.4004002441635687
30.015493495407586,5.6624769648927975,1.0093790342300781
37.094418791271906,4.979907879591765,2.2325808375077965
36.12442629306035,4.07288388756968,3.0704947479793243
27.494506447264683,3.907552984124828,3.504984544139253
13.490854448555297,4.9166720336097205,3.608719516369511
2.1467974137687853,7.160242380644479,3.422784550651276
15.270313837244066,10.529413508923078,2.9545696408795483
22.613158909524955,14.762256102856755,2.2616838039727587
22.806529657851105,19.25607519357916,1.4565222535777287
16.678024332906418,22.864540682060994,0.6421032341833057
6.728397307487319,23.968787609200977,0.13383060436463423
3.93080601614473,20.936473885731917,0.8250545157415226
12.676040465251033,12.795047314971173,1.3685361698207816
18.04438538865053,0.20640709461282966,1.7604538252655408
19.768359995196988,16.46698442666793,2.0241098882982826
18.321283323615713,33.417504547705256,2.2163572066092803
14.366486056907005,48.210786441615255,2.432987642231662
8.44753324141654,58.3755159515553,2.687636155402121
1.0567542867020914,62.184492903626065,2.8846331107963015
7.066938462879237,58.747614270293056,2.847054691199522
14.75675460594141,47.99047752863356,2.5071792347714354
20.58222015329872,30.692389758505172,2.092637849203463
23.347327137877993,8.614577844798099,1.8811307777216932
22.660609462517755,15.475346118996042,1.987381190547809
19.198984856343987,38.119619726486846,2.357011141652539
14.440574003050466,55.90708019460567,2.7309702009867998
9.943753623623651,66.41053914601953,2.7921598507691474
6.5342526033541635,68.8746454230596,2.363251089690111
3.8532344013033097,64.29522772673239,1.423918520697544
0.561724947020283,54.852500055505615,0.0656925772617813
4.877712156069401,43.01064365277872,1.5188652391837543
13.271439560175208,30.77196811830219,3.0897249565655387
24.098720178301317,19.43102783464747,4.438237992142383
35.56437866907671,9.820326444896269,5.386710353130458
45.27289007044433,2.7142152663964585,5.87890922800277
51.13424539677862,1.0217324457551098,5.9909741223709165
52.03507864086872,0.7269617407216752,5.719378050056263
47.98300925392305,3.480814105922836,4.9980017106861085
39.765304022600624,10.277912224777317,3.8376119555012385
28.433363185552725,17.226631087689288,2.3678432437882324
14.931166899201221,21.454873463264086,0.8697103754711248
0.03773968173080149,20.638502083150392,0.3710078555684104
15.436234809397845,13.79532092797516,1.158792009499376
30.412903229645558,1.5022261980579412,1.380404645611284
43.477608082864876,14.511724680061223,1.1547966361021054
53.04699622188381,32.09766564187846,0.7582456318625274
57.67033035775583,49.29654642514751,0.3959463019824574
56.317960901384645,64.55481816622498,0.2286797733991602
48.569772765948294,76.58245807891524,0.3280092353777779
34.726347555932215,84.0968409243848,0.5740126561852643
15.932590612667806,85.7709565042481,0.7920446527676599
5.723839618594459,80.52171952655347,0.8835755507780557
27.273122068512652,68.00075877841581,0.857966412484878
45.196666950401216,49.01982358177816,0.8531287410025766
56.089286442321004,25.642356677059087,1.0363613213642129
57.505210297615314,0.8711213227050139,1.440704146249171
48.662446835964886,21.950675312249988,1.9433714598076233
30.70959485549315,39.83697760419578,2.3245786832800333
6.42684353513382,50.73068547401455,2.327156644013433
20.50701914197737,53.830268001397194,1.8132632560556579
46.32307661609188,49.64279880515671,0.8796141389623413
67.7295527142457,39.77266949905698,0.17808220450652817
82.16151718640884,26.5141663395589,1.0152734160139811
87.82968536323419,12.342782674939453,1.436983368417094
83.7969828460112,0.5498674823525392,1.3924225607499936
70.22731801770404,10.539422620539463,0.8870135491046921
48.67802518430267,16.600316887353014,0.04168680504443575
22.154824115836778,18.130529907126387,0.9692896260226295
5.305145471623652,14.76138759842847,2.0586822988041114
29.53485811806889,6.3373718487948825,3.1586458561520083
47.30929535814107,6.877379304752847,4.119103853125484
57.121351522465915,23.88017289715583,4.719399795062404
59.338122529296,42.741992236319454,4.735550787835533
55.71277003719202,60.76740718116754,4.0096785562744985
48.5418456760887,75.0430628262841,2.4949934650669623
39.91603999873986,83.14968003997407,0.31798585109415306
31.36422929739399,83.70189873989533,2.1875673439227517
23.913630145610483,76.49295913858867,4.541217172335111
18.357162592931413,62.22631875476587,6.27737849081161
15.387164884581248,42.07414975304311,7.11898527146978
15.423552950962765,17.382632612989717,7.045078107839771
18.262635296621426,10.317730408189565,6.2167528517552295
22.810613971953927,39.07429500594843,4.80026304319584
27.175617430544573,66.34112487664898,2.9584563414382297
29.198089498218877,89.14249814586904,0.9740849156233812
27.215769618757385,104.59718883769236,0.860369342976506
20.728727983316375,110.60951701710754,2.3307317186553425
10.661913328723701,106.40188168645103,3.215977561279933
0.9064001355200793,92.63891930150398,3.357106239728048
11.447787379679069,71.14979396575202,2.731892442655675
18.823865356545877,44.45925267838941,1.4621967878327695
21.88278614820392,15.529546485981724,0.22768282369104514
20.41159400712406,12.714168008728546,2.0685238399938948
14.841842421979912,37.8734985699712,3.7563160722468907
6.127550098084813,58.0892139171767,5.0175340115511595
4.384477933112087,72.04528685999803,5.661195258295588
15.105662128744642,79.05732543872199,5.649272615141143
24.40553617842272,79.2183691477446,5.132218429863546
30.87723461439021,73.46270857949045,4.345838835483286
0.7637435394023858,21.121656692082926,2.6365773186621415
1.748351463477719,32.685645884788464,2.5443295935463426
3.31379083729763,41.54526215637063,2.2247224606662535
4.632862327332164,44.604146909244704,1.6188311763009176
4.721554395862251,39.403310567758716,0.6687206044036038
2.724888661377878,24.889465101741763,0.579179711271231
1.8802244060709254,1.9521834917741152,1.983317404572796
9.134025331672987,26.553270315651325,3.371496321732875
18.528726333810035,56.25224424433601,4.622129369441997
28.919510547037632,82.16190942078906,5.671843070310515
38.51598670736197,99.72176595348051,6.442829960493222
45.13841826629105,105.48606734396138,6.86889090017122
46.677353426784855,97.46529143528831,6.900352455858264
41.252553659292865,75.85914261148169,6.464524493300294
27.504215226950333,43.64993477499404,5.526881175519962
5.628973149186592,5.788813788984498,4.17156540978699
22.114779282915304,31.92438002034043,2.57851023495126
51.86549724432351,63.7311814773972,0.9211096772729243
78.92778197017266,85.1163111500375,0.6636960040663343
98.90626981189794,93.6548570457643,2.0507698763941757
108.61978807345211,89.51238534752359,3.1190475719998227
106.46761569826707,75.4964784016482,3.7880744015919037
92.44615404936465,56.263209299703995,4.098065049900825
67.83753842959673,37.05980846978312,4.123960672862798
34.961522902710215,22.192730668906055,3.8401025962904685
2.9606218780763456,13.778441742650408,3.1831811299477466
41.95496036009164,11.325845720119318,2.197880823505716
77.55527540777494,12.227256277562015,1.1315330890306228
105.37704129987617,13.04477833040407,0.32030704838985
121.86506557197357,10.95064996854594,0.007494639810731605
125.02146093518236,4.727122027312349,0.28397196297568345
114.84094422245643,5.021547927240615,1.0196968094987409
93.22940064626444,16.464419619116658,1.96555806917647
63.50793805689135,27.48531677251665,2.9543521139854754
29.694567782974428,36.47032798289185,3.9069555610591262
4.169440909541111,42.59668864519771,4.78592015885917
34.47727402769645,45.630031392313526,5.524242890551515
58.303979966242714,45.54939159117974,5.997344959953502
73.5225894179861,42.358364227293016,6.1051542285074385
78.91759820696062,36.264715590153294,5.822814608696082
74.34126799537636,28.041350986499676,5.193751183269655
60.8784366547286,19.19063600211542,4.268193846979882
40.8914846555961,11.613201391181406,3.1237652179492734
17.795314697461954,6.801519740576979,1.9173332578226354
4.453333032826896,4.969927139938113,0.8000445455588987
22.085306964121315,4.6671867633819595,0.14820602265563734
32.28517426233372,3.242596469523566,0.9460182473004151
33.75201264101137,1.9343502849591594,1.7071322276814205
26.916502597505986,12.076552614900171,2.545160454299935
13.75243099164135,26.136021171751505,3.494835373932966
2.751067420784419,41.00580534695982,4.5292084604539316
19.26528182378161,52.695968508513054,5.619925341870915
32.75650277931053,57.882882688800905,6.70144839171778
40.916840081598856,55.05885116971458,7.653242003035963
42.3516487075178,44.77284683878988,8.385548335162984
36.59192902333898,29.004597431295302,8.832240377955708
24.031372672121194,10.194469879100948,8.928795575667582
5.896336899499597,9.449006832766695,8.623913855286531
15.752479992645775,28.04488837993497,7.8572577635255225
38.07083369162491,43.713274559858625,6.617015852892229
57.6414258691054,54.33274076923194,4.96477355623228
70.93612384323124,57.80123953698857,2.9518953418126768
75.01159941706445,52.80495980436773,0.5961372730391594
68.28072862118705,39.65217321968411,2.0299349311018924
51.08851868495052,20.57211078982187,4.6656059268866725
25.854607936308334,0.8388631748696812,6.872181863099316
3.318590859169228,20.80735615499877,8.24093756469374
31.52772037976575,36.584125718826336,8.553921024813006
54.18927510658687,47.01268061458893,7.785293133408627
68.04062703152479,52.21888134704532,6.069196951121616
71.73048836636526,52.74338657753159,3.689613175930775
65.8445769531209,48.773739800689505,1.0514755404515925
52.4290210286966,40.00453053970829,1.4064870365586457
34.262459439793794,26.162876816242072,3.344777883144101
14.189800673973675,7.761226375782492,4.551187370276376
5.272436106470144,13.514442699763652,4.8796773743454445
22.046580582310618,35.11936024758701,4.300210110636515
34.42796635177911,54.480022803289714,3.0128954002894974
41.05832107894929,69.77050117703223,1.3935938744638172
41.11891483269953,80.12011426130469,0.26901758510863266
34.67883080002065,85.16792092727462,1.845724247354167
22.97179695885411,84.37706088188146,3.177305290950969
8.355319620036193,76.73467450581488,4.08560857494376
6.171109835755801,61.20671574334485,4.522083971226663
17.758828093538966,37.741030080950736,4.636876839214596
24.497917181496046,8.154728247129272,4.693080814250191
25.848241326548543,23.77124248022338,4.829479536547523
22.517533853302947,53.21512487614919,5.042218920788042
15.887237198833457,75.83649728936874,5.280308187400405
7.304326620604625,89.07514293365823,5.425962290688515
2.385758566198783,92.55204344656568,5.325694414251033
12.841991601030966,87.48182657080186,4.840797217414692
23.84880298549403,75.61705191695606,3.883096907915183
34.846858380020976,58.49808679491097,2.4270538113232396
44.673678658119286,37.474645983312385,0.5563156812792991
51.68457660101879,14.342505661724138,1.521834657678573
54.21252848500613,8.063730933910168,3.5570281964418538
51.11369131810992,26.010447365554374,5.231303703106118
42.12311240185682,35.92239065554161,6.3012195661503405
27.900620036132416,35.877877093129705,6.814591840821345
9.791554999143491,26.662981241556054,6.947708640340853
10.54595696446269,11.674610439972822,6.8173943717543946
31.459802936131094,4.36570719266429,6.493283771708182
51.48834360620964,17.203193599650284,6.0629180996298
69.40046331943024,24.37794096210284,5.60542095774825
84.13068523020634,25.469415002033323,5.105985031010286
94.69542518355082,21.333291518255237,4.502244695827039
100.1378865213522,13.01597820045438,3.7032834232593776
99.54783381417352,1.1694236216427627,2.6725572081730213
92.20920651960643,13.67044737105371,1.5277546868039018
77.87336072752423,30.258948611460553,0.39854396920599217
57.08150892503952,46.02957812338583,0.643473489362753
31.369097543529907,57.37465197903625,1.5795227855924248
3.182557161793963,60.895030429589106,2.3855718220779014
24.543509320462803,54.98140598417045,2.942914106158387
49.05247557230418,40.7757560020693,3.2083984679796096
68.44412111791632,21.866276602036237,3.2521444436318627
82.0580284085726,2.8108367172264277,3.102091871566934
90.36268570028021,12.735836369527076,2.7946102218854043
94.4305081034679,23.27757167433986,2.4443958162042354
95.29713929779182,29.46897017823199,2.2049138871073373
93.53989097896041,32.97315528747432,2.1866980203923756
89.26490513847259,34.978393268927086,2.4126470136857696
82.43402786703746,35.33296003869494,2.878301826704952
73.26113893301417,32.78581906734088,3.556779126910629
62.37352721785966,26.08728415475357,4.2976748853515225
50.60472166210621,15.207940852300526,4.84927790784812
38.56080396810711,1.8674699586835342,5.05113843968096
26.260872818013976,10.983589484198303,4.881593644107562
13.125630857213546,20.414437122561637,4.346241716098354
1.6278204469655055,24.76098626294301,3.4760719755797322
18.40379512880214,24.165591025994534,2.3231647401661286
36.7800128481586,20.163845187694406,0.9181632253938211
55.43388323718479,14.656514348365773,0.6416136299476297
72.4721279361346,8.935357107854736,2.1665371285893578
85.9781442600384,3.3286465157435683,3.513283543598301
94.49864564871113,2.4174291122214204,4.620030609276462
97.26197879678053,8.370711257966644,5.451848572450309
94.12973808060563,13.809111471985151,6.00912128430631
85.42653293647099,17.206945063781838,6.297445654860293
71.81083364686442,16.853945296276805,6.288663209662555
54.261073056108664,11.758883247128725,5.9565961915022925
34.18968932929685,2.620764941128071,5.3729798301009986
13.306610962730433,8.341857702782763,4.687614665259801
6.662649710623123,18.555235958063303,3.971794900085023
24.12037582326275,26.01319992849918,3.2285298546003216
37.78510016447115,29.892893716750983,2.478269254017572
46.857614468606016,30.590955641674167,1.7549642535876164
51.097681606549614,29.2495733147754,1.1018347125973307
50.79075845039334,27.07176789377418,0.5533200649861865
6.458700425449312,2.158835681150844,2.011523152729812
20.914561817030577,7.572027948715125,1.8669480658498214
37.12846849882654,12.928149923862748,1.5659158263462114
51.59783653454515,17.17116503265991,1.0588730681202478
60.45493405151701,19.256189377893474,0.30965734671900075
60.51428360998366,18.322867180158262,0.6015446061046892
50.171454676363766,13.92651826253077,1.530927393066797
29.805380368590303,6.2428339831636315,2.396461766345509
1.6667398092904049,3.77527222158322,3.1722741877267167
30.71318446905084,14.484901609380996,3.8289433728912043
63.26337803641074,23.883188531464988,4.37410338694614
91.88434087243597,29.973996666755486,4.850253444382763
112.70978124919901,31.10295376074123,5.238419198085188
122.78350192721183,26.633700942016173,5.393924421745403
120.82807480793151,17.465250596911087,5.061375506334849
107.09975733358871,5.463467001600766,4.011370621968854
83.13863049155621,7.343803055148715,2.221488411894378
51.654390109407444,19.22275251993336,0.028051085792010218
15.945847601620722,29.068541385445428,2.2667568263350106
20.60254008846725,36.23927512944762,4.0947191817573385
54.92297514557237,40.19378795472099,5.247744612917667
84.53143452583771,40.30118179573991,5.562690135724147
107.4323786846644,35.850482409350214,5.0690501862904895
122.03771861415012,26.437897753834868,3.9418392648180443
127.15188495553264,12.404076316829446,2.3273557858585074
122.14379107126658,4.927616777620326,0.3475367264644925
107.29401695628836,23.361709681167973,1.7769310909886296
84.03086532679065,40.37860560244168,3.7243970198678413
54.96012916331014,53.791465981394246,5.175673256154435
23.54667973690844,62.22878945046425,5.836094272477651
6.433990423902002,65.23109168633707,5.469303991794097
31.465116962976378,62.935075380380816,4.067769590288344
48.795507583224015,55.599192157987424,1.9376942512538524
56.79812295762554,43.29552316531565,0.4246338423462872
55.22864797159952,26.04224801431483,2.5494040363375388
45.3816493884179,4.348717670114905,4.210223292653488
30.04641714615023,20.13472074665509,5.4731452638728495
13.137566855092592,44.29703038189048,6.471930943231132
1.0790494224162879,63.953732473052035,7.244622822050193
9.026157907293388,74.95413426804261,7.793931830566668
8.804245864707235,74.60898042863988,8.094034010822114
0.7457219452374882,62.808485548841475,8.092785475935342
12.723712481865592,42.27744786258714,7.735893747038524
27.867460296885174,17.788955005145393,6.945404704724915
40.75209341573864,5.349154329249712,5.712722295024271
48.27999217519477,22.85316099275779,4.139602576809138
48.817584696959536,32.40119932362302,2.3631776753516234
42.32780763462591,33.6527096043036,0.5594603646428739
30.12259350494419,27.56054493381308,1.1112525869757222
14.440081115832015,15.558499442987221,2.6512477780026455
2.0025605524453343,0.8286278758519833,4.172187965185208
16.461915796699262,19.78384383293422,5.649892963944082
26.621960291356555,38.70797348867927,6.904790803632577
31.00755762210717,54.02781511296862,7.805491038902788
29.27247897217297,61.74468825297381,8.31679564691428
22.211543248901336,58.67917965818443,8.421751780445582
11.47029315976298,43.86126622187828,8.096236422807646
0.9078780165652292,19.28701187637662,7.354049586962131
12.928493388550121,10.47197865886316,6.2475687433202
22.91882030356994,39.68837692415182,4.790509323851251
29.586043522148262,63.26843777711324,3.0225633347976264
31.99696891609754,78.07844968164719,1.1154131376231524
29.621261840840667,83.2533542729266,0.7142880504312459
22.48915609789676,79.5708247653767,2.303642086878498
11.37038553990832,68.48578428145174,3.501885024571586
2.219172373812461,51.467036459795956,4.1476949420474
16.28948565940371,29.977228163314816,4.14550889266087
28.849733357855115,5.914494182673024,3.486940779357994
38.389946564524315,18.05313584233073,2.2677250811729004
44.14987854158032,38.71337605460464,0.7247753899603484
46.042450894923554,53.117493674847815,0.8653086221330939
44.35122574209773,59.537154083847696,2.264477659163206
39.44626704428209,57.98254327034441,3.2814735438711957
31.67588891238961,49.9603014860403,3.8421464944111405
21.469611064155746,37.610693882298825,3.9820739693098384
9.501639972740772,22.79523506802042,3.7462889770853205
3.2823997111743326,6.717126797863372,3.1875571160250327
15.804463991580182,9.774926407764854,2.395361701054862
27.053077156227513,25.54093350500158,1.429485200914923
36.18208136970334,38.756795410597384,0.32892546798557915
42.42406740642139,47.18705219388591,0.8607654183448274
44.93584117128993,49.07530369553134,2.1281518192674427
42.79171820079018,44.12563303273923,3.4253383938214963
35.25395366343915,33.89235516061876,4.67587200441095
22.27405690041804,21.270381335625416,5.838216489384236
4.958057332970671,9.335701191499048,6.813801600871867
14.363387565474772,0.17300396554354372,7.5006364938382895
32.590550673251514,5.665135088399633,7.907925603776713
46.65422188761873,8.84237057277626,8.036504499430611
54.30520774470742,10.393057247383952,7.782390095342186
54.531090083934025,10.981598442711146,7.026291292922748
47.49671038005249,10.727842719796683,5.7218937973907895
34.2192226846302,9.602839960240448,3.8761427368437715
16.28940984555191,8.016908847366,1.547494718050455
4.169184310358131,7.073232597107675,1.059507542683728
24.403016173747332,8.220453551038037,3.5778301893703706
41.127009454002675,12.526546516447617,5.679747660487209
51.08843378405779,20.064032885409528,7.247502700295015
52.04194729627968,29.815917413507883,8.27555461066796
43.717356636313454,40.1497118382097,8.774353538779756
28.1914626720659,49.52147711645345,8.810333570965565
9.32922617445045,56.92650412066927,8.452996024440745
8.501273061222998,61.80530217003818,7.70137848918508
21.867274063649507,63.55233940330912,6.539939204910578
29.20103160598912,61.094801538533304,4.969812562377097
30.790675687698197,52.96700587176917,3.0380876321518087
27.965589044810194,37.961044031188706,0.9288706925740335
22.063395784525444,16.029028536065148,1.1031209117507454
13.81652393742441,11.124379023702042,2.8421419655604345
3.466312764940156,40.197187953554305,4.1057169625334575
8.614277307843583,67.14730787498176,4.817766205022855
21.31944768648471,88.29435992684515,5.090367701120578
32.71011241862184,101.13922863927418,5.166580629223859
40.55324923770644,104.59651022284666,5.259584438983284
43.17780211956768,98.73246533109443,5.402279498437294
40.11124915714861,84.38330652310886,5.479630741061468
32.13335763157496,62.9984076223361,5.33670541172478
20.76219633598902,36.77829669384136,4.832825666683349
7.528724225552223,8.84269769632456,3.9224842092056864
6.475755005504291,16.964549465423186,2.66479696279041
20.50849418658758,36.81793608662381,1.0974656101260274
33.70180186569133,47.99280303110947,0.7884555536511988
44.61135655111078,49.77143380887757,2.916319674012454
51.169912066444134,43.65816627376213,5.117417170701681
51.22400610395156,32.727820293644584,7.22322160646167
43.44024350430476,20.387698321540054,9.000944672140786
28.10570789217103,9.136368116222116,10.109875108459505
7.405159762268952,0.08868892287620142,10.203802672859515
14.998046291158202,7.698311704803062,9.007722076371131
34.917819549751385,14.589450108578074,6.434742815647998
48.74302843222688,21.16346240445453,2.7615980491369108
54.25746757371749,26.757993837761887,1.3971107026411698
50.93391878450108,29.76419070210474,5.326041826583324
39.74238725032617,28.30732299809102,8.404790571240905
22.675452506224257,21.120569998357748,10.257931594278947
2.2224780109480204,8.203219587409937,10.834334877867839
19.010145559444844,9.008938898178503,10.259292476290474
38.48468878004651,27.967680543426468,8.677997438686626
53.825232940245755,45.62156184025791,6.266878559642078
62.96077270820372,59.059423983425965,3.3183988728774314
64.39569564333922,66.01730723626912,0.23394296076447682
57.57096883893112,65.18277673969868,2.660798006549926
43.52514846179091,56.499437209228425,5.1599723903065815
24.792397481974128,40.91682058682386,7.064362579466315
4.513529316996733,19.984352329800455,8.2047615508517
14.228344262880954,4.085625925527909,8.535393074763853
29.037423004812744,28.49669300888992,8.154730485337396
38.61526384428141,50.18169421129512,7.2909597110303945
42.831162496180475,66.32524202969738,6.226205936129832
42.47362845911299,74.9581189534113,5.131105558885812
5.567547961627417,13.556514862602848,1.8995854728462973
11.045262684441848,8.543715361786237,2.5112868642870647
15.903477393055288,0.728318548703286,3.0752317327920857
19.01639169576997,13.731815528110223,3.4472080649487404
19.4049006982881,28.68069449348132,3.4504871571296882
16.416089590444052,42.81281660756251,2.9756307995927695
9.916589551166835,53.08133626298506,1.9925072369091716
0.4066394637625427,56.97137041928568,0.5290676698377068
10.951146016870961,53.184571680671716,1.2983106583663557
22.48878819589061,41.86129047393722,3.3333777398486295
32.32640463222107,24.360082826972985,5.388663096997434
38.635655035709334,2.8874281705276412,7.253590807173948
39.84635935116481,19.819682144873017,8.721561866342025
35.203866138230794,41.06399959965961,9.56967131172227
25.313744388424006,58.62637959428237,9.584580128009652
11.814354866362454,70.46639172069008,8.689014461401221
3.1913212954587515,74.76688422533923,7.014381429356788
17.527126495500443,70.61206428998882,4.743222359392853
29.408585887195052,58.50759940432219,2.0687183664137523
37.61319634836249,40.6917055648263,0.7014864341190232
41.496818234569446,20.752907436263175,3.2685367663285914
40.9831737003584,2.5236634305926926,5.431720541888468
36.405252339249024,11.08837920627376,7.058157088099453
28.403594556729118,18.94535013693048,8.065163231643895
17.811265913458364,21.698505516667563,8.37878995408094
5.570040468064412,21.057458292335618,7.952316202120866
7.251039068497082,18.83020131466665,6.761766208653304
19.425619518313553,16.24551328549714,4.844662788515792
29.541175542381943,13.94888030019135,2.3987761878655838
36.09643348118512,12.472308625998487,0.22400489803741283
37.748409311386325,12.695778315519473,2.6140234123125174
33.65339867086082,15.78921962850468,4.485716355489782
23.828376635769956,22.504965636008084,5.685871570158254
9.362685505418108,32.29606381960663,6.08178823604937
7.616182172670352,42.880740999703505,5.600899226585328
24.245006737083735,50.724964046006484,4.243038095555928
37.43116362603521,52.36253056658631,2.1239378584302293
44.426417805094644,45.87726713010757,0.5036590571144743
43.368295824886054,31.761691467510786,3.331382238716616
33.71326266323992,12.652144272812642,5.995034008763912
16.488520606921384,7.8843064260049,8.147302291752561
5.722868280933182,26.753423239864528,9.575815528225176
29.146363604576504,42.159918924421056,10.192336288070903
49.534605919152156,53.48771662145479,9.974885824671281
63.11332121469741,60.50275687305066,8.973745327821163
67.4842198036721,62.62349728482372,7.358911194704065
62.16376258408517,58.88926060319928,5.374843897266336
48.558229249185715,48.691381023237405,3.2626775939197548
29.39143975067967,32.75528799759451,1.153069285278334
7.831777662864101,13.607454672635097,0.9405618373545751
13.30577551292166,4.983559326380558,2.8945968957896726
32.00437653563546,19.41176756962669,4.4932345518015175
47.06309588230402,27.702708958304243,5.645717630038038
57.82745692794256,30.19901832484734,6.39314660449773
63.89432119402015,29.074361688073264,6.865751083121156
64.97110498369265,26.989037106606308,7.224143730531617
60.92718737409583,25.693832927751735,7.609130729257357
51.94602101319434,25.372640139254656,8.033317003365733
38.63891042309918,25.018656915205433,8.23603261271958
22.049767415925025,23.463398600352768,7.905188287003153
3.5870923143901967,20.30649441459279,6.900585440537943
15.026828624196888,16.17031039978111,5.186944046350872
31.796687237803695,12.202347594188609,2.880617608072408
44.57084476242836,9.255231442430723,0.2870341797048223
51.32285640015895,7.365395948932598,2.1846146532694313
50.62741717697982,5.860304139990845,4.101863201980274
42.200136615135136,3.929182493771386,5.114111329103474
27.270419952519276,1.174022602828125,5.041872855252822
8.557769401165334,2.2816955264405387,3.928315321377444
10.225105690835676,6.169394531580715,1.9657473404854025
25.182877167977345,10.582332807970724,0.5832668979016408
33.110537852859395,16.141329210764184,3.3657232991278234
32.17226125070647,23.600311082807877,5.960398650618301
22.211552173384955,33.125464370037,7.869266351712623
4.697712013078594,43.773940571768364,8.577883590349941
17.582569865468663,53.582810923405106,7.735570912042771
40.9803563862739,60.283277398701394,5.3203536484353515
61.533595343865144,62.22726849174476,1.7099011031845608
75.56799546088013,58.94476407525128,2.4756760742504733
80.2772724715137,51.03260954208888,6.517708614694964
74.19177807033523,39.54782154784176,9.75759731817571
57.398195937949275,25.384776540492204,11.828512924976414
31.452147042813756,9.090426971525247,12.60583220836456
0.93012669128247,8.80610428042993,12.169763825489312
36.2685441538122,27.30374575862704,10.7766475763921
70.67536241489049,44.760101537998594,8.669011753313985
100.13880556400363,59.29122502940511,6.0961424339464605
120.82058677521003,69.52429516941302,3.340218987741012
129.48249526539806,75.14444858313843,0.673060272020117
124.0755901824895,76.78798094850234,1.6547393775533474
104.34365828883796,75.29168519847727,3.504847937332439
72.16028577879655,70.7955838227001,4.815347766697622
31.367450274865966,62.37794475220203,5.54268898754965
12.896580323628939,48.61120235130357,5.671912027609888
55.15839214893334,28.787752856385755,5.212101093357195
90.53081376200387,4.031052202433127,4.246057553700678
115.30391028328883,22.45685218799394,2.948412797296243
127.1350753966764,46.25117482243787,1.5623891495436135
125.01325127252997,63.2378099090652,0.2898773914916829
109.21317951048786,70.96906049656114,0.7336428778838539
81.3570326942245,69.13219601677957,1.338139988462578
44.52012720429055,59.02236019377695,1.4051276792506135
3.149251838013275,42.55945260606274,0.8805002679450417
37.402069102075885,21.602709266888358,0.2411384961478936
71.72303296385722,2.01479070627003,1.7563315652445028
95.36015080361305,25.919277008720048,3.280826303993154
105.63912527317065,46.778027443411744,4.436512657924171
102.0223459963541,60.648980988849225,5.022919997220139
85.9653931873054,64.16200229715461,5.033932666441635
60.40900493973315,55.95752958098859,4.506166114180438
29.154984145456595,37.517350162076035,3.490819282972841
3.654800290580231,12.847312037736737,2.0974289259445635
33.94705952551395,12.877680419272696,0.5219671600131537
58.102707541211494,34.98254157093218,0.9416669954983898
73.37072659028306,50.3659308724574,2.0237793853301183
78.28984589446968,57.59889507592279,2.624665665282588
72.96434593865861,56.36475722010275,2.8130723029303586
59.02749475330199,46.90560821593848,2.7291400515381965
39.26518300428605,30.03516398872148,2.533958072435563
16.997675782412383,7.716979264870284,2.4013242249439957
4.59132249666648,16.38632750601906,2.5032591377076727
22.971050238348386,37.11675887526765,2.967987764193123
36.50972675082475,49.04149055366819,3.7937458531603596
44.48361417948594,48.277364078560744,4.775617329278335
46.96048466890597,34.050503342545746,5.50134601053954
44.646343729010994,9.133447667941248,5.55715536886589
38.72906032754378,21.085477573353472,4.815057464365629
30.684149114532786,50.37683839827242,3.445825588471779
22.019351469161784,73.40834030120688,1.7929638481206873
13.985037536586415,86.74229138477558,0.23673566503899265
7.3320112858595134,88.94243950718068,1.0186974544752097
2.240734258741179,80.17871067350222,1.9937662143284725
1.5526642811460316,61.871026120655365,2.7582386609714615
4.519963304844143,36.61562753723579,3.3223181097791907
7.113576852584281,8.16761760671321,3.669457254128342
9.665847003185345,18.974396098631722,3.7848195994223204
12.449515506487861,40.6063721219853,3.687095276086202
15.810275716414845,54.17122642550713,3.489918268621292
20.219777624483072,59.712064387008674,3.3535338857002435
26.155341503992684,59.780210933166224,3.3585899198408953
33.81577868765876,58.173403452031714,3.502547139548655
42.77882148983379,58.06898496741737,3.763626826258148
51.87748143955505,61.1513346985364,4.04324627397272
59.509169048037236,67.5628136968933,4.13195412521645
64.15376483676023,75.98866691756737,3.8395891027484517
64.83763628225495,84.34117899157856,3.1406453092174385
61.428308601455626,90.60382015610503,2.18421321115732
54.641548294773216,93.39348516279841,1.2294424949905571
45.76891451715014,92.07641196117956,0.5486480984563382
36.25258941279308,86.56750218843943,0.26622953718968534
2.1967223787677455,3.576655179418087,2.284374333586738
5.741745530379827,13.814003423809957,2.139597446026628
8.80172832554564,23.54982299353647,1.7302724011928998
10.709088695317748,30.557149638582935,1.1448105590536908
10.870752267852804,33.276935245330016,0.5156093494896661
8.869458784817128,31.004769946845524,0.12390507634769878
4.632765781769832,23.767090775938836,0.8354010167437859
1.4297946117662903,12.088432925397184,1.6872676858467042
8.339718942020482,3.1150409315689447,2.6851276511591147
14.689541242973755,20.464626561637434,3.7681644345759793
18.954405716055025,38.00959816768151,4.818397687479971
19.775356981949635,53.1751851801971,5.715735230297086
16.1835797262831,62.853459846489805,6.4298505458512265
8.148792372280669,64.0441621574191,6.9288341674484375
3.020929569994564,55.21405657097196,7.083758110086955
15.285500648022145,37.36555667214938,6.801493796966663
26.57479484841951,13.87894891572169,6.076037767252871
35.104196288792856,10.600961111711333,4.9071649742041386
39.692037306022314,31.67568561026765,3.325900335839206
39.74131622336304,46.47426913059394,1.398898113549546
35.148808999106464,54.120217326040674,0.8262530554496996
26.32139728044338,55.39798838571657,3.2215841139261494
14.111705454840573,51.95987772857036,5.483089015343884
0.20492421905009692,45.5118725165521,7.284397831359307
15.122112672227532,37.34702247036998,8.483636845158589
29.207208591615032,28.315714567022784,9.123948335859172
41.34828164823676,19.07575670417348,9.274777480040704
50.88986974055687,10.308570115338451,8.958326543478076
57.5072436614529,2.718654730715528,8.16303077850503
60.97618668837593,3.158036107442514,6.839894569868717
60.99412523275723,7.213880324264011,4.994315250675214
57.17653570516691,9.891156459860063,2.7264201932313754
49.275324824792854,12.042589759631909,0.18835126334025704
37.42201640375516,14.589560226413662,2.339948799346755
22.24601516819925,18.132738796436925,4.4529001583859165
4.7579106085904135,22.70404730226855,5.779559858559075
13.946549156773743,27.78875267801011,6.145034045806389
32.92160091703691,32.60620465317911,5.594854297184453
51.36476378589641,36.48113686295171,4.287697282536087
68.3335053287513,39.087951600591275,2.4375141170649255
82.38444003698959,40.4604943208551,0.2524645572364816
91.4467871943938,40.76855888282236,2.0920675359442003
93.15352511427514,39.98465102530064,4.378002331165575
85.61155892862163,37.658922943333934,6.281329963489385
68.28995252274129,32.9581162041927,7.391183888780812
42.598400051473206,24.97661847446375,7.399910137410006
11.823744256770501,13.172916248610624,6.23303570613126
19.599204554624826,2.2572020828282024,4.034507725166485
47.16344018568564,20.218485774887764,1.1537235872295983
67.292140362832,38.84449651021124,1.9591771101035764
77.91883563483454,55.8402187452843,4.805033461085381
78.55423114337374,68.90182126874085,6.9510302989448425
70.03100045637315,76.1205734628808,8.259796171333223
54.184317057581104,76.29739626094104,8.80019879730197
33.64327391559162,69.15981640564681,8.631533973087738
11.701597871325953,55.483499411646804,7.7805532658354695
7.93622277225347,37.06676727389819,6.347475357109862
21.7090131104684,16.493009296895508,4.553373440228471
27.032647460470866,3.3401567396659537,2.6603158428622646
23.144525237927784,19.834986928981447,0.9451428796253925
11.575735662423545,31.28675181672121,0.3773691308363484
4.0642016383787665,37.22843724696586,1.2300544565146383
19.03114971487381,38.35663330595513,1.653014547239918
28.814189441384627,36.0911769874937,1.8266648738716045
30.437058645417864,31.97554926892556,1.9560346317629373
23.197013177326546,27.206031866183913,2.1230504223296682
8.612539912927662,22.493217433111287,2.3174387103504106
10.28098179577314,18.234887640738567,2.5183210946022134
29.947578261111474,14.79396509378788,2.722072334856571
47.24632165379151,12.590094804937834,2.883170710493372
59.90395998619351,11.873093194930805,2.957466055591463
66.54813441007957,12.310249706152185,2.9876044521177523
66.49245214783814,12.702499578458184,2.9892432755028793
59.54106344860579,11.177313145584721,2.842529045654703
45.97595215256843,5.939281288838182,2.3954412136051686
26.730880379486948,3.7295396058328527,1.6349808165734767
3.6006421366637564,16.750667193768436,0.6836948675676922
20.734663618050682,30.290881253123406,0.30465865111458507
42.98951674616737,40.68952787773116,1.2079912548149037
59.84744296952359,44.89458809527835,2.016460283556821
68.66206061093577,41.69067203391498,2.8003413859698094
68.04259395752462,32.09858979654543,3.590597913485836
58.159407525496015,18.780621074437395,4.323123222673537
40.699955306513274,4.798118230095612,4.788966098906121
18.530581629270134,7.580485729526675,4.679830365718016
4.81241951090328,17.392489455220158,3.7555011896348494
25.674275083808855,24.65825966902391,2.033222569383997
40.76963729017718,29.585831376015676,0.17017004774310857
47.58149599762349,31.93971666813683,2.4238774513886456
44.68374191817998,31.050144578696834,4.3394157144283385
31.995406600618097,26.458118651643893,5.6373982007572305
10.918777858099544,18.72014736784292,6.164740430687553
15.707143778971227,9.718212506039649,5.855275420389373
43.87091314223806,2.117254283385912,4.757262176366562
68.92410571447375,1.8213916985709284,3.052693143016337
86.34178099078747,1.4176360040065488,0.9826253542614993
92.5438619162979,1.9817567622426353,1.2227918578419579
85.60322891387781,5.613298177954325,3.3441145212203
65.65440149012437,6.644766214651555,5.11573510692459
34.91614713090793,3.509973175625649,6.201590404845373
2.6491867495608816,3.4770215392053703,6.312653331389851
41.971890738395444,12.493166264823174,5.390351465278694
77.66718871724237,21.259177008128745,3.626243098748229
104.836046393991,28.10299188972985,1.354129432079765
119.77010534406662,32.43145175904528,1.0213799274621052
120.49260224866516,34.44900517096649,3.1576377769098287
107.0774416553557,34.45426864703962,4.897270895280349
81.67735126566215,32.279782111569695,6.187302698789963
48.22615912465384,27.276060734120907,6.9636054125084135
11.841473395693441,18.817249137518928,7.153310594127193
21.97092468607019,6.954897247109219,6.746920002704489
48.17241070021766,7.2460761556980975,5.818981420810159
62.99524867638745,21.917971877492814,4.452023427795678
64.5685115714596,34.97131117383868,2.7263722311840555
53.26300179197236,44.643993021866486,0.7498919755699376
31.729494896250728,49.697393978287536,1.3705019755572205
4.595140645081324,49.25512747854055,3.500807438708531
22.231034901666426,42.59439118058537,5.441286403389803
42.6297362329131,29.272248793577237,6.99107150522613
51.5803546276446,9.704147902721997,7.989836405672826
46.393481310880965,14.130424058902952,8.325396867524235
27.463073070217845,38.41240880272844,8.026337625543606
1.7708345437083677,58.06109668743863,7.278943072914905
35.70348522297522,68.14750481188797,6.278741739500856
68.02331171487712,65.5970005710112,5.146762717817164
93.23702448753204,50.390705038244825,3.9536700935768287
107.71331468965042,25.647445472795862,2.695205006231054
109.96746751165567,3.479662558148781,1.3156513498777662
100.30774330039326,31.50765849986302,0.17303136995313598
80.20653388822888,54.11679896404851,1.6964504793475987
51.82772009160695,68.85069916981672,3.1602797180889106
17.90497366241208,74.9254323911115,4.4317552341736155
18.190154337401573,72.58882187638014,5.385972804788822
52.491091352578714,62.621996560762966,5.9534137969422085
80.87571811466239,46.292809796024116,6.157978466845848
99.90944784725595,25.644968531537092,6.054565826933021
107.71977355392043,3.6683706170016745,5.6190605156625315
104.46000216430618,16.076000134115787,4.846047624068284
92.09594582856106,30.407232478135306,3.7997314055807316
73.58435006817483,37.6148099446477,2.5570443865966586
51.877687565164514,38.07142858511293,1.2625555203727468
29.269462370112766,33.97487319021623,0.13213390211006326
7.347979242437473,28.349942259928664,0.6283777864414106
12.652836395299719,23.724079221260624,0.8983996656083924
29.49117413372628,21.131118516790465,0.6933314204402308
41.81619271458544,19.985706691127632,0.17015597394348617
48.44679246257705,18.773431043579087,0.45097939371061796
48.879059190668535,16.10423140737713,1.0179102419029398
43.714996280340124,11.534661754298014,1.4311155588826052
34.68954643298048,5.7706876018754265,1.615175783432446
0.15595031492195635,6.822381682538508,2.6719093829604925
3.2344838385602146,7.593651332170209,1.9528148708703434
7.709464928733015,6.560649666767482,1.1135412576510046
13.228112583374704,3.6855033029376605,0.30256611024152325
18.80454001149243,0.5063142607133938,0.4467391076361917
22.89332533462023,5.19858044982285,1.2181798143878821
23.75637035151308,9.649228986817858,2.1045653590406834
19.990857236554582,13.44820120769862,3.1295141466362413
11.037188103717106,16.524326498137015,4.2441630202991
2.545512014812432,18.940228646604407,5.345700952411619
19.115661135965414,20.63762166325063,6.341483227096508
36.20755921943041,21.27991498992017,7.168666132870711
50.92004210121904,20.280556372849862,7.797897450446907
60.50971920549661,17.090962114845585,8.211248600733628
62.96498811124562,11.552458203631945,8.331464370413912
57.20799793106672,3.961221664463869,8.03352857365583
43.216040462832815,5.104154874153991,7.1313059779269325
22.209861426278017,15.024380518625291,5.445067933664989
3.3265481761985916,25.339965608469107,2.9819824454650443
29.816343446801657,35.69981047371196,0.09136470097572419
53.093851305551254,45.60222863954486,3.4797310124393697
69.24185009747531,54.133195930140886,6.722473944316139
75.48753482647672,59.885272050608556,9.343823229683148
70.92107861527009,61.21364969304026,11.045318963964633
56.74260803460366,56.73134128153288,11.770108466092609
35.95216909355356,45.80778652812588,11.612397047828672
12.637038465428766,28.858263037936894,10.704949583624476
8.927517552249245,7.32159343357961,9.195271513339808
25.101855316989848,16.60995490640619,7.246296466841596
33.482388548055866,40.37553864540218,5.073559503527739
33.236886624992245,61.40057787326394,2.9426712160391113
25.163709717420716,77.37175362121148,1.0883921394007943
11.481957615698828,86.47304082441589,0.3338794025101213
4.621489482955726,87.60637562630544,1.246896262358289
19.615142107403972,80.57884531719213,1.6429447718484322
30.30354135452619,66.20455335510009,1.618532584859576
34.40546028491066,46.25889307900307,1.35714281774939
30.894984543729787,23.255807858385445,1.0210662382812459
20.076541508318286,0.08985014067523041,0.7357228855920372
3.445838078702591,20.38894669859873,0.5911802896758753
16.57012692427307,35.800736855630966,0.5868635419061089
36.941041541784685,44.59343797558848,0.6671051767750474
54.45465940660548,46.284260908689895,0.7520381409412402
66.25364518824983,41.53704799899744,0.7687598574555966
70.42697079525159,32.035344234347825,0.7304710656751012
66.48845825638841,20.142158521912574,0.6846031284613628
55.50761472938388,8.39041810714261,0.651577479356052
39.73916067864105,1.0570142915010015,0.6565338556958296
21.833148288430934,6.813305627502168,0.7491010533007264
3.9479347057260874,8.436109065774044,1.0158548748940894
12.804099475206254,6.33717949705296,1.5236804077727215
28.283013280115078,1.509051922267262,2.2362434237025504
42.6694290486419,4.81394627244216,3.03538047021973
55.62688889988294,11.453230311477727,3.7890028342759314
65.81021419246335,17.474595955304387,4.407014259117763
71.08085469646178,22.255409357378372,4.861798867272116
69.3654293424484,25.445102994055105,5.128374919607364
59.69683391584305,26.865725016272542,5.144814983454913
42.86805141589651,26.404364631804253,4.86395334406128
21.333344673439377,23.948466319005576,4.277505691906361
1.5750693406792027,19.418174125703878,3.4079311344084022
22.65456375471595,12.895483218277302,2.3506445859657057
39.53385728020564,4.785067032359465,1.2502220176732015
50.79844833591899,4.095344278682241,0.2108211810774647
55.67193251353034,12.583574637194719,0.6695684911823594
53.674500637807995,19.428062144492344,1.2633707035034083
44.655325876081946,23.63955481653059,1.5065177623734525
29.247283796428142,24.758881971872785,1.4542743289189537
9.404980356972159,22.91760337464562,1.2261784522762125
11.464223617396136,18.698029722553606,0.9384851019835042
29.09939517419862,12.921169304428151,0.729546385004151
39.60563616906089,6.502847401777543,0.762807607032889
40.78365419127702,0.4254439651941036,1.1202093019861095
32.93299332137615,4.2465690240307055,1.792964732322656
18.705021498111257,6.480770611246005,2.745702650301343
2.086159032019471,5.600931884626548,3.876386938889202
12.970397206248947,1.6947075327475005,5.007804839340357
23.649632733364285,4.1620015466414255,5.979912989782638
28.706737426023032,10.108707930354274,6.6760939456617
28.22284156647204,14.127051785142152,7.0121914115154675
23.031357170625952,14.819948799205472,6.931120792658419
14.23835340666516,11.92889015032248,6.348525691624156
3.0685701581684772,6.278528349557599,5.220666604642056
9.021599460719479,0.7895704628749708,3.683052139908023
20.21918107325634,8.11474352798975,2.016585898069804
28.480152722759154,15.067462388354167,0.5043602444034463
31.95053738849628,21.304213888988432,0.6941663569945783
29.51031885683721,26.155823263650248,1.5630701254572643
21.194423182920456,28.17165952685553,2.1730573403787727
8.279851453737047,25.293115685273825,2.657032607473028
6.995102037913634,15.742436155490001,3.144061797796192
21.955564386766035,0.8054249762279113,3.635629369140142
34.0718417878112,22.460309952745046,4.02245359286875
41.415171282263984,45.29829171741747,4.233629258638525
42.919823333479464,64.49082263802406,4.279903028735653
38.46233486358071,75.84067097862759,4.236304809764958
28.778986252585888,76.9760648669965,4.255808542408783
15.266901389603424,67.69080930402552,4.46380504375942
0.2873469563846644,49.47972476630136,4.853492300614343
15.996952095387554,24.752314633155795,5.319443272974412
30.111716315073977,3.7240879670835327,5.64769587550358
41.15041911392482,32.90638644615864,5.567462334758427
47.94886610378382,59.32743447788642,4.9536297288482585
49.709841544360096,79.19144350216645,3.917338531452318
46.092745690854116,89.03632515460167,2.684694328525092
37.33703681332592,86.84685998462035,1.410384461530891
24.360107101980514,73.04285008058899,0.15983578695357592
8.701820668184096,50.71143627938462,0.990980274110284
7.7330827978621155,24.826947268527935,1.9667103368983037
23.052429150017,0.7196489420911867,2.775897503356585
35.71138222295599,17.534536259725297,3.4833384700959837
44.65651872859224,28.085594411338967,4.051623717550444
49.25707697199672,31.30824076230665,4.3322910857249095
49.13675855285843,28.999876311208823,4.267432577575686
44.09165921009006,23.286061920580078,3.9822528868376654
34.21036143937,15.786052462295984,3.675226370191005
20.13755303513993,7.326938398275508,3.49372875036037
3.292334955459928,1.8592302222825403,3.518984759848445
14.182517479173484,11.70720628164141,3.800761056327566
29.835457463946575,21.91250881274842,4.307053796552643
41.53759520725118,31.697776613729896,4.8568377420597555
48.02828451992415,39.78186976430641,5.226631916178183
49.09176855125138,44.53051675086708,5.2954621437094165
45.29666625773499,44.26156973922834,5.022806204818571
37.50398504988429,37.678889144567464,4.3823737173816495
26.469192181559052,24.33989154643937,3.3798519939988547
12.782705561102954,4.968311324147591,2.0906118860906764
2.8259855823852047,18.544054976258167,0.619779401008414
19.066519726990165,43.47798758226589,0.9877955030111814
33.92219377999656,66.82656746440172,2.74036082489668
44.937312058756035,85.77001759626728,4.568524216220821
49.890053746635694,97.89995477994387,6.26018066960147
47.57432721757721,101.23292842528785,7.555783028455974
38.29070354094093,94.25329891559682,8.256290911629696
23.80564120978879,76.23463382818552,8.240714730748454
6.827383803413373,47.87977529107462,7.466606907770214
9.747774753158879,11.982092102321648,6.033827024045186
23.460426812379612,26.439273475905075,4.202575439760705
32.56405924821714,60.931922600768374,2.2683249347873877
36.006877226120515,85.22062079980671,0.47640385723405304
33.31405011764285,95.03393532605425,0.9649048810740044
24.577928172336872,89.349434977245,1.9095546316078333
10.744341716566927,70.20745707619949,2.3145309780152186
6.249819876194577,41.416246562212656,2.208254316686948
23.74608828397409,7.370055476481652,1.6700065267376605
38.845060070261034,27.688483278135227,0.832129760108695
49.09199484258781,60.04800536813429,0.1648632606945692
53.127245625127436,86.59367309151706,1.187390240108295
51.015695948394686,104.7901244089829,2.095953967594693
44.12504053899913,112.8463817490915,2.7492796896557374
1.8057570929624704,1.116189783560246,3.581083467430918
10.292833207543337,2.8334843749476097,3.612966050273382
19.414210426443628,8.596438033623082,3.220944998291871
27.9263691953447,14.436030661689149,2.4309638522513866
34.68299107433072,18.11722909049155,1.2723641062234765
38.6725403799259,17.868427354185997,0.25723849523793296
39.00859325797714,13.127865465135168,2.128407430976332
34.933986751963374,4.692410675296086,4.15158884580527
25.98280980753533,5.7370010377219725,6.026530761174081
12.182412191758504,16.321506382637597,7.511064523050822
5.734905426216895,25.68856832681953,8.442575699223466
26.073451158244342,33.10161433580976,8.727201999448413
46.049100722871195,38.25974546785769,8.347236179583813
62.51527517718303,40.96336676972366,7.346153148296749
73.125555242627,40.72737535331427,5.862053099973251
76.62718687222431,36.657299283249266,4.098833672454169
72.84037797719084,28.006500037130305,2.23943995453443
62.68896205646514,14.845112275885775,0.4195077709337951
47.82304752298564,1.8348516117254623,1.2521487516763181
30.317431381366998,20.4894379117698,2.665968393807575
12.382615248045298,39.59046341116061,3.7287181912218363
4.026042063289694,57.895615948569336,4.406042471341682
17.472245616385628,74.16936917897014,4.737979039092344
27.2980202025021,86.6719635481987,4.7963165293128345
33.682583678420194,92.89884125406827,4.665467093485552
37.476913009478615,90.02713857668967,4.452797537343135
39.88744989952876,76.01526559682019,4.180517168580865
42.0533114133282,50.786357853085704,3.807702311494216
44.74543301177059,16.82691530985356,3.4152584701799156
48.20270770639619,21.224679760035432,3.1526909452379415
52.124979115320286,57.808030653978975,3.094789975631845
55.78462870998076,87.85603055291598,3.229417629838047
58.16166908848047,107.75220283469868,3.4967779407127324
58.12130322655669,115.57051227218757,3.830550482011347
54.62030035307917,110.84347356659622,4.149935417585717
46.966387941179356,94.32137149323017,4.3685592454265505
35.09072486978396,68.05808883971878,4.394097766331149
19.68125032239886,35.69275137928413,4.119469024622624
2.0790057897772076,2.3961495554495857,3.4973084658808795
16.054943817439376,25.967968684135997,2.5327458783304886
33.17976441789883,44.4312836146722,1.2147519032288414
48.21424978637076,50.62271601408191,0.45439913203887095
60.58817894006725,45.68993126890631,2.399478651136126
69.98830808369549,33.84652645471793,4.443536114650444
75.98028915032367,20.647193489514585,6.338088331351202
77.7779347641213,10.813521312096556,7.813463022038788
74.34921510112152,6.671026950361651,8.662806637134041
64.84177277767007,7.87526517713129,8.848080662472478
49.12847006433933,12.382649083561535,8.416485988407024
28.187383548978644,17.924382112478458,7.328982686339222
4.105074827160219,23.045878809339644,5.526156395855283
20.299412171450456,27.223707594439393,3.105169093979036
42.03518217172905,30.236990964405503,0.3150121220512548
58.43842051657587,31.43630103786017,2.5232863455238177
67.47699901863189,29.56548729747941,5.0349643093625005
67.87163992491048,23.336893487786995,6.836819240630866
59.15635687707649,12.387237114970496,7.645423982030473
41.80846630347755,2.0578546020937996,7.386493164022026
17.43746201435831,17.315408902876463,6.175257322044151
11.111173235529831,30.155796883770766,4.197853109658034
39.91394360846776,37.97993958153156,1.6916578189948983
64.49476675349739,39.63348629406373,0.9935265012840394
80.65193036154491,35.49109949331227,3.4344572258949313
85.32792212829436,26.893206821624982,5.290176276812369
77.23216872342812,15.395787283261441,6.403766743450129
57.07031602915626,2.3033049172892452,6.781693986290354
27.374417892100748,11.331335539847514,6.520561317270167
7.959094430266184,24.377080980747934,5.760200906994071
44.2503743715176,35.34188118129551,4.705397723248455
76.61120854190249,42.455384865575155,3.595903729254953
100.50548504473836,44.1045805400545,2.6120195223706446
112.3299504734856,39.3761132183893,1.8451759154846334
109.98179586095858,28.403166361123077,1.2748441135480235
93.31096330810209,12.342927483650598,0.7364877200418134
64.31462610297831,6.915721063830069,0.02965816977426943
26.938092630582382,27.09533956984311,1.2092746163185648
13.548827480540096,45.758219397526496,2.7671633389642816
51.48455048139473,60.40566859927344,4.507618525683432
81.8247819202022,68.63361780944186,6.18588596104372
100.96749368188033,68.52045080868935,7.567973852895698
107.21197727045414,59.216776911680775,8.428450860515555
100.7961680291715,41.50250324249487,8.512860781652265
83.58824275703944,17.963197675231704,7.680299360698646
58.58360895772348,7.440597624549389,6.045718220535086
29.350900849402322,30.320801834786423,3.9136879086716267
0.4718757390034129,46.97008398305494,1.6545681662031435
27.575412994611767,55.19300030156684,0.3984567993675127
49.28493131024201,54.56588433125603,2.0024964205024225
63.81715296574851,46.1250248972436,3.064478773045006
70.4522208191274,31.775720127924973,3.6448827309657372
69.57066749523119,13.792175496352142,3.8500713775387867
62.53667396677462,5.417889805034459,3.790149554616679
51.39109531644737,23.3448441802085,3.57721051137701
38.39664260331158,37.442613346565906,3.326047488083456
25.567929887729406,45.44423789815294,3.159785580555761
14.33168723308626,45.906937794057946,3.145734650435177
5.433240803871707,38.75371970635866,3.203941602681895
0.9172981409588744,25.4764670299045,3.1028859933950668
4.805176139375559,8.801413790489203,2.6382938917930026
6.440526851860853,8.093025505337858,1.7344147688668845
6.144786260872398,22.478964756256573,0.3641739535507507
4.480902264477373,32.69234567456227,1.3899126642713677
2.380493367546389,38.24608810040101,3.271264937001658
1.088294159094022,39.51594565682005,4.972712868451086
1.8816509994585415,37.26186524766962,6.245189976700801
5.655719890678586,32.28571552250021,6.878033511608478
12.57332340055184,25.35236388702386,6.677771774886913
21.988083621107343,17.289287579042604,5.593811816052673
32.669277658165655,9.054008660462882,3.7777079388536916
43.19463257617115,1.6196961862071295,1.4617092932147835
52.29260301051112,4.266649398757657,1.1123276291536837
58.956396379410975,8.27479317287831,3.7199042554918234
62.343695408728045,10.451645828554598,6.118781574853624
61.6347092352143,10.94719455731822,7.972678806596768
56.05710479235341,9.717885507745766,8.976351460310806
45.14806780597563,6.455313851970284,9.017759162178477
29.122378130083032,0.876505268645795,8.179006042737035
9.09076684038525,6.75375310936279,6.656113286557537
13.079359969148868,15.230783836703932,4.654060795724356
35.22680177406731,22.46742768804842,2.3874535946071176
55.441782051776705,26.082324704567537,0.0906210389991497
72.37777238735747,24.27099798943922,2.0597828946926855
85.1537160268214,16.499593864550523,3.9036404304192094
92.98052908390704,3.6654573205629406,5.2502567463728935
94.83938434331169,12.325680044387555,5.962939855545329
89.53309643462748,29.290144234127226,5.998938862458199
76.18477224652806,45.35388969259509,5.411126654250496
54.93072408329778,59.09453543949918,4.363344445464147
27.405469510498488,69.2850038124729,3.1020257551548363
3.340629306851141,74.55333274500558,1.8867603809225966
33.51838392635454,73.34841873803853,0.9162486371675246
59.522080981115145,64.39408894369325,0.2906739531900222
78.66811060790177,47.42720518381081,0.023044841504460855
89.46382828130083,23.787764933768965,0.08215207503885832
91.44175238716396,3.5351080021507157,0.4174647630826175
84.86364413133418,30.536118024558217,0.9691601284336694
70.61211089670387,53.267285759660176,1.6741532795010992
50.36607900627316,68.86494192424533,2.4324000692752543
26.821879421378572,76.10438239599952,3.0960174036865244
3.5938960390272108,75.33634301582565,3.4792709682088283
15.42291578420657,67.94772669623369,3.3723082543877205
27.106271291759253,55.71449567127802,2.6299885261054876
30.085625881537442,40.257317523697196,1.2940926663726386
25.021030251796688,22.952621113090824,0.4453599695356255
14.222343163504185,5.240195125437408,2.3390376635578587
0.9000750541595488,11.208556488014834,4.135010259217698
11.815184044615505,24.606252397677274,5.651959032628549
21.690979758246737,33.43648103602125,6.783245726790452
27.73068640857986,36.92566746317406,7.473379971263569
29.9974238367619,35.33000608276585,7.67598118776403
1.9046001115175397,7.07436890885542,4.599380046452933
4.682777923171874,9.95099982791773,5.6013740321732755
13.132492696954266,12.537749904910294,5.9713245354717825
21.90966753726619,14.054328692110188,5.537864590241843
28.948531695454605,13.768818345169361,4.209498206482425
32.25459132719651,11.159569849420574,2.0173524447110154
30.55484583261737,5.978016803933169,0.8616802555485199
23.65025816726743,1.7514780502534524,4.152392562055901
12.388106204939568,11.717950503267426,7.500333408522733
1.7397930659768477,23.239971783392974,10.509103541447498
17.106173101639875,35.140991852019944,12.838056355490778
32.192679727835426,45.73064935522166,14.22535870403568
45.5058393185471,53.03465438668111,14.45455178301582
55.68882799256604,55.256367314825745,13.377288359195374
61.64271856518387,51.30635432372156,11.018219701824014
62.15453679315111,41.195648221634926,7.665057416563264
55.96732503013739,26.09214513372753,3.7805819666170577
42.464148925102556,7.93460467506116,0.14635024718758083
22.163539029424843,11.229486704793688,3.684231771174366
3.011743523895911,29.79270737104506,6.562532916211883
29.989864901280672,46.714198786276405,8.70198384473573
55.29100461550288,61.20985855403389,10.102155057347714
75.75830605917277,72.26421927184818,10.77328695132403
89.1171962806933,78.37408561454373,10.804246811023814
94.10455331110278,77.83808908555933,10.36880554872956
90.28568173386952,69.51362530959707,9.605986236671438
77.86381601014271,53.6129726380891,8.608457298200232
57.62728047077521,32.05722976366506,7.473272592106278
31.131635063021076,8.112295393587322,6.294332780209548
0.9183912978180738,14.570626374009272,5.1791191245484
29.49703266923945,33.00818654429103,4.225588401048585
56.065418957296124,45.49799076241613,3.435914225698688
75.0548331726706,51.579708612563,2.65072829096348
84.00643429138952,51.545786738002455,1.6340537250475693
82.42137570548557,45.96492141871314,0.27370929095276025
71.87327921929905,35.58795429463625,1.3709422735219536
55.49282097628408,21.643011751949405,3.11909033378192
37.030311768668064,6.172546616115902,4.729512461912251
19.8706667019397,8.0534229002346,6.019221524591141
6.36819977036488,18.24664147473705,6.892302366854094
2.3540839568788914,22.646963493195464,7.286983449796111
6.212382388830974,21.306474745377855,7.178324318210725
5.81751643221176,16.074385559081566,6.643838981896223
2.220892210623148,9.67996312328298,5.8319140926777795
3.1797475965879354,4.393816198304845,4.823741442034819
8.666613818869077,1.0245872654790042,3.674511845720662
12.317506216945878,1.2114829152820545,2.513791989873282
12.304453531368637,3.9296295135988557,1.485821739428663
7.33615941461881,8.437502695510213,0.6626106236214511
2.94348497328263,14.93963364614447,0.0034984633801412174
17.813418369352213,22.522088860718366,0.6249642381706995
35.63304270054128,29.803792350593305,1.401053707567672
54.18645307456694,35.71305231513512,2.426374513528975
71.03843940643462,39.80154988397799,3.6410594174233677
83.76872304989806,41.918403044798936,4.90990613613723
90.11311757383253,41.599439453195004,6.034059949664196
88.15713416398052,37.755136084575454,6.758476829495822
76.69612092658149,29.064216293404122,6.891387315871142
55.729647457418665,14.958617366571891,6.346475782092458
26.87477596941435,3.4248593081928305,5.0988405772463965
6.602157441659246,23.0452476867111,3.1712395087104164
40.302905177809784,39.82798943480654,0.7110303976755593
69.63969141528304,50.25411631290636,2.056706131551775
90.85419535145168,52.829568322678135,4.9368373357522595
101.7053592002888,48.61179300581657,7.654255273319655
101.58329887331176,40.4996317975856,9.82042719020612
91.14236991400941,31.719197581606295,11.08354498567129
71.77893171935169,24.3790424025096,11.257776669772536
45.306937338679894,18.851879375418115,10.363822906588652
14.002422944750176,14.199123172506267,8.566668003110388
19.151622786183403,9.223638050336927,6.1208816838196
50.393131975140115,3.4020186068248033,3.2593950665520937
75.53054321691673,2.8692996687947208,0.17332459656700414
90.70864075861162,8.749383121761703,2.8420247340347853
93.34784270154837,13.673072951927649,5.471962178935012
82.8275414388548,17.714254935544954,7.527207837028757
60.61027829343082,21.294129834797193,8.897615245545849
29.834786569015677,24.4402312254865,9.483214149043265
5.397468091701332,26.19468885504311,9.246343468559107
40.73065808672312,24.703622937771577,8.319392394364176
72.04167666425745,18.06121528398463,6.892634598165782
95.73195847506383,5.494424691837173,5.154850144974964
108.96855246225874,11.784825059300596,3.3929579021268292
110.00393804800082,30.610330788336228,1.8460452249225772
98.56647026268097,46.8215587276485,0.5728106604310285
76.1286234075931,56.65217902948248,0.4611737149909678
45.84103825696311,57.876687921463,1.2933173887089495
12.04504449464408,50.25558812275009,1.9426327504060972
20.547718041630148,35.218820932246494,2.457199229046637
47.74497861590324,15.12944425548506,2.8833694647447183
66.54806660561675,7.390179759837672,3.2500987557873815
75.48916323101487,29.79132146484041,3.64350521555329
74.65900130957684,49.64645683615964,4.102674816927058
65.51097195951633,64.67877375056841,4.547700139337415
50.54365840810049,73.01153566422927,4.89995345025001
32.906224314138306,73.6411956920645,5.0912121815353615
15.908468326236909,66.87477066196067,4.987080062854736
2.4581958700474518,54.3906615710623,4.375603534142753
5.451312632107852,38.76645001259879,3.0339791659128923
7.041666214017088,22.62888844273022,0.8162141349286677
2.742408178476881,7.815502064511391,2.205322632369505
6.100556286091807,5.036155163980674,5.579590824885099
17.644819039485203,16.27660441884146,8.665408628998954
29.879125546648083,26.57266135681193,10.937423275789339
40.73809983467618,36.183481315974866,12.019603583935451
48.07818688574753,44.57111090721507,11.716250256463635
49.733118414143455,50.52946374752916,10.013991764215476
43.83651421772948,52.72851482265362,7.038767638213977
29.4247113090534,50.34844507944139,3.077375779016774
7.115537853599206,43.46832498492143,1.4570961552989186
20.51042649299161,33.036680321531676,5.998937258004317
49.14531834049405,20.506133158619193,9.932341432803998
73.64080250935481,7.371064348938108,12.82094667977838
89.26955433626232,5.161817343710488,14.361629717736722
92.91514706337236,16.24136211069432,14.331171487573858
83.7692684877592,25.236716121899757,12.737976924172377
63.34855447406277,31.569790625941945,9.943358062805851
34.96445915099792,34.66981807529265,6.539378865247592
2.9467427475433987,34.122714387788065,3.1046466989946895
28.088675499491245,29.939152817970744,0.09578751432560657
53.77782963351212,22.774025733858203,2.2607120792087665
70.41907867957684,13.95547742474092,3.9583739843239107
75.40176687968675,5.251297728991399,5.068999003526307
67.6874168330485,1.595136084227838,5.731620122911408
48.216832882027425,5.410926961789832,6.077097830401792
20.004954078233762,6.01553362147375,6.167287582364176
12.27382599193312,4.3325623098704815,6.061326614344896
43.19826246568635,2.107338991059778,5.809128175086486
67.77552953153963,1.3089694950572892,5.414674301585363
82.48274692563265,3.434346597653837,4.840064571918284
85.81119522045154,8.970617217000441,4.036322764128153
78.21687016774386,17.212619975004635,2.9483565177090463
61.633364840752236,26.493216242025657,1.5766444030875804
38.82321698271682,34.707930611369314,0.05926476294420275
12.839435594115418,39.913869331938834,1.3943060047298166
13.290840837214141,40.76508505354946,2.5736798023666396
36.75574858161917,36.63878268555923,3.3480861952183183
55.1608281456228,27.516113812503946,3.7125755635310775
66.79897560691711,13.795765239628848,3.666872774513574
70.94651182861071,3.7896625588819353,3.1921833902127936
68.02458382510542,24.066654032572217,2.3264623914260127
59.47279607506871,45.216906579720295,1.145811758622262
47.30344652889338,64.72774112584597,0.20063027666872446
33.62203206864859,79.93641223982856,1.5095109757235254
20.276354394713724,88.83814684820297,2.623961609980143
8.61025046820133,90.60132562572502,3.4477656813882747
0.5922875109451317,85.76428638830492,3.9243824319031426
7.01589235071087,76.01948466239068,4.042480378370528
10.677275032688213,63.65811694291049,3.837734459089775
11.83755615274752,50.88827788485574,3.384450236343512
10.458997823057539,2.4979168336459088,4.930553373223874
11.073905014317301,1.814654403028968,4.544740953028127
9.651830447916934,7.791062742237507,3.5233041947714168
5.6170104938135195,15.314234205212978,1.8997718680879037
1.0303483061681462,23.55986396871454,0.23039680680352526
9.580343020110623,30.854140161917684,2.755274429466256
18.735154827250895,34.9234696477509,5.541723505882768
26.93950080185677,33.453804439444305,8.30292006429023
32.78838951787431,24.87558219070835,10.63842168770377
35.33628320069976,8.991271058932648,12.218535054651221
34.22362965884973,12.705567227976056,12.78598196101932
29.634956056432692,36.95639644904391,12.184270543529891
22.141708032610808,59.022499433218435,10.560321540070687
12.416884272231052,73.89306725397213,8.27922463695314
1.0319780545524648,77.70151436281745,5.634321322960462
11.391576721333669,68.11155693605515,2.859883934669833
23.96444402291873,44.700657425320706,0.18454719312118847
35.49259787789645,9.628670245999107,2.2383009412782484
44.58723361302373,32.32243908385813,4.322404603298464
49.98078297014151,74.16817600812838,6.053077247086496
50.86328300754236,107.92833214805576,7.436623317331155
47.02475487588894,126.52888468141174,8.444038897087752
38.79130389216857,125.56874325064325,9.066223132175043
26.790320567625955,104.49982923435843,9.315923985646855
11.727831556908628,66.62473275786947,9.255468986933739
5.641969166435903,18.006705715980438,8.995984349999652
24.30167252180007,34.11188279435171,8.555772284133779
42.6499029591264,82.80407398601143,7.876762011137023
58.34872602281677,122.31567104462908,6.951201354855777
68.53680049116169,148.36721113525002,5.7822474767604195
70.4736214402728,158.2459484908404,4.370618863575608
62.42090812646594,151.0018232056298,2.8481823517875102
44.38964541787345,127.82251992735522,1.4359306460814345
18.423691250398267,92.22239486768619,0.2620761842159476
11.757971652828774,49.642283529124576,0.6500717277975089
41.63728066983325,6.281821960876251,1.3647395885341846
66.91857604694657,32.507999481424214,2.016667741863985
84.30861699967353,63.51135129374895,2.713672702252375
91.84798937080276,85.98123684470202,3.4758335473812014
88.85374898254868,100.86465890001439,4.208984712006879
75.71827130861426,109.39240703984916,4.791612323078544
53.78455814530396,111.92091872082564,5.172036215872421
25.348473171759412,107.73376693211976,5.32743251975166
6.326048262658221,95.8895362709355,5.276336638074704
37.20625784499387,76.53349439017296,5.075133158995765
63.06663117916355,51.770947445359845,4.731803128715555
80.33276337625546,25.475343820755505,4.182579785372157
86.88550557769365,2.081705877948191,3.3047373164401628
82.50358171117942,14.95953852064144,1.9769508030678562
68.75344766600796,24.214858827618873,0.1917801773920115
48.41902461248813,26.310119762208664,1.861878327737194
24.780500466585675,23.131972846022194,3.8113075389347304
1.0367937949753494,16.79964500957297,5.207246567043172
19.970622179233114,9.04201850658703,5.7100602747882006
35.78835213836419,1.2247503708948635,5.288665270174053
44.3795957772688,5.248853722652798,4.176132472549886
44.352677106621194,8.711202012967378,2.647230692145014
35.37405760674294,7.506992053112329,0.8838422771112188
18.568804901910557,0.6852972916251385,1.0567877404335195
3.3526613150439752,11.31817557217776,3.1115225507919004
26.41483205159714,26.515793129068413,5.083740058751659
46.11480428080035,41.90467619081123,6.692140870692135
58.35631783274673,54.44109479929348,7.648301081278331
60.27522035986735,61.92118260085305,7.769082440865291
50.74153183472452,63.34709173378502,7.056320629209962
30.500387735470188,58.74495940144109,5.666078495271591
2.0215293003045685,48.74624856191066,3.8904867267233394
30.85225698489602,34.33780654449678,2.129289424268911
63.40266392704751,16.951431796904696,0.7691257027613493
90.67280479565825,1.2805262733180347,0.005285131981077815
108.2314494454281,17.4909832089497,0.31243312836791304
112.96888323338855,28.553133536608716,0.5059580597550368
103.71188315983188,32.007053011462105,0.9457062728414285
81.45216978699632,27.06093964124505,1.7153894983043516
49.105610069017345,15.121914294397024,2.6495290209906166
10.864112032212585,0.4856453193668235,3.5926657675020723
28.608781046932535,15.514900344038196,4.505567483585182
64.87110837635352,26.08200476062664,5.4394906477817475
94.17307592563232,29.701324943439193,6.411375907153776
113.70072926336415,25.726122896985743,7.2795455871944235
121.70762660460011,15.185423498845802,7.816832996493192
117.66712320777388,0.26231553670868957,7.847793756424568
102.4252906303192,16.24805358367432,7.3055486072710885
78.21637765464915,31.357512621214184,6.238990112050349
48.393447623261046,42.24658215601356,4.773602879421382
16.844290394987627,46.70405844898585,3.050744232618902
12.747058795455523,43.711467430147955,1.2369974037165428
37.526123467354154,33.982669649717025,0.45259316456886034
55.76845121774817,20.118887815230405,1.8624874945750514
66.81923745283056,6.107538234274081,2.996496290803207
70.81877739334712,3.842369561101048,3.947463619808497
68.46145068193697,6.7554441998711745,4.7658724882533425
60.9501326064113,2.0329376912545767,5.397574260712754
50.07698007164697,8.273013260350556,5.719488284126297
38.21899788370461,20.229069193772837,5.618845146653924
28.03328843049568,29.5087868771968,5.095627508059018
21.81289552338066,32.936532011350515,4.304111440683791
20.736634081108697,29.405156751017852,3.414570861640727
24.3668594180199,19.861727764687103,2.4983972285227556
30.69216331211371,6.540783813672489,1.608627300532685
36.75895007569472,8.044290142372414,0.8475467926591225
39.6177258212056,21.802539546887594,0.26444849308847806
37.1848944956932,33.22188814423271,0.16874658299545703
28.68742467329682,41.151255814904324,0.4302444501273175
14.593846829175487,44.619417503005586,0.49408732257464527
3.7808731602906827,43.013884850585875,0.3722591609862919
24.711279815133125,36.56549182252881,0.035358342014404
46.326434320132535,26.752560253592737,0.477736667211107
66.66809104841023,16.182864396119545,1.0288566460102262
83.69006344052123,7.767163484912697,1.4968934434533974
95.37457978490912,3.4956481456868946,1.7446671989138833
100.02852612289651,3.482591033987126,1.6357099974293188
96.66553830552063,5.846362644804165,1.1459604930704324
85.28899723344325,7.564319784471455,0.38838356031316335
66.9346735672233,5.894764178029074,0.4784566558662737
43.46475084198513,0.38970845733702886,1.3603167966886713
17.232899979064364,10.59878019008459,2.1980152935066757
9.237225210372594,22.688457098772396,2.9180801900137525
33.49804324082275,34.34945989117566,3.468529376175422
53.38141304623517,43.93193561766527,3.8250468689195527
67.225388527872,50.71112660027223,3.9410357685026356
74.13830431347161,54.44787494788424,3.735603111004377
74.21175944891371,54.685246217658985,3.177107712846317
68.53551215627584,50.39502065711177,2.33487294600979
58.92810166676497,40.29921912882856,1.3656094257097402
47.44993889712661,23.724335058952494,0.4708989497761119
35.8816324523628,1.4929315734501196,0.1912476347194821
25.36907300177383,23.692704756344938,0.4977027970784663
16.37952111198311,47.62967465226644,0.37936268565222775
8.922847197918975,65.60634624587675,0.04816004449070397
2.8226891350696133,73.59306772212614,0.5673043649285587
2.1369651420462814,69.22951574053674,0.9929262615117018
6.243968401933133,52.40172155814687,1.1326957324572784
9.991562086108162,25.374763195066393,0.8360824230471224
14.12287340454406,7.497581331325834,0.055064654413011185
19.452519021736002,40.460111222965836,1.1667977478473799
26.52425685811212,67.36759048923064,2.6372117810138325
35.298841565839396,82.90177556673083,4.075488157659929
45.060259871347235,83.74443270738404,5.2116514784128665
54.61828642602707,69.30290957095536,5.786675903765844
62.711048029702695,41.71613484873147,5.620261087010207
68.3714896335737,5.166733936505428,4.642031243126711
71.37734349934652,35.07911759163811,2.9442557822333435
72.12692502601293,73.40053816561355,0.7731718157985649
71.00544970699664,104.56932144581711,1.6137838752172688
68.0961979375378,124.62234664182394,3.9564551515653625
63.15408100620579,131.4814570304203,5.963246213354916
55.86748807469943,125.23558369760212,7.388319536826589
46.25986527073724,108.06313299322825,8.10535510396031
34.96848624246622,83.79448533542553,8.072628280739098
0.46381871166311117,10.716048977130281,3.527699223377331
7.188407511368229,3.1994976249782243,1.4398443345282956
15.864588793985979,5.865654930410145,1.2008564718896966
23.981849085328967,14.991009130450275,4.028815330160267
29.779979599557105,23.039814353247532,6.639046552787416
31.699642967587675,29.270829603183685,8.663828131399017
28.763617951315126,33.10325144630737,9.814495489351744
20.832775566053325,33.90264233040535,9.887938564408927
8.720362981368288,31.019591890251238,8.855667765796344
5.9644468089293685,24.11711527311952,6.883010786713833
21.141532626334737,13.566646039707424,4.25632228628932
34.51901888259919,0.692672290494043,1.3374372099889256
43.766206293922515,12.211121886907753,1.4171980976422918
47.115779895566156,22.335641502155276,3.5445659357571104
44.034572328446345,27.45140097554551,4.768355962987877
35.052017495068505,26.924888317515002,5.054382408407447
21.467029782139637,21.78707299746077,4.584697295020515
5.247858884772497,13.999908163461857,3.6727084326484847
11.321478570834161,5.498361945528446,2.6622880758279
25.895775736356804,2.4546972750362097,1.8777206703526281
36.36556890500656,9.232296801470502,1.4932676610382816
41.246613616237205,14.346083570978001,1.4933194025212997
39.905464408360665,16.988272484326636,1.7452495963026142
32.69843254693447,16.010299670660327,2.0683230037978277
20.867840175943133,10.44549346451922,2.3091429552483462
6.255584204481794,0.22412426665805377,2.290004352490202
9.057623969047008,13.41838466119559,1.852093461549144
23.118492971692334,28.1239423009469,1.0292669532864125
34.30817470867742,41.093986132921934,0.029673834661841054
41.45773941970557,49.87148059168568,0.8969358406951644
43.886316035114724,52.8245979441977,1.5702327166064585
41.39512591692088,49.185203389974845,1.9143551819687499
34.24575333219049,38.82193905566241,1.9460422862311493
23.065456986907463,22.10680208641286,1.7428247055336685
8.711500062573968,0.0864238574852106,1.3333998472461075
7.865678028983087,25.157847965537623,0.6914039887408626
25.665188263740745,50.29652366316336,0.16249062104917153
43.531359588658944,71.04708672638779,1.1554973258974117
59.969353504293345,83.07672062820033,2.161472046243573
73.01203526780596,83.19674429388179,2.986603388700328
80.33545689563832,70.36165860755789,3.4861007380087017
79.7069765015311,46.040673041206404,3.643687284856107
69.66039460752945,13.817631973247689,3.474015057084841
50.144928332372956,21.51922817338934,2.995970269841249
22.846495383096972,55.00092949835618,2.3388566681892815
8.978045324609809,82.25732441821154,1.7122621283906492
41.103912297992686,99.90247930338795,1.2349517153378256
69.13058199312346,105.68406408902106,0.8853616142794684
89.19345433092091,98.60792419759295,0.6030773795326279
98.48632456264357,79.1272862057693,0.35216871802552335
95.60603152429893,49.318012058240406,0.11816019633433802
80.81273667265947,12.828141338655442,0.10347018428448346
56.23670158025152,25.57154029606034,0.3218092435530873
25.864869942346896,60.81881346332546,0.5677048750450352
4.919978103950405,88.53479037121626,0.8972530906532422
30.358395520053538,105.83322580680618,1.33299317188055
45.72569056150725,111.7123575529595,1.8639134792952707
48.661566191143,106.9341361636783,2.5072027430911152
39.87198104190475,93.53587153457016,3.272688491758023
22.863913416606795,74.19993532066091,4.153843842909744
2.7895370981323047,51.678739079010946,5.141150329093113
15.102589824756317,28.4124179063361,6.1498122350723445
26.793845489296338,6.342550777339226,6.996916676867974
30.176199408776814,13.119862229891142,7.484262995009924
25.030617746617953,29.047248308801105,7.476103094487905
12.598204270289976,40.95612524357567,6.913868487673299
4.8796521241869915,48.7757590913537,5.835428594089717
24.46375233897743,52.811132367715736,4.3346847411640335
42.76615476226982,53.69263884377301,2.4646910062387968
56.38382515193328,52.28307923516654,0.291314394318109
62.60619675692477,49.520915499627584,2.037392297271
60.22323045984056,46.21700673156499,4.341827171198688
50.0301170954236,42.862566900377836,6.42028089957435
34.64149396361181,39.524235705540804,8.036399928233152
17.581662396717217,35.90178782471988,8.976939834599062
2.024426594204433,31.545736645865688,9.124480314633729
10.21301646833411,26.12644912545562,8.45989400450661
18.910510164988004,19.619893042371686,7.056031043722142
24.877280518583234,12.31823024469516,5.100065572731229
29.00913175746584,4.6505835616919065,2.8692428107378993
31.56901567391895,3.0817510219272735,0.6785101663769384
32.11983090527499,10.874187531421677,1.179833240752805
30.079557235342403,18.990005769027132,2.4505920006136823
25.443277598492198,27.747493627958438,2.94853664611252
19.136119726925592,37.22329656723909,2.6427193146521826
12.722885616219662,47.02732447088271,1.6762355681019558
7.647223449484235,56.24237172071174,0.3601168235283018
4.513674804192037,63.53134935278307,0.9250912816446838
2.903053489205795,67.36504809225073,1.8386617326062034
1.8554074192569174,66.32219800732896,2.1256288435874686
0.7020356809079092,59.43613849916121,1.6992178688771467
0.3223665351897406,46.52598126987701,0.6276366843695504
0.12475395066718539,28.43915578204693,0.8821361951319728
2.5335458367445427,7.1052049269770015,2.529715082469599
8.071963992482546,14.736863503641176,4.046626062959418
15.459208655242627,34.140401607903584,5.157499087848446
22.34751243429447,48.70371352359743,5.587726464899208
25.94218342540946,57.17683506842393,5.178098159004403
24.13841704318588,59.64333192012943,3.932099529589853
16.365610112453012,57.21979455771341,2.0556703931781954
3.7522620831159883,51.458644547171716,0.09714806437664164
11.391561499352388,43.80383028167454,2.1117657262870555
26.40399510081072,35.38683022838378,3.596795711033039
38.962408752080954,27.15444525653488,4.338938991219435
47.36879937498114,20.07367015246351,4.36331656573264
50.49391815677226,15.097931473130526,3.83483191724091
47.66330003029673,12.773547117515626,2.9160480838579206
38.72252780405368,12.706304455557177,1.7660426792804813
24.32696621757953,13.336821507994456,0.5976534712143636
6.24140703350855,12.376880856737627,0.4011255537607259
12.690775625816574,7.832347784691406,1.0998597206070233
29.074189592944155,0.8806956121218823,1.403994399167946
39.8452627582644,12.391084950201941,1.3077477856862973
43.15261874203045,23.840340829657997,0.9281376481148391
38.83512690508583,32.197783073606374,0.46372926815141563
28.285618740035574,35.71210974781793,0.10404249183505343
13.826638560545241,34.68628982627997,0.0192235974063644
2.0435026659911757,31.130332241283938,0.1599114159086502
17.1788896753068,27.504816286038956,0.6067287781298295
29.914541577836616,25.320987350734214,1.1914923937331101
38.9160193199675,24.42332031505969,1.7954964157763353
43.02117843094763,23.33755431888864,2.3611103305050003
41.28148181848656,20.393568175254895,2.7921021396981995
33.23454684417687,14.869904925694366,2.9336483730213585
19.2124896732677,7.460064580615755,2.651495750574976
0.4596256285780118,0.17880652515614828,1.8869656733043079
21.00188472162256,6.41711820731416,0.7171715370581464
42.669213180456076,10.469744300138554,0.6791786598299342
61.82748398582442,12.533580071800012,2.0915699247418127
75.66262094338605,13.228939757891165,3.2885775812439384
81.33215115407388,12.798491733604052,4.032981283988465
76.23719730320349,10.686689926230821,4.101051123986847
58.65561767430825,5.8421379974296705,3.425232250176773
28.657242336584407,2.42107727487769,2.226488131425397
11.11690946134803,13.562212151999063,0.8671101132688078
55.343240018623135,25.52021582113999,0.3443769827670711
96.82665632488829,35.21275563113952,1.1952676978533772
128.08733750146735,39.602008365430805,1.5779410795823106
143.18343440223168,36.775118960760516,1.485145202695783
139.0498364733181,26.521299768265724,0.9479335471818842
115.92529853872016,10.215766011772883,0.06468902847131146
76.91301394109395,9.815083732143489,0.9095557872617103
27.385647564174167,30.898877205577115,1.7050421278322085
26.010308818894057,50.69512401113297,2.161896517654044
76.60568622434769,67.60999824503736,2.1844144036325384
118.5207546588996,80.58976017002757,1.7802195614869265
147.32680846045895,88.89165151813111,1.0470316679950682
160.5817672217593,92.01297379424277,0.10776768454738166
158.1998504439834,89.80068934236031,0.8856368168042467
142.4878243748226,82.63236682399152,1.7704128415631015
10.68391924638948,6.688705358065436,3.7963659052736243
21.245752984663582,6.094691955405787,4.173672962470215
29.43342848197126,23.126080558970585,4.094228608020837
33.06576813925673,41.8816332912276,3.421870842500707
31.098497868521438,58.72949932764879,2.094337959406697
23.704613074537942,69.68721532069247,0.18524571904917128
11.98359040657199,71.38541694653355,2.1331071985451007
2.4908913669845854,61.90976186301284,4.638942335503409
17.958688584557997,41.34815085144317,7.053484648822248
32.62588940863653,11.778700647614007,9.075396422021344
44.724627089001395,23.196035098491215,10.418056808201273
52.44231086483267,58.99728736103372,10.821919922632414
53.884123772377585,90.55330599119704,10.147998665208775
47.83193188632538,113.25393286300941,8.492510357284313
34.860068981524336,123.97101666218398,6.152087734497733
17.25819379399824,121.11659662361373,3.4196931477729056
1.7839547863677188,104.64149454299887,0.5026669332898921
19.085063058939024,76.32445338436395,2.362633306974088
32.50482953263769,39.65818674436062,4.891730392058701
41.267059159922525,0.4200146077853433,6.815791464430473
45.60774853802775,38.22949880474496,7.954867486989693
46.173773755256974,68.50681718820155,8.301559070860415
43.397439863714425,87.50625489367066,8.044417060205468
37.3639463550781,93.85192525457772,7.494013358236937
28.064160310383457,88.68576680393846,6.874782329148388
15.809206714316687,75.0964303478741,6.238146541862291
1.5489947574266356,57.08105327928657,5.540566627550272
13.174157966149968,38.36154862322608,4.660472632995083
26.469941330071237,21.614041272174973,3.4860370230716793
36.41507622536793,8.257581151265672,2.0138240940340895
41.31571350432854,1.2640828120195553,0.34952900296999606
39.900245584424276,6.956914126850981,1.32662813459075
31.58443527012592,8.888439308103262,2.8569468593607965
16.815740588032707,7.118511533095152,4.138874183780047
2.6115023698138087,1.9277504246124806,5.101849306307669
23.52774970248326,5.886329127578866,5.675158357225646
41.86021172168999,14.87750251388271,5.762678550906008
53.57102191027713,23.123767207866067,5.323437378306111
55.7864821390472,28.69499283185519,4.379211812323933
47.65150002040671,30.195996119067924,2.9800361311355927
30.531347945456577,27.137553325090224,1.2671269292359226
7.506344141500518,19.95444341372489,0.5140699069600496
17.56981193990529,9.675461457318915,2.0463906069543785
41.00429443521715,2.563985185981227,3.06515439634738
59.84473962368413,15.933068179414375,3.5194692359451376
72.029769902856,30.007588660331574,3.534338594178119
76.27731398309895,44.508351883507686,3.2986441924285965
71.99414244895246,58.863883395363736,3.0016589797272863
59.37733197080119,71.87002951704042,2.73487254135303
39.62844165903638,81.68627114543997,2.4398615814874063
15.057052217417588,86.26094253961938,2.029131892318329
11.148001616124663,84.03154644171326,1.5228135252859831
35.506686659090384,74.54225021053344,1.0095502187871168
54.96591544991793,58.667035387889236,0.5146873593737222
67.42879544106322,38.331025794361736,0.06415298038478287
71.89057664571503,15.862741068051836,0.8350438131666891
68.23728750522407,6.654157236335767,1.7810226397998221
56.95657277959404,27.69241563264031,2.82610330125314
39.03319845220911,46.16314247335429,3.8685247320216063
16.14437610168586,61.047542981947466,4.745203704424824
9.037350096761418,71.14421926214615,5.288456535914267
32.813090163503894,75.20527409449907,5.388559436251711
50.97394003354304,72.45713810580128,5.007820761551514
59.827204398428876,63.20602045213314,4.161819121735167
57.342070374862416,49.09678729427081,2.908185098768468
43.87230696204874,32.78335574616206,1.3693920712417047
22.08452384449362,17.116670457728418,0.2703882400412114
3.8947557016927314,4.2541798060671345,1.841806059593519
29.70872216507057,4.862465926601072,3.276505086293019
51.79311648024077,10.453348596366697,4.509091132349143
67.7715597063861,13.386914878131664,5.33319648927755
76.2173897785735,14.592694784592428,5.514976919601955
76.1710701063428,14.76386286148016,4.9887607059615275
66.91946170309178,14.430141140118987,3.909383171018806
48.28993454431791,14.19536573691833,2.5376301558926566
21.28394956202019,14.792640248509306,1.1019050785352569
11.430717675884997,16.8027879498824,0.2103620865780047
45.634936425775194,20.203547071279555,1.2852539170479225
76.40170690273389,24.0739094590649,2.0903372808127285
99.36116651285172,26.75649557361574,2.612422025145897
111.79618498614231,26.487635066551643,2.850686733123451
113.05108713374406,22.155817513444205,2.7814674180722294
104.14814337646835,13.740034505728097,2.424643628674619
86.9367580985706,2.1703048818731103,1.9002168655613707
63.336986033648735,11.236372085558934,1.2864182103122521
35.10167448754534,25.336220295076053,0.621078182351634
4.102461659771632,39.32029594601707,0.009706608976894496
27.217438301439117,52.397854011490764,0.3846586150032258
55.69554509261673,63.339386680987744,0.4625674209776308
77.87387959609549,70.34792265644178,0.29722322274748314
90.88313633054001,71.50300767014281,0.004023499534968294
93.35525351556639,65.59756921974706,0.37125397853193276
85.86569322546575,52.829858126566826,0.8031077453552693
70.69183849613682,34.85242945556753,1.3022797876662018
51.0500060579531,14.083855511563577,1.8439045759083819
30.200422302148553,7.302506970114098,2.2828545085842795
10.814139585426044,28.038347069482956,2.4447360758549483
5.247858322257967,47.64731801568133,2.201407780114985
16.838627873548923,65.6811004313977,1.5081956367933567
23.309779580937196,80.90617777197586,0.3913587602666612
24.384256088598537,91.15632552513011,1.0893809958090261
20.194522360882516,94.11484131056618,2.7801820292842083
11.40062895561124,88.61678338266847,4.4203097738910015
0.730531407896804,75.64686581909847,5.715011359126024
14.354369479582797,58.2938249864164,6.4212269766574765
27.17883001702071,40.55463095303111,6.418153026909938
36.66580924257053,25.635740018172317,5.698921443499676
40.352542991192344,14.732551088909517,4.365220839986059
36.33936749783014,6.994294560535422,2.630315518752286
23.887900509726666,0.6110377604743193,0.7741561367490176
3.9615874710805685,5.758465501996533,0.9346516505478755
20.568022347442394,12.153998517407379,2.303358309388245
45.307671029919604,17.58564264653071,3.1717129818635454
65.35692913655151,21.146458550115707,3.4333045513266685
76.63598250958324,23.12125434657417,3.1542270075049945
77.01920102958869,25.24571413613749,2.526117964788042
66.82571356935101,29.83671537088587,1.7617643889827967
48.46919565885085,38.32139878554009,1.0517298018641437
25.51895377577335,50.10787800354933,0.5391109915999511
1.6787481839739686,62.54263776114133,0.3061575606502464
19.902110217030135,72.02800897886523,0.32343740602731774
36.79597046547508,75.63466947618343,0.4771795682949419
47.107075019989715,72.28815360717513,0.6726134284226852
49.309309981366304,62.89985076718521,0.8726836480595936
42.400251295796004,49.491800060523374,1.051859747580843
26.40378123956626,33.996418469967736,1.1632172901714384
2.953075445481127,17.531703455263006,1.2386108753304481
24.430561087850872,0.5593279956692916,1.409014031982539
50.63300581080025,16.32932022831147,1.793433319585214
69.85581514772126,31.683248649757797,2.4388070168569254
76.89841631647882,43.127362842886455,3.2584532828019768
68.42964291726332,48.13447419276918,4.042719280292006
43.90850837663637,45.225320421302506,4.520684489372377
5.947305135874247,34.89431770566736,4.376462453310508
39.96458840438257,19.719057013253042,3.3507652484520154
86.33574347909294,3.5528225946901175,1.3944047290957633
124.99356526508626,9.771875329993101,1.2821370582244525
148.63061024144756,17.562618033829995,4.279713895993918
152.2540032849558,18.748915516948227,7.097619700119726
134.1603720728442,13.668720222691498,9.261115960476637
96.19119047232454,3.4647004348505375,10.464432154013622
43.259652836362044,10.45874251787537,10.572218202097325
17.799551484913838,26.447933277399773,9.622370604934314
79.1408426329235,42.488032010004325,7.787190609880007
132.72068204352752,56.35203877636272,5.276956770727633
171.63720572638266,65.8926759439366,2.3908221113396237
191.39032236063153,69.55138076028865,0.4770160772181947
190.74243189892817,66.86090869976731,2.929400026868936
171.9291413909447,58.67460771511937,4.637933605065331
140.1173903039896,46.95584525864268,5.44427984271513
13.057463541296169,5.5811408035745576,1.7839376305381165
7.655920356534147,13.09618493764481,1.7687660482728889
0.27331816040481877,19.35653710322636,1.6787603048508815
9.691550608761819,22.30832469895586,1.5041987332276088
19.43838524208594,20.638377448926068,1.2317013970636406
28.31690441643625,14.237279218956264,0.8446091201643934
35.0538141523361,4.2736475845204005,0.34464092779131694
38.31028635331718,7.148906311984743,0.26765415803945486
36.86524453330486,17.559338893907285,1.0236687670539482
29.99730394012451,24.75432758728705,1.9476733543402958
17.893734961868432,27.310878299562866,3.0103529884320963
1.8848237063618984,24.765125222230807,4.129441957835453
15.553198323418822,17.45897293129543,5.244568069364567
31.10386029644102,6.536441137559784,6.327960014779587
41.465542776423725,5.945013314536982,7.285534850393418
44.475760270926195,17.435393604103005,7.916168659753271
39.700362673009764,25.555615325454546,7.979038293430667
28.320820709897482,28.63761370838515,7.334637733441254
12.608965312014828,26.18096519806224,6.005620882526791
4.735713545169175,18.875992421285662,4.124148866307392
21.036852383311615,8.247844700198684,1.884703357810211
33.87646950419388,3.843861018550046,0.5452816411493233
41.27424464299657,15.71429679284497,3.045984513054998
41.90894498839444,26.10126019569488,5.442356773200127
35.459386747028596,34.20802554830138,7.502469845020911
22.864448456348644,39.63193351455655,9.00322147866162
6.274206737752051,42.27112741405867,9.779223832983984
11.37663707408217,42.30989303441675,9.801544750335676
27.107648465182905,40.152576794485185,9.174376294458186
38.64799805076064,36.2311831710512,8.026825004999152
44.890715770953044,30.70105452337474,6.475522502230508
45.90034028094628,23.153873522394246,4.690356268026774
42.53732823324377,12.591334369319409,2.9020268821137267
35.93645085399811,2.191911020540545,1.285194522468727
27.09280254818539,21.877735651275408,0.14323026747561465
16.703556732543746,45.853906027357425,1.4503849090000562
5.273385634854426,71.79940581792425,2.6408023928810995
