11.165155219637471,7.962327138693617,2.633507238315059
12.796099382711203,8.84582962257699,2.7447020721958757
12.665352315139668,8.433936572600608,2.5685416263264393
10.148282345989948,6.295814913889936,2.0670056696176204
4.9176262789967025,2.2521615829226866,1.2301285764292818
2.927701353445409,3.5310099821888454,0.0877235956545492
12.786089997143296,10.520708671740595,1.2941957306112635
23.567294292080845,17.876737026322633,2.7937530025582555
33.79716603776729,24.564372356253884,4.232975641322053
41.80862117199595,29.493966284313878,5.419785844897402
45.985829782413035,31.660647522177374,6.189194507584356
45.0178304876658,30.289515808522896,6.430274301964642
38.15837693583609,25.006947240923417,6.125879317745051
25.55125557019288,16.009524096006018,5.369410761107007
8.379914572412178,4.113354622050001,4.296874457903624
11.367853846245698,9.351155279931303,3.041561681560789
31.21429070068757,22.70113264324482,1.7530744584805797
48.512614746098166,34.13435933881309,0.572381259335544
60.86836480311147,42.03667880415205,0.40808465796359894
66.49795279192665,45.25423708588911,1.1578296101370988
64.5029334356523,43.28351930181521,1.6910752214185802
55.030493418994475,36.34053855513134,2.0242021714522394
39.26399416779559,25.3072354369724,2.1760396961221224
19.272291703213277,11.601186494195868,2.188902083488233
2.288518646944826,3.0141289320399705,2.1433342605728725
22.55512633268764,16.647980948092425,2.13868211653324
38.85730125067763,27.515060238170882,2.2051730359390302
49.09375067478595,34.17305206720438,2.283282372561462
52.02327693314454,35.739646870916,2.2979720486814745
47.43022902562848,32.052650062504014,2.1961513956729313
36.14069664925051,23.71768093494337,1.952172941826747
19.906918282723158,12.019243803716266,1.5968706237952859
1.1567361523374087,1.2813599460689653,1.240193291659284
17.356166429142803,14.218642636442171,1.0185569575253062
32.9273234840278,24.917949409775602,1.0188596143755053
43.280001257022796,31.854401713934934,1.2695057310762285
46.89566808791358,34.042125276842285,1.7518279036088398
43.22330686167205,31.154076565026948,2.4036743668194855
32.74964120561079,23.55879832658639,3.1129445599921812
16.931874858705065,12.275153438687596,3.7334181074735047
2.0171361228586293,1.1525112355352056,4.163403644218834
21.456532158063165,14.870205126807964,4.36894498661361
38.68262402722636,26.982319088549442,4.329410756959519
51.29702040794586,35.825144479570554,4.002921101162923
57.535654510558686,40.20243072897241,3.342847544710347
56.5039465988768,39.53475440504638,2.3703474977643233
48.296202216755276,33.918228638842415,1.1923572925831407
33.983763743235485,24.10149309427838,0.05971332314271166
15.482232587518913,11.398202120719391,1.257281628996928
4.6987885665152,2.4661605726281124,2.298729323787837
23.80541261509856,15.58249166786005,3.1410907186570083
39.22374225200886,26.127362056505078,3.7810750374089626
48.856582954337874,32.63832118020637,4.231512121898768
51.437596196318516,34.24141652763953,4.520773344384467
46.7103027445813,30.77985862961426,4.6757941560525715
35.452689123831846,22.828388821979736,4.713437529947074
19.35808315040434,11.58910542823723,4.6551692039129335
0.7796083029531613,1.2949657688505436,4.5055219200978565
17.611407064659577,13.969187558660227,4.248892119186123
33.184838792472924,24.616380247887605,3.9073173199114137
43.707311814826205,31.689148176035633,3.539002424743071
47.650453435624854,34.10822575932955,3.182714441122509
44.396378818596304,31.422724206877557,2.8388628547998165
34.336032876738926,23.90613796546783,2.4766255763196128
18.83788257364072,12.557261503949809,2.058719453760079
0.06657725430641087,1.0164230636283245,1.5677879652164377
19.318077926976994,14.841117017992433,1.0087660360278798
36.54568142253261,26.906024059154042,0.3962935963758458
49.13891243078521,35.49405994675476,0.25499480569420885
55.27012219704329,39.43049567569788,0.9190814876407243
54.02598901212337,38.21907029400305,1.5515249631644479
45.53263223972875,32.07075933451022,2.107562465951127
30.931875624642778,21.837928698426882,2.5508778418126736
12.219687156088575,8.894269655956284,2.8431823653705783
8.030244995316513,5.023379653456758,2.9489966844893303
27.019391784010864,18.028036168986098,2.860864903038442
42.110463778726896,28.327328632066976,2.6005262932327424
51.200045079658906,34.47418328525496,2.211187012146533
53.02989854198603,35.59518701902573,1.764187223761895
47.37143247804619,31.53911189493122,1.3398492027713222
35.05996561016926,22.914685405135156,1.0072486594902181
17.882848332272573,10.998160917031031,0.8153433432165323
1.682406608262531,2.4732921880257455,0.773297489690059
20.827365430024866,15.562165561461518,0.8557732498225517
36.81029444921697,26.41044828667072,1.0314415972818207
47.351218561357456,33.49099587399684,1.2724121097290142
50.9512564532446,35.79449970585399,1.5306392427908462
47.09156056727853,32.955443332690756,1.7364002036954136
36.3058001650125,25.306046783744954,1.8369017253827462
20.108102462367626,13.85041829288491,1.8007535638999725
0.7741780304557834,0.148428402795175,1.6122231545365302
18.98638050449364,13.887982119715698,1.286258615934336
36.4102679795685,26.262266738227783,0.8557231968273418
49.06792121913309,35.19692701319752,0.34090398968682
55.20322229490844,39.40730990530415,0.25313676478998165
53.96613577963015,38.28672942137014,0.8926042051183735
45.515101264406546,31.987374185303313,1.5009615924800137
30.983222978634934,21.392185351397636,2.004853457175922
12.320359947342869,7.982710975922297,2.347906066994917
7.968388457145833,6.371807987342418,2.4894107431905237
27.162505872078544,19.66489993401382,2.4145310553418997
42.692997209716474,30.020883251062276,2.122939872360586
52.49495923912734,35.963157607263554,1.6257933184277198
55.293419610736024,36.63630033428049,0.9649929305034455
50.75887849234903,31.94714066222261,0.2284764909857618
39.5386314900562,22.610700103042195,0.47515173052182
23.171843477400028,10.074252900054006,1.047262277036917
3.8739082352406924,3.690412327344978,1.396913463574455
15.754676764526733,16.510702002034574,1.4642273388789049
33.05578233352242,26.39823815831786,1.230808978722141
45.666161717422746,31.900876025255297,0.703248172346899
51.83938796842884,32.34268717393909,0.05767210556248713
50.6965058616752,27.888966540271902,0.9206034719194709
42.37912092990686,19.432977981685656,1.7190022913405338
28.0645171853993,8.373059400674927,2.319003149131924
9.812516109454188,3.650469911226392,2.665759482818873
9.733291272132215,14.991353091523829,2.735868165865448
27.73931258800743,24.160872422785413,2.5125954899345047
41.61330184923454,29.935483285334332,2.029782521089447
49.382755055635805,31.464045037303094,1.3534551834937674
49.964748265514324,28.390486994090374,0.5481189213702901
43.30084945050889,20.961289887668684,0.2994731338712449
30.3488699069853,10.078353778524427,1.081974183273017
12.958469729935917,2.7680125081278804,1.7191881499813768
6.375062169520421,15.718885971640395,2.176537886849849
24.85638735331241,26.870641077502547,2.442661605496015
39.77965230518006,34.607745964070915,2.518359519670877
48.930689988153745,37.84269167445095,2.4107029331397594
50.929574347105834,36.113381834357384,2.1404388506537106
45.44764211168323,29.562756263986767,1.768597021409242
33.26730499872047,18.87237823108783,1.3714658335737027
16.15894310724735,5.2025971038838446,1.0088664896856483
3.4023138435431504,9.867686905946266,0.7202369587768321
22.618786846858068,24.436968615724744,0.5071152636742192
38.77120632698125,36.471140271583735,0.3543714190961863
49.586476015370316,44.11509524607289,0.24377821623048462
53.54018241416927,46.06212005116126,0.13735562444035196
50.050938626708145,41.869992524729476,0.007119965452290926
39.56128333096454,32.09363592823812,0.1603901888359669
23.492330587947585,18.173529967876856,0.3856243249416863
4.060344492109202,2.1385503446895724,0.6788315312733869
16.01901582369271,13.779540807455117,1.0297070746511974
34.18136786344778,27.625608906752745,1.411388578668846
48.48006308336436,38.03146249224822,1.7899870699387912
57.65739051140234,44.26558565808949,2.1251676532469563
61.24716313685282,46.21313363451792,2.366777340629133
59.554501476873924,44.28195261484105,2.467837662534474
53.52552195319566,39.28073761143915,2.4021444054678134
44.53096471107736,32.28127263696199,2.187380796310915
34.1111583948007,24.454426939062273,1.8775105155151641
12.577771603891563,5.925658179162917,2.8613428576840363
13.94149451777973,7.103738087529127,2.9418653530789225
13.223738583553999,7.327432697930419,2.7099236564703704
9.841135131996998,6.349262539652705,2.10008785970992
3.5768060903355803,4.066986973716986,1.0897696141418272
5.316598664328653,0.5093650686983401,0.28081973346421923
16.07519129951221,4.1600154085812795,1.9081279228603454
27.473955932897482,9.613782827767333,3.636233061562438
37.949208153482154,15.293666140435786,5.278015236953895
45.793916101078466,20.37937978304587,6.636237280947084
49.40034640181354,23.85022653247781,7.517443175681187
47.510686306457956,24.633999413812965,7.787440190849526
39.48248710849485,21.850735363320776,7.4418389272738334
25.597382877600005,15.23138905025293,6.5579471918071155
7.181258063366583,5.424091360062922,5.2048157109315785
13.647683622405223,6.175821967984737,3.4875653189963924
34.31843939220027,17.78063928660664,1.5870258100318821
52.15088771613932,27.573952429872193,0.3021505219392926
64.77723844181337,34.10946200302393,1.9967846093461783
70.4752206648242,36.50466189612431,3.341094632737096
68.40805858227955,34.4648046503519,4.24964769778258
58.763746867431095,28.230243152544716,4.70098154549565
42.730758403396564,18.473018274147854,4.722403251003604
22.355516236678312,6.255602570395027,4.391914281358621
0.27319292438703374,7.004635921347144,3.8183922983702527
20.653086245169376,19.608983586230888,3.1257984644418215
37.72326949510721,29.747235706432882,2.437508685112977
48.77880479350386,35.82042083881936,1.8473026984443932
52.50743867885042,36.80210806002753,1.4201882430079762
48.62631043320092,32.507868636673244,1.1959431313032327
37.90794579630146,23.667943903855324,1.1802478971260904
22.066159134775194,11.761967944701297,1.3560397522234082
3.5155151045153192,1.327664052702331,1.669688590429009
14.974937268638712,13.71893249628776,2.0224223346409507
30.667626976520175,23.836449815308494,2.324806664186077
41.23652349887005,30.553177524510996,2.530276771695586
45.09402222678339,33.203174964850845,2.6188131041091465
41.616592572869386,31.541093476899672,2.5830996932820174
31.2370414797001,25.73130862177322,2.419004745190445
15.386875633335295,16.39808220299066,2.1208895732594764
3.7086803170515976,4.674894953523288,1.6939989345427924
23.356255107668616,7.842498055592905,1.1653118644134763
40.77290989329162,19.28612434470616,0.5763112936200924
53.475152378073005,27.837968848022395,0.021658921842230915
59.62872570779079,32.10659738296205,0.5781543486340333
58.292286924032396,31.415276934595393,1.0597864172330151
49.544239883543455,25.906160326819126,1.4370585767746404
34.4759466432081,16.465148758047047,1.6914445089718417
15.046935566606015,4.521260356898094,1.8436645147544577
6.170582043239219,8.202404862865265,1.9363775761224273
26.33671302802551,19.924332819835104,2.002710719047451
42.729571283120215,29.008075069056257,2.049392777019555
53.122188967085826,34.13908769177451,2.066196850805063
56.10571050995113,34.48674901096223,2.0569544825154287
51.30478767305559,29.84875230299633,2.0389799517660463
39.4472960477683,20.733454274611262,2.036012646066613
22.26394913659141,8.332320757363808,2.0836196531335767
2.2346845081235314,5.635757126192354,2.21235991703385
17.768600276767337,19.191211893218266,2.4275667727444326
34.89339975080537,30.407478109584197,2.6923791430059762
46.71293207835009,37.71070138596893,2.9288961034902252
51.56644171080251,40.10761240270639,3.0634417952744024
48.7776055767437,37.300861975090214,3.060431768273492
38.7370880285055,29.71163266985635,2.908082924644779
22.852235269024693,18.421217167917217,2.5947145750714444
3.3507263616395897,5.0211107109471165,2.1120347192691775
17.028394338667223,8.61951569070321,1.4714934691462982
35.404867226765454,20.63318479667184,0.7073332635840771
49.157106300949586,29.431200869770763,0.12723700286934056
56.30796171408965,33.92791397064035,0.9751940603455358
55.82873214163192,33.664109714178096,1.7798886897811221
47.79739474495707,28.828990670043456,2.46730302688634
33.379218527237605,20.201192463708715,2.9657828822105246
14.636688296873173,9.025712028176406,3.2302495683028396
5.786615652986082,3.143365517993856,3.2392918798093087
25.054924657975413,14.632971794319063,3.0190764911560932
40.536170630885756,23.869379941493783,2.650611074272041
50.15135969670123,29.602060716926662,2.2387655295379134
52.64408693302677,31.09621315485933,1.8744516137571834
47.725016954106955,28.227847040845685,1.597398003954358
36.09826171965382,21.467267871160672,1.4172588794237366
19.387755733089723,11.766432186769766,1.347375334616456
0.06430462928045722,0.3665279703430023,1.3811793004393993
19.507184048138217,11.393188575634479,1.4761276268370764
36.15170374878421,22.198457763141114,1.5624872341017322
47.574483714005815,30.81714839407182,1.571445412898245
52.09325357045092,36.1393426346605,1.4721447445264564
49.03095456953724,37.27388003192701,1.2625767769020986
38.81994244591476,33.719176091499754,0.9349902059610752
22.928782060447823,25.56658610700731,0.4662091529275145
3.626184380528306,13.644579685191978,0.14669166744966722
16.36189646237136,0.5049158555918009,0.8444387976486447
34.23927420253107,14.85169893919255,1.5293461001150386
47.52379370293826,27.267473844237777,2.1211542932464904
54.372756769879395,35.963475587040705,2.5722252627709925
53.8182256964732,39.813384456238516,2.851058472131688
45.89684139448228,38.47501808566112,2.941651278055488
31.655152799336634,32.32622251701936,2.846061043658656
13.037913570701576,22.299259772475896,2.5599496919416924
7.352390726037415,9.701522027224971,2.0787681074881506
26.62469590455322,3.9244285187038783,1.4406238974907446
42.02724533913369,16.894818156371826,0.7204404425313865
51.36044183336497,27.502694868134558,0.009500584297576529
53.317153777936426,34.23093985023793,0.6871211057930519
47.67289915319837,36.03602350827128,1.243622035726623
35.29071821896619,32.61515259234634,1.6015771923532613
17.969814668278737,24.542480415941387,1.7057616659693517
1.8336143202629922,13.189474604585525,1.554831559813245
21.358648262248686,0.4414953180918761,1.2128751012825965
37.90662512054173,11.698242992878273,0.7804017522929093
49.194494318379896,21.479457222783456,0.32342488958375043
53.65149254329788,27.64755819118796,0.12207844686157368
50.628202668982986,29.532815920349748,0.4922614699105464
40.50030377914982,27.023215423847788,0.7209018688671348
24.643032426602822,20.51578821315596,0.7772558228746571
5.264860915789723,10.89292980131891,0.6655422357174292
14.896389468126355,0.5115429154833344,0.4236042017709294
32.97729021729809,12.006921142852265,0.10843446346868293
46.4181435003029,21.745983614235957,0.21326299349968328
53.336560810281405,28.035247481529396,0.47809245532388533
52.79110945897947,29.685936888839855,0.6426586270431544
44.90748956622192,26.290271306895487,0.6853073868495795
30.842769744133335,18.327723317195098,0.6091745937175242
12.606381332275253,7.070805020921808,0.42857123763127497
7.22478592195327,5.669763427583229,0.1601958219640348
25.867294468502312,17.876535195766316,0.1667751897048757
40.71215974093968,27.65224686531822,0.5243526127189151
49.68917864881233,33.487061940010165,0.8872423517097677
51.55853701827546,34.45016905182356,1.2011109418420622
46.07104312475992,30.31364526420805,1.3776101194516528
34.00285287048686,21.599110286289225,1.3420880103393513
17.055595734164207,9.52732969431616,1.076922957999035
2.3798345762149875,4.146818513694818,0.6148326034474846
21.55700035706167,17.411010208567067,0.016825938073648884
37.76303220047553,28.326537287637006,0.6514596834679522
48.70729732219073,35.33643819325478,1.3219317202293963
52.84454610851989,37.488690228146744,1.9016335265708062
49.586117823159825,34.53978442069288,2.3006527113264865
39.38641254564973,26.94010333717081,2.480300950983993
23.684117737471297,15.737853011000958,2.439198464819703
4.687766307499961,2.443866016569974,2.1753614474695335
14.9449079531318,11.150149487763905,1.6932796611161822
32.72724489693404,23.37741767951211,1.0448855567558284
46.77784154145047,32.97303649553178,0.32367460208747423
55.88363511978295,39.10695215681829,0.3706454578344774
59.58870709236171,41.46026096900628,0.9426437044557602
58.16665754471579,40.23380084062609,1.3207806849352457
52.495843241940136,36.07836887285168,1.4864838196920445
43.87348854881824,29.949093282322007,1.477216911619055
33.78549175712281,22.914923000944633,1.3537151712778788
11.767719615452567,6.155475620609029,2.746659148844645
13.593510004240782,6.231114281843563,2.661305826467774
13.496049902873962,5.369705932589921,2.2981447487702544
10.764730146006409,3.557246086934234,1.6515354054580458
5.045954193691834,0.905125638020127,0.7443763723414577
3.496461469504777,2.4075504793126288,0.37681368907948803
14.115278116367135,6.182448396150121,1.6385075267074356
25.54144333720742,10.205832702889296,2.942177333226206
36.13870588993918,14.196589081217706,4.170063161765917
44.13732053477251,17.733842366255114,5.191499298667712
47.90172972912582,20.216934809524574,5.892446806393631
46.179123303519916,20.927010552330458,6.206063977067359
38.33526544714475,19.22527100120698,6.146565732162991
24.64742167432964,14.854442056038604,5.795818563608821
6.434370953163736,8.126156327743828,5.222683683959262
14.181281929548941,0.13710597197797844,4.468877319589579
34.59579448794572,8.763792730353869,3.5705816210246315
52.06877715496769,16.47434445840555,2.5528881371548406
64.16555088484212,22.165114812556286,1.4450559058318544
69.12622875832497,25.08309145178222,0.2804876558695346
66.14974913587473,24.901111467025423,0.8975402017695648
55.54262641553656,21.71190512670999,2.0260932318208638
38.66466901636387,15.975007616258564,3.044827446656042
17.72826365208186,8.483403932804203,3.9010797382771156
4.5390060449892715,0.3169343423838003,4.553142549147153
25.278277822960778,7.2501981295311895,4.978395974354899
41.863976902821626,12.924338827304444,5.162280511237334
52.23600253119513,15.642395576782103,5.0870116651521995
55.16194623537957,14.828937939917449,4.752274810332345
50.40567056033807,10.577485674486345,4.217402067851947
38.76497430171527,3.6547998793033694,3.589449051142675
21.980506369767078,4.679337534001316,2.9841246320181725
2.510330971948867,12.968923868135294,2.508654926615481
16.81651899677796,19.869028657053285,2.2263082089345163
33.202277889375225,24.3583511850094,2.137672773931681
44.29385126837562,25.82968194598055,2.203957027804515
48.52602644676492,24.073904280310767,2.362594173046523
45.328964172138996,19.221282523933134,2.5320626331094704
35.1920466778407,11.696745068282919,2.6236918272319407
19.574251339124395,2.186956056700757,2.5648201071543317
0.678726527352941,8.3943323816377,2.3183516070072163
18.85694826718913,18.97066021033027,1.8672370770068099
36.30845612203762,28.408954694549948,1.198631113751678
49.233080230594396,35.63434628456829,0.33238378242166805
55.81745216609112,39.73163955561359,0.6665717449092751
55.134395156468216,40.029903248197684,1.7166447858471972
47.2788431591579,36.16953918253137,2.740429046220537
33.35324939375404,28.174100805767054,3.6670925298978845
15.294746138367564,16.539071728066038,4.421290042677319
4.40365013732044,2.3087407293140414,4.938960836651053
23.046564430060357,12.923891053275211,5.196336591134874
38.11456052383624,27.151475873828957,5.193281093784317
47.59683729488195,38.230021884316336,4.937852829371726
50.25738491825564,44.269460664408186,4.455484224848926
45.79802179020687,44.04238033263502,3.793752402795929
34.898293155392444,37.287202856484654,3.012985816359306
19.140496506182437,24.81606580891776,2.175783122752574
0.7955512290727412,8.401461717482809,1.3567856779820977
17.50200247429796,9.526149524794615,0.6286148777038814
33.12118224934913,26.30931295929711,0.04165420892753958
43.80980737090955,39.502572071041406,0.37030354502176016
48.023723433053355,47.23089581501425,0.6072475181105136
45.13946548703154,48.44927002482584,0.6987063610946476
35.53407223391488,43.06162341335529,0.6712102229028845
20.534252493850698,31.905624632877267,0.559978842896719
2.2273307368791992,16.64045721999463,0.4361524538252033
16.82654096762556,0.47589574184544325,0.3847891136956467
33.93537271356769,16.912827880544288,0.4443448621320183
46.65297460997022,30.259192940332625,0.6015513905011017
53.135687605304405,38.62819245546796,0.8334740728589195
52.41351823252809,40.99697234186314,1.1023762208198828
44.54583833360256,37.394651114066164,1.3505129015113475
30.621742171680108,28.864649585801445,1.5353865462411018
12.59838753743507,17.20606762335524,1.6380946004773922
6.988149221586236,4.570506626702228,1.6422385538027282
25.401991448687884,6.973012248292369,1.5352491755110749
40.100027438031205,15.775174944447622,1.3267519959988991
49.07292023765815,20.77881715549242,1.0475355390539498
51.10876038185774,21.535709350292358,0.7312299702159026
45.94392135186039,18.1453641478741,0.41418894584938143
34.2979541333749,11.192627073978727,0.1447208092047678
17.7927894302515,1.702044528063163,0.03460983197820433
1.2659156513192256,8.908635974150252,0.09628010069410832
20.198063627234227,18.960385850217946,0.017504044453576194
36.30703410175296,26.7669283234308,0.20652491041199125
47.27332411732766,30.954061544100366,0.5451822101579067
51.49754640055967,30.77353944244543,0.9272454578216204
48.33031178013662,26.283154347926537,1.2474015824627283
38.17518649797924,18.298003713484217,1.396296648259623
22.435361255977302,8.14208785612783,1.3002890787559704
3.3081492244763506,2.7003329659488884,0.948792473214703
16.526173945221387,12.893170934154533,0.3796556473159007
34.276691712921654,21.410002801732123,0.3504974665582516
47.436746722195586,27.542592700507146,1.1626266085693366
54.13411153247053,30.82995257351309,1.9509939843556934
53.386753357976154,31.010702906324084,2.596444803914869
45.24856852066728,28.064385180962795,2.9905698636664537
30.812303871861033,22.322291070518588,3.067045412875592
12.062778798638378,14.551511042762627,2.8108095844171617
8.3971812953476,5.910496333312294,2.254314429196005
27.7127265418876,2.2500825866776855,1.4717280756546014
43.17210525923638,8.679412477314898,0.5674267967844593
52.59197372857064,12.495269486710715,0.3305392276255425
54.640151746633585,13.329554552638827,1.0950277475667667
49.02016983934893,11.308955319850487,1.629893099226828
36.515729566199624,6.905511441775359,1.8849900289476813
18.89088516422908,0.7836361381443039,1.8716760955998075
1.3714116546700563,6.268991245935166,1.6506779309398543
21.4285162858065,13.338758931910595,1.2992794375347105
38.479170526834416,19.360990646777317,0.8943051246229902
50.1664767689075,23.167699757221328,0.5146267998151732
54.90183878496679,23.68066610215462,0.2496186347444254
52.06207819028841,20.211499569576745,0.17218049853224532
42.06057714103988,12.743905426722007,0.29721744620388163
26.291284315938615,2.0686400302764043,0.5694722673384127
6.937026371786395,10.312521495638771,0.8868179637507012
13.327187261878283,22.51407883222036,1.1617539258212064
31.681817576842676,32.69197908760214,1.3526492791699138
45.54593865774341,39.39884459009854,1.438785652166441
52.9565875937148,41.7821260565751,1.4045282562448416
52.86736429211062,39.60872852989895,1.2415184077652845
45.314579503597656,33.1722615179101,0.952498423585844
31.41801536354583,23.188590383949936,0.5425778192961606
13.215489431633657,10.744668928868485,0.01117334832350204
6.646636608538953,2.7308638133709504,0.6270237587333433
25.317273000651063,15.55527931740688,1.3330278273069145
40.15401701122935,25.980440114506834,2.0508052531748735
49.08703397735494,32.476816944175084,2.699650948564488
50.89457002298957,34.05017034925971,3.180860458013402
45.35519147823996,30.476411578960526,3.413787258761037
33.26608506669441,22.370180927487844,3.3611491555567543
16.33580378090893,11.06075583470057,3.0159659422155314
3.043346335896463,1.679023235380154,2.3967293538469296
22.1229669910347,13.95186453795065,1.563722216826143
38.17659820332002,24.022970936224244,0.615409651107731
48.89132614313557,30.51754970016023,0.3274263661374413
52.715789148644134,32.532569901710474,1.1456655305666692
49.08492776709406,29.709024251145777,1.7459575366643785
38.497612180200626,22.275580363912564,2.07120017905459
22.44746993687415,11.059176858549446,2.1056452961797625
3.2002225286474286,2.56006716182771,1.8714693314883573
16.539707389547758,16.79177844106397,1.4263799081639075
34.27619420457421,29.819319423753306,0.8587130262327414
48.15728386090047,40.17680684378365,0.265361283689041
57.01040249896851,46.91764190270564,0.26438660506456535
60.414396407782405,49.70126035375605,0.6548682520930879
58.673786776831655,48.75562351834159,0.8646618477191166
52.69926213837733,44.74379036452791,0.9034858931187664
43.812044390333995,38.58478303970655,0.8133826322664741
33.514631372017384,31.27129020175019,0.6445722438690794
12.643609696858064,6.031025504825414,2.4971130650253883
13.865779535564663,8.18656520725329,2.5616000710085074
12.98537580771735,9.728434129297858,2.3774676933906957
9.445355468165296,10.105661682906167,1.9127831266176418
3.0571785741125836,8.823844410060696,1.16616405438183
5.895646495053293,5.573287840988109,0.16491156623372855
16.63014664706221,0.36469669485418793,1.0380559250965615
27.927644382960008,6.379552686496473,2.359264379696309
38.25153109472409,13.819694498464491,3.6959387749073014
45.9368268169808,20.834320217695126,4.928630710629241
49.42175435260804,26.237470033681213,5.915160037086187
47.474112166898216,28.988220364500812,6.515669281483546
39.444889152791276,28.36666651273879,6.659981041101802
25.57528969611478,24.20143716912446,6.359653547207321
7.1232126901045305,16.97693989413648,5.638511427425281
13.852214906645965,7.600734134653961,4.541132887288234
34.80011950437426,2.814027478334244,3.179050756034486
53.01855389818386,13.025445645905934,1.6960265854288787
66.06969718380336,21.797286044910667,0.2328474298679421
72.12037665571108,28.013822433277017,1.0938009159939546
70.21280433417185,30.829009891204926,2.2024745865809545
60.43540295494715,29.856945759881036,3.0388546277442736
43.930073048751,25.29002180512121,3.584734284897441
22.774912372318482,17.921788466739972,3.852096921243075
0.28403485761858505,8.995647766350265,3.878585731266439
22.206339804999747,0.06534429272029307,3.737991467007353
40.07532439430365,7.939323674094685,3.512485677714343
51.53508093427294,13.607367856357659,3.2630845727520117
55.1504290093747,16.41077373880027,3.035308247289781
50.62380133453071,16.043713524878413,2.857885352343263
38.84130143299787,12.538281688402382,2.734028074767331
21.72889570878319,6.296034921931762,2.658002241634739
1.9461187022102766,1.8390845903351427,2.6295333545100865
17.506673954232028,10.586048356375208,2.6311867030102887
33.705984550604434,18.36597285943941,2.62837795625783
44.21519678318135,23.59669005878232,2.6078008461101487
47.422170155232656,25.068855895918112,2.568075598749469
42.76094238807973,22.237879038179134,2.488382966972854
30.812624616644467,15.33723798011636,2.329799602890294
13.246415197422778,5.285393386611353,2.0453426355565747
7.419639521594064,6.543962190081824,1.5979093854448514
28.193705535375287,18.566386763249046,0.9769493232534033
46.06369769276944,29.171182791920437,0.2076381953164987
58.44545054889947,36.8272414626132,0.6662375489175162
63.53881046480933,40.18590690786455,1.6115522687242854
60.562946899821085,38.27283175437132,2.5617344112707396
49.84557174118735,30.758139008424006,3.383429198408792
32.756947784542334,18.19734805814275,3.949192977294117
11.529054469796106,2.1097833128144132,4.18855701555966
11.021206523191301,15.192392501294936,4.08521231077102
31.859540459071347,31.029589690718957,3.67041574390574
48.14807558325463,42.8985988399509,2.9919304089925345
57.660804065832764,48.94071489699512,2.1169347239606235
59.14084099922773,48.2299334212042,1.157439505275002
52.495515058999636,40.8313792655032,0.24224137645869737
38.80055327859512,27.68460459313569,0.5141217660505992
20.133203576284323,10.428867367522335,1.0237308771437847
0.7657733917250577,8.799393410392387,1.2345319160298922
20.912834415093606,27.58049537516127,1.1283043131643296
37.490155115521,43.46069245570842,0.7295710857627408
48.22494017014312,54.276553135547054,0.10116281391314084
51.68891271553521,58.49764276812308,0.6873093528404783
47.47487464698593,55.51392941955945,1.5502410577763601
36.25456824797175,45.779899864688474,2.3587186758353957
19.692157091639494,30.743089545557638,2.981334974374658
0.19886461745285333,12.580922089134607,3.3291998830278597
19.429904531380565,6.181408062316569,3.3449700178818462
36.43386860977042,23.082462345935376,3.0155943838179735
48.4937127449839,36.083062494809845,2.3846928855140286
54.04039326152565,43.81005201180065,1.514417182030986
52.42925739775114,45.669667600045464,0.4908408471738707
43.98657569861102,41.848744192675376,0.5631539107396993
29.928044915742962,33.20839893628455,1.5364121761527985
12.184881420305873,21.123418621523292,2.3351806193898863
6.836646399631579,7.304604744681976,2.870474308833498
24.560554765960923,6.409795197060617,3.090837439440418
38.57514885307138,18.24151690660338,2.988679581675881
46.97164551033083,26.63107293203377,2.5975599957447226
48.63307877358475,30.40542470128753,2.00125366928551
43.398909257454996,28.930980936489206,1.3141017582368901
32.08396091987794,22.251233894203686,0.6649245502615968
16.349026471696412,11.184663557783503,0.18244515563263108
1.5581081640286787,2.6884437811894513,0.05336597580838041
19.128810249762576,17.204065054197304,0.04214775887806547
33.92299190882517,29.96411993481738,0.15917852622141712
43.87725852666894,38.77426602296579,0.47355610829938916
47.56841924957003,42.06190617463668,0.8263686340076354
44.39885668397263,39.1695850236434,1.1447722334013954
34.69865193314696,30.44503682429833,1.3482618626598297
19.72292083331951,17.12596337539785,1.3752811672932013
1.5062094213858468,1.0711139955595483,1.2216052646309608
17.41201970023932,15.557744667678794,0.9173201364841077
34.35284533678399,30.588147951834884,0.49971369994762754
46.90370343065101,42.08422345703586,0.029625749118108516
53.282329759377824,48.53113341260371,0.4148310290373882
52.586134955488774,48.98575136272896,0.7533736873700538
44.896006119393085,43.2171561270516,0.9217343402306976
31.24682330232238,31.80236584601724,0.9097369910305332
13.475842633410107,16.140483564106102,0.7550718493907682
6.029678478360993,1.6669632831559626,0.510781029477301
24.631541607926543,19.110694787893557,0.2298356928054907
39.77049657522132,33.69502491650405,0.048991656099104275
49.32375641611452,43.37081373188089,0.2961253392845109
51.92583357450814,46.86342658238734,0.4794227303354316
47.18437108404836,43.8338684343919,0.5667779657977037
35.76583529687466,34.864099922408236,0.5327812688552209
19.318577463168676,21.29169423999688,0.3682087938917359
0.21951584272007485,4.971607998895707,0.08150941067765392
18.79442732717956,11.958610714196693,0.2995332722999178
35.029225791739364,27.29723784074542,0.7271580928696411
46.21102791510174,39.008846433002596,1.1460281293274779
50.78560399597651,45.478402316767294,1.5046175408179063
48.10685692035947,45.762051355868515,1.763981610769583
38.51316348609986,39.787190209312186,1.8986928161586767
23.29319678351505,28.43703676588804,1.8878495267557462
4.536785795485101,13.45329038456439,1.7163989316241162
15.124272567930117,2.8587076081671956,1.393000562483066
32.8756904833,18.056288009017074,0.9599003224703515
46.14337882853422,30.001452009431993,0.4807818880345889
53.000191226577456,37.20105178730894,0.018623859715540574
52.47067684042551,38.97728926320857,0.3854593843629074
44.676309438167934,35.46724783710446,0.7154226402062838
30.800745053598323,27.4987665802715,0.9645984971294174
12.886281523481012,16.407091754323453,1.1116107053606035
6.492436310521409,3.8298637565653704,1.12174696814715
24.602969461859608,8.494655480620288,0.9958057434243781
38.92428356142262,18.923163469765793,0.7846547959946515
47.48096950265842,26.101951353541274,0.5454497554723506
49.104312334664826,29.11988494746482,0.31399156175357723
43.598101680539756,27.592391937944154,0.10782162453325025
31.79084079533026,21.68885156176041,0.0612882054558274
15.438814057058659,12.10645034802275,0.18495237103888984
3.0283749026762057,0.004909184460800253,0.2563420616923808
20.87406962260596,13.144242959234257,0.26908168978905367
35.47233476410562,25.580225076450265,0.2254690471863891
44.71562240838982,35.51185639588981,0.12166556240037171
47.31726318231398,41.298545481561106,0.05851067211949445
42.95359735349719,41.75088761482065,0.318515952183969
32.27410140305738,36.403094352773735,0.6271371649999552
16.792318381506803,25.677329948795318,0.9141013173053396
1.33802729089977,10.87030318294463,1.1025725053442257
19.60772160727247,6.070734021334918,1.140155865577151
35.72111043910357,23.01755109682268,1.024671130032597
47.994939004950105,38.04659743824191,0.810760342759489
55.40100335008271,49.623887014957404,0.5532475127758214
57.64050315417237,56.76471916567837,0.27379289164349335
55.11257167192634,59.098859752890014,0.017617132854574093
48.787235787894836,56.85964326032922,0.30409489507994747
39.99720753791932,50.81145731325345,0.5544896541335701
30.18624334069933,42.11881657623766,0.7315113491018957
11.968885985768955,4.771103393990478,2.9879471777234006
13.409789321776048,6.338689799168084,2.8317038597617312
12.916905472204602,6.791983751234329,2.346354504821023
9.87562974876406,5.609747179505425,1.5489826866275054
3.990010141923296,2.6778486861462545,0.48765915302147234
4.580888502523233,1.6539556389271632,0.7756400304942304
15.144921934630593,6.695915334792815,2.170392283494568
26.50010175381058,11.644820544640075,3.59286961534906
37.04678075587024,15.773812908839494,4.900867069722038
45.00632118686102,18.517389734170894,5.943222639404617
48.70402316687627,19.441034133155483,6.5917736178501904
46.84870895810322,18.157675537174203,6.780915515044761
38.803117166473385,14.31286698804367,6.546941826351305
24.878321992095753,7.747156915450782,5.988030314689108
6.425794504777997,1.2270390141962617,5.186787861239016
14.438816160585272,11.663536853992184,4.21226030555263
35.16957721744368,22.032770009512017,3.124838045023978
53.104099818414355,30.502624051480282,1.9538610155703011
65.8451652611435,35.42400566351843,0.7236720778804038
71.57559439856323,35.79169986442586,0.5235438675367337
69.32706213427733,31.464903171023497,1.7294549105990842
59.165206667842995,23.09303176890335,2.822506847466854
42.21880432451552,11.837484964111065,3.7382468254350236
20.5886630273666,0.9290065921542001,4.442551693978458
2.9215804909572354,13.814486694950745,4.934358344029734
25.208423741163017,25.452511537062662,5.22842791424489
43.31733548584715,34.48458520208158,5.3423707218608145
54.88446676386715,39.62233942587768,5.284531950697936
58.473755558220304,39.85691208475715,5.052836798120982
53.76717638930199,34.77186418353027,4.666169257003186
41.5920951143845,24.807901704611595,4.17369706722585
23.79065088863895,11.319236572880392,3.6302056829562654
2.961793827030372,3.644561229804711,3.08361136934918
17.894677676061963,17.777266042163983,2.5779080287445955
35.781164674252885,29.005447965091655,2.1526012159215493
48.10001762285697,35.847898858176954,1.829278527484177
53.01078197240523,37.57278469647278,1.5986033752960604
49.70582508232375,34.176760599682865,1.4178263635621267
38.547529082460294,26.260654842444538,1.2358481096361884
21.0408857441815,14.909017712927811,1.0238526431703545
0.362578253390231,1.6110993044763888,0.7622182450839657
22.61730567824266,11.838987446177828,0.4280449769497897
42.5416048791235,23.521112293296387,0.003364511779851075
57.30314269576154,31.670198692496122,0.5541752418586636
64.83415714766,35.00237728711015,1.2127432749993468
64.1177283550877,32.982397460099335,1.9312918646274169
55.312451734640575,25.95821392902719,2.647794255598608
39.68834752541751,15.09436870167033,3.2963896604320966
19.409417156746013,2.1222049586367326,3.8237849696099917
2.7848037157086187,10.993896140186397,4.18015043584279
23.949746975454048,22.376472102245923,4.3148301028104985
41.308331383320564,30.46604248963079,4.201193508513215
52.60487513827976,34.16716434060475,3.84499270777416
56.40746760161921,32.942054288113994,3.2898946133073723
52.31733193201607,26.86855922859008,2.626413120072989
41.053123952790415,16.665606449421375,1.9758146668425873
24.37469937166332,3.6564590506045764,1.4422800454585514
4.834192557896857,10.370912009656381,1.0843453281002304
14.615450029277323,23.427085317524416,0.9267624302681556
31.07898293602451,33.65560034153712,0.9512349904241677
42.16379196556733,39.647605199276626,1.0970739967013856
46.32489414944293,40.65261309685234,1.280620747395348
43.04858929574319,36.62332519541801,1.3886400976282516
32.89113661888797,28.12710666988094,1.3206471752036952
17.37453652286451,16.189871160623383,1.041605131555946
1.252985646078194,2.127479045923769,0.5573269762133659
20.32820050576406,12.571991242664533,0.10728812775782522
37.119802690141235,26.319987848903793,0.8951147018438841
49.19271302946838,37.507038847877446,1.720101784458184
54.748406119295126,44.65039569282806,2.4926270767867087
52.895423053835444,46.629253950803864,3.123561854014083
43.796110713270615,42.93471189107811,3.5117490420702393
28.653266309010657,33.85668766013009,3.5754368135305388
9.539893983391364,20.524923210409767,3.307103982538315
10.913407435481798,4.738916708534761,2.7769419576438756
29.91094994027599,11.355397445748077,2.0870363565768635
44.88247589473474,25.631350729582074,1.344850312656366
53.83873008343192,36.29176198855289,0.648604082981429
55.63996081972977,42.05483894329369,0.06236462350303037
50.12712417916422,42.22018447578353,0.3707966389278428
38.13122935851335,36.693897640422065,0.6245552389592066
21.35577770747209,26.039754843957876,0.7174752408015834
2.1254608916049245,11.527828480087853,0.691232292866307
16.933447681243234,4.8916686465696175,0.5710582658110737
33.23441957959319,20.77141370910485,0.36629806682068766
44.573316141094594,33.55990146147326,0.0900157751128881
49.42301386375542,41.12523205343675,0.22658438285042645
47.140119443482064,42.237134339552405,0.5300656397273217
38.065530030657015,36.84271038045977,0.7507942669459992
23.500584464516997,26.02998062389585,0.8369271317665311
5.54179245581219,11.702919475094504,0.7834655490574618
13.208316321745055,3.8842951267102794,0.6178905396355249
30.015475184090096,18.548760278458772,0.3665922975873009
42.42053030336165,30.429779028147127,0.04018330794194398
48.60876293921841,38.0933049896515,0.34216084603501457
47.68288753178978,40.58581844887773,0.7443640066252115
39.78492407199107,37.51498074435146,1.1278125390617935
26.051080962151346,29.19628728637702,1.4445738717388334
8.431853747641638,16.777267589973526,1.6497523544493389
10.590166640714331,2.185474001694353,1.7163866766016762
28.336054229529484,12.176820036821068,1.62269142648184
42.27319775233423,23.941548695216422,1.3563430840385229
50.362054640379405,31.312309511661983,0.9360005631276775
51.36381833856445,33.42660850338076,0.42562392637028074
45.03013545841152,30.412506541275135,0.07884233669628272
32.16697368558796,23.162358980116746,0.4925765282830154
14.552840227762733,12.994520083804018,0.7659999413352216
5.324723255366521,1.367981372331746,0.8705719325343902
24.652662519232134,10.261707819200137,0.7976810499627927
40.71127217940144,20.460470484437653,0.5778690284173257
51.27126712069578,27.85036813529054,0.27421866148603996
54.89505848125944,31.264291523162637,0.02751279715955274
51.101681624575306,30.007527622688553,0.229707328215725
40.40639967324278,24.133268570658785,0.2673130449258198
24.243555711933045,14.562681151206329,0.13300539135897577
4.777876628239233,2.942212169359066,0.13967812273808156
15.371651557852767,8.73719831446362,0.4961885516143988
33.46019876757454,18.619871655116807,0.8742759527971264
46.97864499829003,25.371046888733982,1.2105511786353336
54.01298677777338,28.360270054643934,1.4439906846870372
53.53769431250821,27.61974193013147,1.5241759939244608
45.58416207641497,23.64951323995091,1.4163211280026518
31.248671489880465,17.21501714696842,1.1083981811175938
12.553770695261216,9.215148166196068,0.6311082554792947
7.829331445192795,0.625616133252824,0.049332192613023185
26.977183684240973,7.522739850046553,0.5630389969276145
42.13845671198283,14.200785283510697,1.1148263937505212
51.12708935842855,18.501228496779113,1.5097158067956993
52.64327097531371,19.800038341656034,1.687367709250554
46.45304281827717,17.90566520851008,1.651407809033075
33.41439813923036,13.134584746298893,1.466062298286572
15.356745236840695,6.289334617153622,1.2015364060365283
5.181257588836754,1.4635303763138887,0.9118354266663655
25.30561078043818,8.796253219963889,0.6575412187449634
42.16542816919077,14.447692539437478,0.4840537093759387
53.34790533514808,17.422591769828898,0.4022737352879256
57.22015007832197,17.130331974857565,0.40771904964183153
53.17871228392621,13.454641503883591,0.48055382486386494
41.76009938689919,6.755395011169864,0.5727481999694215
24.579638293644045,2.1672826292479774,0.634499137431316
4.095201097574635,12.10927532205773,0.6366947631111617
16.771598734324737,21.524846516033982,0.5567345717234176
35.351489034976986,29.05100841115239,0.3826133128233293
49.70374677896852,33.77916038688862,0.12182624367562998
58.65553257952516,35.12361193799368,0.1987702540069033
61.86030146552558,32.95214324842886,0.5344258705782232
59.73669781067413,27.660209208674438,0.83243777680091
53.30718577406501,20.149320312722725,1.0409208713474354
43.97878547900373,11.674283853234874,1.1343212668383238
33.30446429574437,3.5861263876770684,1.1217592467006086
8.21781678634363,16.738125073809726,2.3363153609082454
11.113820476435482,13.758927269534091,2.239199343163759
13.237961153541871,7.873312912024406,1.9049548135438228
13.605367024517125,0.6077316683181773,1.335429635200465
11.2882242582079,11.07634455804603,0.5510224390080808
5.722161813464732,22.695072293790652,0.39979331766596654
3.0203908167881734,34.408894432715385,1.4426270115154245
14.101883925418887,44.923577404074656,2.4940889603358776
25.996167329822715,52.75290302691028,3.4688757810565534
36.760269657232556,56.38172215556497,4.274983946691056
44.39969356837773,54.53667690398507,4.822637479233237
47.22552249816209,46.55712420778719,5.052132158935715
44.145181787708474,32.78816021971569,4.97132673896098
34.912524646930066,14.645794827658335,4.6380766093486
20.240379549070347,5.7881769866197885,4.095462962613918
1.6857582031955227,26.23916221254586,3.372411161102916
18.500401415824065,44.602524391392606,2.520647359170111
37.58038400311994,59.19477934847238,1.6064314301642773
52.72962300178187,68.78669700526406,0.6839537847548542
61.52099998814088,72.57137731979958,0.20171184747479118
62.43195248674603,70.18681489900315,0.9909658004599473
55.23601379438754,61.80101291972381,1.620765041024292
41.100667069906436,48.255607089963036,2.051534860225131
22.371949153384826,31.114177100669448,2.270190873025752
2.0857842476482666,12.524031648836392,2.2973326084921655
16.642240135298124,5.1226309258346685,2.1904823749775155
31.175332303539562,19.648197630842244,2.0266998213121226
39.72007123705708,29.484059543656553,1.8867858659797945
41.451613423119845,33.89508879499114,1.841337002381596
36.494083743331565,32.9936036854045,1.9338651294651474
25.82092809361853,27.585712961144235,2.1686473236189148
11.120791356834332,18.95699964557135,2.5160448113453815
5.370831005204134,8.667409062260829,2.9461919463249595
21.119423495967546,1.6181848762123994,3.4342475070043923
33.625218153550726,10.286617646824283,3.919538412498124
40.82099151394096,15.944759034525271,4.303452470508046
41.43869014825917,17.596518377154275,4.480032953935347
35.2322979031983,14.80229356324906,4.368867112449639
23.005753160841667,7.771832551804052,3.950284073730118
6.4455021614355035,2.6429624684430726,3.2569746108089697
12.178040885690555,15.062465585672454,2.3444229077202423
30.352825892060682,27.7787464596961,1.2826287740679723
45.6487626362031,38.99600943316595,0.16178365929977548
55.99596030593546,47.07851262538516,0.9262966944692239
59.916746230997134,50.774422264266384,1.9153060520335385
56.70665005131515,49.38667662645938,2.736206407470718
46.564099499598605,42.884098227328906,3.317712771183133
30.633512341261234,31.92758122979905,3.6278083834216175
10.898823102292951,17.78416096377091,3.6650043310556795
10.07657486094585,2.1433753144867618,3.448185071086597
29.521142852466614,13.136050373706295,3.0227042826272426
44.86140569724474,26.29060215728102,2.4701785796495317
54.090699675709466,35.86297558796481,1.8996797784794424
56.049258739177574,40.845805493776474,1.397864973854747
50.56206077414467,40.775595170832716,1.0182196477358103
38.44905268823605,35.795574439380104,0.8051508987153039
21.42828587877526,26.684183207920093,0.7982290086395121
1.8930625084469952,14.817460528130697,1.0047001448590194
17.405850360693357,2.0212675996757965,1.3648733158061523
33.740943450209045,9.698407130172827,1.7791635438744715
44.81315990680475,18.498921924370805,2.147762446023809
49.090899418921815,23.034935781375456,2.3839158507035787
46.02302408555218,22.689209666301906,2.422677098365297
36.10277050519703,17.63581020828797,2.2170833439437
20.777852156042076,8.75186355227712,1.761288084134501
2.2332146606807473,2.568029586644834,1.0993595574617274
16.913529785674395,14.637461254040609,0.2991435585535179
33.95677479579741,25.678693311859032,0.5513475160070185
46.45592677878259,34.00227119145262,1.3574950204587437
52.57155634440084,38.19499534971212,2.0346474204897773
51.34550937709614,37.32321950266315,2.509542904304395
42.86695056239666,31.16451385645012,2.7307017240122544
28.277637180314766,20.379123211094083,2.677267533653971
9.616737032435278,6.497955215539676,2.367163170353919
10.487443927318589,8.30004513816276,1.859277093942107
29.2209073140981,21.603126446997976,1.2416867204926918
43.98081703009558,31.270379269116617,0.6091510444841576
52.72510909982157,35.84472685349704,0.030980831036090634
54.233198584629946,34.765469322718346,0.45928416007197803
48.2398538518504,28.368201393402526,0.837107568407357
35.47065599038522,17.723961753414635,1.0640685538604306
17.57859026715837,4.4111273206170445,1.0896244926122902
3.0384226936480188,9.693278016780166,0.8709736626705875
23.531661015815683,22.579988321474932,0.41612236297085237
40.99969641378944,32.27595473999215,0.19431139402812522
52.92973558875981,37.07396254264977,0.8453794338051506
57.584693981009714,35.84337773407576,1.43002556805308
54.27216306561717,28.34200025911707,1.8596859445689917
43.44541998787885,15.403512620444573,2.0617235312976194
26.608782120120807,1.0960407307173354,1.974933377869972
6.065542492434789,18.558156325986722,1.5671303714463956
15.41954330461225,34.196892001575016,0.8788314883290922
34.98483016783258,45.60799247582876,0.03345598083112886
50.02114813710917,51.20336171580048,0.8183428471277605
58.49085756077256,50.39360719240519,1.549141031361334
59.19810330229199,43.526761336970914,2.0698317374480912
51.96903059990374,31.683057631746554,2.3281946852193127
37.721821288036764,16.43926595467932,2.28256433039933
18.39991516954496,0.3255599278396889,1.9105436929909072
3.2786035109360854,16.58530164224255,1.250119976033498
24.231211351246298,30.32805114034713,0.40453306692247726
41.48681785492426,39.78469295051086,0.4834430974894421
52.64459354177255,43.722207894158224,1.2789641536623892
56.22723042300873,41.714502654591904,1.8882220509742103
51.86343720229432,34.270058683324635,2.261006623637931
40.30793588140484,22.730165531360647,2.376679327079254
23.30798525196746,8.967106153211773,2.225444244511295
3.3321730925484774,5.014786988330404,1.8310559813434444
16.774639252687653,17.44313060144216,1.268652991850902
34.16476981396116,26.99080964070836,0.6374484763626654
46.36889722677576,32.81480359447077,0.026863354059327927
51.64606546932445,34.481135968374986,0.512222103884246
49.246296177852855,31.8941585264168,0.9480287390732967
39.53101073186638,25.300862391291794,1.2481153978995847
23.93417084432811,15.343473308402316,1.4075070859012688
4.7614207533976405,3.112928573031675,1.4471870413248862
15.163502247927816,9.88334954429821,1.4090563722496041
32.93188289312149,21.903706240258316,1.350198057310593
45.972368269812364,31.258367728686537,1.309440474920935
52.40775961095619,36.61392687531754,1.3008054498384054
51.3116220953915,37.22539652189852,1.3154841536438797
42.83030617879211,33.041766213673355,1.3166782866937792
28.152586346854886,24.69432472209293,1.252096139790426
9.335603027391409,13.395686864522428,1.0945879874180096
10.990637212715855,0.7804178093481078,0.8588932098211601
29.992352337231626,11.296179883146161,0.5668296542559231
45.022994228483945,21.000200311509037,0.2446104119314699
53.987334202604146,26.805547875563235,0.07321126680101246
55.621797448469614,27.775316208249162,0.36380872516439255
49.658019707801515,23.751790245441438,0.6106701910080101
36.85505903140167,15.412927017218435,0.8067437194820646
18.898876521995327,4.161356184057031,0.9583239555813696
1.8068168333341668,8.142156622091395,1.0684568698104535
22.44641434935289,19.513506705224916,1.140957306772479
40.17289197357287,28.166028013747415,1.1975084854643838
52.495803316169024,32.75087465313324,1.2710498001082986
57.64196692609261,32.48831406923561,1.37405907023982
54.846808133993676,27.21821962705092,1.4863961327713937
44.482217987876695,17.408748638425884,1.565048544314577
27.996572443853744,4.138689888846959,1.552613755802875
7.693911430170238,10.972172151745475,1.402516768867882
13.614377836545248,25.923824124623824,1.0979395398532144
33.25904612567082,38.85146746566318,0.656937124461484
49.167648583650205,48.428489615692094,0.13411719580342388
59.94696077336739,53.9154728679824,0.398197122779748
64.97792401026244,55.20199515373533,0.8663818238164847
64.40173725581484,52.71914071086755,1.2068094688394302
59.02363050926217,47.272126094294165,1.3848607347034305
50.14451789702648,39.857625169825596,1.4017681738959953
39.33482940162082,31.498553148788016,1.2856626954724402
10.950117502334177,11.806846863270797,3.121309846851853
12.870167789098353,10.733509997078606,3.094706516474768
13.033788473140449,7.596898614524641,2.7215677223971357
10.766130213966488,2.460121592762454,1.9951154656713792
5.716172246750437,4.34675400921353,0.9426478448881273
2.014868784907326,12.279567513472294,0.3848257819757322
11.80915187328154,20.6155438838086,1.9168692723032312
22.56829515768172,28.46454885598536,3.5511979699009224
32.82246308375296,34.798951399231484,5.148206273130811
40.9164481354845,38.54375171923962,6.552907407095422
45.25215548264278,38.73402431158147,7.6037016528475645
44.52723492400007,34.73515548238929,8.163558813595195
37.97104545496015,26.49216858165226,8.188396409855375
25.67594381873472,14.695918779827824,7.7043247432568895
8.784802640060079,0.6534668964744411,6.749138190750745
10.728165532683304,14.084377329085696,5.386018338957819
30.38147196649643,28.028192778445387,3.7026856736477574
47.51996921389976,39.91630433248996,1.8041072754104195
59.7507694068993,48.757113036716014,0.17648864424912958
65.30408235686859,53.76546069022439,2.106228256854235
63.30788656814932,54.34286118990757,3.8699004660745095
53.938022869569366,50.14966766680134,5.3517070274971745
38.37898837334988,41.258721210638015,6.441235984881646
18.670911765906858,28.343163631505007,7.070239811497115
2.5710336509604415,12.749951813723678,7.2346350367842325
22.52612392237876,3.6240209514100075,6.985706609961863
38.55280970786786,18.644793587467596,6.412259446322295
48.55826643217756,30.354467879596175,5.622648749235306
51.3019068995463,37.346040929288996,4.733387546282194
46.567736082339216,38.98366884307843,3.84565099818905
35.186359976758055,35.429362316414604,3.0292976289697666
18.927756031849153,27.53580298901322,2.342905259858846
0.24648640878886025,16.668465829753426,1.8320567568762223
18.0753747380997,4.5155214503750365,1.5099028074754945
33.3177050789853,7.080859750017022,1.3474509912392711
43.212470128286405,16.31446039413829,1.2692555503349752
46.27226286197606,21.661663080324256,1.1819041495428468
42.00375099003087,22.168767350989036,1.0094429835212757
30.97346382975926,17.699007167232352,0.7010048945221424
14.723618708853438,9.028814717426044,0.22714297729830452
4.453628917345223,2.2602151519912086,0.41506942565421356
23.853720621696066,14.097942143916582,1.1886696369152228
40.74023398975778,24.371254899891778,2.023915180094691
52.72594657779093,31.33497753440345,2.84459890490875
58.100189686133746,33.88717202368122,3.5783375311182457
56.057294827787366,31.67920688443344,4.160907287290596
46.81049633108359,25.060355982477525,4.54281418251989
31.56020570146518,14.934515911412106,4.679825430788275
12.334405637524531,2.618149164426027,4.540309662570784
8.27867083936252,10.289887760747716,4.129249729647298
27.484177330351958,22.066580594004833,3.4933280627356305
42.664304023813564,31.06525649704373,2.7105490702578106
51.75861314201328,35.946430954717776,1.8629150946384336
53.567813060162365,35.91807780877073,1.032022013102049
47.91822011390245,30.90317409004197,0.30306265447256425
35.67855182286996,21.560650296711433,0.2680912860363804
18.630306834695546,9.168565892963738,0.6469650897104232
0.7774296582447349,4.59421425527946,0.7982926733029736
19.763785816272414,17.908531360620568,0.7209441913497981
35.60341078393861,29.03813474775819,0.470149223261168
46.00745358460196,36.47955564370357,0.13498695878679234
49.450962312618095,39.073477753955025,0.20668586422734023
45.400735114578616,36.12191082953691,0.49843559605547855
34.412689921992246,27.518687594162063,0.6650246020869632
18.06957076688833,13.88209188217256,0.6270341360452095
1.2518419225669688,3.3620701815968816,0.3573051801455659
20.74278853940422,22.027558727906843,0.12040875881745354
37.58741060618161,39.39962115962445,0.7627198648469442
49.38319979362881,52.653685826432024,1.5185507797632956
54.48395051059211,59.37654683302598,2.323081837185858
52.20941838959954,58.060384453237845,3.0887741125556887
42.907032866432665,48.450234755452165,3.7054988908669455
27.87692880901171,31.634230337253783,4.065052461538018
9.18656523759439,9.848393395974506,4.10549903342695
10.600138178995415,13.925539045372602,3.816282525906857
28.762711751357998,36.47459350115715,3.226757336868222
42.79600188993016,54.858345867624706,2.4120643361282013
50.76210784808423,66.77671605942582,1.4611850999961897
51.56744569132765,70.79476867911526,0.44271628704277594
45.11262615101389,66.46423821962344,0.5840242813776186
32.30126051688364,54.35575899210443,1.5478441334437527
14.906360463842299,36.024948649587635,2.377666023755802
4.687171890261978,13.884231019886927,3.05132641917589
23.799406992425272,9.073670994660414,3.583991665602523
39.78923972163331,29.70611328205974,3.9621464182931425
50.380826566692804,45.26018965609102,4.152160727168752
53.9516257614213,53.87947404484949,4.138519711616221
49.76770056609506,54.906618672136084,3.9282180695320186
38.14671958801312,48.90841821026125,3.5444239416322643
20.500310709514473,37.439441869930015,3.003783799282642
0.8035358085128903,22.641865554505724,2.32642806167713
22.765268927205103,6.844052542197786,1.5513506666601136
42.20995129185205,7.734706117007574,0.715716734045202
56.29681475665113,19.179280683577367,0.12986168923428534
62.96895867347227,26.016980944003663,0.913953477826353
61.25084511558096,27.36392666307778,1.576656538192856
51.37031892563322,23.11161018583616,2.0841511021753543
34.69231083390306,14.060900546498504,2.4293056764239167
13.498550737267735,1.8892516405053164,2.6186126785862363
9.32704039690896,11.10741101678248,2.671000764183132
30.678422051314346,22.472210279616725,2.6272127448288862
47.63685693643375,30.09868635717653,2.534312160210671
57.88482431169256,32.63439877942986,2.4297435646599648
60.061028309007284,29.66695396340175,2.3166225397767803
53.97696238128506,21.67090530362821,2.157588588969046
40.66085161651031,9.809691520229517,1.910945013719829
22.192144443939497,4.291823653431206,1.5528576141685793
1.349115553755686,18.753192821370142,1.0881863799755676
18.846246507373987,31.634319057232208,0.5468262709766545
35.59000894980257,41.15027045092642,0.018842584326384568
46.66764142548179,45.92108738816672,0.5280075798617608
50.70192413107702,45.22067470502117,0.9094403745050588
47.281967149945864,39.125232020569314,1.122468772959312
36.98487117153979,28.492282180571646,1.142905422878083
21.300542906761898,14.774493970922807,0.9649434902255111
2.449075310396801,0.27025798064591183,0.6068896121600599
16.89318926166391,14.859030778118578,0.12321692167608231
33.94440325349517,27.371475020538195,0.3938082411578705
46.21843857197216,36.44404831098736,0.8225371628994904
51.899068934040535,41.024475563005524,1.0522028271823913
50.12373796247123,40.463655026496305,1.042464049334914
41.11750113602069,34.66878226513151,0.8062811055583234
26.145280412990765,24.25114897459761,0.3766239751934849
7.30984528285667,10.56491116134173,0.1932412679908089
12.759930989055082,4.432812707053414,0.8446226643637129
31.275932524457794,18.502303014589533,1.5147295383448076
45.66673158660135,29.543696020556727,2.1357807886057416
53.926094208079256,35.97445092631473,2.6502511770065817
54.888114240246175,36.960476628721,3.0042704391936703
48.39037231583429,32.48928757328,3.137649304139015
35.30989546757119,23.306036708638356,3.003799384140811
17.452119025931303,10.77402141317314,2.5844848975796544
2.708300373251233,3.2926601759268097,1.8845794318817677
22.378938980026394,16.842406374693088,0.9504830138975429
38.84232007421107,27.855977514164156,0.11972987805175866
49.845306300837855,34.65239246131157,1.201015642829982
53.91171909726967,36.17828409265693,2.159767359971638
50.533191273267214,32.196697955754935,2.878817463393831
40.232105509839194,23.32847959926983,3.260727301172824
24.48176574327782,10.937180917328146,3.2118728698068155
5.486920667886498,3.1113273745661774,2.691876410599001
14.129664917710006,16.729795231060226,1.768503770028864
31.903737101881468,28.16336351759584,0.5785983447312312
45.95168004724803,36.299161022985906,0.7211791970440575
55.0633346333852,40.56912751655521,1.9686156672292543
58.79348238323977,40.937618863650215,3.0198186381654573
57.43554263422213,37.84318880992219,3.763497275291549
51.88807612574335,32.106385584784014,4.13146990935459
43.453781873899445,24.797480809926014,4.117711425213559
33.60165114423458,17.067076112385582,3.7724632388911816
10.890616855376381,10.993464688168809,3.1006907559340933
13.735311308714152,9.646117093385902,3.1248552457174745
15.039358984232344,6.453212754478115,2.8293121892537014
13.88624579249089,1.5057332723590278,2.1719779537721906
9.639740764582971,4.921677090132504,1.1426012307956928
2.15463472865662,12.38330316771903,0.21574082525605806
8.088539836802994,20.241029399496487,1.805590596739725
19.980553467428614,27.638721849851372,3.5043180558554394
31.902106312042754,33.53401215470839,5.1774526880010585
41.96505500602641,36.83360865222456,6.656077718121802
48.31137741178521,36.59158143534514,7.752612510308993
49.38679116842397,32.239122946852646,8.327660303244457
44.19688344389343,23.826123267774435,8.333969248941195
32.65293275156218,12.118261260588705,7.788545607675189
15.78024704056395,1.5898418666288494,6.731442783044863
4.4786231401995815,15.775818027081378,5.24643206851531
25.56771398398063,28.90223193292814,3.458392644233637
44.644467611465814,39.563190091028794,1.507737171680195
59.035945729865105,46.58035209086016,0.43891830034706075
66.64456162542744,49.08874777651666,2.2231243454952287
66.29579228685961,46.69729762853339,3.7246749175463836
57.96369964601964,39.660513286488616,4.852368926339738
42.77244876035342,28.948830726327486,5.561673125165759
22.835348162944637,16.13426202666107,5.867439221914382
0.9276215337929032,3.0784453381532657,5.832346814253131
19.930485108720468,8.4637472982314,5.5395666053254145
36.90563823425653,17.188856734175925,5.0891742684427514
47.75453504929747,22.405762663880132,4.6003639916889725
51.119520581857934,23.976313492438035,4.163477516069978
46.70037196653894,22.153833166094692,3.818038453141177
35.287813670008205,17.438433293286195,3.571758438498931
18.653821198893215,10.516948910459497,3.4066677860254773
0.6991409330799807,2.2924534519287256,3.2868615959732868
19.893844821599078,6.088836939551721,3.168127510318958
36.07138480123085,13.326533195727997,3.010216582327775
46.79465048800247,18.18284781342047,2.7788638795178096
50.40969135952791,19.741255491742884,2.432355165737881
46.289269151653386,17.609664555063002,1.9322262951322158
34.92487857342682,11.972338564174073,1.264111155248861
17.864756310706834,3.4789446765934384,0.4468047725674393
2.507615854431438,6.925724318034444,0.46671306322218453
23.32514044568182,18.13235381927927,1.3933349563086341
41.644351735858976,28.91029719037862,2.232895622909037
54.874007516171034,37.90779180764754,2.9039695008334854
61.161188196621374,43.72129083489409,3.3582151414362076
59.646851494741405,45.09572892501601,3.573147599251445
50.575420472231805,41.23952911926612,3.5732981056492727
35.24043336929647,32.145511098050484,3.4262709281071073
15.782985177038519,18.754115139221298,3.189901194518652
5.107399665256259,2.8630074080276797,2.899259054036546
24.56770485220348,13.20201496721848,2.5947956708072657
39.95673683655373,27.052989209443616,2.311833922286437
49.21871786646939,36.69245565312174,2.06511872306124
51.17599072019596,40.83228098639662,1.8683317590422128
45.694495556578296,39.049999932382995,1.7364230318753748
33.68900126582364,31.8030359516656,1.6636737091459086
16.983518525612823,20.33281791843131,1.6222813683474844
1.95201152277816,6.495460535787792,1.5887267455491845
20.368235128834836,7.494089042254378,1.5488120231733724
35.62016015622395,19.413023155987755,1.4802184080661698
45.52059466749067,27.405767861584657,1.3595571266462179
48.650748835658455,30.287781187883052,1.180038626872483
44.546628613947526,27.701938321678252,0.9464984449150635
33.75607534140762,20.09785830865126,0.6570840565353697
17.779535152681177,8.571840284734197,0.30737790263075987
1.141549921019315,5.347706606495062,0.10948290565191923
20.335869237478438,19.88712373053997,0.6095499108374545
37.077269266962425,33.16814811557376,1.1794801739237029
48.9980417009788,43.34968003982896,1.770246063283263
54.439152664021236,48.832083425604324,2.3297359493561527
52.67087444633974,48.52409199964408,2.7890252896111853
43.969343775081946,42.11297890553874,3.0643967417292237
29.55770655965401,30.240317283715537,3.0957382981164403
11.42459055888145,14.456416470556894,2.8707344189518764
7.944170058612146,3.061041618010692,2.421823728060561
25.88250046252268,19.924575896365,1.8080484984457281
39.89735860861505,33.965080554906706,1.110667654871162
48.014896529288926,43.53402297411809,0.4191689127795115
49.07901073903583,47.641391058601776,0.18949333559313414
42.94304854295519,45.97674856656067,0.6629228631098671
30.500942351511874,38.88632905692693,0.9768428629650303
13.565701753246788,27.374196573091538,1.1156871948089977
5.404837449032438,13.082506022521882,1.072182997831667
23.678748660907747,1.8406689627499315,0.8545818369737888
38.6353344133075,15.030150813724875,0.4853652029587633
48.135879346980275,24.342912859493165,0.01696109096600879
50.81161542606823,28.32872795399967,0.46409857121358533
46.22578225703403,26.558915570136577,0.842748652866879
34.93072225002217,19.692841531523243,1.0065368198254425
18.409556577080483,9.25760070768499,0.8905377595588183
1.1153378567304513,2.755840026278125,0.4988656744730916
20.98667756508,14.325539777157722,0.07779372048907869
38.480282368384124,23.72428875332346,0.6989254353512341
51.18727894449775,29.67678918451145,1.2408884057547918
57.351450247524866,31.397279542898435,1.6127270095976793
56.101563752296705,28.592866323730338,1.7484657532594021
47.555184420187516,21.490859595340503,1.6008034437087335
32.7921601443263,10.87264791637788,1.1648864094688176
13.72614787311842,1.9423595807669778,0.49895153263228703
7.11690982320239,15.212939745124812,0.30105248476812907
26.922900815078254,27.030419628208836,1.1215239133555903
42.971976383970606,35.65949873835026,1.8468639434516312
53.03305087285646,39.85250135083305,2.3712889249593574
55.71197042335835,39.04929991992395,2.6111438114954586
50.673779206688664,33.42111520338486,2.5314447243063123
38.70024227441883,23.78369692331928,2.1463937501711783
21.564956061579554,11.440651969715336,1.5124601397196953
1.739886488807908,1.9974298300442754,0.7185552241988867
17.985482347019932,14.791780789972607,0.13490796979317038
34.88669241312619,25.26147113790131,0.9585381037923667
46.65306625908487,31.99067788813322,1.7054938658086867
51.67695033886049,34.035650240625046,2.354652399262923
49.25968590532092,31.098623507260413,2.869706818083022
39.72975507547286,23.614276584488127,3.2002251368006416
24.4406625531402,12.706645605933666,3.3010585779572943
5.60742029098831,0.019597937432630594,3.1597321503031384
14.003345529767167,12.553234234094733,2.7857676213631164
31.497549640660132,23.17021814325642,2.1804876686817174
44.32661303434437,30.307491998711996,1.3632530426175944
50.68119433080763,32.95938659815557,0.40048815973527113
49.729520074498424,30.754347190758317,0.5910250223011657
41.6941031602055,23.984759609222767,1.4694570122986832
27.77350874084752,13.567096599201513,2.122064939500397
9.943087384523734,0.9354437409352911,2.479876765392413
9.322450164450977,12.145098707262369,2.520962951637808
27.363888510272062,23.832438507131087,2.28380207397007
41.6621697810815,32.47603742795911,1.8449596499855665
50.17118300804669,36.84862119036713,1.299499912980211
51.62019785539124,36.31863354688299,0.7590368523845943
45.71861230834932,30.932532949399352,0.3296682573406041
33.22765276983477,21.389735110648783,0.07710878568991643
15.873351662784238,8.946145903129787,0.011730268367434753
3.907309128349141,4.738605506045181,0.09877496345690245
23.330303371557886,17.812761432592563,0.27758779174397175
39.66030873171932,28.47469478765244,0.4861085750269254
50.59519505098452,35.21561394856773,0.6708182733903671
54.58569827222672,37.03929722851173,0.7824277996465345
51.038505962618274,33.629700791673315,0.7851771680786991
40.402480876296465,25.43365739487268,0.6563154765914624
24.122226874948076,13.635845617525922,0.3947395610313522
4.439376908134888,0.014166743751912002,0.045409166348797526
15.92250351458798,13.323305651308399,0.33663038235728326
34.38207998405149,24.577788525193373,0.7135494406228341
48.95569874509191,32.59794848858042,1.0496137669070005
58.355849215374306,36.77012900995003,1.3151122557894486
62.102358618010435,37.04422344975006,1.4882743918576813
60.497996351578124,33.884220431010746,1.5584434102544735
54.489301746911025,28.147918169993257,1.5345581554673322
45.45536148684014,20.923012866533334,1.4420329361589854
34.95321280495098,13.353615131162426,1.3076373378543142
11.613251569678786,8.523844083413335,3.085992308938801
13.460498194254917,7.61774473482353,2.9035877480691354
13.354391289378047,5.377619659918075,2.371162684845993
10.639545516649862,1.6269014598823446,1.503921799851638
5.03295621030544,3.6726139541691563,0.3456027013959119
3.2682018418719383,10.301842204989269,1.0255092125278193
13.547796356972714,17.698841127866235,2.493958192030604
24.623215032520175,24.9467978257991,3.9240858341294285
34.960724686162116,30.886156393400896,5.177880212428885
42.86425510015982,34.32431741906717,6.125903602359361
46.716380428114974,34.27791798212185,6.667929463203378
45.22299806350287,30.212062726965094,6.760955599577906
37.665728692799995,22.240955161247047,6.450706432146149
24.24445404007908,11.108333278502217,5.851125270400541
6.257086477176358,2.0534429681573565,5.059491747262338
14.149697131493264,15.884457628670885,4.126934097775178
34.342593328235715,28.891479456005406,3.0773790890331556
51.57482498621856,39.59832178527289,1.920379856305891
63.43978386758145,46.709591454054014,0.6763296349703172
68.21196528093259,49.3372212896564,0.6235168736711602
65.10097802851261,47.21062208523713,1.929455138024902
54.39260005668021,40.75438993829405,3.1548537446758473
37.40612037868082,31.01261517190528,4.2126600526776965
16.33993459708193,19.39747469408747,5.048226906623305
6.022101060829372,7.379795357792628,5.6328552630895645
26.704463527598463,3.755794623195776,5.951709758344464
42.973253409850415,13.044843763758156,5.993585964898077
52.747990465970965,19.853782409771103,5.750239890252453
54.891233288101105,23.82952052904116,5.228030821046508
49.34028879162796,24.869718985403807,4.4653165117757565
37.07073375592241,23.158280943634768,3.5475779057753796
19.937893828920945,19.21381727544382,2.596310176724495
0.4265705125909845,13.871961768864308,1.7272100354814013
18.672924541866653,8.174954034425163,1.038091372121372
34.614907170534536,3.1787108605793044,0.6078079930330793
45.0763265956468,0.25310153961181947,0.4512705213167582
48.50758437435959,1.580555125636378,0.5155158116483033
44.37460537606919,0.6146629725506099,0.7209840379930703
33.264095837975226,2.521812809575911,0.9702224705859543
16.801471439692847,7.441688993943286,1.1627862059532506
2.6252323296942732,13.50853581737611,1.2224230255825859
22.25244513605022,19.822113685940096,1.0961436062057632
39.34595268688928,25.23607824970852,0.7549115104812234
51.56677141520057,28.47660366853108,0.20392443803703147
57.251181724554165,28.38374314123809,0.5184402257290217
55.58246437061465,24.212447343418813,1.3278324497666223
46.68173085483751,15.874337173107003,2.0951139716834963
31.620055125754735,4.043253614045779,2.6968211971876324
12.33227448268156,9.919297992463674,3.0586792944336323
8.585486049555051,24.20441413807153,3.173372637776617
28.22047651097775,36.8635924146709,3.0840121012573416
43.78365728217123,46.11386099427722,2.8438156028981685
53.055684780740414,50.59324996970653,2.51904064176491
54.75718692651213,49.53695189362314,2.1940149317406257
48.735669764634906,42.89387268374216,1.943246339326086
35.947955476235556,31.377410416430287,1.8108634783953257
18.295887316613893,16.415986547765378,1.8039074844757244
1.6711912235788966,0.028268870605681208,1.9055810327718923
21.127702454851228,15.756521641027142,2.079015709316304
37.340445713931956,28.67811894863441,2.267118554596302
48.02810977751416,37.13949384266164,2.408482938493291
51.68002194990743,40.164752712724344,2.439189725988547
47.77634362098528,37.566830810663916,2.3043429297197164
36.87978657545803,29.93859694646296,1.9652895554180876
20.571126432130747,18.55095033159,1.4043985777762467
1.214233750565524,5.185918145962288,0.6571015205468327
18.40599927169418,8.08988839821625,0.19702838443373188
35.499638152062204,19.205747562899774,1.0777948572283227
47.67818164239848,26.406535823259066,1.9208051451618737
53.280443963948784,28.566672497662324,2.6673296449946466
51.57367467880973,25.414435197865963,3.2493734183570875
42.82905883759678,17.60402170732374,3.5932259569421094
28.262894791467506,6.598341312165909,3.6376519142402417
9.868640562951736,5.631601335928414,3.3634668824699165
9.829263068139456,17.00694982989565,2.8040357511220626
28.109397495535703,25.732036436775918,2.022391961058311
42.42561734379035,30.573914911098008,1.1077323042116334
50.7596836593548,30.97828400069586,0.17362381194189636
51.918798295430044,27.048700241249662,0.6650615017271382
45.70707769579341,19.437261905769905,1.3025808623058888
32.95190413358598,9.203359435678284,1.6609985567188184
15.39989142465112,2.322902286138141,1.7143671078608247
4.519723527767365,13.665116675658972,1.4902776633628192
24.032610850775807,23.327940342902405,1.0592891781190206
40.40573531919599,29.9665107006167,0.5028361317166429
51.33023809148026,32.59216120638297,0.11303277107525084
55.24772220377178,30.769909973312014,0.7277891180507252
51.57134518578751,24.738376245369242,1.2775498682187458
40.767478984745,15.39155236938327,1.698634157501699
24.29529775907608,4.118101277266416,1.9301074485315515
4.408746953116391,7.471938308320185,1.9247626320263775
16.154647423548557,17.83892269928694,1.6745513097040314
34.55128752266552,25.726036591018254,1.2141433363049094
48.23693471863047,30.257801899180826,0.5924037191120044
55.32677655248865,30.93824398292478,0.12552353749116274
54.85390236540334,27.625775197995242,0.8421761954710355
46.90644203362115,20.545833718814137,1.4463062543069691
32.613149252826794,10.342897322312922,1.8328672586185715
13.989152403901933,1.8658368364133116,1.9349194566868928
6.341472790339702,14.525425284219711,1.750624892140614
25.516070730069284,25.823408725628727,1.3212063745427687
40.83375522823429,34.00276296770991,0.7134031608692181
50.143342494113426,37.73126992239547,0.014098055378015732
52.15303357060076,36.380573272359825,0.6747679203980534
46.608625375205364,30.127471593538555,1.241482341216232
34.32950561621511,19.871813412912744,1.5950504456450991
17.090972944973732,7.017958337453959,1.6705786560917522
2.634158457513561,6.776098660178048,1.4306416768378711
22.03304969406914,19.808085685278016,0.9132968872160779
38.35167841523847,30.472667679114753,0.23399065718612064
49.28062892197348,37.367499666400946,0.4804329402090193
53.27221452992034,39.420631742503325,1.118583933959483
49.73912287145561,36.059251511665,1.5674352486813032
39.14028800229962,27.399728192962154,1.7458738515717043
22.939782475226064,14.367880105583149,1.645162545649692
3.4093869589775765,1.3282669516394914,1.3096600222108727
16.685861893859887,17.40308583836122,0.8185641705111387
34.481063248565256,31.3672174018859,0.25912853737133085
47.434366788592655,40.97527533759123,0.30120951149164177
53.70379254948059,44.63269118315987,0.8052556191471101
52.41423940623197,41.66995915183636,1.203664353416524
43.765505374401606,32.43113602670648,1.4517254973975222
28.988808325790046,18.188386566911927,1.5144464115553855
10.169664943840964,0.9198239738230722,1.381379463221654
10.043955769478776,16.995024164271555,1.0562831352080204
28.801639520552506,33.10643993009944,0.5667884520596504
43.438047888839385,45.21657939586362,0.02692014908913906
51.84572196716069,51.66161852348401,0.6549525165357485
52.788751087301065,51.53593486952998,1.2367670191173104
46.09738588665766,44.836090311204245,1.6745173354224123
32.70596160984111,32.4900093210116,1.8944404185172226
14.531789743600607,16.249691687709195,1.8914638056764959
5.820417056109914,1.571337346532607,1.699737867322504
25.46712281200119,18.48781234589456,1.3528513856617608
41.660992716251265,32.267490563803726,0.8941244956209564
52.172288645854785,41.293463986897144,0.38007128875203267
55.57816402110215,44.767985467352744,0.11979095124422119
51.42116958444293,42.71993379815849,0.5384093566864069
40.2572254469446,35.865626422093285,0.8371097017380145
23.585076801497124,25.397586443845807,0.9978843816998266
3.6598743368866833,12.781241643207968,1.028157438802052
16.797747610852873,0.3909864543294425,0.9638548926972079
35.2306702423036,12.635848200027825,0.848819894252422
49.71897698982166,22.777194809759376,0.7288573159116909
59.070276165530316,29.996837989231555,0.6467507495769691
62.89270762058684,33.88887936206219,0.6309142784912094
61.53929314880431,34.48990796411766,0.6869978171538439
55.949096469719485,32.25645835562492,0.7879105025812659
47.42297007881786,27.962622296935557,0.8780037505525874
37.3874837177227,22.537161182919718,0.9108732028266477
11.952214798088972,6.124581578269229,2.2856710466424053
13.318462286744971,5.887334722569809,2.15625240186149
12.651407331170928,4.647918561549865,1.8097957752050884
9.307368098351896,2.4739826287517226,1.2439469395053087
3.0188533885166593,0.4713632417137395,0.47752930649108205
5.954688392710305,4.007807686247605,0.44847037267443324
16.767873342883604,7.9782688051180894,1.4749208325349097
28.06405830993469,12.224813528393764,2.5205826226131407
38.14878575536693,16.48433374071545,3.4873737614855385
45.25007953403592,20.268239025889514,4.270943127376532
47.80826928025521,22.80826772061578,4.778683031999445
44.72764255752378,23.128225466281226,4.963506493728998
35.598540435526026,20.29578080734949,4.85859483815282
20.93637430120646,13.846694780918735,4.5383457033321095
2.236393958820826,4.104137561958012,4.039877174359849
18.318472716760052,7.838538341177311,3.3839009040495616
38.1934930397317,20.320888721785842,2.6196379005980486
54.79792574991988,31.42479880592085,1.8125277172473084
65.86772576709468,39.367756219227154,1.0291406490452326
69.80133076456707,42.81396657908897,0.32059570051779585
65.92337213931285,41.060336620437944,0.26763345968467095
54.63581922305687,34.0928835098848,0.6852827620281999
37.36806711791202,22.546883021195832,0.9164926173039359
16.374131310715505,7.6563591952436765,1.0138204688381047
5.61543696330926,8.822176904657848,1.0921252380722462
25.801798197320394,24.73441268761997,1.268672435210555
41.68865743249273,37.748439883793225,1.6096391364901383
51.40040982043895,45.72902153998549,2.144658683153285
53.897983023849164,47.20100805961764,2.857112309171382
49.07629876610623,41.74962538265991,3.6554374400124017
37.76043197310454,30.208618726636175,4.425363943962618
21.620479496104505,14.530437622853595,5.086449384318643
2.9919193281973753,2.6528514879431273,5.582431819881839
15.4174387594129,18.630129252599023,5.87622692064992
30.88597973949381,31.166193524159223,5.951841236553466
41.080810031561185,38.82790041505813,5.789368390635175
44.448605042736794,41.03347725948081,5.364905316052231
40.471802522250904,37.91565817652296,4.675366858285425
29.7485912090337,30.13190937069802,3.749471396442831
13.89702476673336,18.74192714827803,2.6576608131315558
4.714840962165744,5.1691035346544405,1.501397269081651
23.355000528714914,8.843362268528017,0.3733179425983107
39.33381745176487,21.36758665226258,0.6841623079610649
50.36761971160584,30.547257762762403,1.6873515849821605
54.88364159840561,34.93828791585159,2.652241975410539
52.224862508665794,33.82765550606622,3.5472108433007667
42.71890297219765,27.404241239456468,4.316346929754317
27.6258451738606,16.721540129482214,4.8876316688705375
8.978022420398904,3.4852777866762525,5.175420047577902
10.68523066526308,10.25708694866146,5.1367848661728965
28.671550738536773,22.436172975931093,4.800560683441617
42.51661595312274,31.227879116211607,4.241995847990781
50.333190476614526,35.26360056902229,3.5680659369471814
51.09450133261,33.791532460263035,2.891315857465906
44.77640568118985,26.794048178771394,2.2851160664089116
32.34084094679434,15.046998176864678,1.7852928963280834
15.598688766497359,0.07492025899876402,1.4116214079712182
3.0539974875355442,16.017906610208613,1.1633648266970877
20.984046338898153,30.835631569557204,1.0213049764704958
35.67800419960248,42.067435122847016,0.9497737523515768
45.07031827291443,47.865130363126546,0.90246554448677
47.820466626484844,47.152868648760546,0.8370460511419796
43.50059287024763,39.83570224332687,0.7078896066160397
32.65010868609653,26.85289922395713,0.47106921275150515
16.71193206873562,10.051960143202859,0.10961203393392796
2.1384308935137533,8.102831330595103,0.3538874700041631
21.280732162463103,24.94404915728693,0.8697940994296818
38.01012911000312,38.04839728562294,1.3870912107177091
49.92141166705547,45.63141066551868,1.8574024545494754
55.268677961730525,46.8009275279837,2.2350513671632064
53.230983531421224,41.61879819480737,2.4899618716654293
44.038912986632006,30.999465378275215,2.6068421742539263
28.938398114901204,16.51532805315651,2.5720336512940283
9.999379623580431,0.17775149773625334,2.3728610535770858
10.188318369201864,15.794239190335064,2.0113425290631226
28.87847589625095,29.224417862375756,1.5078298299685846
43.53728068856409,38.25301934277182,0.8997548650645006
52.182657366027264,41.62190709179693,0.24949900567915068
53.650960874584285,38.900293468194484,0.36802989868524233
47.74640076652326,30.580876476467658,0.8795249275781255
35.27256735121998,17.99646137886089,1.2113240172614705
17.942946873017014,3.0512517114108895,1.3131230883775846
1.837637817145555,12.147952653584529,1.173653042876821
21.292961166122776,25.646583710131413,0.8145057697865713
37.65618427404775,35.887012330888375,0.295542645669502
48.56436047717561,41.804388475670756,0.2956309026482117
52.40991070750135,42.8290976125288,0.8689027887842536
48.586614678895145,38.87618117374441,1.3486516050525597
37.584472001541236,30.364561642545105,1.673520232864141
20.928186761027515,18.257863323254604,1.7918958685762885
0.9586293950458239,4.058150852400465,1.6847314105061244
19.51399699416843,10.336063853004818,1.3820137223299553
37.60876976239544,22.93308695040768,0.9413969266890961
50.77179582149606,32.02130731842262,0.4310752414351156
57.130344837799015,36.479149355031154,0.06876311328201297
55.74781342354023,35.930939322571064,0.48704376916113806
46.74799312969326,30.710181034473948,0.7959267150147521
31.310660830297127,21.684412484070137,0.9995777410800668
11.539990444678732,10.054155864576574,1.1039596977747075
9.808324513416563,2.7919654905431406,1.1226742964570326
29.71698536263529,15.347141756495214,1.0807159289853827
45.36087486313232,26.027874917878513,1.0038121202136916
54.552241593647395,33.270701379538956,0.9167665479448612
56.08029502661596,35.754520601468805,0.8407645277161361
49.88354813655022,32.720088201572494,0.7996694376939488
37.01910669227656,24.254324494039416,0.8110486890851422
19.44672633381101,11.402249194243517,0.8644854023133938
0.2894429761812795,3.9705165129226234,0.9338746815352967
19.42615407544289,19.54467467701893,0.9857817098758878
35.343486685024104,33.020261906188594,0.98474236247865
45.879077246929285,42.52531719047733,0.9176182545961415
49.59223702889067,46.84541314059865,0.7832225486593619
45.965705233417516,45.483070024510404,0.5754502425274111
35.51297469452266,38.61853431666368,0.31000123894314247
19.74884188819314,27.04242910026164,0.038437587346939854
0.9949996697346538,12.117465421358636,0.18851010289852352
17.966375765375773,4.2696455085422675,0.36070172160926117
34.335606200868504,19.870279621826725,0.4941261465935203
45.74019561414656,32.38889332722649,0.6004146580827613
50.585559791419804,39.913135151282034,0.6900776788313906
48.239131049882154,41.34970149260476,0.7685611858395367
39.05543940619095,36.70624508689598,0.8275477665047338
24.293397434900033,27.080865859469153,0.8526039985136796
5.936169638878899,14.359816308334148,0.8383833189804469
13.555636995218531,0.7677935467503098,0.7994404783453947
31.53043806238921,11.580066844306893,0.7434332131381772
45.48485937808866,20.995045845816062,0.6651626879951786
53.42534454291881,26.34526730613415,0.5715351313338882
54.17762284338465,27.05717853347536,0.46277265865777195
47.584650687397854,23.091308988753156,0.3385992995945535
34.551460580110046,14.963273156856479,0.2227323653121964
16.91778250050104,3.7619702166499915,0.13901975070361633
2.8225993637175035,8.905946642979512,0.120488258025895
21.896459777707427,21.08718283886957,0.21183281628568257
37.64466087378181,30.800865244848136,0.4139105921822035
47.887967990647745,36.423209480165916,0.678484180204325
51.22073577684138,36.998176822041344,0.9479311277072202
47.19593204751694,32.38717236252331,1.1690741875314936
36.397022448974035,23.234799539076878,1.289074159519278
20.37793555554696,10.795652245343042,1.2645307361951448
1.453857720451441,3.2994462977773433,1.0804024361084306
17.63518715998088,17.258324552751127,0.7552396568126528
34.404603583962505,29.474853227403628,0.3352745966908305
47.06588366256071,38.76817368364078,0.12979926460032326
54.553785651314435,44.398655309234115,0.5902769779668691
56.602167197392504,46.117098124329786,0.9920901691709099
53.68653919142542,44.17579473169705,1.3005505121871297
46.86527625497907,39.27841345644092,1.4906127730134966
37.561176689634095,32.44910722404788,1.539293852877979
27.312088506466445,24.82524180939625,1.4506006137687304
12.611670086181713,6.303716172887908,2.622754979217221
14.02720190164059,7.827642721942884,2.5056186810402803
13.263405051908284,8.882809402291796,2.1009004941703884
9.705958227668551,9.013241083414472,1.4329523534885111
3.162554069128249,7.6786934864537475,0.5557451518061072
6.02714984942478,4.398219158735014,0.4704504507587539
16.982655155506876,1.046326654281926,1.5892147270075785
28.375320730178895,8.413108226202844,2.7248092555622825
38.57911900670823,16.907200916460294,3.775247425629904
45.88522108137873,25.26147822921974,4.636265102181845
48.74414656164581,31.963870181091334,5.228517752146767
45.99859110107538,35.56187603120261,5.520201448924705
37.12589208151276,34.9634838780133,5.543942206931339
22.527491090031354,29.72324207534759,5.363258889484201
3.6503102302616655,20.155431743055797,5.020791012524741
17.258534613921395,7.188370034501872,4.536436336357324
37.51502984629419,7.7629385075087525,3.8882815540280316
54.39030828209064,22.865566446374345,3.020716009091892
65.57528419021799,36.0184066282382,1.9210260645799622
69.5333012204124,45.1011029082528,0.6349761969704087
65.7094533382329,48.39326455015612,0.7546917039690245
54.59314030864428,45.055662535232585,2.141367090502742
37.61615828470566,35.475391558451726,3.4123174875075573
16.951013643218612,21.323565870415642,4.45253866936937
4.784196059404945,5.216712660069218,5.174681415409417
24.850073537049145,9.904474426042801,5.550512838250864
40.71655471870369,21.480613196547548,5.5982199156734405
50.40883174851943,27.871691209258117,5.349129982990374
52.79036294456667,28.55013325803983,4.839958642054499
47.73785689051001,23.989955370457533,4.140790748892545
36.17376621636251,15.369499580938204,3.3529066483047876
19.931184118613753,4.268129940383857,2.5826028235229854
1.4678029952793223,7.5362122391733415,1.9299405530929974
16.506300165661976,18.196864992381414,1.4677149159805898
31.411358807247403,25.942771678826237,1.21869230711092
41.148723132546955,29.32375490349318,1.1435651397621474
44.35813423467952,27.51641904783551,1.1549923121942394
40.569278965349596,20.579818836291235,1.1686905094872173
30.267469644880215,9.5272478519594,1.1377771284797384
14.850316965212555,3.8785169375821558,1.0395084958450964
3.5394448301204897,17.536255246496058,0.8487449775042352
22.300113576598868,29.464590914333204,0.5441015004286204
38.740449771465165,38.133250662072186,0.13508365012249976
50.477494357138355,42.576109977404855,0.34111346007880955
55.79812946753929,42.34567683228368,0.845290374279972
53.91270355030364,37.41209945543016,1.3470906005175125
45.049598193489835,28.118215999412985,1.811559659862578
30.38471204571213,15.246662737013029,2.190009104281108
11.85129030791696,0.1064034954206233,2.4387846985146853
8.126152968939744,15.498201282681599,2.539594835615247
26.934054271208115,29.477239376486846,2.5089210086594553
42.07711316745606,39.819411417136564,2.389574402539679
51.49197759939256,45.01108422320086,2.2295354096351288
53.837827181095506,44.34742984715964,2.0857311668380167
48.71764882556651,38.02231815769321,2.015648530996561
36.79306460314976,27.021228453392485,2.040399236852405
19.735707716418066,12.895980953504214,2.1450942975324487
0.0037589657641071395,2.4946110082399255,2.2912570388515268
19.568266989993383,17.211055405449027,2.4139603059526373
36.13337150549348,29.42278800477518,2.4477486595040245
47.33233238317843,37.59687162540532,2.3484774990704533
51.59518991161557,40.69683607491231,2.0845498808688014
48.341159944372485,38.359961890684204,1.634391927620946
38.030712022019074,30.997590624610684,0.9957230509239502
22.092231816488184,19.76162270178513,0.20160084546294232
2.727493382527345,6.367337043482229,0.678829218836961
17.364693183388443,7.205166905003064,1.5591945604199975
35.33506735167614,19.05500727994003,2.347677086776889
48.58237185740465,27.633368043656784,2.9641230402252483
55.14710679695708,31.917115410511716,3.3564146934174923
54.03567582244839,31.489952428113366,3.497916409436911
45.39553443858248,26.53690110576001,3.390152736802028
30.4924385607024,17.805702501580285,3.070829209180972
11.50199902066737,6.546852898691265,2.5954447156797644
8.836183854872804,5.608102790433871,2.017484025814498
27.63907115051588,16.843964787234945,1.3921065814633773
42.29335765394077,25.417840238912508,0.7555536425700208
50.80174889290602,29.938653214642045,0.11742878220956936
52.039765538031524,29.610208796204287,0.49140609149707215
45.883144208424795,24.37686747052663,1.0112351777376711
33.20679625996273,14.945651916519317,1.38668911538614
15.783666022305203,2.6763612482570194,1.5830917539229812
3.938507189195539,10.637077685378042,1.59805229066354
23.168326068880912,23.037537671692636,1.4484735601447853
39.15904082958935,32.69456291837686,1.1583918716180788
49.609070480113495,38.1664314818815,0.7723563335093016
53.006105786150016,38.593355956677165,0.3643684942701039
48.85557336992787,33.81485559118738,0.018672199652822546
37.7492402977127,24.38833610829284,0.21261651210285923
21.26236384357536,11.521266696815248,0.3057000814544843
1.7165240796397387,3.0811454226005877,0.24758634981194053
18.146401470005607,17.465161060524267,0.048449980913523746
35.54249282605139,29.716037568381502,0.26660707451689075
48.036024964798074,38.225665988394674,0.6583657997940395
53.88191443850008,41.89180864140486,1.0647511732406492
52.277328403476965,40.22337499436376,1.4020589796498064
43.48824077463393,33.365951970359404,1.5905987376493296
28.809022745139572,22.053412713983356,1.606369838851445
10.361836697306218,7.518443884762302,1.4717682380583657
9.225989688612861,8.603249751027418,1.218119542183915
27.216463928469448,24.38619205280887,0.8815713462074345
41.14911298387875,37.77642631007798,0.49087618982719544
49.165954723631216,46.82613205969421,0.06317560877042096
50.24083879840046,49.99336484811065,0.3785404135591964
44.2853277363852,46.45387125898729,0.8014705572886045
32.14253867832263,36.33620847198232,1.1896563713758477
15.482078776480483,20.79250380211598,1.543040900227318
3.4121250834501025,1.8550274971888372,1.838734485097775
21.938033928204103,17.914966865197464,2.046430902359879
37.519926575399765,35.87983586507022,2.1596246563265913
47.97517058158243,49.73430994030551,2.1877531829827133
51.840236982350035,57.79214459510761,2.144685527165612
48.57269001649405,59.122622163057954,2.039551770093748
38.607033555572926,53.57117755052573,1.8727066970007271
23.280101694783262,41.735860669336,1.6299461866799438
4.63544988094624,24.929792105672192,1.305711447055393
14.849717692863223,5.125106083531399,0.9254899162726722
32.55945398869844,15.18409887409026,0.5072966973419714
46.046399581501426,33.269292340049596,0.05863273676023289
53.352076567978344,46.58798829665702,0.39471738306450704
53.30901074461746,53.258511843142685,0.8243082840619425
45.76641903906914,52.45280492936861,1.2118201879985206
31.67678223033349,44.56291616025935,1.538443568291306
13.012354729038794,31.092408071297594,1.772726267675847
7.5127204567262815,14.313604213153141,1.8887877213866209
26.884998723812792,3.199596826995596,1.893925420850531
42.2776222288167,19.009932996898023,1.8147416998679091
51.48962181003681,31.12202479581384,1.676513609809092
53.260899142284714,38.14152476435895,1.505189806991039
47.40021907054039,39.33709805382386,1.3272753794385985
34.76436320492787,34.66870064649456,1.1511047816676805
17.126045879954205,24.817525562927187,0.9646434124983447
3.0552659155281683,11.200701338914156,0.7551603748459862
22.935688495732652,4.1136238883186165,0.5143133175512747
39.66262208805822,18.66745299458378,0.2513903098304898
50.79228324887427,30.036865164974312,0.015338948360428671
54.675859437495504,36.320368687695264,0.28863137246446224
50.742208951874574,36.5529069780785,0.5675388718741182
39.604601267367585,30.917536305617897,0.8327151827207417
22.948696760967636,20.664234155690252,1.056889383030908
3.230996264014763,7.769995749974704,1.2027368093079656
16.724113687882294,5.515406850165058,1.242129634399773
34.393486330001984,17.274756003012165,1.1637484860462646
47.97872121746629,26.23949821762876,0.9707161277197771
56.41455373296373,31.735984193167184,0.6966767889728128
59.39634967573873,33.64028990744765,0.3977069291482008
57.30855252836312,32.273921025061334,0.12584773224925433
51.09128372983378,28.28556616864496,0.08171929267907091
42.07270053284523,22.541928859173634,0.2072683967465437
31.757815560328464,16.02251375991945,0.25556945887899035
11.9092509420574,7.793861507494864,2.6042008444174134
13.38874280947363,8.77138517881288,2.658295598069105
12.847668304395878,8.451474617517414,2.4738387313681005
9.690096479822342,6.485970353109934,2.0354389491941562
3.6915750676756516,2.7685264719774496,1.3465769056122145
4.895091701923696,2.534269858717948,0.41995195678016944
15.300382209278002,8.989894493672363,0.7128499533294483
26.293171113303792,15.924379250676248,1.996845474288584
36.31079958844872,22.457564368782297,3.3500935162411127
43.6717207584108,27.574551593997423,4.658733533865083
46.8306140547293,30.243709015603994,5.7923720406250885
44.61918651233336,29.58050875784262,6.638188205051126
36.47880972017726,25.053047108681202,7.13297926375014
22.751828881130002,16.729779046857793,7.239660700085258
4.804720342524357,5.404756756459833,6.912657912379893
15.23999471386468,7.536316702134714,6.139246234635643
34.86037068780155,20.358908307906344,4.974840954626841
51.47686884457933,31.274242034364637,3.514421921310837
62.8602620873175,38.77170327753718,1.861142601975518
67.43840388877015,41.837743843895765,0.12088083387449056
64.5124320189191,40.05870327898319,1.591737742929303
54.37593261438944,33.65154952713849,3.1568908579833277
38.2746652245846,23.436179402340485,4.456566393741693
18.260323373201906,10.776323862221028,5.398317260531614
3.084757341370534,2.5497304287969498,5.937116517359837
23.008086460643256,14.57297985795398,6.065820194737681
38.97059742682639,23.457434467484642,5.819466892530837
49.00759709500984,27.867420550387873,5.270191008101441
51.98319420024968,27.259219998569524,4.509032443818832
47.725431552074994,22.00316057348186,3.6503898709761886
37.03493740298953,13.280037969785415,2.817484603537966
21.572389982634228,2.793343301784753,2.12329265343707
3.632878831286245,7.595394769852283,1.6601461345675896
14.169197765367857,16.193461879344703,1.4771782590012177
29.23900911791461,21.68983782307415,1.5759788565228043
39.35366705293822,23.26738353571602,1.9129243775788494
42.99270320599382,20.657456875087703,2.3848865178558767
39.574072802898876,14.16620701444496,2.8391477354202244
29.564762149687944,4.679911356776483,3.1218671262507605
14.429362305543341,6.388939389822984,3.118771312077797
3.5968591741230482,17.283644209122276,2.766371803449005
21.855871485719288,26.227578428748235,2.0440945106207047
37.667106339878664,31.798236456939865,0.9732961792089022
48.72082633876513,33.219381287971814,0.35360761540017
53.398868128851284,30.469659946784997,1.7716390762685192
50.9796708742201,24.169982709692967,3.094124706802411
41.72377453854126,15.325260258124064,4.148898663692309
26.839542487071803,5.066339296548445,4.797705027003371
8.328298710325768,5.50371083684396,4.959008667420673
11.274644551477927,15.328080315384891,4.628312141708156
29.244606922107025,23.35002087918935,3.897576519731873
43.05336350178603,28.539042798134837,2.934972110948497
50.737295711363366,30.047141204980633,1.9292826740930735
51.204927529645936,27.447739387949447,1.055731975472459
44.41165893279024,20.94875017337043,0.449179521516011
31.360765870620575,11.445691844566454,0.16786392897439373
13.949133024472827,0.36228939540499483,0.1966467555259226
5.326765958831807,10.65832322212299,0.48969529465534023
23.73947534975828,20.091437702145903,0.9822407821391534
38.69459190493769,26.75962680044627,1.5825292505408086
48.07337376712919,29.892423999763125,2.181125844641534
50.51120466657951,29.086694935875776,2.662367384662384
45.56915827565301,24.272183941013463,2.937276296378365
33.81619105659654,15.755082535601398,2.9597459396936956
16.798588513213026,4.333800790448108,2.701996850549102
3.1422716695378305,8.625427387846722,2.1585267405365256
23.187557750035882,21.284511844813117,1.36274458265409
40.453290112898436,31.649996282922064,0.3889157805557103
52.43262361142921,38.033714208023426,0.6562662762258169
57.38481954392131,39.48025225754142,1.6573496396651763
54.596949759631954,35.978031769549915,2.496969434978316
44.472734651618964,28.379555119692466,3.0681921725210723
28.441142239336894,18.08946912254127,3.313636104750504
8.722561431191915,6.669087759081205,3.2359211635184697
11.993698472268044,4.472543730297149,2.8761413793140163
30.913584477689728,14.214089278864334,2.309274141230563
45.4960340243633,21.708202305872046,1.641102601145187
53.783485381986736,26.317740580835345,0.9620343175075305
54.67531900208431,27.616249841046432,0.33330078812423336
48.0829217527132,25.493988912815684,0.15997259231327973
34.95222618336196,20.30428712543087,0.415128054030622
17.15025143928967,12.933608111175976,0.3645366062927907
2.801382238339424,4.701155994000484,0.0039017256828607007
22.09712479589745,2.9153247943587184,0.5859552274813346
38.052989147317234,8.6215967997736,1.264550629666724
48.48502830986173,11.58216552427577,1.876869789024586
51.99664804218979,11.523019710199835,2.280944940722476
48.151314828629665,8.649730971803843,2.3879950704635045
37.51395642168166,3.4839603404686175,2.1694682933450005
21.55679236547484,3.277579892376012,1.6438132310687905
2.459240368107743,10.821525046992527,0.8872866646910647
17.16980484421255,18.19489472757091,0.011355664958236674
34.621958293284194,24.28956725526867,0.8793339504542362
47.444087007997496,27.928621565970893,1.6924476756342415
53.77906171758334,28.081166012719727,2.362470470235875
52.64167459611056,24.15241169330871,2.8540921960199617
44.08049408077114,16.230826052657832,3.11492631033779
29.200343238850003,5.1690982465486455,3.07892551981521
10.038380890459607,7.559603435648789,2.7225263748844934
10.708926984207542,20.1868447378851,2.0807199398421155
30.07593497417968,31.031513669552485,1.2324514074839632
45.273957828064574,38.802290935851815,0.27427387473938325
54.12296593085818,42.73290498201092,0.6987699554510123
55.38112973343914,42.557182221999746,1.5903288448829611
48.90990889642107,38.40429090528173,2.303881290698831
35.66905724157924,30.709090303563407,2.752922720888113
17.55249458988423,20.199894225219218,2.8764042525777533
2.8995809357990625,7.937821047432264,2.65884480564752
22.846838702442803,4.673760097249394,2.1312974199937833
39.515472140450335,15.985223337872833,1.344725249225351
50.5678555018756,24.35000778338863,0.36888294055501836
54.429413983020886,28.476383148981366,0.688864851956195
50.52454560292373,27.76091261351363,1.7051506469645827
39.39169909956637,22.491576997971666,2.5614530263665007
22.63627989920613,13.822387002644847,3.149244497506068
2.706716029871788,3.5127815832666247,3.3912301803116467
17.47576820526006,6.46331891805061,3.2552792734863543
34.97656100125214,14.308331422281627,2.7631823345467477
47.297041161071554,18.68170771822569,1.9836864518701105
52.72354997812298,18.830750322224223,1.014746706013727
50.539002798149795,14.602334348827592,0.016464785197697757
41.090399160501995,6.398406035421603,0.9732312475846523
25.718105366626975,4.8528294402742365,1.7414401925294947
6.567320635046779,17.7108843507455,2.24552064494179
13.691308645313311,30.298744364625303,2.455287715466358
32.21199643240296,40.50728811664264,2.3780128343086475
46.36277411838487,46.354343198797174,2.049594212411584
54.103786792846115,46.433611129643936,1.5362339022005294
54.297327712262806,40.290684626469165,0.9313567841000859
46.88062220394606,28.576967297587707,0.32656242016567877
32.87020536064015,12.916599259941318,0.21001753896035857
14.210606449509047,4.484422919811373,0.6199439547201179
6.5131796346365425,21.334646143134368,0.8587693174887999
26.443689156891217,35.66206893792753,0.9144006711337913
42.84027848048791,46.019862852304534,0.8091682241418736
53.44438732254906,51.504682914816506,0.5974474399655668
56.7732234363371,51.69577419690249,0.3437422441334667
52.32858469506926,46.62469956064013,0.10270624538812623
40.695969377473496,36.8127927110818,0.07323716780038729
23.488030765756207,23.3402001375548,0.1359752559442718
3.117740450439321,7.849285305861158,0.058331195905494355
17.560953825388626,7.617390222190644,0.15305566878217947
35.94335706307137,21.14104159329841,0.4590973297741675
50.122195339307034,31.331160282296153,0.8099700970616237
58.91904003816914,37.42176868207409,1.1600613760297367
61.960837569481605,39.344353844302084,1.4668314990684101
59.63905919862993,37.62618928342074,1.695733958815617
52.96822594919903,33.1800490254297,1.8324456870858512
43.376724941067486,27.064649589373182,1.8756847885297565
32.465604842794306,20.28711789440097,1.8254435930292519
11.211665191407338,6.524045452632113,3.1449079248445293
13.19852272004118,7.731060346134445,3.181746525954656
13.489350797378169,8.012915336835956,2.8539292410921817
11.354475180227872,6.9279142853476765,2.1276470528951554
6.351610852362959,4.200810532033582,1.0224578982608592
1.5111742048306227,0.18456799204219393,0.3909808859996094
11.676488545806661,5.939057058259269,2.0053362738314924
23.043346313818695,12.473338323540068,3.678266438831045
34.06161395653807,18.945253692247512,5.232869611467372
42.930972729143946,24.359366518651267,6.49106005694774
47.878875334336875,27.710473615713767,7.312527880062683
47.45491138648538,28.15535537727281,7.6148569945650815
40.82180572226847,25.194905429706505,7.3904721512851905
28.080737075979577,18.835927505701655,6.684098143908961
10.42690453117669,9.637422489118025,5.560035230550866
10.05373798508759,1.4092748525086454,4.123220959945971
30.70769476820413,13.047671936008648,2.5147495918303684
48.68976873657008,23.923821554082735,0.8788932368361544
61.438735463013685,32.76496570633273,0.6462827512734124
67.07866961874473,38.49590158138187,1.9534675220150712
64.72416014150355,40.313372282343884,2.9755435374776864
54.64864907114118,37.771117445288375,3.684829736424489
38.246320910749624,30.876160396936722,4.105819687552005
17.834766313160216,20.195651214764617,4.29759192706386
3.700248674669749,6.911904531441569,4.334886609591993
23.34837761599971,7.249442004162288,4.290994603399562
38.42586344603062,20.25257131379222,4.200293031682489
46.97415231441554,30.11917106675692,4.057460241180016
48.021276854794756,35.32171072497856,3.861010535599074
41.68433176929223,35.080399465368,3.6373811759240513
29.12280413824683,29.479425808529186,3.42053865325827
12.362669426824736,19.403762736110252,3.2181409754541175
6.005146874762922,6.363713921731227,3.0003264621036365
23.206214023332144,7.729282891629916,2.7261906106472784
36.66782115269971,20.79432316835705,2.379952623086994
44.379360916080564,30.819736639530763,1.969079704541157
45.16818472006721,36.124310183685644,1.5148598403871862
38.845102343901566,35.642510437275874,1.0585326315990138
26.21912406196241,29.183991468414355,0.6433487543957899
8.976087567458068,17.567219271350204,0.29185502423817683
10.561642462810095,2.551222864021647,0.005934217640458146
29.7543595998133,13.458362689153553,0.2986003015179602
45.99121600915289,27.873442139858298,0.6490397720825782
57.0264799792206,38.424882047823886,1.097597511355356
61.27519627734271,43.563211888845025,1.6333653330489555
58.027972789788414,42.67342896436537,2.1786193465179426
47.5726175098964,36.085683055135625,2.617735930020152
31.19691090959502,24.932508096255987,2.8570172457445557
11.036502269394767,10.932026826415541,2.8581380137599837
10.2151276222311,3.869333500234438,2.631540314247227
29.688212716086912,17.38600337439159,2.2006424567864196
44.74823700572088,27.793914063489915,1.5856104265753213
53.37681570028121,33.80172245516326,0.8448702953609983
54.45993582436423,34.83525799371511,0.08451787315483295
47.935147008510405,31.101482048098863,0.585483627956344
34.80011308384045,23.511760218589114,1.07000025733736
16.982272805714317,13.473997271218876,1.2882506096717008
2.9242530862189886,2.619563501369043,1.1756235426716437
22.023778707896707,7.465546117295909,0.7154290106793627
37.53914512176457,15.455541833482567,0.02809294110137211
47.21511839180759,20.414885842236234,0.934059384532005
49.652141526665204,21.856559287108173,1.8628703640541426
44.51364560724295,19.759464341743016,2.689841257382729
32.564946783887486,14.557205002347477,3.3264773161621877
15.553121864209773,7.099702304818327,3.7296234932974865
4.05724224655166,1.4288096681937286,3.905776121198718
23.445000271605952,9.664887401937515,3.8668376705124694
39.82702861277221,16.278204591877753,3.602009525502994
50.85639720082662,20.180495724811717,3.104805707797936
54.96941005144017,20.6924345143044,2.402948774759001
51.60989964779264,17.636535194980297,1.5702044541157691
41.30443725025945,11.347591065210247,0.6885388436056824
25.57828176296085,2.622824782272261,0.17886455689927672
6.710616931958639,7.387602261571632,0.9869445648619274
12.624655425145729,17.31609358877452,1.7154880082811603
29.762291075487376,25.724488576636094,2.335558496266179
42.419437470764066,31.282079440240647,2.8072476473066006
48.97382233870449,32.94405697761763,3.112526475656776
48.63563142675565,30.125855242259675,3.2478170690406274
41.52117811761289,22.858275651423906,3.22748162953828
28.628740007597482,11.856955652155069,3.0800142874902146
11.733694046510418,1.5240719739952093,2.835679471521876
6.811523773935752,15.469006076678607,2.5427319370567805
24.379460015403406,28.00101832804478,2.2705944411080514
38.43165322820877,37.32933339802161,2.080820070290231
46.90431727629821,42.14285988376798,1.9771134848523062
48.54457194098101,41.8044587985091,1.8974429899650498
43.105752787360395,36.420938865585946,1.7579793417802971
31.362263447614396,26.775094391855944,1.490019452327401
14.964442375730282,14.170905641285085,1.0723157356163886
3.823858329806227,0.24174645424304328,0.5363235468925531
22.446740000882116,13.261862971361854,0.06362936460171856
38.37802971469733,24.677624899964446,0.6879254245398457
49.42061501201298,32.62396239155419,1.3255129472447684
53.974982716200685,36.17075911343505,1.9422785190546223
51.26657509967186,34.953708405466024,2.450971473846693
41.50481819149364,29.227783451200835,2.7672518072641923
25.917633056517747,19.849217608066212,2.8479144150650795
6.624432063071046,8.16299586533388,2.6775159709897527
13.656265600130258,4.184241693058177,2.267173413126608
32.028605492590025,15.471638762600955,1.6595409333832993
45.87759028288472,24.136984010014842,0.9223875571013919
53.26943667479057,28.97899161827353,0.15386909739700005
53.22592840173118,29.313975747900116,0.532100989519102
45.83255742436783,25.07765121335397,1.0558071361618655
32.188179551625154,16.849121505670812,1.390193476998839
14.231624537568486,5.790337064829852,1.5375001064846952
5.524618537243729,6.4968190117443525,1.5116350379873449
24.33079877912435,18.20563330067539,1.331335950398143
39.56636239188103,27.609976361421854,1.0172315736894453
49.101224882546525,33.326583441327294,0.6034941106227666
51.61205444001635,34.511435679563576,0.15458912895864899
46.7849955326875,30.957381583914877,0.24292652748945748
35.366378505763876,23.081887464430004,0.5188531574057645
19.051322131589618,11.83545620248881,0.646902077525472
0.21797145125296744,1.4258448188109951,0.6314167881461363
18.435005306567202,15.082595503563859,0.49409709832434434
34.274813481054004,27.40746233596749,0.28222662065960497
45.09533102872841,36.73664704819402,0.04673292920721915
49.41067052701243,41.67426920070158,0.18107585240103985
46.64738502069918,41.32508485424162,0.3566102620777092
37.22136754601554,35.49690147917686,0.4192607246318584
22.48294933964161,24.80972474045965,0.33964640687971454
4.525462951260031,10.661705698079269,0.11902760077995488
14.116671646031948,4.976467617026642,0.22949284564361275
30.834459540199365,19.9064480358891,0.6637977853661909
43.302764544420576,32.089077067080495,1.1089910973233983
49.781508883364275,39.95407071008116,1.4862610182454108
49.339904848202444,42.5825496702556,1.732274478725769
41.96369832752972,39.77014142867604,1.7990507232023134
28.542314362115242,31.99477840937605,1.659508654359502
10.762768677688722,20.335265019608496,1.3176629788682421
9.080829940990622,6.344652096265098,0.811949983772417
28.344265684357115,8.128965802645592,0.20699396009792578
44.349786559061265,21.173143181994064,0.42892584171036274
54.74894444653891,31.097171460624956,1.0309222468747365
57.884035848863796,36.697063349620116,1.526292063017961
53.08230908331915,37.42044538317214,1.8385907794314065
40.81538965867534,33.40935825904182,1.9048120891267353
22.679283599190825,25.408612133553365,1.7133979823130108
1.1710776669178113,14.592548287780732,1.3257987653224828
20.696363193477662,2.3900451758072436,0.827387915367613
40.17231562787801,9.753204883259764,0.2944099487226472
55.2352406136041,20.65052857438405,0.19752795046914828
64.5793778786895,29.483875093859094,0.5870173621684637
67.72058896517365,35.76154361445847,0.8429826768288494
64.9919302246501,39.262491756148115,0.9585187959463713
57.42971987107085,40.0022551613306,0.9406474197365976
46.57993557787238,38.22214751289039,0.8152955973499588
34.24020967202411,34.3773380911881,0.6279621023744292
11.943507200020335,7.629406421354877,3.2724147280611398
13.124176411897698,7.246162899486526,3.2483457438808414
12.27983181303109,5.456931730699986,2.8501390267886797
8.810956659272094,2.297390218291368,2.060405326070512
2.4969717401721168,2.0563186735447867,0.9008880949107076
6.3839062454752185,7.313011597080284,0.570920718341034
17.018773114426143,13.022944556274672,2.2523248236419207
28.125385211949602,18.52075946468006,3.9964598960473605
38.09095870600848,22.91264972534351,5.631584122625173
45.18370697201943,25.19139027402297,6.980317003546602
47.81345526402269,24.458613658392668,7.8698585467962205
44.804649208074125,20.16391199504952,8.170656355779009
35.679178550994656,12.324805841802494,7.867653981149472
20.91644620327494,1.759115693889495,7.044171273662598
2.002809067014909,9.96482394885143,5.810100004826734
18.80784729666432,21.04330698765221,4.288601655920381
38.83246712579852,29.902852119210714,2.6089957037046165
55.353569818277975,35.40546772254291,0.8836687470301574
66.06598618044389,36.932581873905754,0.8016889008275703
69.42669720154004,34.29878103897604,2.3718517367484773
64.87965155271404,27.674163673799878,3.7335082913421256
52.93306403433934,17.604232732761933,4.790040159267627
35.07565638072008,5.056484670786502,5.476861331341061
13.590393906037805,8.536048005569619,5.781844653640785
8.738881550968479,21.38701287370125,5.7419702067905884
28.994384906093334,31.638285019949375,5.422915621401986
44.52015613023077,37.72638891730413,4.915312907905062
53.31484115133847,38.726853856282226,4.314739118156377
54.334106832655415,34.51883869165254,3.6832780273824985
47.64117295180698,25.74343987202116,3.0385706602510867
34.384110453561576,13.616373371535067,2.3893538220796593
16.606781533901962,0.3095361009215602,1.7835021076655442
3.0622534992090795,14.356154946808894,1.297876657453098
21.778239506002148,26.87783014081059,1.0007841981741867
36.855590924947116,36.37243721214775,0.9252369893018146
46.120274502190135,41.610069246315966,1.0532430182542516
48.19885621011921,41.795373694524066,1.3273211706751133
42.71555728134311,36.72947992684193,1.659787503586051
30.378430874610522,26.919651796026265,1.9470468447102094
12.914871029107754,13.560463437349068,2.1063989885849743
7.166520276816001,1.6230411204795057,2.0948128902322374
26.95349553875487,16.626958219380914,1.8908214401058157
43.5774961189641,29.459046836398844,1.4706111396779502
54.65042021402508,38.3999165522656,0.821006227756635
58.61049854732071,42.20739980119397,0.03831778996243913
54.921158250777644,40.27187481943252,1.0632353722808054
44.11402746040533,32.72503671745098,2.18230633049824
27.698045365252327,20.492943482272512,3.2754488371728554
7.9443546523598645,5.259882302367962,4.187940145125748
12.427729288107885,10.713610576969907,4.784736128001712
30.620505838140783,24.934979207280364,5.0037669438784045
44.155971504645315,35.120528485802964,4.864425420069274
51.23870786063946,39.619269006978456,4.4341982586911275
51.00526010139809,37.70280590674055,3.8069985215023703
43.628475707929994,29.651870001727257,3.097355093808341
30.269802354603343,16.652644611606462,2.4221548130037545
12.894925721559762,0.5620738392776671,1.8797641481374359
6.013375830620149,16.38967903888366,1.5248703623585973
23.79805725948445,31.881307996245404,1.358892998499452
37.97460642721042,43.746905182049616,1.3523815163587725
46.55960159828393,50.22845490008681,1.4447959453187185
48.33924695519572,50.227675505835016,1.540906460448081
43.02884432120001,43.521049488480124,1.5395361563927068
31.3207389687466,30.891671005564387,1.3507316589249547
14.806741849922503,14.083873990547692,0.9140449916649551
4.237423452117127,4.471850078598221,0.2214930537105557
23.17638878280485,22.104804471273066,0.6815188022735076
39.383331825080205,36.39625368232505,1.6959565433252866
50.59101439006744,45.58147785175558,2.6871247230330235
55.19759219446816,48.76483151291662,3.530408131762605
52.484443448768836,45.92541765025112,4.133755418669804
42.72494651463096,37.777603094853205,4.432310585724639
27.184061183815814,25.597802580974157,4.397229579270557
7.976894495757215,11.067120002694208,4.050449221952751
12.20944084408293,3.8882442165677964,3.4510678390976977
30.497335833781694,17.28324435960529,2.6774067185758765
44.26329138439596,27.306344753173388,1.8178410506092364
51.552510757856886,32.58062451643638,0.9577229336234547
51.373843788319114,32.40258700459529,0.17012504929109568
43.83511015778042,26.8880215100205,0.49680400471764924
30.105996912793923,16.968612181569426,1.0147428505650458
12.223118710150636,4.237908150894564,1.3639481799214128
7.218659847097924,9.324327019869308,1.5560625655985285
25.43421106378254,21.675144931867738,1.6374880530510738
39.8310245261599,30.997708817605098,1.6622220674045065
48.35874516034096,35.93055750261735,1.6731554814455074
49.784601086585944,35.729222921771026,1.688297556127205
43.870031705805005,30.352401604910813,1.7040143793184102
31.416781389154913,20.465845193376683,1.7009201584904587
14.16384096332971,7.363298972693986,1.6418340922565666
5.46033191934275,7.195067819475322,1.480597287071098
24.692120961586408,21.229829607318035,1.180833695986494
40.824401912625575,32.83128599601965,0.7469006099928875
51.581385146803676,40.41898337085242,0.22906974718315135
55.42776229182901,42.94980501530114,0.3109089854447687
51.76451299015437,40.06657610423383,0.8177143314323801
41.00658934961376,32.16431548206931,1.2476474378563172
24.541956906811844,20.368019177579257,1.5806821048393662
4.555780298083961,6.4027435773713,1.8178147612619289
16.254757736746747,7.670537970422579,1.9719439532164178
35.034456306444426,19.817878906551122,2.045176970037484
49.15944363319801,28.40386694517699,2.008446635758186
56.61067236244186,32.48246289971274,1.8409716887981544
56.27480604698317,31.91815310089451,1.5561959031064447
48.12269343414834,27.291949720340284,1.1722439789243968
33.23709254883171,19.65650870226126,0.7120996678157787
13.682189097720455,10.255181098942913,0.20421521789128075
7.7746108738032715,0.3068692171908612,0.33789864645420076
28.053892549339043,9.088215915523302,0.9057353554742748
44.2175326213356,16.944804629609855,1.4847194555174443
53.91581332962781,22.375590594854945,2.04550031294536
55.74946503288317,24.65785163420696,2.517520415501226
49.48771875291093,23.40596604428789,2.8023801415800595
36.10026903093677,18.756977757071528,2.8302905302677375
17.584018190206404,11.4434216173574,2.5763537265972722
3.36532289756447,2.688262997020535,2.0573835357782695
23.755671377104274,6.081904790422558,1.3445716161546055
40.71831647521697,13.598360425121252,0.5343368662336307
51.891553098259536,18.992896298596246,0.2752567539917163
55.72324966097146,21.838436395070993,0.9907276461197372
51.67362568171569,22.028411803973587,1.5559041613614728
40.30245395076104,19.599561867201615,1.9326111110297952
23.21526839768388,14.652633536844863,2.0861624305407966
2.8466662624550776,7.445428552678672,2.018484534188488
17.89770619821781,1.4113458790403106,1.7583545857477103
36.07406266453433,10.811497866145878,1.3545698091419172
49.143374529048515,19.2142944980233,0.8722916896172188
55.3414129832587,24.962692440819918,0.3707956968744372
53.89653320926538,26.76369672755833,0.09423485514678791
45.08669302927735,24.104254344147773,0.4829443898039897
30.16152252524594,17.409285278828943,0.7772864420617964
11.151602868819996,7.896791836485612,0.9529944455037669
9.391371286077433,2.7931731948396608,0.9784591802796873
28.689799957023663,13.006804578057658,0.8445781633697044
44.08115560110692,21.34117248157116,0.5770727787565911
53.38866531456929,26.72438498616032,0.21969630342686972
55.26170262892142,28.391541171713143,0.168021234893609
49.41144520298054,25.90166896818135,0.5140136646631387
36.678432171887906,19.271003569977587,0.7605048614430423
18.91518721310654,9.164268827405598,0.8619724400475546
1.3141776772826668,2.9869384259057874,0.7877406841479937
21.14983603547017,15.094053652551054,0.5419282811122695
38.12783062518526,25.197242259347266,0.15729475712626956
50.578598082555594,31.97243582940029,0.3190460098014692
57.59308983682427,34.70200711326771,0.8354995212756801
59.03866246597059,33.41178635231127,1.3323355862651836
55.47713218238638,28.800014324148314,1.744571452120853
48.0195518400202,21.994229398673056,2.020920207018687
38.12715046080617,14.25510083563433,2.125719345845109
27.377752356961913,6.730751862599738,2.0520916092358674
12.296780043841595,11.134353910331438,2.4660358124195443
13.075169170436922,8.870178671678485,2.5030343865435634
11.715903228832433,4.6651581741094255,2.318516071334207
7.723194479968525,1.400933155028556,1.874048362506212
0.9645399220493761,9.010686564702604,1.151148938451742
8.22352064252567,17.584951881298046,0.16419007183671705
18.99523064768687,26.284370899899457,1.0260525336874655
30.045707343283276,34.043290600924564,2.3234273699476016
39.73853611329601,39.66936045600886,3.620165868239987
46.322332768073714,41.98730269646336,4.792733647884265
48.20556869795121,40.04238160829453,5.710452807187441
44.24817588686408,33.37272602684845,6.269533836780306
34.0560263245304,22.29021765855122,6.445344765671915
18.23932767583798,7.844181055392399,6.275392434977776
1.5609310230570703,8.530868356342982,5.776636178723684
22.953897048020686,25.183752890239276,4.96180828059466
43.168551579022825,40.339324278531734,3.8827261783461338
59.4587243034464,52.3087767484213,2.617580158473616
69.54084659526066,59.64226516729418,1.258286066658616
