13.834280214737724,10.274735266545301,2.973896888519434
12.601282148194391,9.140063776508352,2.894178671322884
8.603144780727614,5.949466504697757,2.495096602919007
1.6762878833804509,0.6383741015551326,1.7580987280307099
7.829986030230241,6.484894260085889,0.7059368903419277
19.025297203910718,14.725841700419721,0.6047804917770628
30.546100994745977,23.060900714219848,2.0776004056753727
40.70697763801622,30.251663023356784,3.5816491225671987
47.73545546307684,35.01928186939156,4.9723014122206175
50.04496769844695,36.24483821658625,6.103782921048392
46.50473081266178,33.16580766183271,6.845910615914968
36.705766596589456,25.567431060147456,7.116946461899645
21.20211476898521,13.952677828805008,6.925743149444392
1.5505372792502496,0.44716627591968416,6.342567376286681
19.945384501779166,15.885876297160813,5.4309060604169686
40.58227012206644,30.377235144317307,4.262093458917737
57.62541680091661,41.98405184401919,2.919176300901427
68.73170731383085,49.12598214187042,1.4690452404469054
72.30924009174223,50.807689679751725,0.0007323754346243467
67.76652343969691,46.762439936730644,1.374891179182358
55.61677724235854,37.49249486952352,2.5578306282845635
37.407479498808165,24.192392544052897,3.484787458813688
15.509816743995517,8.597919428613432,4.115248205575074
7.215432806927544,7.2482198823597015,4.4454659861371555
27.813756521717035,21.27694375510283,4.510858942882755
43.64385808346947,31.678353783456817,4.361273002515698
52.745398705194134,37.160146229113145,4.058411071765689
54.09489502964192,37.11806607035882,3.6864176908988813
47.738358074273954,31.712164383189624,3.3267319415578833
34.783121786044404,21.84682706422023,3.0367176067743764
17.237555244568338,9.044906570270468,2.8555591441810084
2.2660299005891713,4.769542545944035,2.8058141821033735
20.83325487884268,17.548331876499187,2.8800192784314547
35.71229571680094,27.40800205253363,3.038433662937734
44.68944040528302,32.89811518936684,3.231838471791896
46.41466678046928,33.2033195467215,3.401670338911635
40.592843756799326,28.2413466484262,3.464463057804517
28.022116584600703,18.67132655628991,3.340481318703448
10.478605904008653,5.8093561830777904,2.9880697130706486
9.544242289103101,8.551737949985785,2.4045349255507196
29.195446728349765,22.389993659100924,1.6219738015468455
45.673169489555605,33.742372423270545,0.697804115724192
56.62186227149525,40.98409218625722,0.3012395085958369
60.45624234220771,43.058707496225004,1.3010214574345405
56.56841047343001,39.632600591109146,2.217890374318288
45.40709151465113,31.137165805745525,2.978919359542431
28.424316650391653,18.70760169826205,3.541775247689514
7.881014340293931,4.033824932550645,3.8841876061445384
13.458514282193361,10.877614724440415,4.000475840680822
32.698627470783,23.988952281487023,3.9132709805574315
47.22006371603584,33.51935339955931,3.665588791516547
55.05872619363563,38.19948133283103,3.3028942585512704
55.18759255807079,37.44365864631428,2.8708301038671626
47.668458400327445,31.421126855549513,2.424930114409803
33.63950382499652,21.029119052894544,2.0208006661997326
15.139934792038506,7.767704324944505,1.6983129095682192
5.18395126623003,6.467682820081226,1.4815190491897117
24.452009086351445,19.650709016687134,1.3772654873196375
39.951106436701984,29.908610972513724,1.3739444431926275
49.503861074541376,35.776135396469506,1.4388604162392133
51.76069446052402,36.39490845942274,1.524969377675897
46.37818799268283,31.64068592296876,1.5800487882354088
34.06860822625868,22.14743714867548,1.5523760430218487
16.519517142516317,9.221282030682412,1.4114875049299953
3.8302173597064697,5.340194667512395,1.1463795542624804
24.13150300832187,19.496562296367046,0.75753682964869
41.520424206171384,31.25791222388721,0.26816015971994844
53.52761729730159,38.97890760175931,0.2851557629355094
58.43859223559726,41.587761303167106,0.8581703302455955
55.539046444363656,38.72378401008572,1.3965445684744378
45.21791597993729,30.77870705903853,1.8430518704632144
28.90700820335043,18.841143200769757,2.1430478229291596
8.868240768999316,4.545904254616963,2.262398433899187
12.129391677451615,10.151540009663906,2.19375427573876
31.196578330372656,23.234809414507854,1.952565258230074
45.722569277141474,32.90264378605604,1.5887978220481977
53.73660583446603,37.824540463249754,1.1743729380559529
54.17541544441236,37.33074610065763,0.7759160235323019
47.02354769853999,31.515854609547432,0.44970944304180815
33.319868000958905,21.23198276404903,0.2466715997440036
15.021341388945398,7.969881251678213,0.2036040100360297
5.265151916615432,6.355847376522654,0.31907483978736556
24.65160443304216,19.686385401408725,0.5544002770042951
40.37725677766042,30.11294729906171,0.8567383413445919
50.195534715900656,36.15045315755488,1.1711280279532297
52.69883308121662,36.94278686971372,1.4445127539736309
47.52255224399179,32.36873112036716,1.628389232678329
35.39799208228279,23.057608040926254,1.6911815594239457
18.04615196076896,10.303005526507611,1.6187965549868109
2.0786729392961263,4.116197575960773,1.3997135260151095
22.138337022998275,18.180481281491723,1.038711071407985
39.30957454095968,29.913647356414483,0.57037228927498
51.18078402548555,37.65679675192892,0.048018804867906974
56.08137369209748,40.30448272015789,0.4674898169375477
53.31072227361355,37.466437434247986,0.9232354994017881
43.23394935216409,29.519546765789123,1.2749800387447083
27.232032280558855,17.56013533192045,1.4805078920904187
7.517816533957747,3.256964508782087,1.5175540736523268
13.17104113480166,11.388967413446968,1.398715460467567
31.956164466319223,24.332004742391803,1.1656933753976986
46.21864083020244,33.77486283406853,0.8664494293766069
53.96699479664084,38.42722565095796,0.5380885146596995
54.12149802975526,37.67672097502999,0.21679750698760192
46.67146353869815,31.659982990604774,0.056341671514764866
32.68257352924636,21.24235163015523,0.24355598249129468
14.14299919109419,7.894858252078902,0.3176062497631584
6.329788246824492,6.511933071403664,0.25973839086001305
25.85648552922671,19.96107208129231,0.06391792319708785
41.6920342133837,30.566078061505944,0.24159144351666054
51.61261893678056,36.8337125665894,0.6037640215698855
54.225843139557405,37.871418143921794,0.9685224734615485
49.15777390176626,33.51443902849416,1.2810829151543628
37.102078165347706,24.354085308035295,1.4914528010465813
19.72861726141437,11.661761188972037,1.5601037540533615
0.5428760703412895,2.7822444076143835,1.4695809149549557
20.87600491252343,16.945310095627086,1.2361124488505912
38.41041539232738,28.837140494126402,0.8925637241765311
50.66703225132361,36.7873258507335,0.46903799635103094
55.90125788885378,39.6825633743179,0.00022810788967291283
53.35360649106471,37.11617926216244,0.45692923051271844
43.36846763634068,29.430958829501996,0.8407454620475728
27.35050711308191,17.67825976843903,1.106398016615045
7.558802780281722,3.478908214735627,1.220804844590256
13.226088964419707,11.204278391895944,1.173082080177826
32.097785154663306,24.33494593152444,0.9750573313505065
46.42486703075602,34.08683667385566,0.6563548870979246
54.21972201732611,39.10310305838016,0.2742187710582625
54.41385365457115,38.684658024564115,0.09964365195197165
46.99260636296826,32.88915478961739,0.3967422695973489
32.99281511516336,22.526498831068885,0.5705599970497764
14.369299521609348,9.051039633063809,0.5982687828949816
6.268725787860172,5.6359851106976935,0.46590664121556186
26.020099750333305,19.459640318695175,0.19075442212389163
42.09862350737228,30.47547162956018,0.17795238132080105
52.2312996294282,37.148224933917724,0.587681234030105
54.98488136996668,38.56761722525383,0.9815174853657881
49.96795575120482,34.57270823500351,1.2947576572880837
37.89114729040046,25.761254900610247,1.46861874121645
20.46800215902003,13.39298979437473,1.4773337531424313
0.15847918187365964,0.7827778687569888,1.33291387563026
20.189960788455252,14.76966330203698,1.063552955196187
37.737796666778756,26.608361260953732,0.7039005431477473
50.40136875215857,34.89918917471313,0.29650644727657105
57.18021715244822,39.019587236574445,0.10627602746896928
57.93225312821849,38.9518612407224,0.4531768751557871
53.30567794794661,35.22456836852561,0.712202524784336
44.568557489820385,28.78779711562166,0.8742126775533398
33.37134772979274,20.83351605986808,0.9445397543211765
21.471259775945008,12.593666540287407,0.9292728002887594
10.458724923370829,5.152885900688676,0.8408027719869989
13.838162613760774,10.280615731444948,2.916342689053995
12.754578513815263,9.244501397445555,2.900397294815972
8.92127395468718,6.199263020963781,2.557743985603776
2.161151898518974,1.0715037027473007,1.864986864645193
7.195776001293955,5.859121452784834,0.8395145087582829
18.282515608361138,13.944150527805844,0.46043513440989225
29.763907920930187,22.214543992569883,1.9318551996169497
39.988471021168046,29.484251230126425,3.4342471848328624
47.20861068625072,34.503057023324764,4.818917282396425
49.842043491759185,36.14633683078233,5.944840767029446
46.73407158341138,33.60920104246396,6.684197605255081
37.41467892502471,26.599456049874544,6.954939558024248
22.34331268701559,15.526039135503174,6.756845679288021
2.980985113055984,1.5302164489533432,6.139783605648013
18.426185518231183,13.714253482771833,5.168240192819682
39.18902040723594,28.27051623807574,3.9439645626624737
56.55853069965746,40.22202464617513,2.591624929991122
68.15908691861935,47.96824790556793,1.216647976595919
72.34625537433516,50.451117132875304,0.09763667027143638
68.45207918922596,47.30153388091754,1.2803439448837903
56.904135317281906,38.8905279705123,2.271198806496311
39.16210033499591,26.283669646622766,3.033674578039804
17.510557224603538,11.116023353570917,3.5604462684779494
5.253497952255144,4.6292889972985725,3.8657875599174347
26.200975907539917,18.893353448117264,3.985698417874004
42.66082566585851,29.82200827874159,3.9664245269197544
52.578436179210286,36.03275565016294,3.854530283119509
54.79648478719836,36.81097197331229,3.7032268458694473
49.21940617517604,32.20358269938726,3.5635589442321867
36.83304247070089,23.014529273224852,3.4684959844750924
19.567898739173994,10.692550219516756,3.434377925015692
0.027386728750690214,2.887488116942911,3.4506157841777805
18.876007102962973,15.694669274027047,3.4754700831284717
34.33430320994745,25.825615014060578,3.470999182265375
44.05637219931284,31.777641583022806,3.4115230200397493
46.597661682818895,32.653849498575056,3.2644732041590507
41.55231406018933,28.280046424313433,2.98775409411884
29.60864293777833,19.23465243148216,2.5370054990419253
12.449587294021374,6.769403971625031,1.903291699432158
7.50120474201498,7.3673604192463085,1.1319449382640023
27.419972557803256,21.17644631658679,0.28443025922911536
44.466586725832435,32.69564935786906,0.583958235722678
56.18535342120904,40.27293377801056,1.4166247066669746
60.85499650591657,42.79165255197894,2.153217863238631
57.726973207407774,39.831396465288236,2.742957015391114
47.13327997641998,31.729521406146738,3.156658937199677
30.447254756437594,19.5425422645475,3.3794116507863663
9.889322025856783,4.909988282228662,3.4047565284687
11.783189643875176,10.1814020851155,3.2443818558537454
31.649589209527413,23.67805574252097,2.941149162012027
47.028726728642425,33.74496824777479,2.5626156579640997
55.86204673865431,39.03398217976713,2.17404540272993
57.00555548063424,38.86732322946645,1.8212986994610465
50.38453606463159,33.31835891618715,1.5332117620761134
37.0017072205515,23.203016138500367,1.322755188733574
18.798868387618327,9.965308945064645,1.1852408981425984
1.6223574773246914,4.52472471615637,1.1075802866705686
21.3743691680761,18.225275824369508,1.0799843649001062
37.682436124626086,29.20143853037296,1.098179387746057
48.267824506963,35.895669601721174,1.1466100531518895
51.666353871359,37.349243366031,1.1820725498346827
47.422199173158404,33.341041659455826,1.1549906854586618
36.14283840588344,24.42889754688527,1.035521066703686
19.421609450204432,11.873285311923565,0.8091395544801144
0.3764450904225211,2.542828939466237,0.469582682973562
20.44494297301534,16.76956297225944,0.030139529615416355
37.92844641098709,28.793624581989686,0.4666137732816517
50.32416237943202,36.92257062843349,0.966108544562935
55.84443465458016,40.017954655865246,1.4195154324931802
53.678434050737124,37.653426095536915,1.7828462924861466
44.107926893639444,30.160096516674525,2.015951670903946
28.46856606647925,18.58044249024279,2.0816492909624267
8.955849248083535,4.531837598180137,1.9581343698866964
11.698723199368725,10.021284715320832,1.6479912003844686
30.614155073514734,23.036132320953694,1.16854593970811
45.15573627598479,32.677410770322055,0.5604165490845464
53.30246620665138,37.58460860680778,0.10423616953574412
53.92860474670804,37.0655059735733,0.7304055399570892
46.953183938341034,31.19716397012649,1.2201685761833276
33.35208183311129,20.81689249489745,1.504861189958503
15.034005740239362,7.400804257404432,1.5492910635402162
5.419930833836934,7.143741128025458,1.3433135941706955
25.121278988285813,20.748110884597846,0.9126558485270697
41.282221459632645,31.48266156483593,0.32075320000377844
51.61048289652892,37.83088118872135,0.34535411581902326
54.63961848846478,38.89024864337541,0.9906967339461066
49.934330908735696,34.49364130737071,1.5180832144296705
38.14846507077438,25.234604221020344,1.8399963269124167
20.937922705092408,12.380033236760104,1.9066298806670812
0.7168176598778438,2.3020300827546634,1.7134978589809544
19.69717152554704,16.78137569577198,1.2896582606381282
37.46981658390182,29.052201352808712,0.6964922933962382
50.13808007299409,37.41569685873519,0.03226214604917929
55.95060656873037,40.71212594815083,0.5794741550422616
54.103169064846966,38.47892902933354,1.0176091593165726
44.848497778272545,31.02019207047794,1.195412167687849
29.464076560737514,19.371729072020962,1.091696745379736
10.082981920120368,5.157013596238986,0.7459301542852802
10.59295545207175,9.641707428036126,0.2276282306806717
29.67045133320343,22.959647282348985,0.36988459558744996
44.47281945257881,32.94670778480613,0.9433882059576905
52.921929405094055,38.23347301175058,1.4067706027395077
53.84057097521095,38.113582704159754,1.6919033838796584
47.12029194899469,32.63438827214148,1.7503065161563034
33.730748489349814,22.586595569345207,1.5672346565795237
15.578050073001599,9.391039326851587,1.163468571826905
4.769709780753337,5.098336568145018,0.5949821563174146
24.45153332191437,18.846897062678014,0.052400666984744895
40.71091264792764,29.919875174454063,0.689366035109448
51.27175187717443,36.760660361512265,1.2380562845122505
54.649734418874075,38.40541469887002,1.6314794319121522
50.351118344272045,34.607910227462206,1.8311668627933528
38.94782620081859,25.88825280158413,1.8327337794186342
22.014149628413257,13.47499712609363,1.6515817503144283
1.9114194792031256,0.8735357645497099,1.3231527201213267
18.537782383204668,15.12376193778591,0.8891495529405113
36.442628485820364,27.2583118107387,0.38440090050639614
49.263699223343906,35.56736183928457,0.14470975920431528
55.1861662998885,38.891799213721214,0.6421178738628726
53.38191710477485,36.7772601753725,1.0513278373004649
44.12158951464313,29.524186171487457,1.3097431153423258
28.72557608748335,18.145828958909004,1.3741353935633824
9.369148725740075,4.230217191668829,1.2349855814418784
11.22908824511769,10.284168007548235,0.8975672098871994
30.184062351374163,23.372281063952187,0.39211002620775426
44.842107072060294,33.196631134353744,0.2217380595215399
53.156348142803466,38.373099089212694,0.8658929760690525
53.96717183805561,38.17054564350747,1.4374363448244154
47.15403870393758,32.60281748780444,1.8380856522393296
33.663412041000896,22.43779078488267,2.009094485789499
15.389378659076918,9.108529437372978,1.9250698542207407
5.093080572221631,5.497114071508535,1.5955227189300778
24.889030025836025,19.312449423002825,1.0763481610212464
41.189315316238655,30.386316084422795,0.4599366473523976
51.679733468272694,37.16227513955746,0.1573046853668829
54.88108109790334,38.69648654868219,0.6906915461016062
50.349260926607144,34.78755616418003,1.0617294738983478
38.726927925929786,25.996363306161847,1.2113885642140672
21.652686397783828,13.560452823101167,1.121245468260685
1.5249860140813354,0.7734106773789298,0.8247956217073853
18.83830375581887,14.995048033675227,0.39663979046529585
36.5902644416784,27.117285839916548,0.07330789681135388
49.60805542799979,35.69878765342769,0.49647106583490125
56.83213586362556,40.07310982806322,0.8028126147758545
58.05704118175576,40.19334147836577,0.9498645180642166
53.87050619136933,36.57175860864861,0.927805105364949
45.48969100693143,30.14868154333022,0.769150994721634
34.531910250045286,22.121528219763082,0.5259123043321229
22.740347951415036,13.739649543167195,0.24858711051489327
11.7102474323803,6.106020521497721,0.012767223089382294
13.622374969573976,9.944822628412794,2.9386846735044907
12.801263814139286,9.039330706240923,2.8961875002611293
9.332606867223257,6.180900902245246,2.534620755541322
2.9773023878508886,1.2738329364391034,1.8301713142001552
6.019135208845365,5.428204170442112,0.7983336490468963
16.872285516114964,13.304278516429811,0.49950466893572193
28.311065155884638,21.41092889511803,1.9656041343307284
38.71566931341703,28.58426067258892,3.4722326881898504
46.32839587584548,33.59807217749052,4.872202817212345
49.520696164913645,35.3457698820653,6.011770551469556
47.06938220199834,33.02347971641548,6.752729818085889
38.42274190406705,26.321561493342582,7.007696756572982
23.946994841548175,15.60055662735865,6.780096051564702
5.009231150580209,1.9260490145866047,6.145236763481871
16.214840604366938,13.099655751513684,5.178216460120165
37.07413673999263,27.58696723874662,3.9548045396888436
54.819603702558105,39.628661599336745,2.577207788125403
67.02050240693214,47.58956900104378,1.155704046329663
71.93308172061855,50.35296016444635,0.19725636029658067
68.76916710313039,47.48674411562114,1.3825567851396736
57.830246108729426,39.305550364445104,2.3317533639691033
40.477068777727865,26.832433694940786,3.0112948265383332
18.953272751584286,11.672591949902348,3.4294369259229907
3.93154603454139,4.20768513554182,3.619925316630209
25.203416346280807,18.74643377471825,3.6316867861368154
42.12635404114985,30.064137308295514,3.5272846758383736
52.57417236813574,36.72996319476304,3.3721315330197967
55.322533929900146,37.95335931603013,3.230841945886597
50.20800441609846,33.6939219079949,3.155560413204218
38.14692338321894,24.68046079252726,3.1776818971877034
21.008953880812474,12.306861664579403,3.3014168914209203
1.3572973316705315,1.5681715526112339,3.495716042995321
17.904486978032747,14.879967506597014,3.7121681570050393
33.940263610425156,25.660993788425884,3.8974935975023723
44.38987706445908,32.33011189594677,3.994574090332283
47.71215593264672,33.90400833053599,3.954066888841959
43.40032346869915,30.126021894015587,3.740472816615476
32.046003892598215,21.496709870131745,3.335853501431362
15.255935757119977,9.198781472062445,2.743441471235185
4.582178372971439,5.061965673456703,1.9879599504911705
24.648389728755156,19.294797008007308,1.1104787107934222
42.09382428620202,31.503086790637457,0.15774450337562956
54.43886784504937,39.9584287886054,0.8158689700629992
59.90468680437509,43.44439262917179,1.7464302416283617
57.655218083920474,41.431840047021055,2.5679603802975546
47.91781006360249,34.1535759617236,3.216072603472412
31.9558423766592,22.574783775887454,3.644351835592091
11.903468219429964,8.264209719998668,3.8412993012510643
9.527133887013445,6.8308125347426145,3.825943423717535
29.41771875355882,20.658621003381754,3.63890723715731
45.04638704825168,31.34917173721068,3.325797459108161
54.28288575211933,37.48446206171872,2.928046852715286
55.90333743299308,38.287169128991074,2.491545731901408
49.76129295717707,33.72022117749359,2.064102651728289
36.797887017764154,24.499625216285875,1.6925421564614156
18.906320191044596,11.988501713892116,1.4209893509418052
1.345533236956796,1.9962712101841786,1.2754492764045482
21.093074825612792,15.431256545864457,1.2527878069331864
37.56913609763117,26.376911926175712,1.325381509473907
48.47683877100465,33.259802355527896,1.4525573122514264
52.29592056082621,35.0882020975763,1.5758014443757524
48.48127044326903,31.582932625803036,1.621715012611467
37.54993940916492,23.22559468914525,1.5340610634564038
21.02454104265636,11.19446606543589,1.2862315417208672
1.2263250003439947,2.8098736387680607,0.8849349478529945
19.048382350098002,16.797139341990707,0.37051484280328706
36.92587007466069,28.7682516265593,0.2118667940236074
49.86308579186326,37.009405711719005,0.8162862181743021
56.01618801391952,40.33250486662809,1.381898390509384
54.512570970448095,38.236343160044626,1.836413155809785
45.56857396440588,30.975717852086397,2.1052954673278137
30.445525570304078,19.532001007509134,2.1408076634026028
11.263149789905615,5.47484666960032,1.9368536054315058
9.30330526901413,9.259420461349242,1.5222168831504976
28.400351147523224,22.628534434067657,0.9721576448159914
43.38203407285455,32.77471138201127,0.39240017165833435
52.163539074640696,38.293308645889056,0.12674231156371008
53.5156071727045,38.422153554242385,0.5191464241153623
47.23892846422424,33.14723645997965,0.7324265371178383
34.20081660889585,23.21744731642493,0.7410507806083799
16.232437534817624,10.048320715594295,0.5522338467655047
4.1280666436446225,4.48425749383154,0.1907344671300503
23.99579254592598,18.31343471150276,0.2969289360042482
40.54237489123203,29.469480975427008,0.84402310563956
51.40084289330495,36.36489647880085,1.3870949089950766
55.00694708539257,38.02006994224658,1.8569345568428974
50.823606457275574,34.19017344613232,2.1759640310678092
39.41657178848724,25.399317005990103,2.2970665633945737
22.36931246200057,12.8689993035012,2.218551600904754
2.0536960762293908,1.6531372236370852,1.9674787565071217
18.704747765435343,16.13158440560655,1.576804264956677
37.018558339770806,28.53098405477309,1.0821474578135615
50.340584648942766,37.1074719370934,0.5378660267043158
56.81615991499302,40.64897174027496,0.001011224897028104
55.538909375459575,38.64142643829345,0.4858325400129283
46.68107508069871,31.339859454370806,0.8580598958399125
31.472482453817346,19.737088862175757,1.076551962576707
12.03345396981293,5.43116202524214,1.1310140626028888
8.92382423823881,9.600672571490419,1.0276179693928
28.479956267325118,23.281166452800388,0.8032872677493593
43.90965946030902,33.72278824002249,0.5349362555609221
53.06517739709156,39.49074663757109,0.307093195356111
54.689041972060714,39.79726245420865,0.16818281537349036
48.58646054824294,34.60797349663543,0.13321933103645742
35.64557981602545,24.65124926571366,0.20626277855367897
17.71382799117251,11.317580298999397,0.36970883880966393
2.667081574504613,3.5332407534218593,0.5857846726265475
22.62220355767971,17.826494349785538,0.8137447251709669
39.34468865305268,29.565868018209567,1.009371787722707
50.49326970698445,37.1200488209268,1.133530597942918
54.51522381142918,39.44341428643413,1.1581127711600472
50.848034119059676,36.215201789961334,1.0595858080757132
39.99919227717272,27.894256314561183,0.8317305995626114
23.481968876877318,15.655769051377822,0.5003676689837862
3.6043048798224953,1.226698017102863,0.11622368749311274
16.84532525703943,13.350068950115656,0.2671803558029422
34.98319098380271,26.013478966553315,0.6112044173321576
48.238606652086034,34.98014305287983,0.8849188187238405
54.72088457934805,38.99303269534711,1.061154394160879
53.497251617343395,37.49933391507156,1.1386069906027536
44.73568924618898,30.723379461469598,1.1401844810953
29.681606254672346,19.63577834162534,1.070253598810805
10.472361567159012,5.815799915959725,0.9059130079167036
10.175660646651735,8.778163646903652,0.6405775765968368
29.358056674107743,22.081195766735913,0.2952069209793244
44.39117147589199,32.21199964269088,0.10487712688641625
53.18190531281823,37.743677278642025,0.5264481203896514
54.51101413954606,37.89816284877813,0.9205013702541677
48.19040404360124,32.65203798057798,1.23172046783152
35.0898363430536,22.750738972039795,1.4178005309912698
17.03115007449644,9.605633795797052,1.4709782093493342
3.460048944273999,4.912541278669462,1.4045203980614565
23.506388392540664,18.73916023501883,1.2267640642457462
40.280805386175636,29.910879609415648,0.9422133114102501
51.415515421961516,36.85024109430467,0.5658875803768515
55.34527545556378,38.584535925825975,0.14505228653182545
51.52422229820183,34.87330857723274,0.2543560537233994
40.49962258761193,26.23390318736592,0.5846370198542445
23.834113720544526,13.863287551625866,0.8088522938539365
3.8741355062640723,0.5237602200282558,0.8934365821300139
16.59170175594808,14.924275968678115,0.8307476107647274
34.71618577073239,27.323942330872395,0.6470008032598511
48.332241000600376,36.24312111453543,0.38225478841503296
56.300215988561774,40.97891614706069,0.07519830158070853
58.31782959311903,41.44017975029914,0.23110627445173798
54.8764208007325,38.09452432414975,0.4963816273488698
47.11304826108469,31.85162917621426,0.6998313916557677
36.58674587700606,23.889871239209782,0.8339724378128428
25.01185363082252,15.448765796067795,0.8937751795791945
13.98628367474556,7.64116303462542,0.875957235694504
13.77926140820825,10.035519043503674,3.022399746291166
13.045563579002522,9.220869159552985,2.852615121453796
9.645503256468752,6.445142042470658,2.3125775144430363
3.3365044089990805,1.58574644840321,1.4051216765037422
5.636104425759006,5.123276965862973,0.19565197698459144
16.488897509514228,13.072298634386268,1.210666917522711
27.956569249107982,21.320147395797928,2.693386331278468
38.43333666701748,28.69232060179213,4.112082186691805
46.17926489607095,33.937573049135054,5.3286350334252255
49.579014549341494,35.91630939705921,6.219727553540424
47.40481920514913,33.78993299834862,6.684340793773178
39.07527759929107,27.20944982960878,6.685289618440365
24.904851992032718,16.495018809313795,6.274666552815242
6.206124412919024,2.6892807712522617,5.54954812452046
14.888118294526931,12.600195286077396,4.584522573998974
35.76090995428954,27.45620675786479,3.4435081420648244
53.67818632818909,39.92729879368389,2.201937383113276
66.20235525718539,48.32631001068705,0.9243027602400665
71.56877785243091,51.4852308346812,0.32933240705882905
68.94822496541425,48.92146718040136,1.4975992771501325
58.58293704678616,40.910256321973755,2.5253762141692087
41.76144912005908,28.455263428880155,3.3747363341529826
20.646042450315967,13.15802023549146,4.026302269929717
2.03096199867238,3.0038763486093814,4.45521227420719
23.350542473575068,17.944962764622144,4.648630781378687
40.58773433321757,29.7513221036044,4.622011349036218
51.57563876483271,36.94542594524931,4.410006667794731
55.00546372408596,38.68616581438487,4.082892774402716
50.60326173671778,34.880245836202775,3.7311142751641366
39.172619434722996,26.20384159895919,3.438749278397471
22.485780558352808,14.01965511751354,3.2628873982559123
3.0354137192233237,0.1835694623790108,3.1972101152827235
16.310202456995547,13.228173467377282,3.196028529403739
32.70681126095037,24.223802126621234,3.207270322858377
43.74082338735559,31.185510949337782,3.162948787322437
47.777974876160016,33.09516911516039,2.995495270817859
44.19441432788874,29.664299426820126,2.655032778589338
33.46302841447545,21.363026565579265,2.1131852325202005
17.085193463213592,9.351647108401174,1.37480077532553
2.6237905676896505,4.681184796567383,0.47635385613530734
22.870456976129017,18.751914686366764,0.5265091171974531
40.7830622014012,30.85875418847353,1.5657727598206521
53.80813276467147,39.26336593882821,2.5546751483870125
60.06372113209488,42.73323876848767,3.3889772935113225
58.606529312034105,40.718162276544255,3.974955970147051
49.565383306555276,33.43269486305542,4.259778706320202
34.11977464584347,21.834465293344653,4.240256504984053
14.336819821081559,7.499196806505438,3.953025805392502
7.109479728683698,7.609969068039266,3.463391665564947
27.30494204431196,21.432397976522775,2.8441018036217534
43.495150212152865,32.09875001291951,2.1505559093714175
53.475458182994096,38.187471525891446,1.4374353705252563
55.91623191188607,38.91544695807603,0.7774163493368775
50.551446494622,34.23682142366451,0.23732465278691345
38.21366997807603,24.848168064653166,0.13123116703587917
20.717797717718554,12.101495278274001,0.28522508042136363
0.5940085011098065,2.1773907123044607,0.21135667971959032
19.280630134377866,15.945699449590371,0.05058662238941715
36.0884183670862,27.231358982317126,0.4197190381911399
47.461761638167026,34.41516310604911,0.8092943039636336
51.80441281890938,36.46293320417923,1.1420586920882456
48.49930204283657,33.06501257930146,1.3596214081689495
37.99246804507832,24.679551919842922,1.434144473833205
21.741085871562326,12.476094636742532,1.3454562647023884
2.0152504094119683,1.8275382327709746,1.0753379028905237
18.407110630813516,16.214540411114083,0.6339857419299052
36.62566335304899,28.657255407732322,0.0626450659278573
50.03654983519504,37.397698692163026,0.5742271100717498
56.70563715188083,41.1938680498557,1.1997349569394353
55.65616683296046,39.493789732698836,1.7254394846251935
47.01498060698005,32.512249492001864,2.054520762364894
31.984675238736724,21.20589180344982,2.122661191466368
12.665931679604181,7.139629413933191,1.9193660255418457
8.249321889491961,7.737033115644643,1.4840173059255308
27.861046648237973,21.36806311260472,0.9035728543246527
43.45909411381138,31.880450780949417,0.2841784334496242
52.897396322443235,37.84443910578732,0.2794725768742384
54.88599479636627,38.46700694167521,0.7173323477936764
49.16272059009203,33.693459559168915,0.9805072866222649
36.53642340963939,24.221243021411414,1.0330721914416687
18.787467119149678,11.413581896242077,0.8577332921934412
1.578931372466241,2.894133447124072,0.4623979531651362
21.686859482648543,16.657233028128076,0.10342738874696046
38.69245865680129,27.911948019029214,0.7507777622479971
50.192977459857865,35.05578290042204,1.3834153440026888
54.569241229374846,37.074746877868094,1.9110891256292724
51.20705860630086,33.68258512960706,2.252637326586832
40.58369668414674,25.35482101893652,2.343224413640675
24.19391518511901,13.25760492138527,2.1630700984963966
4.330463971866408,0.9176231805616413,1.757418462128288
16.24005547702267,15.189581038036684,1.1990681859075227
34.659598927556445,27.55628254594899,0.560184076594955
48.37195318645407,36.27148551557,0.09481762617112213
55.4818566023203,40.09536357687694,0.7165754921621775
55.01107069860389,38.46665425446453,1.257890489984703
47.024548011345814,31.576317672615634,1.667577541022163
32.62759111481974,20.353302797881916,1.8990515367702427
13.819476069999661,6.346038325255903,1.927468790868201
6.780186149688351,8.506185912224206,1.7595085344565788
26.29568794815859,22.153182349549187,1.4292815823707818
41.99629076243389,32.71716356267837,0.9925746329835727
51.67894721752916,38.760788855842534,0.5071536149701952
53.987424460983796,39.4842631758971,0.027578673138365165
48.60828270994447,34.81869385624888,0.3901012100468719
36.318559468583594,25.430933298717846,0.7004348959935671
18.87521154911726,12.635861770629326,0.8682959572635591
1.2469883800043038,1.7841911302571976,0.8755567219079246
21.205649020679132,15.823947106253067,0.7305592529480573
38.18706516645001,27.532298503185494,0.4563615165940078
49.80409457039525,35.28678993565025,0.09140458362453711
54.42183192132862,38.02180903411291,0.3091395891761251
51.37117274435839,35.37149053138127,0.6790930290636404
41.04053953431148,27.71369425185337,0.9467851335942877
24.83525513762371,16.127816537195844,1.0613188389008257
4.99188055501917,2.254488671085001,1.015770575853176
15.727741087443453,11.944877561760006,0.8343321880883156
34.41990006826567,24.468057544769763,0.545457486554971
48.452317191104186,33.547186990446704,0.18101400560579378
55.84249206030269,37.89912403893347,0.21235636807948086
55.547000229374184,36.909211891847505,0.5790949659909955
47.614081114960584,30.713979722919465,0.8683691883028053
33.17442686960701,20.17972296437876,1.0430797280007524
14.270312399536124,6.786738062357797,1.0827056962618098
6.450525015277948,7.575904624652355,0.9865947643628651
26.107383117879085,20.8798429107315,0.7804077983934983
41.97654540009086,31.245269533904427,0.5101540357065315
51.87136363664038,37.20433348587583,0.2108973983531302
54.44521805909018,37.90479783343882,0.10264685623598842
49.36435807994435,33.231217964123,0.3984402378171589
37.35629747839553,23.828966842520433,0.619862094896832
20.12532002497305,11.022061882132746,0.7267626034722422
0.1178783906299388,3.3705116591984474,0.7155189958705831
19.82080923726202,17.296319166290033,0.602020564014965
36.84491687916969,28.768351099995087,0.4074705628398667
48.5181958552878,36.15125318138293,0.1608685991702735
53.168309515706405,38.39377246321432,0.09954686834350152
50.127423054508384,35.17536782447932,0.3324966801461559
39.82853505985352,26.943503853174395,0.5062104949171932
23.739480185223226,14.845161348170722,0.5972193959314674
4.143274881819547,0.56753010518129,0.5838500191499111
16.193161979038255,13.893864851894236,0.4644245753597628
34.40582484696318,26.512990363903143,0.25613620725753833
48.27765397869649,35.77445537068759,0.021872546849181298
56.59892347021536,40.91779413194385,0.3429339432589648
58.996519338907454,41.78977900873634,0.6714893170857598
55.89801168446435,38.80535052239477,0.9590434867754352
48.38853270907753,32.8337107634819,1.147491977853278
37.994908948131574,25.028991789019273,1.2101175176864123
26.4241657339897,16.630730362604204,1.1679185321403776
15.289361049939636,8.770129925393993,1.0553670587727564
13.729538910886582,9.866252967731945,3.0931537758733185
13.243426963733503,9.190812739476813,3.057422953804578
10.150972992807786,6.619596479947114,2.6794312903905553
4.143979474418252,2.001226082636258,1.938241193334878
4.611554177217927,4.476112639508661,0.8476597417998026
15.40444561059473,12.251074779686947,0.5446233699831103
27.01252870420493,20.419894587173967,2.15174323588337
37.83094132941661,27.829602163613604,3.8374766331512578
46.08139413578875,33.23321012638351,5.4305186222357005
50.08325906680151,35.47771476443281,6.748590557011974
48.53189435491519,33.6962724614748,7.626465310596134
40.76290283542817,27.500376977253154,7.950644243936975
27.00154317024671,17.162148985991404,7.696591537512775
8.480266315414601,3.673355534698669,6.906952586731957
12.71696354304232,11.406041375394988,5.631120441369498
33.98726045995922,26.193710677360823,3.9641015912035487
52.576826323773425,38.749846603818554,2.080944623484954
65.98057850690614,47.369980212894,0.1679409049440605
72.3170449882897,50.84262995146703,1.610704942664749
70.61513471628356,48.63064609062065,3.113473886270527
60.985259740415145,40.955829447929496,4.235878999065041
44.62470194061367,28.775142427559416,4.917972864598586
23.65422303625326,13.656169091179143,5.158571397292901
0.8109750650357831,2.4412657806039557,5.011902120470548
20.940215342536128,17.433072694080508,4.575736976278146
38.806597427214484,29.393497376844824,3.9727139022716
50.55158386435669,36.81976748192261,3.3139370329141253
54.79752206207584,38.83126204445989,2.6908652369245334
51.193741329640105,35.286655782323116,2.1824194556364382
40.457987642549426,26.811303212522922,1.849698633335704
24.287437616017044,14.722043121901793,1.7226367177378277
5.12982295796816,0.8412868249794876,1.7861197496005763
14.161857223138815,12.769309142178365,1.986197518616073
30.73430316350075,24.104601338781404,2.243947401704022
42.14023517373082,31.50895437116931,2.4841604939209025
46.687228345022646,33.90956681824915,2.6642188834602734
43.67726888583143,30.95108613435552,2.7482543936200936
33.50927227040485,23.035084326826876,2.683254994571564
17.618828381487518,11.259439170382596,2.426507445702832
1.7436318343591812,2.7339899775624485,1.9707197019048035
21.84591036379222,16.98654301569717,1.3370676184433274
39.85097359300299,29.49220761446799,0.5597578648812886
53.19707765481709,38.47143383096476,0.3038737201744246
59.95791214402553,42.6280866627565,1.1660190177793506
59.11678620580527,41.33518050463875,1.9327892611332067
50.69801332809439,34.718289633921955,2.5256776127240763
35.77052348849247,23.64875188172961,2.891527442111414
16.31739792054129,9.631236675579535,3.012145989671361
5.041274894986373,5.416558613036631,2.9094553940066996
25.41349056525319,19.444634404488667,2.6295261793562776
42.03766959400124,30.55853836113561,2.224592202382573
52.67646560114274,37.28113192042266,1.7663573501590093
55.92937998511834,38.752004894885346,1.3488989661618367
51.42492651345287,34.838170975669286,1.0604816831007504
39.878746744751545,26.150562646560367,0.9575930594844492
22.99716121387643,13.959581481980575,1.0552913448809111
3.225832858459078,0.019697832826389896,1.3256289786526927
16.607002375417345,13.675814596820306,1.7010981111159957
33.68529109499601,25.177740138589918,2.1011028325912617
45.58915183546278,32.850405002703475,2.45451571940883
50.630174970350474,35.597959165351455,2.694827888648438
48.08689364141997,33.01780665991629,2.7687005393346533
38.29969139120801,25.449816186125826,2.655356806673338
22.626589813104772,13.937877325634998,2.35906364295149
3.2654873333818033,0.10163159103429441,1.8873185302716997
17.051088358680946,14.094938314711467,1.260953820743982
35.437145094263734,26.623908997633585,0.531418740934873
49.25322162390105,35.68100865271775,0.24384929236964642
56.493291887949106,39.95329901225142,1.0047744779453662
56.08749286739295,38.807650547313095,1.6741325440032941
48.054767112578965,32.37545521463333,2.1864724482873394
33.496392644515495,21.533204258678307,2.504569369048646
14.43059874361565,7.773983567166237,2.613450094007074
6.503802774216807,7.005048641137725,2.5139170261621597
26.41970879505048,20.76452872972785,2.2154326811504452
42.578688422705326,31.606914072936103,1.7560782259136258
52.764107495941346,38.03922679370814,1.210125337369332
55.58304079309958,39.17648683488871,0.6614056393715714
50.65556551175265,34.865987555680725,0.18915661021053512
38.67335375414531,25.71568742183217,0.13499876778755004
21.319031092068464,13.019378658878573,0.2614222948665298
1.0390635598905171,1.4183384337239506,0.16889301256014874
19.298707747223844,15.54093870056295,0.13446238321367723
36.80606942855075,27.34501625284146,0.5921196319847997
48.99004243855686,35.1713052693208,1.11554812452773
54.12307808991537,37.935908606803395,1.6269903352623747
51.49098603218148,35.27744344380463,2.0493499593905082
41.48392148273801,27.592834974318222,2.3041277470039434
25.53223185601412,15.97084265501396,2.3405836718238158
5.889702520105109,2.0429870208785053,2.13714810986981
14.69022443541305,12.241585092428542,1.6947148917285373
33.32743664560371,24.885193548509893,1.0271286274521017
47.41796351930203,34.11638171595729,0.17630111564432216
55.00020431084643,38.63273940673326,0.753902040122755
55.01450060382271,37.784181705691225,1.6319370093822785
47.44703232437595,31.673194941073053,2.3519585210124276
33.34154867694818,21.14587958747408,2.8343958914615106
14.66433590298949,7.676708688269726,3.0223634913542785
5.970125434438405,6.840778813964031,2.895726825885573
25.67276830878298,20.367587318258206,2.475850443339702
41.68270655250315,31.009882069567283,1.823384027349776
51.755052970893566,37.29075040258163,1.0321593551517343
54.49087908033114,38.3509139397786,0.2026329362980156
49.53393861790077,34.05532712775675,0.5708185984201342
37.605763784125855,25.014037728496454,1.1955646909461615
20.402987504078094,12.498032805137502,1.6018095045871812
0.355059316120146,1.737503490466586,1.7557498497991664
19.727186319843657,15.693453274016846,1.6617487003359384
37.03739314438142,27.407837819911997,1.3585207658820597
49.15691101172403,35.23000072351446,0.8971533715083171
54.391274503854724,38.05346474119472,0.35511596547444
51.99937109775063,35.474463066681636,0.16458035606376586
42.2935182377309,27.851871963177583,0.5919849071959078
26.606459433938706,16.26046279445622,0.9017443995176638
7.1195467499210805,2.3375364614931664,1.08431902937216
13.440796534290465,11.947285916591099,1.1427751145473752
32.187006391746124,24.57091785208817,1.091342978684514
46.47030700401654,33.74766471418109,0.9539779328062435
54.260166439311746,38.18369111259082,0.7664319282756795
54.447888264246366,37.25494794930631,0.5640164326461685
47.00923595720351,31.08464277134533,0.3755000297293254
32.99940638892325,20.52541540749174,0.22763474397600467
14.39835561623802,7.044970835510764,0.1393162179707713
6.17097605293902,7.477928873310662,0.11699389327386545
25.819158546185257,21.01447976415844,0.14847595088850915
41.789815820780106,31.667306160957242,0.20238689140216753
51.84268580546972,37.93458442998891,0.25499038852486183
54.56905473422933,38.924101445853424,0.2894751981131289
49.576178091423,34.48206192059029,0.2698816534422788
37.5452123641029,25.219572819625995,0.15946242645923936
20.14834843496012,12.433357764313488,0.05404863423860926
0.17729966163911592,2.0782078202234793,0.3670006811635544
20.562903366325394,16.26892541887844,0.7657627665030017
38.12175289435908,28.137570588809027,1.2196980245977305
50.36632840311783,36.022769324436865,1.6799012677948013
55.561085921115115,38.837656704277165,2.0777740648639496
52.97655213492234,36.210365489326215,2.336445077144705
42.99014590754294,28.52416215449043,2.401491231814944
27.01902484804307,16.865118474068286,2.246759603105693
7.3053424784905125,2.8736207357175436,1.8717200113100918
13.404751376853337,11.490256958472468,1.3075268880195625
32.23805288158214,24.212793369303547,0.6095160253025573
46.92312711969447,33.75171911680995,0.1465085654254819
56.159796061821226,39.29492368811034,0.8844827035040708
59.479630991987605,40.63416429939587,1.5481600955237633
57.220289262324634,38.133972492013754,2.0872565543855623
50.39162160341292,32.620521597665565,2.456599804233646
40.4721078434383,25.214275997016365,2.6301268877343777
29.148455578988614,17.129031068908116,2.6067814896668273
18.03960511320522,9.477834477899703,2.4128358111894492
13.494245372587027,9.978241537292403,3.0007913022979387
13.244010742485367,9.357127205885721,2.876417104438858
10.424539566740957,6.8270945867773225,2.417234796476123
4.700973609892312,2.2389627451112175,1.6145174269081548
3.7866259762758716,4.215982297605665,0.4992567450059217
14.357286606637224,11.982581464480463,0.8669222842879674
25.82717851540789,20.177123867394652,2.3831726195850935
36.633275354729925,27.670148851200693,3.916684933610271
45.02687516315142,33.22681971907205,5.317964485634037
49.33344989122748,35.69187307544673,6.428429857886953
48.224964566499025,34.17692471031115,7.100253173543398
40.979526096843955,28.249546647717736,7.231686821669713
27.730069481263584,18.124820636608778,6.826255597115468
9.603961642543332,4.745167152015539,5.986583038393857
11.391424076415575,10.349784884906489,4.832879908902692
32.68304959374705,25.279401416763594,3.478652580246169
51.507128075363205,38.101807037574105,2.033488318109839
65.3191334274525,47.10303727103209,0.5912651245424327
72.17884600352352,51.051007103810186,0.7559704466303301
71.04769930225153,49.36427890769731,1.9145765949648503
61.96373053104497,42.19878207141579,2.8103783154851643
46.038398347049046,30.440519228496633,3.402582063388313
25.30382890644524,15.587170308656868,3.6883582598960976
2.435595124442869,0.4537974041802908,3.719417241710827
19.62265698532409,15.611814913380517,3.591172628683969
38.05342602525754,27.931946589966916,3.393544251065113
50.54966846915647,35.85707922623106,3.203936907309025
55.629876743900375,38.444947476421035,3.091982394073696
52.82576351156026,35.48884602249979,3.099390880100179
42.74854659639304,27.55312905280612,3.228228925074542
27.007293707910488,15.901769070249435,3.435648475853234
7.982352137895632,2.3090795050514132,3.662214408964892
11.495226637851442,11.199063149933362,3.8712178916584357
28.53674916047882,22.62683536236163,4.036764027647727
40.62101654226926,30.289036396663644,4.112671891706371
45.962266729688935,33.052405990581654,4.034813814669328
43.75998468513175,30.486990563489396,3.7462762260716613
34.311400676630235,22.91931305700625,3.218501553596638
18.965741634750046,11.396087345265983,2.4609750965455603
0.07728888093173042,2.4662418655795055,1.5195639653412651
20.08850959202581,16.716980394487003,0.4733459611909993
38.20039995010242,29.337206902644247,0.5851438891876097
51.808399344010965,38.52443771055902,1.581132599743628
58.93102615425923,42.94944779530265,2.4538249651152886
58.48491751487145,41.937014216724975,3.1388677896978128
50.430164105040795,35.558647096834505,3.584589072038239
35.77771950557732,24.62982493502523,3.7808623826506698
16.458145844293774,10.607853641049031,3.7584473981286326
4.946673560407377,4.609323047689751,3.5650238798079856
25.553553733109315,18.953502029821898,3.247587034230105
42.5691012683294,30.479122289788386,2.854806592272655
53.688560645549984,37.640302350368266,2.4463967640131226
57.426254243583294,39.51184984155872,2.081116738478011
53.32460076416785,35.913046259552054,1.800006733440287
42.02141603329567,27.420094990010202,1.6229706368190393
25.162669452948805,15.281115190605822,1.5467518867434533
5.164381701580818,1.2403744793824627,1.5529560587579763
15.13824577854259,12.706598268014071,1.6152097229026607
32.889976117586706,24.58464662644851,1.6975814284574062
45.60902865314665,32.70851597666006,1.7597228669231915
51.527261192541914,35.918779944671954,1.7621916449410078
49.830078467384176,33.742025465283504,1.6715311606440497
40.76468624623688,26.458430651725617,1.468095325369382
25.60205576919153,15.075384473190699,1.151805501006867
6.466753437462722,1.1931749902739293,0.7395791113068824
13.943126283165121,13.223411420796031,0.2541610938653452
32.72546429842476,26.125620784309085,0.2810750566142628
47.18704501800953,35.67959028443114,0.836888406819889
55.23853283036241,40.531485452823304,1.3660658159857566
55.705507685409444,39.988000444983214,1.8050145934533601
48.50066021511309,34.10502464709109,2.0972816613516194
34.63160795043676,23.679190405591356,2.2052350900291557
16.047943069663177,10.137429265181114,2.1131379470554905
4.65135491322111,4.6542991637632225,1.8402518166093293
24.59381866915328,18.644711024365243,1.4330228470785091
41.02264345382058,29.889189163361195,0.9483260944427169
51.674353004857956,36.83210885972424,0.46386227654745293
55.091568798941005,38.526070854116526,0.06788885022852226
50.812466073441485,34.762693506086805,0.17165119190081451
39.440891680264706,26.10653097688788,0.21463938212012146
22.57552348152648,13.816759271051195,0.05732011770732305
2.5927815528732805,0.33201246303835347,0.27539930529281625
17.675060094983152,14.302709035956703,0.7408605453053233
35.342046311733974,26.089205662852216,1.2653710467848112
47.89526704778375,34.00368383305543,1.757814498748583
53.559768557439824,36.915283728009754,2.124667088616512
51.54538602421782,34.400030328706976,2.284249708706333
42.14975220230753,26.79343431455937,2.201051917293194
26.70786287797842,15.147649091931752,1.8808611302225835
7.395993098836724,1.0838135233686303,1.3548562285588317
13.080338440438519,13.434127558693019,0.6864647434568708
31.86556585689611,26.368017703221685,0.036460905225463094
46.33930113400921,35.89304688935952,0.7230136539116956
54.47210001088479,40.65902021499836,1.2849685298144857
55.115141048003224,39.97433735849703,1.6451093592104702
48.157384708954126,33.89656249450264,1.7750958935053631
34.54190440818542,23.233059550695234,1.6901415396292985
16.148578165928992,9.439302920284227,1.4198291937269063
4.467725367935867,5.586354408661829,1.01706503023612
24.43362243790921,19.771867187364084,0.5386673642936214
40.95695089250054,31.163928536323876,0.04413042231622881
51.72724990358194,38.20813233905912,0.3882385739120444
55.24659090446597,39.965443468949026,0.6986094419381448
51.038864071095865,36.235305192584995,0.8518918275628857
39.71414707507833,27.576058817993278,0.8230754804125416
22.88234118812424,15.222670416705135,0.6005289076640423
2.92302838929475,0.9166562380840669,0.1901397712486097
17.35697727303767,13.337190827269255,0.35931748097435756
35.1201080296303,25.548357052673673,0.9610360220339745
47.88957706178027,34.012663600060364,1.5242460817764918
53.88544164144474,37.55150566548713,1.9665293587656805
52.26618243315014,35.67789450904019,2.22738292210442
43.24892462538305,28.66571618354182,2.284227779118413
28.087326173455903,17.51375902286695,2.1389841875944073
8.905111338509405,3.8077322265316615,1.793837928187606
11.596857479945065,10.502877428292054,1.2700988040073997
30.520503628387026,23.38572699323309,0.6276594194634331
45.17744263265485,33.019062752735614,0.06028653412903045
53.478232805429,38.04913887879426,0.7178967724551103
54.24441317702343,37.77043109724242,1.270807208487322
47.37375249037873,32.21731887004532,1.6659328114567116
33.84411166636496,22.162122894855706,1.8684969209173603
15.564640812551474,9.00752692112253,1.8598162121346078
4.9028532531866915,5.405613749846995,1.6577089478983975
24.702615806221367,19.05218917164083,1.3238289780153643
41.079404912439365,30.01368455892935,0.9408480915105343
51.75707287743171,36.748587685681706,0.588442603404765
55.2437001475665,38.301494241083184,0.3303056894953062
51.03452891632342,34.44009818379787,0.19104232682993705
39.69664734907607,25.699581441846405,0.15169871162735948
22.806367134647836,13.310591043759501,0.17882642170893753
2.7271876283804124,0.9764793683164763,0.23654702983834414
17.722429364423196,15.134835117153582,0.2770179433994632
35.66020267135151,27.15190072049631,0.24993355046276494
48.555266300789455,35.32532110912346,0.12826745767886863
54.590669573909125,38.50221263014112,0.08750830050822729
52.921959756511164,36.23134218001843,0.37890004282417433
43.79972304229944,28.82040304531058,0.7142325543492459
28.52460981196641,17.298650488302638,1.0634769198761136
9.25906731968968,3.2752742446268166,1.400258365504947
11.279769069726811,11.29416027202296,1.6818272752530754
30.203579660514972,24.381421408565277,1.845193405067799
45.18922544465962,34.407541271405634,1.8436772226446174
54.864764177461886,40.500489981597234,1.6743868590266364
58.681619630775614,42.37982381016407,1.3714072784132039
56.90178570114959,40.33399431715804,1.000257988353038
50.48116981022129,35.12705233193265,0.6368033420377581
40.86411914635505,27.842769613935,0.32860600078710317
29.71737565644364,19.688027494765322,0.08898501669544964
18.658434861766082,11.801622079537808,0.08002003436595527
13.632421978312419,9.922961897624013,2.8007779697921475
13.540420261123437,9.590330291139894,2.7859904983420183
10.916065146031658,7.395776894138666,2.472884074185047
5.391354844205749,3.1356649195302904,1.8310563521687617
2.939452996236878,3.0614725411823662,0.8698430763906602
13.447435247827908,10.697512588068285,0.3583307430053316
24.986847082969835,18.924620352038765,1.7672016117678633
36.01030783016973,26.626221108692114,3.2393185741747383
44.765899239549356,32.55794867330598,4.62977428790603
49.55213553418082,35.529510563118336,5.7875192981583625
48.99271771883758,34.59829697659156,6.581396408338784
42.303039811047014,29.265335784218955,6.929113454192469
29.54405694926053,19.66066707627223,6.832640332583789
11.777686424436746,6.638781022837232,6.346548731792049
9.034711938980758,8.316603169266763,5.521382596191567
30.35048450180266,23.341933664367453,4.42021755653708
49.41657018258437,36.48001098999363,3.121350626593898
63.66930222084077,45.96851437394207,1.7016299830325012
71.12817505518784,50.50442928584486,0.24793577805358416
70.69313581266029,49.430135699385225,1.1538022633318719
62.3191014449275,42.82726815664515,2.4225731438928224
47.041966614299554,31.511517465508753,3.477768800161309
26.836445517700056,16.926999234837485,4.261043714455867
4.334089834136359,0.9609208961324288,4.755596866490918
17.540354834611286,14.306988926086511,4.983971194948734
35.965079977527104,26.896321874683768,4.988652840853804
48.61236657012858,35.20759279485185,4.819854253786454
53.965706202459174,38.24013882055239,4.530450944204178
51.51518046827258,35.72425857932223,4.170250564304934
41.82370427397502,28.161147442131533,3.783612130245861
26.44954440154686,16.753910918408764,3.4036982042001287
7.727561006842794,3.2345192091968324,3.0572649827894574
11.553935541315361,10.384478461966477,2.7664364678301734
28.539856232445334,22.09492635321699,2.533759678227884
40.718110461383965,30.174208948205504,2.33798206581038
46.281628456007965,33.43062134103524,2.141666402913223
44.379569734966374,31.369516955385645,1.9041091014417388
35.240200774386054,24.254209023723266,1.5916826966744102
20.14216642290539,13.066021885778516,1.1749930481042274
1.221087016289723,0.6335378016950256,0.6364114089654511
18.84647227482803,14.920043929698313,0.003788098190221417
37.22178710278811,27.773104718846795,0.6941061171652749
51.293548168094375,37.366264916943905,1.3918965590963512
59.0403659901993,42.32685816498552,2.0606777117668287
59.31781728072455,41.91497127194055,2.64927539941522
52.007216761218,36.12202498255991,3.105535478375455
38.02643120131227,25.687411417346453,3.382049313853091
19.221074362517648,12.008054730618133,3.4402315272853854
1.8822623764622248,3.0527209364617462,3.2762730351249627
22.42932241356461,17.428254907279,2.9264020242502915
39.62999626560944,29.14827102567364,2.4566748330220487
51.15111496512116,36.62160841276209,1.9507369750575865
55.4594979143195,38.86181191170678,1.4764264047913778
52.03560620205686,35.62603078961117,1.0753917836252669
41.441088884209215,27.436142637849237,0.7805970615355399
25.248873279080907,15.495118828153474,0.6124011844293265
5.807331475849419,1.520715131826791,0.5745316924885752
14.106205875247282,12.495021251050424,0.6530435463662273
31.663545526828567,24.561675135684045,0.8055616570418548
44.38026936998544,32.964107337891214,0.977186513646883
50.46012054116846,36.4993975279963,1.1146889912061952
49.03210475089447,34.6402729682919,1.1612606930606326
40.27388323667135,27.611696073292336,1.0823102411117154
25.388538155785543,16.37311243203725,0.8740200101353427
6.4422326195987685,2.4954003140741716,0.5409321599985745
13.90909507644213,12.064714177393384,0.11237209087049985
32.79188979370409,25.250101954008763,0.3509858890582275
47.52199723146781,35.20203492742183,0.7960343483955887
55.98365539087775,40.53010719222985,1.196524039829821
56.94428198873589,40.49685517154646,1.5345262520194425
50.23719486849864,35.10728699673136,1.7845644425164349
36.774324002179064,25.104596146875693,1.918417998204224
18.415196789489258,11.862721142684592,1.9105450413767222
2.2965745788677885,2.8025055618697468,1.7439890832849831
22.500423003288653,16.879633518630293,1.4248509782503038
39.41734279780144,28.436599575412163,0.9885454522178005
50.7325426744873,35.88830526016117,0.4981417082198216
54.911770917537694,38.216304189367605,0.030750984710102822
51.404663641287414,35.11002719549604,0.3451908409009592
40.72406744940156,27.02194832302702,0.5790165031470582
24.385358739296844,15.117654846034318,0.6351315477962349
4.703071167884577,1.1125198624729227,0.4851615855953072
15.526808698684244,12.976034969517151,0.13811393285233886
33.41766865128322,25.119813821467243,0.32211510765143225
46.404847169999286,33.57507428174879,0.7885665839074912
52.622007430105604,37.13529301781501,1.1822422222574998
51.17627067486619,35.29340676455097,1.4317074794556948
42.27150530126723,28.29853024931435,1.4751413718771105
27.171095350862295,17.117328185659847,1.289140451421756
8.012525192322268,3.306413085357308,0.8891179134333816
12.504401282242068,11.199745535314785,0.3147204920325348
31.50011019792499,24.362997643614403,0.3684852578869537
46.309524162447566,34.324173215284645,1.0686797979113156
54.853075421838376,39.662072379559824,1.6937301788942556
55.92154284262779,39.60107604158299,2.168430475652334
49.33031763018395,34.118831418335155,2.4405159179641656
35.95550670762229,23.95634418904667,2.487649192374883
17.625158641530266,10.525402782376084,2.3061980810025577
3.1368006645485456,4.301886371840895,1.914394965028465
23.454527268036042,18.466268027411033,1.366274482379138
40.500231239134564,30.007980344126036,0.7397551800546411
51.89949317584477,37.34226863042083,0.10599901416609933
56.07042264358061,39.478712072043216,0.4879660600123349
52.444938340543914,36.14510765018138,0.9943594413482844
41.54498101771083,27.814004073223295,1.3603933474140033
24.913498489712687,15.643485562998409,1.5578396526039053
4.893586717667708,1.32859125453716,1.5835853648185598
15.711983449516392,13.128642236209144,1.456342702222406
34.03020195554177,25.70536533010693,1.2144919776289858
47.51196804746102,34.645738810432604,0.9078230710032377
54.28450780957643,38.70311527949335,0.5920140032152837
53.41039211359642,37.321847561725455,0.3122891007666582
45.01398576782805,30.712178710669747,0.10229857493204404
30.262848509102767,19.812054374499045,0.014092867663805471
11.216996161933887,6.165561726011886,0.03137814105585652
9.453729395836515,8.299459154967186,0.04479095689217942
28.84391835182448,21.554744235887522,0.20251565058397616
44.21429995034224,31.74712754092739,0.4216309908269283
53.38681137056713,37.45332303551844,0.6644639893322772
55.06670087076788,37.880152779248014,0.8728747417093466
49.026136812526346,32.97394030400044,0.9960617222887475
36.13541265398068,23.433369764728656,1.0074705153203745
18.239316709287614,10.615475526626806,0.8988390647896423
2.119502148117142,3.655152963454727,0.6762745541606142
22.07478660814485,17.345751970131154,0.36291578034115995
38.83186122305162,28.509324763512556,0.00431554488603898
50.055187687745345,35.56290198440776,0.39742383913546764
54.19362851747239,37.50691223174257,0.7953797722396869
50.68030151193766,34.06020373348991,1.1606814697269698
40.0070995670553,25.696194582374766,1.436230144297958
23.665471511981004,13.578134464035683,1.5543810003145826
3.945127827056243,0.5948517013335713,1.4698865918500277
16.37652785247851,14.822005475542934,1.1914591064609366
34.41985385394657,27.08829526757434,0.778385080632444
47.61585670945642,35.6527248122127,0.31965004686460574
54.075714189385955,39.29733667089097,0.09636733756220886
52.867303936282696,37.49645163607019,0.401308851596695
44.15653535142594,30.487403563840406,0.5546093512245464
29.17597664619511,19.239392795849703,0.5475550424919233
10.035165189976643,5.310024634759284,0.3906207922848604
10.586816573353294,9.377255129633491,0.10953337691492868
29.817327001553306,22.79289364896161,0.24992671187269067
45.30474393403797,33.31719758686739,0.6322964316411108
55.60706809738372,40.01123050930842,0.9834562270898506
60.0937935335993,42.52309548769104,1.259889337016302
58.941073651875094,41.07427690733391,1.427069040253167
53.02062050848542,36.367700940091154,1.4544203182944635
43.71248273643695,29.43873581058233,1.3360487023740613
32.656016947656646,21.472783649665423,1.1090588796075
21.47890188997712,13.612095825663403,0.8416187382209718
13.542595863443434,9.972768892799717,2.9122385524101095
13.608050607971553,9.782215729913801,2.758921365787303
11.168819319981246,7.742483812874199,2.2635345912484084
5.839383833651776,3.63518447757089,1.445506516310819
2.3058621767402077,2.4340874003584156,0.3548718208047589
12.662708344895353,9.993776499486529,0.9331701861311503
24.11889431400319,18.220142695037637,2.334673982478005
35.16408297468434,26.019808340906547,3.7487037560525516
44.07375718015048,32.16270814528096,5.043235790018668
49.15439952892836,35.45617693338834,6.070965509107005
49.010880903033964,34.93593703094158,6.69602586903284
42.807326138764935,30.05116551130533,6.836126450536643
30.52071605617564,20.852858251253537,6.509683916556454
13.119996759151158,8.114349356578265,5.7935226878844475
7.502250720553252,6.739673402597481,4.750564266688143
28.839834319430466,21.87179618468235,3.460420794059835
48.142367227713784,35.314382210916804,2.03693544868826
62.818202826573234,45.259145777974574,0.5871358108406602
70.83877050754309,50.337879680353595,0.7991613871643907
71.03575283893416,49.8248297775425,2.057358892233967
63.280801899378694,43.733844906049185,3.130893966282355
48.517087429355456,32.813318759173505,3.9511953285948067
28.627793124787786,18.451051582376905,4.471663368088437
6.17926439695111,2.502426984523991,4.68218132793152
15.930370873296715,12.961376246612861,4.605538272829078
34.858103449006414,25.938970339998406,4.305765324181834
48.20383927233623,34.76849694739822,3.869270163399953
54.34313673014543,38.35877416525908,3.3727924807049137
52.63906874377937,36.34431569657466,2.874549254830952
43.53254278713428,29.144104394280625,2.418523283598544
28.490768417201707,17.912325173054153,2.0384589938958073
9.801729718089407,4.373457064285074,1.7618665070190973
9.745524520368152,9.433410261493405,1.6015572334562873
27.25726173387261,21.455054598708465,1.5451114667233754
40.14861397314588,29.917934522324718,1.5623202630515236
46.51147621654792,33.57811703274768,1.6130209993530966
45.386781910450416,31.89279367014613,1.64893097419472
36.89513373917541,25.07831811641177,1.622465396434267
22.220246779333777,14.067621940177414,1.4981127490950206
3.436700757862905,0.3864557890674643,1.2596069931257003
16.799488676071093,14.053748529256634,0.9081505071651673
35.62607361840227,27.219035805297292,0.45674145550965395
50.365292084592674,37.23508742893528,0.06814302762573105
58.89572710542118,42.65018581789205,0.6294070404719464
59.95487194903662,42.641158957797444,1.1859433218999482
53.30851094454973,37.138101686712254,1.6927166208103168
39.78343376578031,26.846178053849272,2.1078629066868406
21.171574118036116,13.151299254047089,2.3990819285442724
0.022712836888166256,2.083572164419841,2.5466663633299262
20.93364442708077,16.78981148368157,2.5548110829475608
38.72543157784064,28.986458006831228,2.4460217081064184
50.99822872822495,37.0541791955044,2.248740724804713
56.12159310457395,39.95028998332628,2.0045933363260606
53.456129115949835,37.34642146506118,1.760959340327448
43.45014168346863,29.664671970115187,1.5487258526782504
27.578240182394396,18.013113026342065,1.3825837166052357
8.12738215814078,4.044787090305982,1.2740649482115767
12.134016825759115,10.262096517859469,1.2285732296243845
30.337148763874033,22.88197291483407,1.2277635194833845
43.906593275022836,32.02560065223001,1.2330061720669252
50.925021781818316,36.39338018714316,1.2056673869066714
50.398872551309836,35.36412635680113,1.0974719079518307
42.39812065881363,29.086156670129007,0.8559935895788375
28.042456822858885,18.45829053574433,0.4809867481214536
9.34478526673588,5.0014017545422425,0.026404994417160377
11.062168004282315,9.364220588490193,0.44888797288153615
30.296288833417766,22.598392098169295,0.880142422020143
45.62341842965922,32.82862304251739,1.1994645635173105
54.84566594403387,38.61226735694666,1.3672728598197113
56.62660640608313,39.13678170712062,1.3666465797336247
50.68071818183443,34.32259748859745,1.1856079837800206
37.818869444407824,24.833193239829097,0.8304438070985676
19.837296291766737,11.987500847696737,0.3494304740747382
0.7448900377159949,2.42369311505221,0.18090414735447508
21.0533999426553,16.382308639593194,0.6817823621147004
38.26617561709087,27.929983491835017,1.0725630797724173
49.999308917345076,35.454546885045175,1.289225123249521
54.636829135699664,37.91243192436166,1.3015527369374136
51.54977240748037,34.966463685297406,1.09894162262385
41.180105820964926,27.03798109193812,0.6902538675841059
24.988352810241928,15.256445175481806,0.12524858771861397
5.251433795319895,1.2990529970715998,0.5156845949258174
15.246183304235094,12.852204825086472,1.1694235082743145
33.59696192582374,25.19336278839914,1.7910167692632757
47.190187934054734,33.978734782390816,2.330984441046091
54.08350047021924,37.964635531030744,2.7495221390541267
53.28537361355495,36.58039305944768,3.0091315048159077
44.901783240689426,29.998467895333622,3.067862010623373
30.11307425949213,19.108645957565052,2.901238351603293
10.996590852340809,5.4032205953349095,2.5133034849189233
9.776095900379248,9.226176761191809,1.938350946180265
29.317855683550288,22.75232912214367,1.220219814461874
44.92456354067347,33.2890104441582,0.40258452753244467
54.440154831434555,39.35339009961963,0.4532718676848349
56.54671475571168,40.078995558266996,1.2704533467677641
50.949064143264536,35.337267173898006,1.9618881664979764
38.42485483750879,25.76751676354784,2.45254432274268
20.720746797557243,12.702603343423647,2.708352590629613
0.3056376707411559,2.0231962294623336,2.721704420640818
19.968082750691046,16.34692039397858,2.50336623010826
37.25795642028135,28.27616852608391,2.091942155267372
49.14425830693309,36.16626226718629,1.5447664606667844
53.97743523713953,38.9450488378631,0.929836224074415
51.10401954694901,36.26014736235078,0.3245826460802234
40.962023130377716,28.52013423547759,0.19826360015071914
25.017883536384893,16.83012411996696,0.5865765615722178
5.544023355164941,2.8419203660700014,0.807955265099521
14.706296896355521,11.471852494033763,0.8494192235267987
32.8780774240122,24.095945263300294,0.7235317551334693
46.41511370014576,33.2553629766663,0.47015777694549743
53.412341635354785,37.661328725821924,0.15006558247937385
52.86890997831585,36.69101590025193,0.16921284488427746
44.832128675585864,30.480208231171286,0.425012186828959
30.398412267822653,19.90966486640375,0.5677125884251387
11.564089050945025,6.4823934903899065,0.5693123502402766
9.047393394141361,7.8906066098984295,0.4281751480433719
28.54918063317791,21.16694006394001,0.16146225810535084
44.193211296707624,31.466293781455533,0.19907027653135048
53.76476027763261,37.3373752793183,0.6002197656095556
55.908975479935336,37.958351959054504,0.9809403191412684
50.3240863130678,33.245223146744294,1.290200834953873
37.800422257584735,23.861971085447877,1.484614253688643
20.107773518639654,11.125980759388394,1.5280741128992512
0.2638317834868528,3.1765494693010172,1.3984559133389312
20.46578138220134,17.03397447398148,1.097450411010586
37.6849724440258,28.490185344291167,0.6437658430736236
49.531088552908344,35.92358974295992,0.06555672442099615
54.36922774190868,38.27433907765264,0.5682387144935023
51.534247934173315,35.19364314102744,1.1539706667292748
41.42083494011404,27.09875975408706,1.6138234490703014
25.445858810216553,15.126119847898163,1.902790858945233
5.8551603069735405,0.9744727344324711,1.9847356703264618
14.59117946467496,13.344115332799612,1.8499371248289613
33.00386528946582,25.79498460227827,1.5246125900172525
46.77238829799588,34.61635380040214,1.04706042910128
53.93173761527315,38.56927698380959,0.47233440862090387
53.4502677163794,37.10040891529904,0.11650975394060203
45.388679170489645,30.40678175977166,0.6387274038591717
30.88593365881739,19.403650536075812,1.034483654854307
11.984641161569545,5.604977285969553,1.264837730858749
8.667387888057181,9.081563661182624,1.314136963137432
28.190619873485247,22.615838616216045,1.1877543713475096
44.1879664057824,33.34530501978956,0.9146669347832103
55.140768510808655,40.28605148800451,0.5429585152205006
60.32653657682314,43.04073904965763,0.13858938452460418
59.834012668285666,41.793523230786754,0.2241719232905044
54.46497360514914,37.223770064740556,0.5045915506316037
45.54814444698665,30.357007924765465,0.7012107656114065
34.694170039031576,22.37832733389453,0.809561340109786
23.527081176180864,14.437297475317694,0.821639304480011
13.357053697486577,9.784186201696587,2.7416536071758375
13.689163314328722,9.724289318852426,2.7293877688194312
11.612485891404893,7.876537804975195,2.4329368092982144
6.683302195505151,3.9865243010373312,1.8240277527232591
1.105623903740757,1.8802367458017675,0.9153280700023008
11.229840629667445,9.293400146925714,0.2397410155219346
22.64302051162558,17.46553169652075,1.55806103370102
33.87339283507197,25.32040568681822,2.936967879221453
43.19173794058629,31.626633432186466,4.265956159657218
48.86204726847031,35.177773906741706,5.4249585736596035
49.42051771873938,34.98185906607115,6.287037019936585
43.941347185902984,30.451565525153804,6.75496274827602
32.30129401772144,21.59381240813821,6.80565165717769
15.372506471244364,9.130446152185755,6.4609210832251245
5.032011234604946,5.562534534795493,5.730497903564734
26.453969473185367,20.68413153030839,4.64820442352715
46.1482694718546,34.27944042979687,3.307415644175403
61.47787430187843,44.52589322835537,1.8340017622454825
70.32447598880934,50.01677238633673,0.36966597949653135
71.40225829341952,49.96213400994875,0.9619030466368649
64.45154491557417,44.30333062605842,2.0795358476030126
50.299777322735075,33.734935799296004,2.938672748319229
30.760806767821787,19.60967069928686,3.5441149315668237
8.379575858842427,3.7582932442497627,3.9439726693590154
13.92954992224469,11.752617020142054,4.2056720969736014
33.27545916331402,24.907457368202373,4.395384373396673
47.187611556837815,34.02700221026912,4.558901341371639
53.96890384362658,37.998849155881835,4.71749825645081
52.916934574490824,36.422864779312775,4.857833545072393
44.40513932428226,29.66706351709075,4.939875536490159
29.833388685987153,18.821253975371565,4.919861003467903
11.427697302770207,5.544340561586027,4.752630611838451
8.071935672705749,8.173124020649842,4.396553972897127
25.78425391764327,20.292935808658637,3.816719509550427
39.09290246623147,29.021525274375545,3.015089612563699
46.02207397109118,33.072716254748514,2.057751964314137
45.520760799043714,31.84122044972684,1.0384493075728827
37.61481636732987,25.470975836770876,0.05244625888432501
23.404429026642415,14.837229648294828,0.8241529161437996
4.903808406195828,1.4230267418593525,1.5524198591592686
15.259546745776609,12.890104835807191,2.1066743601147646
34.22305088439958,26.076563974793736,2.4765778570027495
49.28849593093393,36.25604610281102,2.685545906712294
58.29681190683045,41.96311569639296,2.7748246554701543
59.92234868308359,42.345169861559825,2.773744703886254
53.85091161735872,37.281816693951825,2.691851241026112
40.82457095919315,27.409221397061756,2.5263162681044613
22.550647215545485,14.041101167332888,2.2562553550707856
1.475173190463499,1.0069707236237018,1.8670848074325526
19.553110030786314,15.675770244770149,1.3755633507290888
37.67295120717922,27.961505050600163,0.8138353666859423
50.4158675706652,36.2035238410257,0.23380347116642491
56.06737486668336,39.31744512754143,0.30007318197633914
53.91132421811826,36.93955775337922,0.7280558313254779
44.33071140583229,29.465045267328097,0.9828323796232156
28.751468517887027,17.988613893840718,1.009694305700731
9.430840191140954,4.158406898327804,0.7937989505477147
10.868895262074744,10.053463079757933,0.35776481061493176
29.27124539375055,22.6256343848641,0.2396073101665048
43.18179023362155,31.767817479593784,0.9176806765553778
50.63582880543049,36.17751076464729,1.5914764464406954
50.5671353661101,35.21480144653524,2.17103448084195
42.959113365798686,28.986319977393848,2.57490303950276
28.852152449991664,18.348056579910583,2.7554565436443528
10.214737176607839,4.793651417045776,2.6930406258900015
10.32490920511642,9.75911072176606,2.391269378399093
29.854116705577315,23.243356565072336,1.8970917482949392
45.58738747189197,33.745522573381365,1.2865816577757139
55.27004033370219,39.77958380504213,0.6358351118653185
57.50890134299469,40.48731407453938,0.019645993882680526
51.96493673611598,35.74883649676505,0.503022518123635
39.395758749036034,26.200686381709104,0.8964322234902898
21.54458847915864,13.150459038525808,1.1320086770637916
0.8785723390234895,1.60527961259488,1.2018300961800117
19.765573717647516,16.028547849256032,1.125547512055124
37.5625834600715,28.12687141531521,0.9385077933450097
50.08183229538527,36.23217996345769,0.6961343244224767
55.61843720543722,39.227565146532,0.4635052863995134
53.4228533510035,36.70677744681273,0.30245609260381157
43.821435043132084,29.034620000217448,0.2603568919207905
28.183360883085914,17.302240007633042,0.354364347966792
8.725034808679277,3.1861137982147727,0.577051572233857
11.79682440226775,11.294656662238705,0.8983154298293486
30.473863472245938,24.07279592433135,1.2720850769178096
44.663598116425604,33.33083389460564,1.6534427201518829
52.36828289561819,37.7648763245859,1.994383462344574
52.51828565152,36.7564758825075,2.2441886207016135
45.11218030528757,30.447571384855294,2.3595444379127795
31.211288700748067,19.72242721132403,2.3093071194942585
12.786214937094266,6.084788942385828,2.0826661619167246
7.570754712920826,8.554063129409863,1.6911125065474462
27.006671849391555,22.140817772163604,1.1686783214305094
42.79521976930286,32.76478045551376,0.5680924209116139
52.71562913230594,38.928630146887116,0.05291095360648705
55.36715592076465,39.75501159815112,0.6325528925615161
50.35771670885398,35.10692882012853,1.1106233058408743
38.3595199038152,25.618680823417808,1.453519989419376
21.033346742389273,12.611244051982121,1.6713333346416974
0.7925623541085618,2.1003421851512094,1.8041724508042716
19.54497487205199,16.46694356649142,1.8783973027378484
37.141163982032225,28.496756145034606,1.8871244703870902
49.5339594213035,36.53662372548085,1.8137962628312119
54.99088342726881,39.49940380418877,1.6534500642774046
52.75481840087896,37.00117974421567,1.4200139691802507
43.1481046536651,29.39923919368656,1.1404583145329188
27.525108055280032,17.747751202133887,0.8526255677314235
8.08654919823635,3.6653240186870173,0.5957400737040374
12.434383372686757,10.888996517571504,0.3795322358410077
31.161242930031047,23.887580236389017,0.19741767562589735
45.47120931152056,33.512812882235544,0.044758225971376686
53.36282078964216,38.41496411232917,0.094211086953965
53.73290713320715,37.90406899628157,0.2293005340225528
46.52065374005758,32.04589176837541,0.36626724947887096
32.721532206496875,21.65981851107261,0.5202151975425382
14.262603558684322,8.21006023491092,0.6950710267914093
6.265869794886982,6.406634833738272,0.8821613201441671
25.97718978647113,20.135604163979583,1.0804779095229833
42.087504165683825,31.051639248104387,1.304121534032598
52.309356833322,37.626387650999895,1.5403002420332528
55.185311208562275,38.943729834993654,1.725740486756448
50.30035766755523,34.82689460768736,1.7975530792622791
38.35129618151914,25.858594672747145,1.707356103525219
21.046875962357593,13.297484873032635,1.4163029065494435
0.8462765384539801,1.092153555777047,0.9254498958883318
19.395446000040067,15.286468273033165,0.285107269878117
36.831689745398194,27.292209234682478,0.4237258417966144
49.0255012885922,35.42329430490347,1.1189943129950528
54.27824230765042,38.53776354024255,1.724612371261093
51.85590649573272,36.20111391280622,2.1732270276659063
42.084771030622406,28.74249043426586,2.426145975402684
26.310039896948958,17.214242782572242,2.46955454538348
6.727856725545679,3.250188767886062,2.3079328638613132
13.91229505995263,11.170033069432177,1.9673095324951964
32.694676698082425,24.003584447970912,1.4897973122555412
46.94486005329111,33.43336703697019,0.9172552215119872
54.61465095023361,38.12686616838318,0.2886046858429909
54.58771226034413,37.42084077590249,0.33624064601374065
46.839731517271126,31.406669891819217,0.8902614434003528
32.443352307617815,20.91652655680709,1.331215076471262
13.412389182018082,7.408230164471171,1.6316288128793432
7.601744034795382,7.235977164735721,1.769754523219775
27.682381488886765,20.965625578737644,1.7388846073315185
44.35881170125942,32.081845107847066,1.5623393979536422
56.02343566277182,39.52761192747384,1.2856074691526687
61.869147216628825,42.824689104742724,0.9515238765158734
61.90829863168695,42.08307504268676,0.5920026859422843
56.886020707271214,37.9234958250112,0.22952680168071987
48.105273521232824,31.334754146737772,0.11239214106470424
37.18429804040493,23.491747378804785,0.4056298374307244
25.786371891723512,15.557577252102153,0.6216536716190192
13.620326391404525,9.989773644211768,2.5619358047997647
14.084450234893445,10.01362994594027,2.5251228387311153
12.119707565721171,8.219255947124676,2.224738371624482
7.260989398627192,4.342577128053179,1.6376921825205297
0.515873667173476,1.557451800144784,0.7745063762963411
10.7013548208458,9.0515435608862,0.3178867461786302
22.25920027782747,17.35170366501337,1.5584485444336664
33.72184626059603,25.38495797006539,2.834510580060972
43.36156762434027,31.920760290668444,4.016720710064001
49.43581461595854,35.741009870765815,4.984891104470393
50.451879610038965,35.82879886045908,5.647135141701341
45.42858103944184,31.556040224147495,5.961525221820831
34.160225823890926,22.87374182269677,5.956990949088622
17.43146390698595,10.455443437346156,5.676396777831867
2.9961039630130046,4.34959173265272,5.1291947813245535
24.67939947446576,19.744473041537336,4.342544502959476
44.86330456220982,33.75439577199987,3.364667207022305
60.8680047698045,44.51911540485962,2.238077106019987
70.50313692848673,50.579625898767794,1.0137302444777878
72.39563775311294,51.08864306512346,0.2523073438726199
66.2014233772333,45.934020502097994,1.494740633290161
52.66812658527677,35.75028819667087,2.6419641960708096
33.53133454620356,21.82923445608923,3.624339596478011
11.27385231206967,5.958370220598824,4.37531682302631
11.22190523036277,9.81576176596347,4.856274799761718
31.056108552890517,23.462888750672743,5.056104044752328
45.70326423470708,33.24313443476167,4.9839546266801
53.363010324886325,37.946813204991905,4.675221019167902
53.19537594311794,37.06597604213398,4.190035943314302
45.4381503080292,30.874709592784676,3.61588450182617
31.38228095865166,20.397956118560433,3.051552356887763
13.193598108681522,7.266966812991421,2.5780342844486
6.386802036532723,6.523709409742244,2.227739519677684
24.433510976316807,18.908504932727393,1.9943236379102185
38.25610518018207,28.048552584202533,1.8714470206063614
45.78728097901986,32.596083321761846,1.8333168282029402
45.88575826575106,31.868600488722283,1.8192540802401074
38.49144875866854,25.93022343319317,1.7526889758072297
24.626018357089293,15.58601630362916,1.5546173374833951
6.245085505479823,2.27051974921121,1.1655727075600966
14.047044764118551,12.148178728505515,0.5583271815672404
33.367516437888874,25.6216212309464,0.24137239984408296
48.96049285146083,36.21382981721217,1.1448383636379325
58.58515054337192,42.38255930200338,2.037588811132675
60.82512413275061,43.19672318450661,2.809890186259438
55.28210542930093,38.47022410038631,3.3710326363937813
42.63241131541228,28.797917119801912,3.658069302367496
24.540576556647498,15.47338680942363,3.6407005402981856
3.434990886626589,0.2972885352014003,3.3355245617493505
17.830761918732097,14.677841451565493,2.8056957352588996
36.37270991229211,27.432835131571547,2.136849602910687
49.6797401557759,36.26600855491807,1.4123769974336706
55.97473324411196,40.028286935681685,0.711021062213844
54.462756944782534,38.27136658141934,0.11148546890678432
45.436600743800675,31.299395020124166,0.32134574194690707
30.23593065972074,20.134270245364338,0.54721456775674
11.056976978312719,6.379650558851712,0.5520219721193002
9.365143475167498,8.005346932527106,0.3548298626130695
28.14248276071841,20.972637237031428,0.013658841332298412
42.62899448733337,30.674841659212383,0.3858257272230666
50.78524565383657,35.737916201918175,0.7540765974704685
51.45600726871873,35.450793137915426,1.0234140234664917
44.523879553330346,29.856060221544173,1.1632111054809637
30.935275558182777,19.746317450400042,1.1615592542294637
12.576017785528128,6.555555833414134,1.017171852201954
7.990815644523728,7.846606850715668,0.7567642118765582
27.874659936660308,21.417737587370166,0.4279031013777736
44.260022160740384,32.227999538054725,0.07920465265496585
54.80885549370198,38.73388503083946,0.253849425142296
58.00256708628799,39.99719095811521,0.540105288068627
53.36490888458014,35.81656825887948,0.7393039452047694
41.5285884451955,26.75219956733544,0.822160507595895
24.15284325662053,14.050579103323802,0.7760341836285369
3.6801569210547544,0.5213274469195275,0.5943353925708753
17.028759159734115,14.928603827197303,0.2905386454687053
35.09586081658332,27.162848108488735,0.09425827040122092
48.02965626817088,35.522048307782654,0.5117881841900637
54.07069124381099,38.850038301189244,0.9105827254886794
52.419674643288296,36.69866372748293,1.2242133587101987
43.34292270800005,29.381667303504774,1.3976131876508038
28.14015711515415,17.93508357827609,1.4012669559445938
8.97061563356773,3.982718835997508,1.212089976720713
11.442803534662438,10.493447185150274,0.8259099861664106
30.18878309460192,23.43433512066843,0.2650727146582373
44.575111220702965,32.999718529680244,0.43139431628942043
52.52602549422347,37.836685202834275,1.2051393251000821
52.89048506963196,37.26414030474726,1.9873570327411438
45.602164345921665,31.358613147909505,2.712783950131281
31.681325541255212,20.94352539530162,3.3241042053033847
13.083165809516572,7.470521295399544,3.7470904104122704
7.5845610678591875,7.18250608246052,3.8880494450928644
27.436970826182442,20.96664087056678,3.6972051149680065
43.71151830282706,31.953069366630643,3.1858863262356367
54.1420314293506,38.60147867259759,2.3975189075410395
57.27116933193417,39.96681563756511,1.4066997221746003
52.63832748480445,35.83883784613484,0.3186987823377624
40.844647308032364,26.78161613729865,0.7482037663951729
23.49645380339469,14.05902555503229,1.6896970466609542
2.9925522263187627,0.5419730319923715,2.423966419594469
17.809986474999736,14.971711936337913,2.897899503479091
35.99839256358853,27.210398711935774,3.0963518967935117
49.0258450078241,35.55351903357099,3.028263171477676
55.08137284085273,38.855637769535406,2.7295350464886954
53.35036698770811,36.68136178530244,2.2639890052397136
44.12298539234854,29.35465360426188,1.7013435759065558
28.739171549462252,17.915141852151624,1.1133977996919704
9.389920817468203,3.977148511924955,0.5824562185296822
11.197628053607435,10.496832090810084,0.1864954183389502
30.142201687635065,23.468211474057732,0.04868509693828476
44.80209126991254,33.106199550171425,0.14875173607027442
53.134205358802525,38.05204066345665,0.14489077716472543
53.97193825356472,37.60342418866146,0.08442393588553701
47.18010858405164,31.810083758872715,0.029875720179158176
33.6762816993358,21.47813968738799,0.020716487822509653
15.321831789859345,8.052979261314933,0.07689286254693904
5.32865057609823,6.585485873917614,0.20362256488775096
25.385615055838514,20.385408683314207,0.3898999856806299
42.026975481136894,31.41359422519098,0.626621931100405
52.903237699927615,38.12731862248574,0.8977751008553795
56.481095913031,39.597853030232834,1.1601656539178034
52.25959271277594,35.63243796099893,1.357723766304659
40.83712541747757,26.785247150785647,1.4429018837844296
23.820885404002638,14.281633053528314,1.3826569629119527
3.588990276884232,0.14767134549017405,1.1631548917489818
17.04402856645683,14.508218185601585,0.7941196005984132
35.2121425006643,26.818891949129593,0.31170117208112524
48.39434961684708,35.37916355617241,0.22693210395183597
54.76326646366269,39.00244432239664,0.7561586159786903
53.433595983545764,37.18660375297798,1.203726989090393
44.587912547561935,30.185045388054593,1.5031989891844528
29.463883862683044,18.98163417132463,1.6204380915100427
10.191273110903209,5.162973330754248,1.5486565761263016
10.502930160501789,9.31219875021337,1.290071205137453
29.681412288535004,22.390672605629966,0.8702662708932626
44.61705332340861,32.21889094275644,0.3416784269311259
53.18466561393041,37.41885636381357,0.23463210596437648
54.16950784613102,37.27497197210005,0.778889261189723
47.43756200142958,31.817776410047117,1.2027682308297316
33.94605751652438,21.81679997231397,1.444554273542201
15.600877275249939,8.675715400871741,1.4749107304658295
5.021849696369243,5.75976299274798,1.3058164157477374
25.03851723842351,19.455587726776805,0.98723700346598
41.958206629083676,30.703626942628794,0.5801254388487808
54.10629292019126,38.41288181831111,0.14426363853142066
60.59025777572887,42.055474735633595,0.26454694120098965
61.332778658581304,41.68769074336785,0.5981890303777162
56.992922950619686,37.88516987306985,0.8239564177690604
48.80194381833913,31.601734975652107,0.9287861631096896
38.32683093650277,23.987868608029498,0.9187625594904029
27.197488890598542,16.19508983500717,0.8165769920166073
12.982554164096792,9.700784468409111,2.9591462189439492
13.684715367100548,9.877790640595002,2.819044904310353
12.09807587981775,8.31286774712083,2.3536626410069696
7.719023258510351,4.712996412387773,1.5614652765908634
0.4586392176825114,0.907074675727608,0.4806188086780244
9.254484148318017,8.169525156623578,0.815484226280551
20.46305114779213,16.32941559582168,2.232589959756064
31.765020468225735,24.33543082011687,3.6577822512884706
41.4721832659529,30.956900991688915,4.95784185904494
47.83788454113371,34.96387921821352,5.989217798018588
49.32917277868835,35.32162087823339,6.634070304346571
44.90543683282981,31.3807991830989,6.832024678977236
34.27833774831018,23.06717087691584,6.60333188495689
18.139625870266247,11.01888740361016,6.023581651420574
1.8224530906904082,3.4507689351161104,5.159345547591311
23.214334494497862,18.57918803027969,4.069479505259426
43.30561828688085,32.42830379567334,2.8152027261159414
59.408207919968376,43.16064367137214,1.4558484893085724
69.29499324628883,49.31874798611238,0.07249519194082968
71.53236644147253,50.03615811607906,1.2459993314544033
65.697679061297,45.16190418357392,2.4206721322045315
52.46377484792719,35.28634373753005,3.382977555505868
33.51723279857261,21.664123787359845,4.089260401290539
11.322599910819758,6.061892281144687,4.518988767358236
11.22938917959332,9.480671192232437,4.678341372865776
31.211788659732264,22.939463483602776,4.608996496117995
46.05961647375322,32.585136450167795,4.374119984399463
53.924923191636964,37.225171161808376,4.033388955825507
53.93001553970528,36.36288041056888,3.6383095313487672
46.29006748154163,30.263008078454817,3.251580806673038
32.27002133845859,19.921952005203288,2.932428457161601
14.004890210789124,6.923930264154357,2.7076631583534505
5.788136747579688,6.784681723499655,2.582136210655163
24.18795901034755,19.168471093516708,2.5459502779751433
38.479453696499505,28.395543513809248,2.566447372023926
46.540656461911155,33.09652950392331,2.58935700026908
47.15203775028832,32.552612908644235,2.5475755748363884
40.17324726329009,26.791219358601094,2.3832662269366227
26.55672160229656,16.578838568046336,2.057766491819952
8.208887437281339,3.3151313932677064,1.5483374294171217
12.283955545255992,11.156264730618505,0.8664906905638273
32.033431972208525,24.805296925573654,0.06916718634222306
48.24789629974036,35.70766756989585,0.7522909672700463
58.612105704793045,42.310626451971274,1.4976698035618081
61.61264904886202,43.64818435243494,2.093796003083858
56.74348456366983,39.48422119081053,2.4997471814619656
44.582111426048435,30.346512701349962,2.698541714893841
26.721750998418173,17.455610442683856,2.7073433989421924
5.550705201974496,2.5559953754085725,2.5739319199722654
16.07180336536721,12.333885576931484,2.3584765943603974
35.204976800056805,25.206314737457788,2.1211949840574023
49.248788109876095,34.34577487868419,1.9089076004737016
56.324533375381286,38.56692885218658,1.7516153866394608
55.53861676006372,37.37047767664225,1.6747150830901876
47.10408509327936,31.003747213577885,1.6859925483032407
32.30438508274648,20.42309697437814,1.757195413837976
13.300150608394844,7.163925462783341,1.8502714366855622
7.1812909036220995,6.866398716034421,1.940858117043097
26.231280789556003,19.653410100113362,2.0088314765339494
41.16338638212178,29.36305580914092,2.03528449092942
49.88019506143168,34.59991646238755,2.013539520915156
51.15987053238171,34.59707614890427,1.9480140478375165
44.814907816870004,29.327475531250638,1.8447255091315529
31.719016235133086,19.51598087303506,1.7094283125533614
13.700804246413878,6.536762387038389,1.5374276634385586
6.708317343089523,7.780801077807229,1.3045231837937168
26.62379637412234,21.40984833766726,0.9819431352511766
43.20927860802982,32.41448057938458,0.5580172503861233
54.092934767335,39.22771797714216,0.04233076377837913
57.712313930860596,40.872743489609604,0.5432835360854927
53.52779514829654,37.09422527202274,1.1590367192651199
42.10126731660948,28.39119590066018,1.7467413335862085
25.020727225623094,15.945067933464928,2.254219190647471
4.661505763304614,1.4581767672016042,2.6344698181954933
16.156359888060724,13.078671897761907,2.829564271770197
34.55929263424042,25.667265559960114,2.79869843284713
48.0198845326169,34.57969989004206,2.560872605657472
54.702163323336535,38.59961967797722,2.185121151877706
53.711065922925016,37.19376888195489,1.746655946053514
45.21554153583193,30.582374056041484,1.307858105850894
30.429105279793696,19.71967658703563,0.914334081434539
11.454527474992242,6.170120554393865,0.5972406728601458
9.00736458010788,8.123935307338236,0.3937873944749174
28.040871981953053,21.117790497165803,0.3411875609152211
42.925799669726324,30.95169947460312,0.439724158348099
51.53757470003361,36.224978784185026,0.6536942928896459
52.657312950300415,36.189942091041495,0.9393306575826006
46.13281127093386,30.845508998416346,1.2377809431634108
32.90013198065429,20.936366505576927,1.470584792462353
14.847203947903084,7.848665041455355,1.565439052926803
5.470300695590314,6.58476675851391,1.4713448745181172
25.191030272646955,20.3363218025933,1.169928341990406
41.54317979204735,31.46606891307593,0.681005293397513
52.23154646326794,38.39581810330674,0.053082638242752944
55.75212442649172,40.124578014003916,0.6506691599541627
51.59054564599114,36.370117685863754,1.3715928553202754
40.29495264458378,27.61765642385987,2.052429693595401
23.41180366826452,15.057818871394174,2.6238851589136036
3.2754724124979253,0.4295235514269454,3.012805126220712
17.31884639769944,14.229175138916567,3.1640257888446657
35.50267465056791,26.88265780672427,3.059419916863893
48.73253106795485,35.78096375149385,2.7198552451714093
55.15649516637695,39.704139555823055,2.20277912418539
53.88203308368828,38.1345232874607,1.5831296241252122
45.093197344189534,31.3140219459296,0.9325645486783858
30.025004193447803,20.203474869939097,0.3282183721995095
10.792927131870767,6.354755584899936,0.1648071537865252
9.912282601302037,8.30368208458946,0.5165994924150903
29.198520912693187,21.729991616206412,0.7186433953054117
44.3697292825896,32.048791027263825,0.7857843695115974
53.3078033906742,37.81362060574463,0.7534374054418732
54.769204066931685,38.206943419474065,0.656875506049058
48.54648020828344,33.159931518883134,0.5401105266719728
35.497486730336405,23.379129166435728,0.4623069852136476
17.441670457431382,10.253173927955753,0.47220797969119993
3.0937640170190592,4.350799132706648,0.581031873431027
23.2313546478015,18.35889014811258,0.7646347532985015
40.140909746243786,29.794313021822376,0.9857051084716858
51.43730527465143,37.058025575549436,1.1985240039238862
55.521372128806995,39.14290027791665,1.3490203783223862
51.81026437518488,35.7666179909794,1.3922005450289716
40.82171782999303,27.404145572890947,1.301963576977496
24.103286529552104,15.22421084550002,1.0656328242456343
4.014786770019323,0.9365880815016808,0.6911878566596922
16.610174232738693,13.444645085944174,0.22168662119424296
34.8676903768489,25.88948318783368,0.27838174589613546
48.19418916523192,34.64391383642328,0.748746202032581
54.72575359407737,38.475467458398896,1.1341185558533782
53.55561667853076,36.84480409848939,1.3834645800646728
44.852765170580966,29.98315309384606,1.4720743495272335
29.83018509965922,18.86543007713519,1.4025789724781963
10.58530800585394,5.076077159149803,1.1813669293558358
10.18516406230776,9.426115037092485,0.82535790409571
29.566566160722058,22.58853793227146,0.37309205869259904
44.83013810483993,32.55280812978159,0.13055452160200007
53.819724878511856,37.922636061841935,0.6342582063219944
55.26446298966636,37.94993409207044,1.077769176522425
48.95752659663667,32.627823265446274,1.412456016247281
35.78877192092642,22.693697843832247,1.6096034505582362
17.620557627659725,9.529356908878643,1.6482399406224353
2.9882578674781564,5.02805181851999,1.512826910375652
23.155115956476305,18.948728380586246,1.2128352750494766
40.36812545395606,30.514019869351028,0.7866162610520862
52.911986510414955,38.604620311089896,0.2812386412320737
59.850412831993985,42.66172585006079,0.2517401112416553
61.06413883849145,42.70138813753736,0.7536153353481897
57.174916450158925,39.253256910042374,1.1702373085591256
49.37423732790437,33.230197057130006,1.4679874819279632
39.189809435430696,25.75317455069478,1.628585705104929
28.22955000040287,17.96345649793983,1.6422451382301064
13.157578378493838,9.588539962002667,2.7909908456942625
14.087396002541709,9.918016105948768,2.7726582511956455
12.722908017136035,8.538907151639329,2.4415456643112914
8.518342797007131,5.135281508887939,1.7811192540494873
1.3447307027163091,0.3072765809357561,0.8224518010940188
8.398411254224978,7.437760410418907,0.3636847530482041
19.765375937224384,15.537611050770199,1.6878365463523846
31.35302874836734,23.586339938594772,3.0383276501966914
41.45817924947876,30.375096111952328,4.287507295558345
48.30986701568595,34.674298210780506,5.317903240261271
50.33946147811859,35.42548316985314,6.026847998100507
46.443227553966246,31.928539960429625,6.34977715452553
36.24430759604973,24.02719631476322,6.300363619272914
20.34484116198625,12.267698101495366,5.927642956145088
0.3694626895324137,2.1058956686895667,5.271403800354465
21.311995407144813,17.364320035621144,4.383692801522117
41.94805380647245,31.555279539843493,3.32238900508274
58.78740837920356,42.78595053825981,2.1489985256573085
69.51526585118374,49.52509540095837,0.9328471413364161
72.60451028178973,50.821112128148485,0.2695099990475499
67.5437728897253,46.44195162537222,1.407949473186136
54.92263263606752,36.91603871406935,2.4373390878517123
36.35363778440696,23.453310776266502,3.318997213259587
14.252840802845604,7.79357320895922,4.010917627150259
8.508145431767504,8.029857354709165,4.480848699949273
28.989934858054504,21.970699356999702,4.72043573194036
44.57231489053317,32.24723607555358,4.741698890505131
53.3171453021856,37.59183937172189,4.570881550976273
54.23485317623903,37.4170115948731,4.255229102370656
47.42173954779423,31.896208611354865,3.8586138248717137
34.04573387336785,21.948554099521495,3.4528076834853825
16.18306194072535,9.115277783689729,3.111328294485746
3.471723491360248,4.65545476478041,2.884202649937769
21.989346327665345,17.296255217138587,2.791920872390049
36.621218567322316,26.923139452634313,2.8113363251995067
45.19518809725909,32.107295896127155,2.8690547381219655
46.43109709825669,32.07424450942306,2.887671983624868
40.1131078141306,26.800462438887852,2.7930800395801794
27.105922794883465,17.013499081090682,2.519950038183086
9.235889846269457,4.082565281800306,2.0416431917098623
10.966161133106846,10.175823211272588,1.353794750918064
30.636875469816513,23.743033279194037,0.4751831999216467
46.97966581678815,34.68746661739619,0.5426647073642386
57.650344360319316,41.437510246201434,1.622717512881322
61.0883227442947,42.99162368682926,2.664853099583046
56.73121086712665,39.059737860932756,3.5772787083228925
45.09657817047765,30.11271887692468,4.289575474181047
27.7058274588482,17.324329177710208,4.738322666455109
6.871156206671461,2.4099665373945616,4.875501847996427
14.609711333831841,12.61419469940721,4.685078141097361
33.842216976196205,25.71730536408738,4.1954082135374575
48.24024116558,35.14191271441486,3.4818477462332935
55.881900954286685,39.64722143021205,2.6485600433339083
55.785558692072506,38.67771941020053,1.7899770790640228
48.05019948390788,32.43390118732774,0.9805896090064379
33.8391626061277,21.842450036923676,0.29593825502999344
15.217044978158736,8.429104649528995,0.2029021147901666
5.145514353307046,5.894565712397622,0.48429974283987787
24.353712818641032,19.093372786702343,0.5358797802417932
39.695154155216585,29.29809105428004,0.3777725470348052
49.01245176041764,35.07243494974664,0.07109717935399316
51.00044062766823,35.60080250719995,0.29395082985010745
45.38134088331569,30.79792628058205,0.6137188835405986
32.9405430278121,21.329449718717914,0.7985449955609292
15.425633578299081,8.523356600244236,0.7935949850222755
4.698382596618279,5.814887774390883,0.5847155929510277
24.58499425823158,19.655090723962502,0.20144344876064782
41.396979418527536,31.03032873358468,0.2847002549838962
52.722800440488484,38.31816827101553,0.7806194044880103
56.919406350985774,40.470115824700684,1.2024214974209206
53.34373350712127,37.160054034990544,1.4867928038825278
42.46340043835399,28.828874563173187,1.5949703507657287
25.7907654503399,16.619612857250416,1.5131494227209055
5.651406786328725,2.2178271103106604,1.2489527869367267
15.150071558793643,12.384915782883276,0.8342887926588813
33.72033456725416,25.17272244162246,0.3210374728445291
47.48255792918593,34.38923665968906,0.20910747750647307
54.53777578380223,38.78012109700555,0.6499927705674017
53.92045573063876,37.7581636702279,0.9178509182467537
45.72860690811945,31.480723953283114,0.9675230513945701
31.113967600192005,20.840326974196007,0.792455360544005
12.130340664148509,7.35012385263124,0.43649660136231444
8.543100725225282,7.071058968872985,0.028907412320005575
27.981014199577025,20.369572016803254,0.5414778865245374
43.424997892309975,30.651969063468318,1.049321246317743
52.67688587374384,36.461263711101765,1.4940480881073555
54.41972066855953,36.97960653444853,1.8205940782495154
48.400402667888784,32.14276991880697,1.990020969761911
35.46421788340716,22.650771879385655,1.9747214466638452
17.432235838347253,9.856120504356133,1.7662615539680615
3.172896778942088,4.43643106905481,1.3790526283384592
23.48414824832865,18.217108796348576,0.8446570576317257
40.67747926140881,29.54891464028701,0.2087133453607716
52.36292757697845,36.84169078134703,0.4641865329845404
56.91734139509745,39.06760289735034,1.0818654828794545
53.700278560872334,35.89223185731768,1.5605947188813072
43.142938615583724,27.727572023607017,1.8548885891147784
26.699341049051576,15.691357404080792,1.937120104457911
6.65052215274934,1.4558801078915775,1.8025471672760023
14.209988816336786,12.990289221724508,1.4739639811221636
32.968905858067686,25.622875694060482,0.9804827834781662
47.00649275082528,34.66871028121035,0.3663074404662849
54.361922024684674,38.8682538900859,0.29510404011238345
54.011237421172716,37.6500159591634,0.9184203993470151
46.01779003673368,31.194017562536523,1.4295507154038294
31.523271645729164,20.407681076442746,1.763324208596713
12.58147071952109,6.794388850803959,1.8651733909272967
8.137825773604943,7.764958709079757,1.7151909505734972
27.72045571258083,21.26252324782634,1.328403676623577
43.413516311668566,31.83023242317272,0.7402604651979932
53.014889544617766,37.99776167906829,0.016265877329929488
55.17603833935581,38.897320096401515,0.7394029577745584
49.57991035090439,34.38455732546237,1.41162486715649
36.98629990729483,25.070145070335908,1.9098917378184725
19.137354761906234,12.251246884498231,2.179576775230503
1.4829769423474548,2.267637488248606,2.204466459883804
21.994734044107084,16.436969789902996,2.0029544038106777
39.51791066002841,28.25807629725362,1.6116066692003164
51.58144940173012,36.0711026500434,1.0747108040047038
56.481888473992655,38.79588382947441,0.4610702101099087
53.52952426266763,36.07607479073842,0.13492730633877315
43.150583404493894,28.3111041436422,0.6310722387100524
26.826229886043567,16.59932281661525,0.9658417427048567
6.870261608228453,2.5918653721479923,1.0997687684973514
13.908229406871442,11.738758027842527,1.0379540898550186
32.59781132434683,24.374940687658967,0.8210241510207615
46.59323790452225,33.53182742428311,0.5074210738493218
53.95756188185448,37.902873303317904,0.1624193641179908
53.67741188886556,36.850781479592456,0.14905884549874215
45.79918269957215,30.506947036703746,0.365266380349891
31.43043724866848,19.755055368641127,0.4508604467595909
12.594390169346326,6.112927888945634,0.40398729523789795
8.047309982799693,8.483967778404892,0.24497299767322686
27.57093970381855,21.96575289277746,0.009098035792547992
43.20159463974589,32.422195236222876,0.27454251636306165
52.70863227915633,38.375333128609945,0.5922178654177515
54.734808508336485,38.98850407215348,0.9321968773186132
48.987804734672004,34.17709733640866,1.2724614904924727
36.27856864538253,24.610555526295165,1.5762624930814024
18.408651667929576,11.617150635000012,1.789858544307872
2.0983562849630295,2.99000102228513,1.8575514946248497
22.366112908928194,17.16435167835411,1.7470747318317417
39.85711577926077,29.13920473945195,1.4694269464413132
52.80415853907955,37.73234358679029,1.0616583536168307
60.204101823505724,42.314248644191444,0.5640946246072649
61.86373356676411,42.83483100609291,0.016908040248231008
58.33649579943609,39.77361464889111,0.5374585556198422
50.76972100797655,34.011925237793385,1.0472199901111805
40.673797659601455,26.658186610852002,1.4688830384825688
29.661403154264338,18.862546045547806,1.7678100779161317
12.700618170197913,9.697886087383663,2.567382577013075
13.774840013054945,10.044509375345337,2.679855725279115
12.670474002805816,8.697061091984288,2.5293648701086493
8.818337620540461,5.33365110890532,2.082475485828334
2.0438256923208153,0.07483513021136062,1.3321002343991049
7.31582440581298,7.195961781478565,0.30452138849828053
18.38072287490851,15.328504861583326,0.9302487943073481
29.802032954999678,23.46403764157434,2.261573126716384
39.91409397184041,30.39828106985299,3.565597070600227
46.95906893541181,34.89336421460547,4.723744274766557
49.35623006598528,35.87174894819463,5.622650668387115
45.969376648893316,32.60563939230725,6.169635332324136
36.36199966916481,24.90586697239066,6.323087550081794
21.059321783295832,13.285800268081854,6.092685440134446
1.6111405792227753,1.0380757998897594,5.514049501448468
19.681330371408105,16.351830867188227,4.640108463556581
40.120777724529574,30.712063341609163,3.5416885103322104
56.98433533886166,42.221469133280095,2.297970705366877
67.95172802115597,49.31976149447808,0.9887991665343342
71.45241162031931,51.01373986807723,0.29940318976175223
66.90319061265471,47.01658825430578,1.4762009219877572
54.80766065591732,37.7961763154346,2.4665753176044714
36.69169312951773,24.5205685547009,3.219661507386031
14.903292371367666,8.90400530325869,3.7140284387735174
7.720752175055971,7.033426410789397,3.9562202564434847
28.248825175733696,21.23724483009949,3.967376946158657
44.05227063407876,31.887749881374056,3.7825210819375052
53.163632113857375,37.65624272172149,3.4606376331203497
54.5389915504476,37.89126780959164,3.0859447252151826
48.198950351929646,32.69977117731949,2.7370542114832617
35.2230772290014,22.94016309892857,2.4640862208346426
17.60694736119564,10.11559667862471,2.297705379971625
2.0136270723634717,3.843806696882876,2.2439297607798494
20.743022543988854,16.865804735637212,2.278475544512194
35.830421716359716,27.033370668466787,2.359268105966794
45.05408665203191,32.85276018688704,2.445280344191078
47.043446764382324,33.463687731890055,2.4968291953774515
41.474658119819495,28.754369729926637,2.466481344774281
29.109683565549044,19.36571039988431,2.325380245393422
11.69128740249199,6.602594369351577,2.069748242750824
8.308646082877413,7.751242711809075,1.6988727759383286
28.058359868453326,21.686606156218247,1.2237796258037494
44.76161665173964,33.23908835189746,0.6714309586308975
56.041578859449075,40.75897817252607,0.08052682609672099
60.26948348188725,43.14803901743178,0.5004773031136672
56.77550921290633,40.01645201566758,1.0232711043445748
45.94789801016963,31.738134603185973,1.4433298734729596
29.19670126222332,19.40709472833211,1.731067258450353
8.757802422386243,4.698036806363597,1.8732534117523731
12.61153358823972,10.372050538625205,1.8678607017214923
32.00956395907302,23.740170479872,1.7433275032132944
46.80365485504011,33.58853887744653,1.558704317632813
55.00145392417319,38.600004871076926,1.3737513235348517
55.533524992753264,38.14071383947027,1.2451191980183642
48.41474056651967,32.34412089930733,1.2335986555933713
34.73652706874162,22.087647710490092,1.3776774607882163
16.4987883536825,8.858971049928602,1.6781080426897967
3.681762647141262,5.449936183228261,2.108456182105234
22.94474012200162,18.79832047038784,2.6177296395884033
38.57281136572048,29.28261501383344,3.134021738980605
48.35936639677224,35.40445793579194,3.5706370543060393
50.92024319662036,36.282030848698234,3.840163059179852
45.88080916735422,31.771195415321785,3.875434764342396
33.92844837688776,22.49076287172078,3.638886000337336
16.731418538053152,9.746393243451093,3.1235677730077884
3.290926731716054,4.655914520510127,2.35758539898787
23.304852339539888,18.6738122925026,1.4063201251135982
40.45292388463989,30.32579299095483,0.35930097796621246
52.26856640859529,37.97096086257274,0.6767529875579902
57.041808269832295,40.535324663673435,1.593551512468422
54.05744549795493,37.66055908550949,2.315484973056945
43.699138154285656,29.74268031543196,2.796266798514297
27.4003394721397,17.873569507090124,3.01208833199515
7.4255715296849285,3.6960175360624006,2.975316328563072
13.455790502365268,10.828802668957993,2.722342308459977
32.35527305199897,23.68731095771314,2.303895953359223
46.66810632033095,33.08729031518448,1.7802514263740106
54.43128807521838,37.72254417733063,1.2114052063502119
54.59423390867069,36.95848762312779,0.6658902190324492
47.16215935186648,30.914496167497468,0.21749818427803272
33.19861632005888,20.454686181070453,0.07399836550815585
14.685054142344313,7.074411744480017,0.16677426044897814
5.7549880074395485,7.3173566154187775,0.04212366920672273
25.22112979086413,20.67206993493049,0.2744517884705485
40.94335150025716,31.085167302203846,0.7093711219458392
50.680952963238646,37.065964503743544,1.1683889240462089
53.050314176120374,37.746241879899394,1.564433596725864
47.720282812667406,33.002827552445225,1.8312212959370757
35.45258614493204,23.478045590140184,1.9253073216784076
17.996177509071845,10.484739313730227,1.8194700623160363
2.1709301928315754,4.1660213486916975,1.5077692469264936
22.205099883796375,18.417664747364253,1.0283716961486236
39.29060022632877,30.27438708269977,0.45996308587167867
51.030040255271516,38.07521663948754,0.12633014866849432
55.77497945103645,40.723055773348825,0.6971534102932609
52.84381598880488,37.84124113208671,1.2200788965668277
42.613380807667575,29.817800440398507,1.6291758458574648
26.474334601087012,17.756947621083405,1.866226231892383
6.6450695605815735,3.332225748479809,1.9106543094867021
14.134702202665162,11.45385842507402,1.7634721648046454
32.98152210479576,24.550280157680284,1.456126321873704
47.269379328890594,34.14411033809114,1.046398882753563
55.00546086243328,38.92006825452618,0.5928623436487466
55.118817700229734,38.241306772198065,0.14526110935200134
47.60940788007277,32.2272598220846,0.2571648957367474
33.54298648755546,21.733835337307575,0.5724817615774237
14.897713664743042,8.233879932534975,0.7584805901650996
5.720772211561125,6.38887739751701,0.7847964285516051
25.44271424031821,20.093958765941025,0.6411805707390801
41.52934242307417,30.967172101689357,0.3585108705234457
51.75385922607887,37.48919749435789,0.016890170122154054
54.702677197360586,38.73670923914242,0.4584116682247635
49.968687116598254,34.514488879536714,0.9204399998015974
38.21539174441895,25.398237549480704,1.30654646601922
21.086486172983438,12.66221089384404,1.5196679291932442
0.9827450123145883,1.8956874739261504,1.5197653928598873
19.264673107873755,16.215207857375038,1.3125644083942352
36.793588724100665,28.27506616297894,0.9250916907659852
49.11969436894134,36.37865997989643,0.4071073770507803
54.49427617669221,39.39500541108035,0.16811529063622055
52.15779265257421,36.91161914900741,0.7105037493316979
42.445020774798806,29.27937781386057,1.1450572204664249
26.7356908740565,17.56545072522382,1.4321300306223612
7.260276507537902,3.4104747128761113,1.554187264040813
13.223950973992862,11.198407640996411,1.5126069976909504
31.82488758388353,24.201514872853014,1.3205316038858568
45.91490267228052,33.755545013081246,1.00093175720637
53.506008490466904,38.499422940584,0.5973606674599294
53.52976765941037,37.752605018718626,0.16628756262778643
45.971291951243856,31.61311805330218,0.22520364611510268
31.87361737028517,20.950998625915112,0.5062088642521768
13.20563952016891,7.286416618108933,0.6228459750549652
7.4148053817496065,7.438170343563989,0.5492764778410993
27.08797740659985,21.136135377163736,0.30053648570841224
43.034920981538754,31.87505646468074,0.0784609117740743
52.99543259577185,38.152704742587204,0.5354355386155426
55.553265228946216,39.09919480642514,0.9945054004660033
50.33803197073832,34.591885397286525,1.3558659820124388
38.07982263902512,25.262726524749088,1.5390171161553223
20.502081208092775,12.407374184116184,1.5053243568622283
0.06740567998086407,2.185437511012573,1.2452969363033657
20.376205341038286,16.483044153656063,0.7721811497312359
38.271607043997555,28.70041018325293,0.12853145067931687
51.7883633181784,37.60802707619137,0.6163261728128976
59.84101260712955,42.53220656054456,1.3695819009064754
62.155690087904475,43.38871914755967,2.0244153243515832
59.214856619951206,40.62695711661434,2.488232954153677
52.10375452600946,35.10467833083085,2.7110596758092407
42.295678471904836,27.91542543634124,2.694480586244794
31.398520221091502,20.196305236506205,2.474253619785567
12.844944606836432,9.56129163697458,2.7063529445643573
14.174602482923056,10.070730631133772,2.560741672037041
13.336880978915842,8.92247732722338,2.1204848468082074
9.722352255387724,5.769395799529845,1.3830040768991372
3.1165182188363802,0.5545793380190011,0.3774248218002458
6.184069515537686,6.422939469902458,0.8366677065209167
17.331537980694062,14.495827958839865,2.167715235288325
28.993084894427913,22.68415222049872,3.4953629003586064
39.50120053972943,29.798693174823082,4.692929801117251
47.075967880425864,34.59861259492971,5.636493342427769
50.09439670613363,35.98307402715358,6.217677306908773
47.35306713473298,33.17580640767301,6.379238026609835
38.321435172270654,25.913816370493294,6.148575626533201
23.42995579810384,14.63110295775352,5.595363252961925
4.159230336987366,0.48134724617123376,4.758835181297913
17.230325146606933,14.861547003815067,3.6811114433649355
38.039166661957864,29.461290740802777,2.438427838211319
55.497324659324704,41.39753299069982,1.112757127100346
67.219743687651,49.067778351646425,0.2068234775563681
71.55394589748421,51.41375903116121,1.432331943798784
67.82187225254995,48.07159970411992,2.4880935688581807
56.44546392378367,39.43169476111513,3.317207155015948
38.87986952476575,26.583130221165003,3.893622228166697
17.41137483043961,11.176238441650643,4.218607674750573
5.1600535111255725,4.798917059868553,4.325006821582204
25.909406147944384,19.28142820054336,4.262471745521786
42.1794255355821,30.416157187608476,4.081730881607113
51.937064448323056,36.81684020742277,3.836973476037952
54.04675200019953,37.754386980180215,3.5734443932980935
48.42076889025853,33.25423795413243,3.32745323918003
36.03153698555255,24.10627840414656,3.1251500976462627
18.79216252147298,11.760247272999921,2.974022455217043
0.710700966914723,1.8901973056066272,2.8577810391198057
19.581456689933002,14.787317767088547,2.736486511959636
35.01434925098621,25.003371260414298,2.5759670476170573
44.711009672855724,31.01791388337113,2.3578007342641882
47.21837098861621,31.93451044990751,2.072819574901052
42.12323150177779,27.59774659358968,1.7243379715124207
30.11142334221709,18.606031156743985,1.309229548313727
12.865305084537244,6.2207987642199445,0.8192195892006837
7.184942640192555,7.816211319176097,0.26045659759307493
27.205072604489715,21.52414527370599,0.3508797826734464
44.35285977992817,32.95353867325643,0.9966121067611113
56.173469901962505,40.45950748230231,1.6585785892362859
60.9379293772239,42.9323143314055,2.3101887476498373
57.88334101439006,39.95074212130125,2.907585719986991
47.33115927937938,31.847605457048914,3.3947337629246372
30.654415844638283,19.67562249432411,3.719931547105149
10.087665859099035,5.066684215849229,3.8551984312801206
11.584886098203476,10.004048329218389,3.7991646055735164
31.420841973364173,23.50145360160145,3.5622169448961687
46.73353245714706,33.613758602432824,3.145627954379405
55.471229497893454,39.00774059887104,2.545549699600852
56.50880910347889,39.01093557660337,1.7848972955780502
49.7952991929094,33.6933700551484,0.9410944215417356
36.35306847133333,23.850557413856624,0.14721620271549452
18.134983794855447,10.896536791066373,0.4677019947660008
2.257263930668394,3.3257222695906536,0.832206033401507
21.93647730278274,16.797823914341894,0.9195317637131681
38.12751908272428,27.60326332091441,0.7406339560967542
48.558386931444744,34.19716036886631,0.3458363737775566
51.77137334091232,35.62560699411166,0.18149293558875465
47.31474395095787,31.659050892191413,0.7297331211006305
35.812443549461236,22.835460330875588,1.1864267630046794
18.88924632998514,10.39424044660141,1.470168557312832
1.0606331207281667,3.8991787891729044,1.5427855611233687
21.213016163130668,18.00731633435275,1.3973892474025555
38.70099895943365,29.917941031927448,1.0440421414853303
51.01879749981438,37.928825968538575,0.5087563897082678
56.38800992449495,40.88566287656224,0.1577685727036387
54.00989765075863,38.346031208888625,0.8596416826669318
44.17701668281809,30.6334927581434,1.4739324114136683
28.240128479868915,18.792913964214456,1.898151944861145
8.418186285133643,4.448624850937882,2.082192344286326
12.525582365356604,10.426015228811915,2.039787210217079
31.678265022818767,23.779089608030308,1.808254509359546
46.37851453503406,33.767945204292246,1.4286889413167723
54.587470992336975,39.02225172629471,0.9715273927492559
55.173498195307886,38.83182887155657,0.5258882011980386
48.05686885779722,33.24579214924195,0.17595707845395142
34.22555758088771,23.071706699862773,0.025663786977408204
15.61527082577168,9.766037205728606,0.06958042999014365
5.163288134084712,4.775725093650899,0.026625694206067082
25.193116968268686,18.49144083036203,0.22628921286221426
41.655007127587155,29.443851952146012,0.48603164659101106
52.22726279408962,36.09408728378051,0.7508480176426744
55.421658789273486,37.514810480179634,0.9554563641844417
50.79647759534138,33.51344654844874,1.0487028438175887
39.01358664238357,24.65351439973627,0.9999205588042901
21.739500393597947,12.176989952363632,0.8146940260942178
1.4019280192453765,2.1671235228580628,0.5309332583944532
19.159746254389656,16.371657286421865,0.19138049840282564
37.088321599408886,28.45230125530728,0.15766286106117305
49.89957424796346,36.718448331206424,0.4710998762667682
55.82278693288189,40.008964402917705,0.7115365478215014
54.042134734211295,37.858377391939214,0.8464178888785592
44.805459366688225,30.56009395720432,0.8644861744114336
29.397619776285932,19.124302558546237,0.7924956546780274
9.972392171963062,5.141438437550961,0.6702499300312309
10.751798379775448,9.439718767333263,0.524406317927953
29.870809911517686,22.591042839277026,0.3790485146784271
44.698400100416194,32.49122361258854,0.249897166663126
53.15283586442912,37.78077184643457,0.14148072577547702
54.0599283537161,37.75365719677676,0.06147747299424113
47.31855181788553,32.44931433467401,0.0050747548318399605
33.90653174471794,22.641597707783824,0.03907016703074378
15.737350306443647,9.733542962688764,0.06661265050694819
4.61409248406984,4.439788877902186,0.0664387308906442
24.278883905796942,17.869973044525043,0.031037766143567604
40.49216919584349,28.654176124803694,0.044560383435457956
50.97971130191672,35.260370365714465,0.17037675026406496
54.2777079208724,36.73711727075348,0.3425804144847803
49.92256523443582,32.848995884208556,0.5207613666335414
38.51114624009271,24.125599933304144,0.6529668936743457
21.63172545934517,11.790223708157765,0.7064081324029251
1.64593531442625,2.415441080362111,0.6679368863977989
18.6398396099336,16.473206679469175,0.5357399313260626
36.360033955915405,28.382503281642315,0.32592746688469787
48.99911661821942,36.45429241833319,0.0687003132240069
54.758789479499015,39.54586376273576,0.20340546282760927
52.81490532652158,37.21194865309343,0.44678727209449237
43.44069009789938,29.76130913400948,0.6157159022164533
27.969529796617543,18.211848005805333,0.67958850129123
8.589440251663023,4.149988053357451,0.6205116093709241
11.973956966345229,10.48692337987471,0.4386210908213737
30.835765483663174,23.67621780676471,0.16092322698837355
45.35749003734636,33.58819308806023,0.1626918534244639
53.51383467486985,38.84599856016483,0.4775682763573112
54.16590611556148,38.717213580376814,0.7285900877134387
47.21047919712358,33.215003281655896,0.8536326870273216
33.59657399319687,23.113097529516036,0.8133893607054246
15.21749706328682,9.845384693565064,0.6106757325791473
5.346960157558794,4.701265244097991,0.268744824183875
25.198677117162237,18.458613729567112,0.18467112114983092
41.51956613862281,29.476934470670393,0.708751973359317
51.98178627563549,36.20260323814774,1.2279553286140674
55.09305766957431,37.69151473165089,1.651332791121943
50.40297623308273,33.73195142852749,1.9115699017910417
38.57007027158558,24.87065740428324,1.9657827649242923
21.26724306182172,12.342524494226017,1.7972397955131454
0.9285483264082592,2.1009778930190595,1.4235314397167471
19.60122744459631,16.438898258506498,0.8892388480925294
37.73561465704799,28.86161549325538,0.2607066845829257
51.590491616899364,38.086217700093336,0.3808700977666241
60.02238326865065,43.37245596176718,0.9561197875875906
62.70138335540805,44.56686137487558,1.4053321198959405
60.060936118724335,42.05885887017042,1.6934743269804782
53.1549366280042,36.66883027630988,1.8097823945450442
43.44384682237774,29.482107845243018,1.767835913152284
32.53741305129596,21.651547970083833,1.595936637570472
12.477890552754808,9.109307105874759,2.755857971750379
13.888823465150747,9.875617076386112,2.763933338657447
13.21868661033708,9.09012469167895,2.4848463336300255
9.852433417876817,6.376486904231099,1.8879971519355785
3.544295038162374,1.6293813529896117,0.9862810307495546
5.461363895288972,4.919277667794315,0.17612341154947336
16.37466303162569,12.678837093536794,1.5269516145311965
27.914054692829016,20.731779787655874,2.954219884481404
38.4472944543468,27.925459372606156,4.324149662519592
46.20425929879408,33.0242410561265,5.500986998586661
49.540322583448976,34.89560922341981,6.359897482004031
47.206782404422405,32.698060598932805,6.809580642880803
38.609812252649185,26.073254351285915,6.828980264285116
24.106066765188057,15.362303225102126,6.45006690117563
5.115252722753898,1.6632449541948797,5.70415737007586
16.143929102807768,13.378331421172637,4.637840861901718
37.0032914291564,27.837057124317695,3.3281140651818784
54.702698619659294,39.783056598632854,1.8700614874880002
66.82608369745842,47.58442194582997,0.3718624617823979
71.65196806320627,50.13645538731411,1.0770277847258811
68.4155468572163,47.02219515418941,2.4091975623800415
