6.10739121061761,4.340349635854288,2.730834262306912
10.386263506347037,6.623083526355652,2.719595890364809
14.325703070745147,8.711022966825405,2.331473289504884
16.854517046738984,10.231160084356517,1.563949144239626
16.91112763086946,10.638471022557038,0.5038030475858712
13.720665419515473,9.286344112022856,0.7162200681345678
7.045195526923997,5.654981287659851,1.9475050507174754
2.6965718386028334,0.3543542804241401,3.0464409239986265
14.438208296817185,8.138558076721765,3.901277292165971
26.63277626403579,16.337202321792265,4.432986090806501
37.48611116740613,23.066751519190152,4.617130077409913
45.14511725620677,26.360057995382164,4.506933609057311
47.871024111423374,24.74351553388802,4.193759385674769
44.460527379496405,17.996551325979794,3.7680486179435055
34.68194336730431,7.50118557757164,3.339466682506121
19.256458349179894,4.4036598037726264,3.023700945685209
0.21255652571257902,15.276388952576141,2.854591590567251
21.28965614140048,23.151371865863524,2.7893619333891713
41.060542550942536,26.927940229618915,2.769926573586395
56.568679029829056,26.278537924849577,2.6971997813108706
65.34112843018998,21.343912818604927,2.4391038778996315
65.90251774356993,12.520850167806975,1.8812826012660115
58.026238290379645,0.42032642899181083,0.9573549371145065
42.773781632697904,13.883324213479446,0.3099653706771791
22.281596033723876,28.615028827718422,1.8200008083248735
0.5994403683522427,41.32628345490057,3.432463978840665
22.694112732949364,49.31917540563396,4.9834357710567625
40.91743034264218,50.42589691946892,6.314168319289604
52.65485141704384,43.75643542845388,7.297699269833738
56.14678032041446,30.07459830637675,7.861248559947292
50.82866727183318,11.577750685733482,7.9635507804695465
37.53041447952957,8.84304834426173,7.559593400584911
18.455931737996124,28.457592859100618,6.65685197926732
3.1485718851280398,45.25695967876762,5.359281503682662
23.589268623521296,58.00745545453686,3.7825166732482827
39.44572970641818,65.91703143971483,1.971580510121308
48.21532298080839,68.26736679091664,0.012865962345378647
48.70322063661114,64.36486914281615,1.990031695464532
41.11658193368225,53.933106749601265,3.6872685233435494
26.893319867371236,37.71673911365122,4.779023491547757
8.363588353022598,17.8486185676682,4.962700754688816
11.646203289304918,2.3816014862416908,4.105778727802777
30.213185647018626,19.377066209417933,2.3380161361863534
44.707117324728024,30.371991071447592,0.04951011918393483
53.164345774620884,34.320132659278585,2.234226563098522
54.589305475689464,32.07369852008883,4.031853596122959
49.0965924931031,25.81048003142967,5.0149276225874715
37.836238152840046,18.07103997285002,5.043858900442239
22.68429196697616,10.91417968530544,4.15463349109276
5.7861106093618115,5.566211335353897,2.5470984344310468
10.878343104099997,2.5811267808759286,0.5273851847941459
25.76568101974635,2.206472627515633,1.6081133423615526
37.8132974832425,4.573849131036505,3.599221226520429
46.29550840498277,9.534178781515605,5.196663306691662
50.6223390153084,16.295154477448776,6.18327599739938
50.24692860815492,23.24146333865531,6.450821320637015
44.76720188971987,28.245814148311105,6.074301640691529
34.17727168189392,29.453676337721443,5.266803223772727
19.149919387358025,26.169159335795513,4.300164403662523
1.203132051733165,19.295900772462062,3.4858797681235485
17.37549896689986,11.004423728648714,3.0873713627709805
33.882190285710685,3.762771417967626,3.12939881249563
45.7210666456585,0.7799329333466025,3.3296890813819573
50.93050487761119,2.450333407471125,3.2855631736587583
48.5818864282733,2.394512265256383,2.6986626980992265
38.951417035467024,2.2556241513944415,1.4599299565598585
23.45723206751357,3.202773103030433,0.3393515783041117
4.44238882624303,5.389837341520013,2.4411615201488264
15.144174450393397,8.102216590145263,4.514918744436918
32.13981608348738,10.381811800267073,6.262019293175083
43.613196216448245,11.66325056155768,7.4450564803624975
47.344286741505584,11.990077527887566,7.8680589021771805
42.28127965951809,11.710539358984729,7.420493331136383
28.88150222545677,10.945618116519354,6.134688136627107
9.197204041850773,9.278411999019298,4.177756881114903
13.410690416846883,5.97432812997422,1.795572614528708
34.902510966744465,0.6464964451918221,0.7599923806752452
51.38742619053037,6.081692280960979,3.2504363161957905
59.95009692041278,12.404509759613157,5.425026999998317
59.22884530992927,15.859156026139742,7.047160294104075
49.56638522506629,14.341165815790143,7.979410328271652
32.755284974046866,7.093638857586824,8.215691000933406
11.515779708485645,4.870474213078118,7.801034396073388
11.110889967681958,19.11666139012132,6.761263430096221
32.26396364935723,32.69279194885023,5.138879285343443
49.58873014573029,43.12411424898938,3.0351269272360946
61.40666053385053,49.016709555875074,0.6053201587103854
66.7694393665747,50.083466954542715,1.9295104561646474
65.45616463452268,46.73572568249041,4.301935124364827
57.935652326392734,39.57327798004877,6.2857466046671675
45.28182095797642,29.116270175610218,7.731243341903666
29.03698819138369,15.866430403067,8.542786788024381
11.023296615625986,0.5650072385112881,8.684156578437113
6.861184452821698,15.570014603145697,8.162566493617252
22.81790275059579,30.85012216534872,7.034782382002337
35.2938082634733,43.41558403907585,5.438955679100228
43.112520707177865,51.69004604272901,3.550522466548703
45.58512912015139,54.78930676147589,1.5608870066312155
42.58861796946444,52.7211161048937,0.32338311721456914
34.60901224473514,46.326855328509225,1.90818826613279
22.733562043870982,37.016913692259415,3.0327386339855034
8.576343620798495,26.41353563003391,3.6385987087132077
5.859065039466523,16.033437029471706,3.7869911467148505
18.36324253753462,7.097461287729074,3.5894790662939036
26.756071704579373,0.479455143432126,3.159807373361745
29.19171289035789,3.2649212711093645,2.5800496720372847
24.517344898511094,3.870752302801224,1.9134804802770813
12.635115203246905,1.4123778509884204,1.251462092067092
5.256808846194431,3.558027085861079,0.6920550767429874
26.691735890318594,9.884245826863475,0.27340043232055683
48.28780234742952,15.824733813830482,0.011742074138454042
66.38499090994571,19.30637032224484,0.14120258835267638
77.79171208280182,18.407147132778434,0.06147582631590766
80.38642390098455,11.922667005527227,0.2628096461449134
73.40531287976994,0.2033956069868055,0.7733610136119601
57.3851628054358,16.771526860033077,1.2742992519048049
33.876148408541546,35.58148687421777,1.50426049658872
5.13648591533914,53.9323873292299,1.2037443760324604
26.05764462150917,69.17160550006678,0.2224405408318276
56.51490978782093,79.11006171549013,1.3109179914457008
82.77511857384677,82.22539626620954,3.029557615510821
101.44905298583555,77.71711681294713,4.526836514717314
109.80994793226319,65.54755582994237,5.460956723053238
106.48217010836835,46.53061432154712,5.572710541013317
91.92907108169541,22.41410834088323,4.709299985201797
68.50162938021893,4.1686575121950105,2.8839936504140615
39.970406376546805,29.99120013006205,0.299326715810181
10.691962456402047,51.772507516846,2.732996477640637
15.278622745121005,66.82500521239567,5.867019520796068
34.84516803997839,73.59467405771873,8.702278323616248
46.16417793572427,71.90368674602828,10.794330949746715
48.641935978650224,62.85016697260907,11.728077058274826
42.807771985258604,48.47391493177963,11.207980555547154
30.209874149489714,31.339255401687478,9.20708286379281
13.344764178782897,14.151246935698689,6.032860157770889
4.512883416127922,0.5635513086134838,2.238709328644034
19.717534532411634,10.755243761614027,1.5150699553825588
28.92784354115712,15.155451826729182,4.653163941747395
29.891132055090782,13.55997550963675,6.844252014022253
22.04850048271114,6.976447181942566,8.020821019673118
6.720657749915571,2.512047198971134,8.278289769238759
13.224977495213711,12.21470395775023,7.763286851175014
34.24852574060134,19.88869051109035,6.67453194498805
53.077547003431874,24.277848151286623,5.256847841082891
67.29788111122491,24.94462141685822,3.7420609701447893
75.62608929192191,22.220424420555986,2.3095404512733695
77.85589604669612,16.971933418265703,1.081770795321267
74.59987271195503,10.305315117969785,0.14493678795278536
66.98730192800306,3.3089108974094166,0.4732024316142234
56.416316332816464,3.0959184228669714,0.8072092431533564
7.872312991371908,4.87855350094833,2.2514754351783837
12.011806379172139,4.130929957419683,2.5261102076943236
15.418675301617768,3.0528568028190515,2.6623069338434444
17.098097787153076,1.3567195464128086,2.6344262860860677
16.161897842944786,1.3011542933106817,2.3709915244437636
12.013162840937445,5.118423714774797,1.795400206370813
4.509190592685188,9.99821263933005,0.8568618849896076
5.943622729871017,15.507306823875197,0.43443015476390157
18.342694500940603,20.983541144774435,1.9765222990515
31.14465227261197,25.65879851934672,3.602757826865977
42.420147967830545,28.743726786931976,5.131549763238945
50.05282998654035,29.523453535827056,6.43442672046744
52.01846293392588,27.463045895098233,7.456368669996495
46.956909655787385,22.08352768671183,8.129531178409563
34.72457127222984,12.86902548097047,8.326690862161808
16.424077808339565,0.2260205078740935,7.951922234901813
5.7563546369831124,16.21125504021871,7.004025260154525
28.811791737976215,32.95771792311581,5.544920783512531
49.47138090910386,47.49098757980505,3.690057076527226
64.72369349048859,56.80175610327555,1.5895734916963338
72.29308019262547,58.80965780380223,0.5797179460554256
71.01376574224514,53.003442259379305,2.5862274840771566
60.95973059834128,40.554619776467625,4.227481229112119
43.424295484132564,23.820802228016134,5.409661317404141
20.716541685617987,5.580582551349556,6.117820629244727
4.168055282834802,11.653663708823673,6.412584897309655
27.93612669576049,25.996852724317314,6.38145482592839
47.44357197963844,36.159097683946065,6.075236447098021
60.124225678509326,41.27951662982468,5.546961477477297
64.35597981158726,40.85677779694088,4.8855018154263
59.69442478379095,34.90395393075794,4.219190849280512
46.938050597434014,24.22589364398434,3.677437115070742
28.018146859241735,10.557961300608044,3.320758372517506
5.7036949931941185,3.632599269529294,3.1229318802105093
16.816914395991876,15.735877416346685,3.0013168539763626
36.39374147764728,23.731529781876475,2.86646486386077
50.33121240167785,26.709425746573583,2.6429771483900835
56.718861421232425,24.945417661294925,2.286789401797939
54.668324535066084,19.518574651658593,1.7855557023662438
44.44923231836243,11.719725061651598,1.126800813182444
27.526392469275624,2.57939313905933,0.32959256801072623
6.460538847340176,7.247327616450394,0.5407464986176066
15.380239717622933,17.247705402561174,1.3988301301688892
34.31332635203883,26.690188167263262,2.1442067383064747
46.99992179839023,34.39285214189118,2.709803810198352
51.13848053414131,38.81647079675469,3.0656046758812083
45.99260463734099,38.47255780774941,3.176517490159315
32.5767296374927,32.458976923199614,3.0574254215702203
13.441966272663704,20.8858010706389,2.7960824463068072
7.8736864904692,5.013779096750801,2.454505135916208
27.568062398560475,12.928598937011769,2.022632302482639
42.26340493466281,30.177535552974394,1.4880461202334538
49.5095286979541,43.97654759261154,0.8913031399982306
48.0462487422431,52.081052427600916,0.32431316639863544
37.87947352541207,53.12553491242261,0.0779166882540025
20.254688027194906,46.80168072035756,0.16139822733662204
2.4570303733213072,33.84621955663778,0.21894875208255857
26.990123573499176,15.866902625105931,1.1113131981838624
49.59379432704276,4.930917119259635,2.3459789152510737
66.64633752322251,26.020605861754703,3.587049586872685
75.35192659892786,44.78210007065108,4.461206354574097
74.30531514925943,58.697037484089186,4.635500623418941
63.738818986361856,65.57028786558374,3.953745337088415
45.362024067809486,63.8453540592076,2.532188257806994
21.86140864464268,52.99960785335389,0.6973290802651991
3.724812929266958,33.906401014427296,1.1530561746478871
28.518932621943524,8.979737407889553,2.7163578116717018
50.07955122316823,18.078529808507433,3.8407738402643483
66.44931425198929,42.969180466268874,4.401710954279272
76.12190356079793,61.75616687629249,4.269375885388253
78.10168156302349,71.75324277231873,3.4222548432130866
72.08273456688687,72.00988967047506,1.982082337217043
58.67142855915339,63.265252383181334,0.18150699852299199
39.48903813611017,47.46896644058613,1.6845438014868501
17.001283337110184,27.15276050992611,3.30815578931687
5.897928162688043,4.935697153854868,4.38152338234073
26.412458125976997,16.70522157936412,4.680842065902879
42.29192435621383,35.43949727139283,4.184036359685609
52.044306771412906,49.07335732093361,3.0593720829334736
54.92692052506404,55.744330113230106,1.601599981028991
50.843463607838125,54.333059242365906,0.17085724732513782
40.28181287087928,44.926324928463934,0.9642754089805344
24.35840182711829,29.082714687779262,1.762454210042934
4.904865764958369,9.67776587552648,2.349705275950948
15.55020514522943,9.6997925856706,2.8683042272601975
34.01920137623071,25.61335806218316,3.379864103011969
47.51617583166595,35.60077742289024,3.872231452913173
53.642578314729924,38.65078458985407,4.319284789078092
51.111749021755955,35.1850225222447,4.663920075262286
40.02160688035205,26.639152811704,4.785926115132199
21.828916881744565,14.875765213226263,4.5545008003416
0.9219107364500533,1.6675554263204075,3.900511270519928
25.0197083589223,11.564930593905228,2.862996263061665
47.0354182168871,23.73816201191486,1.5737263631176561
63.75800756810412,33.921608818903344,0.19173985699901097
72.62087352845192,41.137448025945375,1.1350380442611314
72.08662814852141,44.32864755331834,2.2845144768293846
61.94471696592151,42.5620750475771,3.1641959855660406
43.44111202296661,35.369681633581756,3.6939641986349248
19.148115304274572,23.073595539387235,3.808422388120259
7.443999772615923,6.919670626949653,3.5092771540790504
32.53616861381946,11.069789157823404,2.8863273413192445
52.68508141850814,28.473801050409424,2.048294843656855
65.35975574008066,42.95930958558645,1.080634862326205
69.27303485205925,52.70085820604053,0.0870159774710223
64.45856700218431,56.60057826437427,0.789719725144534
52.12624367414561,54.30597230464788,1.4169510091684852
34.36878391373938,46.11154499624344,1.7258973921178409
13.806853385202308,32.87234241746027,1.7077618202596088
6.776347948623892,15.996872646843338,1.3896354588781097
24.778332026567195,2.531900382058052,0.8233284540762906
38.06883155106191,20.23113883193385,0.0834500777783771
45.21339997864656,34.40300171681583,0.7297068783391778
45.60881677386636,42.642975254233555,1.5079024802281762
39.521016580033105,43.45379321933089,2.152653870263759
28.03358887667839,36.73775232169193,2.5876309115980565
12.906089314237239,23.94430731178645,2.772771559071348
3.647866488112813,7.775455969557138,2.709074435698663
19.23084596187384,8.46588643976932,2.445370143508885
31.55986325724186,21.65781999889362,2.048424464059062
38.77313480748225,29.538566567898144,1.5713520476939968
39.70025744198973,31.09629177265293,1.0775665242749755
34.04414455881191,26.592424230492018,0.637252996110112
22.44654064136531,17.287881533164494,0.29045203409786585
6.4270585262541085,5.023101631721137,0.043387569254609584
11.805222193158583,8.191792539708201,0.1259579708669694
29.640286149072484,20.48603742532163,0.2723644250790992
44.41375054177557,30.308316087548747,0.4723017189619633
53.779992973796865,36.50516658275308,0.794459165502043
56.06668753640819,38.362864905627106,1.2736202253409195
50.5490047621812,35.65321427251355,1.8879032627924532
37.608273217943626,28.68841451736719,2.561648112334778
18.74371342337223,18.35665773157987,3.2120967146151043
3.6015496578640223,6.074218468063552,3.7762362118972748
26.385137079707228,6.399877440440652,4.204664744548757
46.411766854583625,17.272532661383444,4.440669594057452
60.802992848864754,25.062444224061732,4.4058600184306504
67.4226741641736,28.87521517143717,4.029135438858954
65.19306349562243,28.519915688275272,3.2443319398670587
54.25805180325439,24.434981801159093,1.9837137358861356
35.98887980946291,17.485905185212076,0.2674075918382406
12.832026252059118,8.744515669500206,1.7104574886150634
12.170963994741347,0.6023948557843505,3.703527361542844
35.984785022026024,9.364297785360732,5.515034979399231
55.99153680974291,16.529764194570788,6.981456788965979
70.29219839875651,21.369282369768,7.995531291645536
77.8979450511409,23.518697501757472,8.502214545218829
78.77606154613406,23.041491115707213,8.485721756419943
73.74876665639661,20.42298547641499,7.97010639932014
64.27782143894123,16.465458227384342,7.028505534186958
9.535720552785396,6.080634086607033,4.548029920143038
14.71261930902732,9.183528878282146,2.8539422031795945
19.706907260966396,11.370400371209907,0.5494369284107276
23.500239150476098,12.114169244308444,2.1265806416303157
24.8539188047302,11.129544690645655,4.896183696450936
22.512624800357187,8.36084206283076,7.451695604782711
15.542119874407922,3.943913605757249,9.50342323666326
3.6770753415927335,1.826482006747215,10.84238511092751
12.381424385560543,8.468921079621248,11.336305689868741
30.903888834892655,15.29790238383393,10.906748131673643
49.33534295483753,21.433394362237003,9.55624104198613
64.65763237500312,25.815692931917905,7.42571505658536
73.88673543260079,27.299084307485565,4.879008031356973
74.88879877376797,25.0954750743003,2.408208177649341
67.03006336025753,19.281052943002205,0.3447274022460409
51.02751398273422,10.751579327221215,1.2488040682894617
28.65886162343696,0.9302858908091751,2.4841075724717228
2.5940529730935187,8.550875774100662,3.5239798500039488
23.986279672173833,16.296773027963457,4.465673796625076
47.74355539406597,21.399026801793227,5.315149801878379
65.62478520329994,23.499778216678482,6.020620337180003
75.42572763997623,22.74143905147656,6.50546311688024
76.22400325531024,19.575512903996678,6.730941817787665
68.6320383713941,14.600289265376974,6.7156852067978114
54.65648458216574,8.436299000142021,6.4751564414270035
37.193650253048375,1.6861999697759222,6.036665284161219
19.34467118035874,5.032929322624358,5.507638066858783
3.736631345860294,11.071866215187164,5.016001751626635
7.8880533526182255,15.746573961827641,4.631060037545465
14.76277817194159,18.41702135859812,4.352287023597924
16.9128578544381,18.62256951244244,4.114031374855692
14.853683196902889,16.210317076646678,3.844489338519174
9.358617885318573,11.40572707535655,3.5081170285047487
1.3548321317154761,4.7832430318037975,3.0896142731773644
8.055805594159194,2.8266125574998737,2.569087452716779
17.558104436392235,10.471930977030619,1.8945452912077385
25.671381825062905,17.199692386769478,1.017656259350992
30.8932165244183,22.141963380428425,0.04732831836197474
31.923991634490783,24.624005831936234,1.2524839785485296
27.917391145722238,24.289843132438328,2.542443020601357
18.660188568899528,21.226217035618767,3.8241463629808243
4.651987178448485,16.053879920348404,4.988965999482395
12.89357946495653,9.909926702570724,5.952578200909542
32.145152045188276,4.260259502592534,6.6473987758270034
50.84043555883104,0.5453051719197574,7.043761660146629
66.54966231819093,0.2352685711307214,7.163706917713621
77.02422191904901,2.161637158571851,7.0507818612891
80.567130692392,7.11510444259031,6.753264496396787
76.34234186931518,13.26686946469,6.284036319119779
64.57474304602736,18.833713403029016,5.609177644483742
46.58802543586486,21.99435569131588,4.71472289191237
24.66132846247465,21.23299032159389,3.6230223783438373
1.7283221532958477,15.609989997086565,2.3584102264448434
19.056446801226652,4.966184490963171,0.9444951660018135
34.834386037285206,9.982088147680676,0.589754282466687
43.54807712537741,27.67598913225823,2.185114843398994
44.333565080117076,45.908793822055436,3.7255419918898594
37.700165313457894,62.21032990063321,5.064354833695502
25.42226476002522,74.32819846430974,6.0384837404992036
10.17610784681953,80.66187543920007,6.460106359555922
4.980295655871316,80.5052085794374,6.145730450098687
17.169332308308064,74.01770061058009,4.999523827152394
24.149293277463293,61.987653661505405,3.1484984573095356
24.591461092769148,45.5350740737854,0.9654185041483243
18.196411695270708,25.90435359653612,1.0827982786817305
5.677907219830994,4.422140395119308,2.5579167547361163
11.339487988269523,17.435596921971385,3.1430458097560887
30.492094577034454,38.00728499801717,2.7789725796695057
48.94725226404743,55.550592877778676,1.6762814295137847
63.784825552718516,68.50425769858519,0.16772055525804203
72.46086795627043,75.79982609992187,1.4003038830443912
73.27269835911726,77.06286030329015,2.6862705865583845
65.698882219537,72.62499655458844,3.408575161189932
50.505404062918366,63.37893641446859,3.4147960722855806
29.597651617519773,50.56922247734877,2.6671312791790833
5.674028887817377,35.62120413653938,1.2468709509194777
18.223085209785765,20.059337593474883,0.615149257486247
39.14946234378061,5.467622906847625,2.587829393333697
54.631190415157924,6.59838181922673,4.288257693455422
62.949087733412995,14.80199440870268,5.327253203028084
63.31992622578984,18.294832477962185,5.4297598358782295
55.97315779547174,16.951222460178816,4.562187861620763
42.12984361925027,11.445615133237862,2.947805765498816
23.86285501542033,3.132387202460427,0.9602796511016516
3.82182508077645,6.230997623005433,0.9843228685375724
15.142833443109868,14.818168309729081,2.5382927319062283
30.398864040238845,21.015840748771314,3.5561302964844357
39.92966028947246,23.605184503630895,4.094196963050248
42.63659832994606,21.852929875899775,4.275624341207199
38.476195729745704,15.561124250882449,4.212841553128624
28.399388914954912,5.118839487543468,4.003260645602638
14.116700806086962,8.47525674762177,3.681953155036135
2.2458074931015215,23.673892861684642,3.209576384648468
18.50378692844238,38.54733611951465,2.560242372542474
32.708936102642355,51.05391481554439,1.739412202621843
43.33896018393145,59.38473391644773,0.7484054925719137
49.37277112638668,62.30795096397679,0.3755701148154692
50.30368960519691,59.42592612742454,1.5471280054955299
46.147151127517276,51.28287895544614,2.6576551710793415
37.46350872154257,39.27106240242926,3.565352736306695
25.37753290870463,25.337766544241124,4.1132418993894655
11.511013654177198,11.555623818951519,4.1809759655789005
2.2238217074889364,0.3499602907976052,3.735794522470851
13.938400539347906,9.360502060907546,2.8520862190020733
22.124007965710486,15.28121033557807,1.68523163524013
25.932318613274276,18.582354490337202,0.44118776537674154
25.276630664427632,20.021325002362623,0.6643630810161156
20.749500230054853,20.222111635433812,1.4568225674935686
13.422032206082948,19.42332326301527,1.8261418284773245
4.627729164870272,17.504472220723336,1.7259131334736393
4.186751467005784,14.262263399339789,1.1874616425783722
11.546700047044204,9.770775124470582,0.3449350329349983
16.037892154943943,4.600659560931746,0.6014681017144505
16.46051191752048,0.2401364580861455,1.4616910608930869
12.064181433819604,3.610172158378614,2.0809596342069114
2.813723619206285,4.607624903987459,2.344177621520959
10.421609681687018,2.818564086256341,2.2045707327197896
25.877833843791862,1.653645443526722,1.6848452549922464
41.15552286181777,8.32773131264691,0.8650543732572518
53.65552712260125,16.505871319303488,0.09560881748982582
61.072415548347706,25.32110524913449,0.9940847205548629
61.81815901480269,33.656800603919834,1.681320420205934
55.28217458894211,40.07900422053587,2.0925217134472955
41.911529070590674,42.9585777913105,2.207380306968461
23.133936899483597,40.86769152764066,2.0115325960555017
1.1852107150052669,33.16305986090585,1.52228816385382
21.138159461496333,20.476822125445075,0.8301666684637471
40.825560562801236,4.815125342765352,0.057134824380928255
55.06989883020714,10.87390877105468,0.6655749525982257
61.72525315370947,23.556652880024807,1.2006726109825019
59.733744678768375,31.045629526154944,1.4661794368763033
49.38944008632401,32.603156746009766,1.4373670958671796
32.34836758839857,28.981532015053737,1.1121688031106198
11.355003977739946,21.944575882695016,0.5138262448183322
10.264320701622157,13.563773879114578,0.3012781795780365
29.216582249259368,5.62397177264783,1.2277565532121781
42.79666088705048,0.6556062344148279,2.116809221256348
49.24086880277245,4.566563488073443,2.808628423007093
47.85460549326253,5.700983573131984,3.1839339507594016
38.96003631251662,3.8291284392030525,3.19338124334685
23.756323270503053,1.0182146694447218,2.8282591545205786
4.162098703543847,8.332732573645556,2.112576696485424
17.183309213334077,16.9939590830631,1.1279026423251304
37.39436806491088,25.53570408518487,0.022527197472033432
54.09451767353861,32.60111796719686,1.0334393873292749
65.72875236960544,37.25839213287988,1.9123049203342926
71.68653687474105,39.18441699529036,2.532057241084095
72.23579243758992,38.63863859224043,2.8597093159326787
68.3028640820943,36.23556604634126,2.908269932703962
61.15858078256838,32.63942957312391,2.7063662016151016
5.368607659297669,18.17200178816185,2.2304124294679433
8.701072705440097,19.726577984506886,2.378268641927728
11.117126949249652,17.381217712446972,2.3214132166751154
11.97038992161639,10.634362481153591,2.0458528013616553
10.774040784288298,0.10417216646344257,1.5559360541282365
7.282020946299798,13.56953411878799,0.8455924909924407
1.6016467759421749,27.85688469797952,0.09415173142089286
5.73358855678886,40.741893952559444,1.2371610183131752
13.726939165201276,49.98966880927029,2.5157519285581436
21.041277090145673,53.69918107200066,3.795310755310677
26.240021601749557,50.63444205526403,4.873495275792991
27.97698200220767,40.44304449132181,5.572879372375583
25.158218470125313,23.789321990213693,5.851770524711915
17.480507010933735,2.6357166798840947,5.809872068639545
5.89929367434607,19.815553989941208,5.6006653575155365
7.785037986869608,40.075062025700504,5.352287969423017
21.469231962289772,55.30767740411844,5.080936054556902
33.039943430049014,63.78369980469352,4.649523807077712
40.77382732083265,65.04167248210149,3.833047893166892
43.51810436874313,59.55239438073146,2.4198611057164943
40.787239927255364,48.27567875904674,0.3427436469718003
32.867330807986114,32.428523340222306,2.2335861757081137
20.740827762069614,13.426259202265273,4.937800736098023
5.953342969770844,6.954928781968378,7.311552127833839
9.667422613390393,26.523991359185324,8.982239621083314
24.349600898321793,42.90363273034647,9.731588232091774
36.63225218329276,53.98592989366927,9.473639732454718
45.51873495231378,58.456566627621996,8.243225902511066
50.4339542393964,56.0729575499642,6.169979875689097
51.108354809504895,47.58524510991769,3.46836961498752
47.50053023068829,34.364071010589164,0.4297770384152076
39.793443019427365,17.992177945151987,2.5731969741045977
28.46463547020241,0.08129406671454115,5.078316183347801
14.325662666649105,17.662276647074428,6.640835840125731
1.5163876251487418,33.27832511591216,6.987931220254401
17.780568050976388,44.59771259056831,6.0951414628596625
33.15658610562356,49.66431653883263,4.180669522489059
46.3770620390561,47.41135448139904,1.6532928410314855
56.21364779630747,38.255070807167144,0.966017531169736
61.461148504184635,24.220975647723453,3.1861631431214428
61.03273085717221,8.442876991396579,4.679210091907806
54.2424159510505,5.782989635746186,5.325219204414072
41.20094922549604,15.976669843773825,5.206976514833224
23.138328598877166,21.04436010997995,4.542600201243556
2.422644747221578,21.21269589913936,3.578187930705447
17.828939531460072,17.48791480302925,2.5145633416965802
34.43940831262468,11.02143388337143,1.5014151002872687
44.940810718056625,2.7181019494917353,0.6535069946121642
48.13987146292425,6.741812245543441,0.0231742548546185
44.27257358377507,16.591293157113284,0.3844383517334462
34.77278556213597,25.700214739397374,0.5622150302674266
21.81879106282955,32.56993083570925,0.5258341134228364
7.861016022288588,35.64511654868879,0.3225446226009329
4.7290653502987645,33.79852579486953,0.01542244342585225
13.904476836304893,26.713469704774848,0.2866981548636337
18.15617752747896,14.971479886138866,0.4379528347812048
16.737743505827666,0.15543368827213508,0.31777878105350715
9.882250816526112,17.071240483182436,0.1299611474426793
1.0966656665504495,34.1673124345166,0.8794827499016294
13.95537218755596,49.94816943044805,1.8120020384095024
25.95074376350482,62.99810718156559,2.759107574914888
34.44406566036575,71.9026459894606,3.593285999857221
37.500694456939684,75.29496937330543,4.253534070103149
34.26988725688282,72.11476909460397,4.702920369490342
25.03899124032205,61.99021156782985,4.916860890964379
11.04207590504179,45.569693921552584,4.8805295682613385
5.861967454279537,24.618816435394614,4.576597999353843
23.526243022155217,1.7584793348680994,4.004447067502989
39.761687994611556,20.10029867665847,3.1954600169533283
52.51763531536924,38.3998285781191,2.211757591208745
60.0716838350748,51.42538695841766,1.137118057733836
61.235106740082436,58.487990330668744,0.05469089756151573
55.55177175016134,59.770432974047516,0.9541021268205817
43.42929587945518,55.99042571902236,1.8124250169581317
26.13030903964141,48.09486309659221,2.467970053987613
5.620139801821886,37.108573065242915,2.8861545170411844
15.685491402158217,24.16659544464267,3.050206353975101
35.208940027598956,10.616991835025535,2.9687562414439865
50.479153508226226,1.9902612012275853,2.6552066405778816
59.38227613080609,12.101019231273673,2.138652193385143
60.42116807894532,18.491536747287814,1.488708053169474
52.9830983398587,20.577470137200795,0.7838700619239843
37.57984450959062,18.52742651720146,0.08496678931149068
15.981324870401943,13.140458036845027,0.5318397765410886
8.875350196662087,5.552176329606623,0.963448258784866
33.26941865707833,3.0611638715929246,1.1272319458058595
53.322491951793126,11.613326749069056,0.9892510047180103
65.73696276720119,19.061879259909727,0.5632734583271056
68.44028418902782,24.3162381750903,0.09367518338135936
60.952022140740084,26.267815176857468,0.8849519646948535
44.407056323930924,24.012772639138348,1.6800027631113608
21.253894101587704,17.20997992995749,2.352291223551821
5.24414272865072,6.399196333272864,2.8190134527195134
31.54059812768351,6.9341124188173024,3.06918511063253
54.26372842108631,20.615047253488292,3.14759066258729
70.57945883121494,32.275337363619954,3.0610041283202336
78.49079806834139,39.9018928317511,2.74206364852419
77.08608321059845,42.2142836580894,2.1207603832043134
66.73132614750232,38.81333755913269,1.2141331224643435
49.124335487365364,30.156613854368864,0.1414604794100052
27.09573631398974,17.436307941405865,0.9522282397286441
4.135544142048771,2.4381241464040158,1.9351542567607498
16.287868832252904,12.65173261014037,2.697445483720012
31.43771251877233,25.536833653129907,3.1890784486508523
39.806425600439646,34.19274236458906,3.4226342732102353
41.238669818783414,37.295859829155795,3.438895013829641
36.689304533046354,34.53681447095168,3.263469882880156
27.782355732416754,26.662849587379768,2.910332843049562
16.36476679571597,15.22388240470648,2.4132046645406584
4.228328319664634,2.141588478717815,1.8135873297324439
6.948291013247202,10.704017160647753,1.1765721517829757
15.570216087518238,21.7341286869544,0.628139730565366
20.170998108906296,29.7444689722928,0.3272967187301649
19.626139788220158,33.88541884342792,0.3401732313700218
13.481212202240844,33.68013373300133,0.5138507608737636
2.229190759372219,29.13753484506135,0.5210803086934973
12.616483725164466,20.904690371571608,0.0055378105415590595
28.754194250756285,10.283548204799361,1.2297004246483807
43.56396761527333,0.9967164579658973,3.049169353142164
54.63496783077634,11.178891199782832,5.046137914297599
60.18179614306499,18.889177626957128,6.742553498481354
59.24218048847991,23.36868614167427,7.748001178410859
51.682524689935185,24.43640894587319,7.8418120398945375
38.11130318663322,22.286984063859542,6.94816256900793
19.800653572512992,17.300275401822567,5.124069757636255
1.3674206160943583,10.021065661503695,2.5633211132339793
23.00592858541207,1.330414210904745,0.46278079985761306
42.44155769331292,7.3782069125997,3.6446093829442683
57.079982155084004,14.262344512162958,6.6251610015167275
64.85482610947167,17.440068285228534,8.99467817375005
64.61513275803016,15.63229485804764,10.35297479789266
56.34549882935257,8.740446063040181,10.424523755128767
41.16818498519283,1.9586556394961832,9.155231805056173
21.15017235682704,14.127566777176446,6.75998372583884
1.0038043769537477,25.07423700219157,3.67641717336902
22.292184307476877,32.55066536158451,0.47938408503164665
39.767300044327676,35.308319685319475,2.24935568722539
50.902574010590406,33.245036608341394,4.139906239902992
53.93757061315283,27.200373957562,5.124296426428355
48.16315881346383,18.577405716901037,5.331657852918355
34.09641243268258,8.9591282146712,4.952512057416903
13.46684076786253,0.19610211815906295,4.140002333178844
10.982007815792887,7.659089585725896,3.038223900090077
36.039913949386296,12.440743001407652,1.808807662636101
58.66700438967051,13.927601208993712,0.578650844426001
76.39639550616504,12.084200975679224,0.5392337269543168
87.61201088685247,7.5675311927021,1.4174189403229123
91.67128325352141,1.6245869101498431,1.9700077646741632
88.8837463512673,4.236361506010652,2.199808407167182
80.37323107456841,8.691203528141498,2.1546965389306245
3.3988766929514314,0.6551145023802557,2.323671243625982
8.582356431703547,0.5573053150755868,2.558037223472237
13.589606860718071,0.39695490783889176,2.5819376370235387
17.23344710167778,0.9764435355230042,2.383059996977374
18.43925470347864,2.903156543178066,1.9546549845990915
16.479867676360698,6.1516251941143,1.2980115812438797
11.13721020448767,9.948026082329989,0.4349308270844449
2.7509563768811462,13.038266825173848,0.6072905208800569
7.790673945892356,14.247665159390522,1.80959281003972
19.154376740925667,12.979554526005646,3.1238168995853712
29.71493024702982,9.431648884083447,4.451555096929943
37.6806490004479,4.520487150996368,5.65822892585892
41.25358508742268,0.47844867008704384,6.609074842335908
39.17458656857403,4.738309389570073,7.197026215762035
31.319676576069995,8.417767603943004,7.355856983723507
18.6267411797031,12.107138187567301,7.0603852725869976
2.7883232676752776,16.108340766822412,6.296295418289983
14.056821839574921,20.121604526372977,5.073737428700492
29.842181472758032,23.188147255436938,3.4333121078120676
42.89497027410551,24.202266618892736,1.4297109802498795
52.03756299109977,22.562055096204713,0.7961581000072098
56.555903667323136,18.49116187817475,2.9936926937645008
56.02873478845243,12.974300816235845,4.871026462666759
50.28207523194881,7.230772032473585,6.172151767910213
39.48236163002256,2.1268906257845317,6.765126576351592
24.33817246493342,2.128878525298324,6.65237670133967
6.285919933621096,5.863862189005842,5.943394695048966
12.562062114136975,9.460406297535195,4.831541917148152
29.74085128470122,12.888524310068648,3.5336184439529337
42.96968886138475,15.527842122370956,2.2539732857842916
50.67323272764103,16.41954077387628,1.1450495509923273
52.271866987302545,14.816200425656195,0.2875924454716485
48.17166842222886,10.705687963716217,0.25181803401889
39.49133784157618,5.0250927430022685,0.3752891909051413
27.719086226993653,0.5703777667861395,0.004535211422117394
14.478990131511916,4.26166785460288,0.7988146070100935
1.4657749184313953,4.686594753958143,1.823597362379322
9.526697055658373,1.3568061369195208,2.792540791039824
16.68247303405935,5.26738861096657,3.4075148594240687
18.479526583532948,14.003101269371545,3.4533135831985753
14.189451731178242,23.31866856403249,2.914070858133315
4.361828505536605,31.67137952116184,1.9970636160363942
8.987962885369402,37.72061904333226,1.0604704153221005
22.68638150905514,40.40629190086012,0.4528894313068135
33.17202777848784,38.96564118284851,0.35960466597034085
37.47638629787621,32.998094559516545,0.7100418852294574
34.0371223012227,22.588101761378315,1.2379407128850326
23.039586102312978,8.435176178623893,1.6461633452830524
6.210384887088797,8.097006121496406,1.6909926259125012
13.776486297756145,25.111982929774406,1.2448578409635198
33.9811105151032,40.48913398728815,0.3135138110738988
51.7107130343913,52.28004801480023,1.0461322985257286
64.76141805693108,59.073427521041616,2.7722794977340284
71.46058124589327,60.20738848109422,4.7672632940647635
70.6960356764875,55.78075025249388,6.822298908655383
62.07531111109317,46.51355374128499,8.616630610942266
46.18827700506682,33.552613671336964,9.807138062252266
24.78849277311542,18.29902887201859,10.09130137377371
0.7069132471246323,2.2952889684611884,9.292296252134735
22.583761009515573,12.847255298972119,7.445078634807043
41.68174408298202,25.54643718712734,4.806951965977058
53.997279798378294,34.41332373637217,1.815039973204978
58.25092569704001,38.474799874793646,1.0082770976089304
54.57618855600438,37.37948735066435,3.224704286445566
44.24664835661581,31.487046042762692,4.663426979740601
29.21006695450133,21.815984872256486,5.41662329320568
11.645865370129613,9.862427403461245,5.678927616345067
6.300582908548407,2.6602146289387236,5.629879050341256
22.60051933839876,14.056814995739014,5.3770648732883854
35.37736415686424,22.82794973866034,4.9812093621809765
43.016096815003486,27.81237892704014,4.493973922819285
44.38190890756022,28.30022723542753,3.9317765013906447
39.10828355963023,24.14536228954472,3.2908351188761005
27.813823361556604,15.863899992243988,2.5752977419255427
12.094463861192319,4.649425332194454,1.7851774456876708
5.723075777277838,7.744867189844761,0.9268698712996062
22.984668593041715,19.279564312815175,0.01594122098309717
37.16077722428337,28.005842321063263,0.9277412685142394
46.21817247646039,32.44026230537139,1.8481078284256163
48.863154195980584,31.843683068969025,2.650286466363694
44.690048574131374,26.343086042640454,3.239034828351397
34.248043129730206,16.889504820477207,3.5373592603985773
19.023063954416457,5.076360311512488,3.5026993991285393
1.304239136601632,7.13935188556571,3.145530127798942
16.11729212756447,17.76489037720047,2.5387978342712842
30.399133909000117,25.103969997379313,1.8163851872132766
39.16160043837153,28.0452714363731,1.105746904157211
40.93599030922445,26.253150144834834,0.4561004129075939
35.40307303607788,20.198741607693094,0.13092133208269696
23.38296454461515,11.012397969601095,0.6520501258413082
6.638288688702672,0.2094858357967422,1.0878431617926545
12.440299057589387,10.614304396331281,1.380241929903705
31.17953451530203,20.023068813834467,1.44692486423226
46.944608731240514,26.877238273758927,1.2349000533755485
57.45315055845092,30.38439080623585,0.7545017047923979
61.08178993905883,30.119359923742184,0.099019142145185
57.11879815414482,26.078518453677567,0.578367015026458
45.9019609509693,18.768210367436122,1.1466927648216778
28.773033967759766,9.241182992611288,1.5382228623539889
7.823582906389854,1.0182385765887298,1.7161978912702014
14.48577523604171,10.38746975903435,1.6559653214435046
35.70899386251013,17.486564443006223,1.3561228048520089
53.692932192819,21.489077942784938,0.8278949731746215
66.68957044677728,22.2344891156395,0.0795587449800576
73.38141411845068,20.10169274179098,0.8636227439031978
72.93625971753427,15.740418439186795,1.9329439299346196
65.14296724659899,9.836653766675967,3.000023712871242
50.62713491159433,3.035600848236853,3.8798013026401974
31.0111365168632,3.9640801095391787,4.406075202654794
8.853430757079007,10.264071503828323,4.511052546453004
12.686028541444998,14.75506320206265,4.201838361414461
30.420469383484285,16.334147761907605,3.514449599186074
41.78236753703013,14.277524322801879,2.514140023977055
45.3220603694614,8.585397232985626,1.308257882610012
40.93933457821092,0.10480283444775715,0.04469943896338869
29.815306251250124,9.665515554289165,1.125230900901346
14.114822198911115,19.001952782102116,2.0622962787695025
3.4112346496771715,26.39998737871968,2.647226904834078
19.831918311814768,30.841094991455886,2.849351712042431
32.41343111761933,31.81107574721355,2.7233410060955068
38.962048561936186,29.153311110388465,2.3289048781609205
38.13275307511929,22.930603158643788,1.7450768266694112
29.68912409494489,13.426293428506838,1.1017722441740057
14.633820948486807,1.2832091371882992,0.5226996128592295
4.8792069073657585,12.354758129136107,0.09292685800699944
25.873409497564992,25.834162314791016,0.12312256327264492
45.08430318369362,37.16948122873382,0.09529431092333202
59.566655262946696,44.39894782730016,0.18190245067442778
67.20694290996335,46.00366930269173,0.7256199740251071
67.03438334587149,41.24031900111089,1.5145464283490924
59.27414007547346,30.328152960851764,2.4212789400607564
45.181480345290225,14.487170817663621,3.253235217739884
26.764783076811753,4.175471459591191,3.860183743610036
6.462843111388148,22.931574710575376,4.207977770051132
13.183363936892682,38.83805856112396,4.359434753067052
29.838065843976683,49.251904964064494,4.383197359931807
41.668226551287056,52.348512054482036,4.238517498881961
47.62069671959159,47.493631451873476,3.7259044852041243
47.61256051131384,35.358445614136784,2.597820720030764
42.54856709658253,17.736686610427764,0.7145194150865308
34.11314183303697,2.8489985162550746,1.881819659926409
24.359353438831388,23.59155910884717,4.936067175392143
15.11677733697742,41.84490463036872,8.098723228788002
7.767495921157201,55.50213827953128,11.036874768151499
3.25965494499637,63.24465042362809,13.445794178546645
1.948546705892898,64.67629596777032,15.099629873417319
3.5563027641392257,60.322324939557504,15.86720735964387
7.257646679199404,51.501522060719395,15.722185386763302
11.87956213785842,40.08093602408833,14.74109635511425
16.165594628433546,28.11598357323744,13.053828636986152
1.7684172423435067,5.178652089319908,1.58573642013178
4.807150368129009,7.678593179407734,1.8952726121774963
8.223560699813016,9.601425826347493,2.128905024177857
10.992904833620821,10.58756126940019,2.208981261537604
12.049771282487368,10.249105405275008,2.0799104764747622
10.566174334860584,8.191545099991213,1.6990761318204193
6.133294938093542,4.150464071782064,1.0590808910005218
1.1483894896942446,1.8234015984207255,0.1952828838735515
10.648602660390738,9.1912031141495,0.8253457165353789
21.210512076202782,16.94433844659004,1.9168865815088214
31.2188167813795,23.796932132619652,2.9911289453374024
38.79423885165781,28.399728224431126,3.962816199162628
42.097630459554104,29.540480107827317,4.750637849851795
39.575342143734225,26.590740079165414,5.2863129269181295
30.317560431377895,19.85006818185574,5.54596988657871
14.66624615852829,10.20403014647159,5.563316061555277
5.54578351290794,1.253599406497106,5.366409083112342
27.34024157801739,13.304631059537284,4.942194744057163
47.21723583481721,24.68617058966771,4.297402778665398
61.948635419217396,34.03379836135478,3.470743952162315
69.21223174935106,39.958168598293895,2.4913324853873515
67.87780849738704,41.345579244212566,1.4176538260232292
58.03030429303013,37.660173631986005,0.3505213639255396
40.81320570750097,29.209513958947536,0.6488243229114549
18.263729541902197,17.14000858060937,1.566825358605585
6.853669449360845,3.172342897177242,2.3913597553997024
31.28343994607628,10.7824928265235,3.117477944439437
51.63887625324189,23.00502714111633,3.755162364032463
64.91819181379309,32.160295823421855,4.336540665255621
69.06365988485335,37.34530293521151,4.904743857910738
63.40566130165938,38.07296525376577,5.468208000078679
48.82104284385415,34.28334492219837,5.997763723605753
27.54959514606963,26.42150031217638,6.441539065915122
2.7649028074323305,15.467628689474344,6.739848766712186
21.96277464197905,2.8439683204977375,6.849876501838675
43.165463637883924,9.819235535994654,6.71963937898288
57.87927018462282,20.979998345891932,6.277599727977419
63.98105587754753,29.401480168597548,5.464554428441027
60.46376461104817,34.21385837530395,4.233773556014824
47.62006386736202,34.85034646300252,2.594977911534981
27.105698941118202,31.001305336423158,0.6956918765028062
1.789217328536839,22.71661713551311,1.2361841719309714
24.67642517194355,10.649662066290169,3.0227350322362487
48.46043583443654,3.717571555454501,4.531712267017667
66.18889169057833,18.100569187859715,5.636067153378211
75.47156509685632,29.821820500640655,6.260923805612944
75.20040496726958,36.5250764359481,6.414695109951168
65.5864352169936,36.898816712376906,6.173089530727157
47.990888242110344,31.070295068899526,5.615966407553903
24.646056613359367,20.492205629621978,4.7559359476274174
1.652759151157154,7.386279772201732,3.604723087684921
27.844212448330396,5.960703878983286,2.2548034223142963
50.88966581160601,17.711434716061518,0.8184661235093688
68.07729870373922,26.628243191063742,0.6077878181471423
77.33793930875142,31.915516130192398,1.9071547307900905
77.5265491067138,33.00226840792255,2.933442972999905
68.60273073090615,29.519166887746863,3.5377697344588004
51.68013340117576,21.522597622392137,3.6143627544180976
28.918808519331535,9.797357857329287,3.1115021081795082
3.237249215474738,4.009495965780623,2.028216356785863
22.07989608634631,17.613656732034997,0.4416228470453414
43.802622798625194,28.674054645636094,1.4670516311314454
59.17680650740359,35.47594158996603,3.419264769002424
66.275393147492,37.37293851206634,5.094273533514334
64.23643137315266,34.79032955155323,6.198384328207979
53.397198686638546,28.837015706995988,6.524776373587909
35.303161176676845,20.764754060765487,6.001771798136582
12.56271951939009,11.577639795364,4.7084482513135075
11.458018013742079,1.9598396407099612,2.8766849791708022
33.10032505897131,7.542271206681272,0.8162448496367066
48.995071908852424,16.28344073033813,1.223517883314088
56.66253967178507,23.436751599927618,3.0467032652595094
54.990707850870805,28.147625338304742,4.461838936325961
44.45455507864656,29.833787025036862,5.338213632944422
27.021633380182866,28.445449069391262,5.617698624539453
5.765799134874001,24.51946972139331,5.302049271272074
15.72543809729171,19.004375272430238,4.4697331084708924
33.98701217537245,12.964277624513702,3.2814591737141705
46.21532994041532,7.29843618852835,1.9642476721797675
50.64887530068759,2.5927551197398824,0.7524549125276947
46.75953620421568,0.8695373288274563,0.17149510743889526
35.26107005140566,3.0170639596688247,0.7321634847152699
17.97319293047175,3.9223374582816835,0.9928751436157521
2.44471733988654,3.7898935153765896,1.1089506733853407
22.881669655640177,2.957502100728751,1.2277724331348672
40.22520708013972,1.8679274468444969,1.3892713836188417
51.81758215728517,0.980287931173327,1.5113696827910996
55.85800286393802,0.6487103508178401,1.440479959361937
51.654250088421364,1.0544976783572342,0.9999759832341159
39.701570998879426,2.217623684400472,0.08635903813501422
21.597911419250757,4.068603186437161,1.2199975078240408
0.1966066353092824,6.5169828689356315,2.638969149455071
22.703678959900518,9.434069000878615,3.8032325321725304
42.85019799872946,12.559804883669582,4.4198950553935274
57.916298635901654,15.39992577213038,4.346981156968605
65.92082508008774,17.210944471577346,3.574472091367075
65.89363815642375,17.1503001322831,2.1815616889900658
57.96812818814928,14.55200458785624,0.3119615545271035
43.27241461792682,9.218255198256081,1.846093984186225
23.680739273994888,1.599795489464171,4.071453420819263
1.5109567518426188,7.233647708683148,6.082912075803165
20.748739085862027,15.828639065071107,7.5505331645985985
40.6538984425674,22.69050033374964,8.178942920722376
55.97668440376772,26.60192288394944,7.7939051556029995
64.89254902449322,26.82303224070514,6.398794750330412
66.22416738046849,23.154000948437538,4.188751745160665
59.70827300869241,15.903449907011511,1.5295567538892723
46.19664371881916,5.830901820643234,1.1011032501908238
27.655465714197526,5.908350232748188,3.2426948848392274
6.885870596627435,17.846793217613833,4.619872587462316
12.991965213058702,28.357649290019857,5.201818336160187
29.158672232298393,35.88577108259746,5.1074155081812105
39.612478476496776,39.21349974922825,4.496380418080882
43.445574347869204,37.69665890798615,3.5246792378396874
40.846440869921295,31.40431966498357,2.363236563800125
32.88188049697233,21.11563586116852,1.2080184945408878
21.213395837818858,8.193395960511731,0.21696880238616312
7.859648929080868,5.613895956300764,0.5052434254794376
4.988502230347286,18.400296319785323,0.881407084518122
15.16235543321411,28.327076473638446,0.904516581499369
20.79805884092504,33.83284569450092,0.6387285113448731
20.70256427571647,33.839338942642726,0.15782246323637847
14.711097529632896,27.964673049517437,0.4741542200749608
3.885839956632239,16.740346849279547,1.193378836713783
9.600880549595914,1.7656588291344382,1.9190579622068542
22.929915115798405,14.312491830482976,2.555367061893779
33.31818452572328,28.085541503529193,3.013692459784461
38.68555338446236,35.97848056724221,3.1800735643314706
38.061972851077584,35.07548177396023,2.907416217919881
31.61913825421534,23.97248141603883,2.1251625721276373
20.39180747447807,3.40012056094927,0.9043921242450926
5.872531496306894,23.648593449294975,0.5879750191736766
10.331031777970466,52.411594507156494,2.1515407826543886
26.653114130056295,77.36673275993681,3.6169442004655883
41.56244554213891,93.45599411386631,4.847522682651371
53.52687457535168,97.13760870887701,5.675005410185896
61.06770376436736,86.98070144747497,5.9157799781496045
62.96085568447284,63.72463466768903,5.453629481384149
58.53027969034967,29.938654159089992,4.284466188528123
47.87760456739007,10.480850263643452,2.5406613721657068
31.938639438895553,52.79686394395817,0.4703520817645707
12.352032086884826,91.87421013337968,1.63514423419085
8.738577696918671,122.94837968266728,3.5061437683882666
29.17990012640685,142.5775486419054,4.922152091642045
47.27028574904771,149.25536552845233,5.732273037456391
61.78310238007935,143.62702580070638,5.875631585029674
71.88670079020459,128.25230360382716,5.405848519547367
77.08137747867782,106.92432161445255,4.493794835531563
77.21605848766575,83.7124925658566,3.3416979892788743
72.56606549173439,62.006731269534825,2.117226396933886
3.576344069116963,4.903207403585315,2.829906015803897
7.334078643737917,5.429002168968216,2.737919707404681
10.405808123970585,5.0382996558784745,2.336254693883571
11.927368978463972,3.683851774388506,1.582489403530619
11.29269354496353,1.362276727607499,0.45853982643379226
8.340447488049122,1.8537537873830137,0.9676032518343158
3.435749766278375,5.734778750895253,2.5134970035179034
2.6179969434826385,9.865387578194047,3.958265486630735
8.748815650791887,13.660076895629418,5.135991214039896
13.87062268599044,16.49274319720541,5.948252078374559
17.1001255119153,17.82047906689452,6.344331715339546
17.784067660331107,17.162165173805327,6.312373386036833
15.420950995631774,14.059283631709793,5.888415259433249
9.92631650729428,8.428538225923988,5.141147467083983
1.9606885404618015,0.8211462003258345,4.138982448391216
7.326029718779333,8.014534882016365,2.956164965753455
16.542511444774096,17.359808259613096,1.689765180426055
24.134634351618168,26.368388602984773,0.4399918054738604
28.69562332463607,34.07943974225116,0.7272136812164558
29.18789550566039,39.4057110784845,1.7631430048914636
25.138400029589548,41.300790044113725,2.6120644684712504
16.803664148408096,39.062053193110685,3.251645098332336
5.093703865561069,32.48117051375075,3.7075952718304412
8.594438357890496,21.92928993053366,4.020848413596255
22.661004563078922,8.26169655637435,4.1910631313169855
35.57081772362956,7.32785614403023,4.154204201593126
45.96829112280284,23.383439790438302,3.8684685926121753
52.71278855306734,38.25555330675774,3.369354251236966
54.852612414845275,50.162871302784964,2.744904628806692
51.675048373762294,57.398456266019835,2.1155791996658095
42.870804615815395,58.68554082543254,1.5933217024570754
28.728894212120256,53.55434946870884,1.241343740344558
10.279816117056885,42.57852525758025,1.0802572959467824
10.73173308022309,27.312583082976374,1.1160621095882826
32.071753348520765,9.957253908580865,1.3439865486413551
51.37043643757753,7.122874955476922,1.7135208951593746
66.46881707465896,21.83681170391044,2.1039068731582504
75.64615610891126,32.613800933907484,2.3412500622820653
77.74153573842645,38.47805723786911,2.2444199002497767
72.23438737559559,39.0311399089491,1.697980256694561
59.35496678676735,34.44736305816187,0.7370909228040142
40.24007649008678,25.531039954919063,0.4156975394472439
17.02204652480739,13.746570593125899,1.4083995160058422
7.296430821583899,1.100606475738953,1.8996518353723064
29.26457540936478,10.175783969490483,1.7290415346401897
45.66540569258946,18.092888336847622,1.002801404107048
54.24898854403043,21.359789534766033,0.004762786780065498
54.240198544124176,19.653168143474815,0.9583596329886007
46.43691920337393,13.60345275354809,1.633240958411098
32.89104386048914,4.535577731840617,1.843470345139806
16.350498171405643,5.908989498424958,1.4974862623205307
0.3140489935272982,16.114690705145005,0.5829077637094832
14.543319800660544,24.703736816653244,0.8246292756683934
24.339074319717295,30.638492233443205,2.564643840411246
28.404063247814555,33.26808089352416,4.412490966722497
26.244853469517125,32.35711233150076,6.092694824731525
18.249081654547382,28.122907851898965,7.296644395371463
5.68829192334487,21.22980552687047,7.735457030396556
9.448980270133509,12.683712189968618,7.259034111766524
24.80835786552191,3.647324889637379,5.941166318215396
38.10398955865622,4.800752749034769,4.060069721592797
47.49742886656077,11.887042915944617,2.0286767564890664
51.79804471639984,17.237212773611418,0.2584777011211974
50.45793849380329,20.845445590630998,0.9883272519791241
43.455841383905494,22.95529070412903,1.6577128221333874
31.216049657286423,23.889451673481567,1.8728316360547022
14.65437795341238,23.906661758771747,1.8210260266122527
4.71135010377959,23.13375477190093,1.6589941439378024
24.72309846991112,21.572669833508623,1.5229815645863127
42.73598422099588,19.16938518077349,1.5452369019523384
56.02391622616726,15.923790728333039,1.8211410547426277
62.33376926390976,11.990587514240755,2.3701538247076814
60.38836479214902,7.73064199327158,3.117449843819634
50.180783689064306,3.699456271766666,3.917780126270591
33.000504694638146,0.5479129519643674,4.599750128357106
11.227180091036207,1.1583672097598219,5.008634882211287
12.01737102000184,1.1468406766156416,5.054373173280147
33.26614051319889,0.40306350415925973,4.70944700225231
49.149395383682496,2.8329259601903445,3.9628904933518694
56.91032966073121,5.134427335118262,2.844161114527299
54.94236026980853,6.218282762620323,1.4621766532420772
43.22788853694744,5.281440608959284,0.0438972435680098
23.5047195786713,2.1215846059205967,1.5466797828615209
0.9773268181108159,2.7529601751623125,2.913225297052534
26.10279837685768,8.259393209640084,4.0056110467113495
47.77761304392501,13.096116130940931,4.711820162072981
62.76651639137147,16.193217016172287,4.968303893531505
69.21812186597958,17.064685181353415,4.781150244735587
66.77971395081667,15.905600122981228,4.232440482170199
56.35733337104291,13.41194768323206,3.4400564986877593
39.71044841037165,10.438064384090934,2.5195555278592114
19.085502838075918,7.662386238354525,1.5892110610293515
3.0331154040567654,5.446060347975624,0.75454080876313
24.08756166377989,3.931073702800318,0.05767480909487175
41.61255119752495,3.2444970236210255,0.5074416517136536
53.484601338820724,3.640585424705373,0.9377114583747671
58.244108894588614,5.44887739427801,1.2360686872109168
55.388552926179585,8.826050330677742,1.4378482191704958
45.523900182895765,13.463132086544835,1.562103926117029
30.293443791745325,18.465639423215936,1.588469377795363
12.096371250827124,22.55609290187285,1.5170161387917778
6.310511341107106,24.522390697735386,1.4043451729506544
22.23046062596829,23.668237438217616,1.3259591077759918
33.393080541595374,20.014236135451952,1.3123544104197284
38.235856919140545,14.128788223898937,1.3460276646766318
36.088319592679866,6.715682777670541,1.4072599930612826
27.264072547393134,1.7715084352476214,1.4594493923727225
13.047077115469525,11.230387314434845,1.444954324731817
4.461196462145443,21.629162924855954,1.3235181308938282
22.627859531421677,32.533205471601654,1.0738658825936802
38.679110801223345,42.77028897335114,0.7166583902430161
50.12986288808447,50.50713465721696,0.31502171647891686
55.15811223287264,53.781354201827696,0.08477633290042763
52.864103503846614,51.24073333148638,0.4541067272985825
43.38766819881051,42.73194880345022,0.7635371839328068
27.890889525133403,29.447254342300443,0.9965018996345032
8.408573844003511,13.552256803357484,1.1372582487889797
12.439094700063098,2.489755623730095,1.1647422521017714
31.82446792960794,16.54174991387189,1.0905087123591097
47.125667283026836,27.117406589322414,0.9642305935442019
56.30823298882372,33.376363271280766,0.8276004131287718
58.19862898835878,34.92921090534779,0.7162567036998605
52.625204922315596,31.692831652183074,0.6734107147857856
40.41914256968983,23.950896112340942,0.7224227273224458
23.299984692687893,12.544929300777078,0.8514102110066072
3.683542927892742,0.9722270541441747,0.9960570321612889
15.591936878925711,14.383112498104932,1.0652692777932673
31.62012794426874,25.15491403966737,1.0150275962533117
41.84915041334673,30.999389909730883,0.8818052268513162
44.518256797868055,30.42555206459915,0.7716438815001503
39.00349676747174,23.10481656406981,0.7959728229417751
25.97799113666252,9.944784411841274,0.9773720093465615
7.309808388775635,7.108574117584656,1.2004519597971592
14.28191516598392,25.43753895453418,1.2543071104393968
35.68499919268693,42.18569030677486,0.9131785337909707
53.843045970823596,54.67484136560633,0.009663884825402782
66.0982111841891,60.784321721318165,1.4418463636150405
70.42828988608322,59.278005579817616,3.1940462886057657
65.65352482961131,50.02594532936507,4.871069175092175
51.64344448333736,34.071403568147986,6.089755530397701
29.5130663873981,13.513842127086617,6.562168920235411
1.7066460843745512,8.792939231411761,6.156813842496694
28.354348054713753,29.792685030493903,4.906647174099551
57.06609123528551,46.81089510669533,2.9520078427349015
81.32959285483695,57.98053549737074,0.47472056439148763
98.93623296381595,62.52526530519633,2.2996676276997317
108.76550420865725,60.79388719914898,5.091251308318904
110.77082168140363,54.06133404885103,7.564009583911769
105.78266568861721,44.17290310721607,9.355399718117402
95.21827809626552,33.11609200547451,10.166043547290487
8.759480330205019,8.355418405141341,2.4144417419794912
8.765248094983153,6.199604347512388,2.6465856768803735
7.82024279819885,2.723548583050471,2.619386493648868
5.806485064339963,1.5899745687820304,2.2853085673764406
2.485964414640907,6.264500754915338,1.6459871547064144
2.4004838819862737,11.012573255915143,0.7191754767562493
8.92567474682196,15.765097329780806,0.4662903751144551
16.77445382446639,20.52697486830551,1.8293064998758415
25.133814016828314,25.156422670677443,3.2332290297441824
32.77575472102669,29.1940523333691,4.535161299696633
38.28203158475507,31.846216437003765,5.6186850499258885
40.32012036274619,32.182936364547885,6.4034882594413
37.954720287495704,29.487202671745806,6.8474048583038
31.00428042304129,23.490132508706438,6.903405948833687
20.076872767253708,14.366354885931711,6.49948821089601
6.1530874763084045,2.650487146948672,5.591359906063233
9.638089249638389,10.89325443443359,4.189729593154686
25.96909761251591,25.40085122579817,2.3888837065999518
41.316550410722385,39.89352175972694,0.3832697669428239
53.97574489069222,53.20005854347537,1.602320089352313
62.2496825316733,63.93494299922207,3.373257153798682
64.80858625142477,70.59985573013289,4.795063285500702
61.01607175629724,71.84095723592563,5.7699534648028665
51.144304546435116,66.77331756347043,6.196058376695594
36.346873759400815,55.27215620108249,6.039221478766678
18.445829046122945,38.127009912246585,5.362596168947416
0.37024862299391276,16.99803209781831,4.267824169040929
17.873074503423027,5.813086446718365,2.8912884721755012
32.04484105383048,27.73758456289801,1.4036973001327004
41.279885332086124,46.36438338249559,0.0062741958426617474
44.559968284259334,59.81677831450231,1.138141906173073
41.60206679263613,66.9992069263889,1.8108980263643848
32.95859058268633,67.66368521734105,1.9279108727039336
20.005952590444192,62.31189294185759,1.5115198367128524
4.793515641279503,51.99005968374408,0.6773897690930427
10.248154013422932,38.086714345563166,0.4031764959879827
22.685576594366587,22.21974470072144,1.5784961730037823
30.460533693203022,6.196424944455153,2.74137433543979
32.201252938677094,8.036369302706573,3.7685252743606696
27.418772744678876,18.569955195366983,4.523481196663854
16.57647979108451,23.886443804191128,4.870597172839948
1.0426192737805924,23.297645393521538,4.718058143002471
17.069059651299092,17.28478614638056,4.093142574515797
35.170625388541,7.529640983459542,3.0899987047313013
50.57566668029406,3.442619778717023,1.8286687252739435
60.92641692228104,12.906591415198946,0.46237840675100156
64.57472945588785,18.62786437527794,0.8662809622085429
60.84275412845687,19.34575014946557,2.018541496393914
50.12033187050709,14.927002108834742,2.881793593783334
33.7741690803987,6.22134031145775,3.432150011717856
13.905336621773516,5.232003032527969,3.6975951583836686
6.969407354907715,17.49662249703675,3.7092521306918553
26.259316098737106,28.497394031661262,3.50509850139406
41.623077937268974,36.27399318413374,3.1482276557890736
51.243661450249824,39.28232589185588,2.7339117886746984
54.04833207261576,36.74177799989731,2.3745946514071465
49.861793827063174,28.895495349860155,2.1677723845212533
39.46071221425298,17.033580397052855,2.1473239913745514
24.504840665100254,3.1980147606276357,2.267605979974295
7.346597832852932,10.358868418864898,2.4241177511137257
9.283063366613687,21.724261271947956,2.496142924371193
22.68359037991472,29.66565755901268,2.4213208692265464
30.605396128990975,33.66137633859927,2.2158394784424162
31.617345737011323,33.6952820567057,1.9348171054217043
25.360083051951616,30.037839596402154,1.6238821535264731
12.633264028619502,23.169381822022448,1.2645608695958321
4.711659411240458,13.850962890756604,0.7987427261920412
24.07305908912522,3.2197491404663054,0.18234806179577553
42.51148037376554,7.26926714092831,0.5905927887855528
57.191945960658074,16.121340503099777,1.4390443783745217
65.80430620055363,22.18310749317143,2.1936590505946327
66.87992527110104,24.921423297732748,2.6351721024549075
59.96825499829641,24.444360547730597,2.5999332584049726
45.68283830964448,21.265804662172705,2.1252465363541244
25.62457028998957,15.992806443045572,1.4292910704464805
2.181283355371845,9.163564244108107,0.8300018045766477
21.794938482893425,1.3380219864258451,0.6688663349571431
43.38965265206351,6.642180381961943,1.14479569508188
60.05647348122571,13.449992766095859,2.1787188158065107
69.98782704934277,17.3689712199664,3.4375077942520957
72.33248379663647,16.748817459067705,4.5209577713802975
67.25854946009174,10.645344024050779,5.1462647762925995
55.86995639380986,0.6510995439418564,5.20000867097747
40.00472133333116,15.481023451173401,4.67426388213489
21.973584979373175,31.156755079175486,3.5671658132903215
4.260020107904225,44.633298374361104,1.8913931809976599
10.816104997705983,53.24624212774443,0.2552079379317128
21.472886751643138,55.24439258090145,2.640531226497397
26.808140045756847,50.00261746538487,4.91477327300599
26.966012507130234,37.960365392154294,6.704687814878393
23.042537324005377,20.39956284699189,7.66514500342891
16.732608016138148,0.806234510415553,7.576017084905439
9.806558713448688,23.414739590575344,6.465499342060646
3.6175100062308916,45.02233301742259,4.602998527548281
1.1418159500130687,63.28201197466421,2.4424624150446785
4.357318409672656,76.14855501127536,0.4914026610355512
6.190930161492438,82.13344257260586,0.8817959061487349
6.76807010405858,80.53561048325513,1.5779783316071518
6.053082933882483,71.5939334387003,1.7594617894876718
3.973793598339069,56.506610683039405,1.7020459917705373
0.67663359505247,37.29701904638076,1.654852081921415
3.2963872590482217,16.509424791215864,1.7404062507731553
7.069177634298128,3.2334260705738096,1.9601790651773066
9.725410473171179,19.703426312696788,2.2959965206441546
10.65045823465101,31.43801006307294,2.706088712172279
9.716615619053588,37.89354013245946,3.091335441157844
7.2168795286966,39.350379102627535,3.309667126053906
3.6005406660392967,36.6323127785056,3.2248801954860222
0.7759781191672779,30.795184385519363,2.7657395188409324
5.675697587492124,22.936856596310065,1.9172495797972746
10.77055648173176,14.168663648028073,0.7322808191382643
15.349668017555542,5.693795281002946,0.6593774711297439
18.201784218309403,1.173560591171234,2.0727037314928407
17.856822555776645,5.174173923800162,3.274894776392514
13.139625557605031,5.420531780519222,4.05700431085814
3.7841777633129743,1.7467877252764874,4.292832561563692
9.223002459867049,5.113525528691082,3.9622228498848417
23.76763879312716,13.659397149352898,3.1637516713950715
37.16331139144066,21.99700713139303,2.0604356041752196
46.901035077232166,28.29913404686114,0.8321916628470061
51.269057293828574,31.163116743123616,0.38168046604771694
49.61906861544594,29.77075020633751,1.504234043946435
42.259218181502675,23.93473908636296,2.447193847741577
30.155344494291505,14.152923666223172,3.115414658073769
14.649156187354414,1.6974906360153705,3.4613462522963636
2.7104680242902033,11.356677620213965,3.481201666193986
20.216948534482466,22.335602699012227,3.198855047915571
36.04120239558652,28.526424477195317,2.6515426108997864
48.37903723127662,28.019587855704263,1.8962525368764538
55.71752599578144,20.49663608818746,1.0035106141807582
57.13453896711101,7.560286894985851,0.036833271584869764
52.51541744613609,7.637402748045072,0.9263044191672459
42.60308524696022,21.372362882332656,1.7973491560883506
28.863388388507673,30.47746239608181,2.512756012123592
13.223378911990634,33.13812392823481,3.0370129246176703
2.221828412447218,29.065685376773402,3.3419690304355636
15.485695615893528,19.086536095238923,3.3892501061204117
24.91626203856486,4.542170526445446,3.135379584501888
29.364667555537395,13.077484347780125,2.5646098579080476
28.328673519419024,32.10163969569368,1.7275519289549492
22.055268842787843,50.41674387841073,0.7435012878797753
11.571421533119805,65.38234385873496,0.238615524866032
1.5274541114628208,74.7423702016453,1.0996341569778814
15.376760630105567,77.53807084253357,1.7747104040788106
28.075618585773135,74.21716017522888,2.235208158305245
37.97788418457318,66.49666010639268,2.4650149987279337
43.95668630365021,56.787306046014955,2.462664028013486
45.56984025611728,47.347743039349496,2.260164399940989
43.09097377358956,39.530909569537705,1.91994303038776
37.406147257482445,33.479133946838786,1.5194180285612544
5.474929096206614,5.4855702565633235,2.6671996739968806
8.511132013766643,6.057200128250189,2.6110157321520338
10.952247078167611,6.275276407273911,2.2420047316474463
12.191706909498382,5.491455766395083,1.568839101294422
11.739288900141837,3.03237108073113,0.6600910088201343
9.285637971253571,1.422985907133479,0.4010867103448894
4.755854891583046,7.6138166621102785,1.553972113035184
1.6582691730351713,14.72623395964449,2.7459077777911545
9.43666130359195,21.624778642558173,3.9105585983511597
17.697107283213622,27.159682475763788,4.946478927883231
25.227734976214947,30.380296485277103,5.725572533105192
30.57944046867422,30.622710100367893,6.155745311183025
32.270454968596724,27.569303425766705,6.208265359253002
29.314066659163693,21.28264608298535,5.89787820935187
21.735322545286373,12.072904759470202,5.266227062706455
10.515942752756352,0.39072189532751483,4.36891562333602
2.682897209535332,12.96923576382199,3.263917285401555
15.8354844547308,26.678375389692043,1.9992247388530806
27.026253658096465,38.99124802602228,0.6221312070528706
34.75404437356985,48.09212080864175,0.7985281739415021
38.042393658114065,52.56971754289933,2.167577747334854
36.43130949458181,51.750860828648335,3.3605811174962237
29.900419624467776,45.732472331336794,4.223219626344575
18.9187633214313,35.19152245064559,4.5924146079365675
4.563276308391139,21.11889291076341,4.347183926874611
11.37381026450658,4.686165141319984,3.486366967540051
26.430778306918505,12.726093304708659,2.2082165044815616
37.8295694504149,29.45341434360029,0.9136234293992469
43.08291097611005,43.561774565229605,0.06916050596584707
40.703782551246725,53.06169149295135,0.03866128859181044
30.7190843728605,56.27539476527408,0.9639511071511615
14.751929167421206,52.245317248695734,2.661242698355402
4.372808430254211,41.04877434005492,4.681771173851133
23.36981795101675,23.906584834185892,6.548139997296682
39.25565414060634,3.076152068971877,7.902919975336337
49.860271003694045,18.436549200848177,8.532389861854265
53.98395540095801,37.302125379919836,8.329726712757578
51.26894962946559,50.399322130125654,7.243621584612494
42.004300890363936,55.3932001478328,5.3228952752678325
27.0417045781777,51.23023341950602,2.7757485423891772
7.855088594926013,38.41173031543538,0.07909348492877476
13.387210230611867,18.960149850916544,2.9077954719165997
33.93520897431317,3.9270570780778304,5.385778423850456
50.8486834334589,26.46455767032923,7.175178466945137
61.590914132951795,44.95386990704765,8.013233248295352
64.59301472404714,56.39241753599516,7.855756464827889
59.552038993414826,58.94180897143693,6.909539505620216
47.362970210763315,52.214095186532326,5.5541023276182075
29.746313064440674,37.35496393403249,4.196116800715275
8.791178022894774,16.902973472888227,3.1033400257477948
13.35773917268482,5.622380159348817,2.299314851019461
34.5940785632454,26.391467063802434,1.6364651710271532
52.80403885283166,42.030443058936996,0.9809288559572565
65.86336284754675,50.26662294823078,0.2925807362592504
71.83220332095905,50.2909944136133,0.3785292192901606
69.3526258906095,42.72771403787185,0.932566714251078
58.0972102910601,29.27041631386494,1.2989221033514726
39.0534675169771,12.20234221666909,1.4533468643282283
14.50106021910619,6.015269531000309,1.3857478855334782
12.333064150408727,22.994962299392647,1.1038163985648575
37.826479474629764,36.55787299553626,0.6786039919947479
58.54695310695414,44.88579973444157,0.21610023751587626
71.75397407789919,46.75789619988352,0.22428222110750717
75.75755118228602,41.82817986477701,0.5981065927266764
70.12544818141158,30.803670687229584,0.8499407609035172
55.76082130290103,15.37146932856444,0.953977279877677
34.82010318099457,2.1574013312915095,0.9035291456498465
10.42610855433267,19.362024121539427,0.7109763124818252
13.806216588379575,34.16358602712515,0.4370969030785781
34.36685991784036,45.05344504371387,0.1704278173719795
48.43171489917822,51.07611886128118,0.04565541022783948
54.278828318723335,51.70836620174135,0.230540060190955
51.487171874340255,46.825807440767456,0.39604098729271825
40.916569390066975,36.79962993961556,0.5322654673348876
24.524566537527278,22.65352853169013,0.6539530563155228
5.092854972306316,6.116923874211601,0.7878424738619856
14.137383060260367,10.60024244953779,0.9202791351788601
29.912507079336084,25.267815312304226,1.0121035061342813
39.46311157635111,36.136211580878275,1.0512356097709104
41.01039360172642,42.26556348755223,1.03636052625774
34.15679514930677,43.527306684167684,0.9650909776637949
20.013975277320394,40.313603533507155,0.8538920242622742
1.0075804056549316,33.174736617014176,0.72458212169844
19.593067677977498,22.637396550530205,0.5990018932707831
38.28972809115612,9.317460111711366,0.4870303372138744
51.95621995081252,5.765095202971139,0.3670859906564594
58.29876036596707,20.91466004766248,0.22369573191509412
56.128692446282486,33.80093783653605,0.09388425275054939
45.45663282559364,41.89459080428971,0.020527445514790753
27.458945035500992,43.14624521838085,0.02586698991825607
4.347164795597739,36.63656930111869,0.10450532041533774
20.89661838415392,22.907998592624804,0.22125899190422788
44.918138896160364,3.8603343960038847,0.3404725851682184
64.479133544866,17.689630078352735,0.42995059198075347
76.95765195289331,38.58480373589147,0.4627190105955124
80.7352600045628,55.81903392235346,0.4137046585570351
75.39039788060403,66.84884561592531,0.3289373022467851
61.67578619082169,69.7915879353261,0.35480392043608455
41.30946894653234,63.61487324592537,0.601062438271333
16.676844382442244,48.383094662625844,1.0285549896298234
9.473909652308537,25.50872144279609,1.5004136534450356
34.3207947139508,2.166272726699335,1.879495150307998
55.2339684783363,30.64184138283653,2.077286347365876
70.02822490667316,55.4342125769644,2.0339451017439703
77.2099558886809,72.52007572259984,1.7008443931784305
76.17219756569571,79.26079863777485,1.0947778698508914
67.29428802547731,74.97927581607412,0.3197983890434787
51.919638508624736,61.02597606023166,0.5150819453253572
32.16743120646514,40.353714093787396,1.3634113421372642
10.606138493628581,16.764171280508652,2.2033178174963877
10.114792502297643,5.890037226146697,2.9639910309133266
27.601011309633506,24.33669330484566,3.5245327531895865
39.96254089942158,36.2961411866051,3.790364202184085
45.95158120910704,40.68944343417982,3.737443463978579
45.01276387712294,37.68364491362979,3.4064324268561794
37.304147213349076,28.597124467548564,2.931593554687418
23.743635391906874,15.645932283084255,2.511842449580499
6.068132800270253,1.5088750806823619,2.2500328231353266
13.197862438494974,11.240824496701643,2.0740144627767507
30.964652172804175,20.668197984764486,1.8345843125324721
44.01267563663684,25.777935483594955,1.3950810122504664
49.61349616613052,26.492873463006156,0.6582782061062301
46.17406508088406,23.36462968940788,0.39431243681859085
33.64456256701247,17.200246317244645,1.68168105219552
13.562163482606833,8.833809629998548,3.057876370709932
11.277486275596399,0.8513651950598571,4.37381256711082
37.412403802548525,10.774352952725327,5.5157693040303135
61.31196911645372,19.587137409851056,6.42226963572176
79.78903000114256,25.834571222063634,7.099800338337178
90.21734635283511,28.369177132716704,7.543125243724166
90.67428477987852,26.814041338703017,7.628005926175614
80.17084512650378,21.778079961658378,7.163699320494152
59.01342209853585,14.653107797854297,5.988531117702428
29.155187013586364,7.061657171914493,4.034141430551446
5.723615834127713,0.26548778204876505,1.4264892649590715
40.63646580027085,5.134185435894154,1.5129170508598537
70.22958808665125,9.055425372790179,4.399915120183756
89.97473620055935,11.482705044120822,6.896368282498986
97.19046730304568,12.066886624218782,8.737039836389666
91.52515335839348,10.113881559035223,9.737756257184042
74.76021734155331,5.023592492573443,9.82090336707225
50.11025147670949,3.070596142217545,8.985980562710324
21.324254198652337,12.982039175685086,7.293996442104268
7.99752651093415,22.827914789276544,4.909568055819279
34.71739065497295,30.71693690673324,2.107746255569914
56.29011289395159,35.36674952410885,0.7721000615747176
70.85137279581963,36.493487186218076,3.3667311333886256
77.37960359623831,34.78191238260124,5.309940282792745
75.90645321016058,31.447520980627655,6.332670746065912
67.62888195114995,27.63680743079776,6.384397078625939
5.020745261206167,3.1935108580279272,2.276917840748237
10.065814465020544,4.267593040332945,2.293638533873987
14.604771604087155,5.377404401433658,2.0950533490206733
17.537584816206056,6.1358526073085216,1.6554039768507742
17.909201216744254,5.949913343347566,0.9956636557948451
15.05869411768459,4.255599056010079,0.18044779215625792
8.748960783522765,0.7782054241013665,0.7290394365644483
0.7411839045876777,4.3098824478474,1.6898317460702303
12.525651757541208,10.372165792539697,2.6742832165010717
25.10920886847404,16.461666261386146,3.6432522424272116
36.5016448366134,21.52391718106398,4.525602129213629
44.4100634271261,24.539203907193713,5.237552566074661
46.550529953366095,24.64371865841751,5.718002061680426
41.36107094105579,21.384691488308896,5.951516419245171
28.759381896099644,14.858137043102584,5.933729717750677
10.187435220888927,5.510556333638373,5.646899664781016
11.722996654735072,5.891617190211715,5.06979967024646
33.634669565178505,18.121381329038975,4.174421169448914
52.268144466562326,29.567041639490604,2.962149810760472
64.98984966481699,38.4430294930774,1.4917998114027222
70.15184935746048,43.157197179144426,0.14675833992899065
67.21260050796631,42.720255853071826,1.8667420803457775
56.59611969955778,36.9665148706818,3.5871289204671313
39.52691918622271,26.564268673547065,5.168038632598809
17.846116315716742,12.810790740129256,6.410271479582384
6.156625862254651,2.622190206747867,7.158841246457075
29.887203940705614,17.893074935749436,7.35266094987599
50.66492874558018,31.151383649625885,7.00890016027118
66.01848965385814,40.651905815770405,6.192081242505243
74.07087722113832,44.93651683065677,4.994532912069704
73.88323854303182,43.10023604828996,3.5310060742053944
65.64242426678337,35.063908515687885,1.9379425127468781
50.651975395298244,21.748799550551556,0.39057422143933773
31.098867130735123,5.041313317315564,0.921257149336578
9.675467006970242,12.460255002670133,1.8655339127906962
10.844867121751324,27.880648811226497,2.4001839654439285
27.96696692758454,38.58559095167461,2.5527989393727415
39.726630528518264,42.65370235101842,2.3835440885314796
44.88391692154291,39.21862247285436,1.949117373219297
43.08032564191879,28.624234393367644,1.3018303273239977
34.97582994769378,12.379165258308323,0.520303464405229
22.295406147589937,7.086304489173139,0.2942435768771127
7.65616513167425,26.819844176882853,1.079048754455205
5.871049796479193,43.818385649447414,1.8331621190065848
15.404535737942922,55.48609845321584,2.549723347323334
18.930143312735993,59.99453524982174,3.1880822379166425
15.790181835518414,56.509059733884406,3.7040201612013814
6.784259243343108,45.29034926537501,4.034172852605288
6.136114571062966,27.678353912794783,4.102618262453627
20.397788155665232,5.961854251210387,3.8492181010717372
33.37082722397517,16.893291101969545,3.2238750525754964
42.814608742639344,37.688335007458114,2.219884816066557
47.135647640177076,53.56088597682728,0.8866102972900538
45.515128839031036,62.550870307736574,0.7044471770099073
37.97894038058654,63.988007705413516,2.4466027493736062
25.42358109144847,58.53775211496533,4.186753196591895
9.539777124260056,47.87747193973202,5.743756686906963
7.455489840181719,34.149142021817944,6.934597893559864
23.286771623485507,19.423412714882055,7.616102250655539
36.13958888780222,5.3818178777393255,7.727038235596216
45.01242191836963,6.710681915989993,7.298775981794391
49.74656317426619,15.85730847392199,6.434967843831605
50.729988356793484,21.219763338131656,5.3008948624768
48.4686260850068,22.204360037128396,4.08507274102889
43.287111992514255,18.749972518295202,2.9665958499633582
35.3115095380638,11.644385220849031,2.105947098861706
24.72194668181269,2.6129684760585623,1.5671418677004079
12.079563632523898,5.981064619903482,1.2736732235555541
1.5248887412630219,11.775550126361981,1.0417487658381746
14.601384333749488,13.10745919729282,0.6201351141072771
25.603869372412348,9.43103227004933,0.2219140378535288
33.3077050381447,1.3132696369281274,1.590716215176652
37.01847064563641,9.924335115270514,3.4094348096360214
36.56003403090599,22.70899702297771,5.427082016133035
32.1501145235517,35.56074371332422,7.294990671088081
24.295359917475444,47.13471599946996,8.66037050255129
13.798329866152686,56.09136878547075,9.241065628735036
1.8460890364215208,61.00737071685675,8.875576199581642
9.985575370034073,60.51357922862612,7.558824999454753
19.91627128076455,53.69163941047618,5.433366022155504
26.314338612629612,40.528944700604846,2.7528374561959432
28.113159480084303,22.160977706030582,0.1390488650931437
25.098028618375373,0.7302768505033135,2.8702123486931814
17.933874663113315,21.114294297448037,5.103021684266823
7.9656421244399604,40.83778721501001,6.555587231235202
3.0805299093228085,56.46086789339179,7.053695069986778
13.370724348648677,66.6903287635948,6.584077396467683
21.164935304655966,70.81080942510883,5.300420994762054
25.00102300433915,68.54876361740462,3.523238594781268
23.922021915180427,60.09859671035666,1.7086812976246468
17.72716497498748,46.282883725556694,0.26946793153243687
7.1708937407031454,28.675299583610308,0.6251220150317085
6.037135897436065,9.511945838703594,1.0366731092377741
19.533333701902247,8.711922494231226,1.1555673931398713
30.814110418548857,23.83310727208191,1.203449069330731
37.7917776022976,34.49891548755289,1.3125883886096172
39.19183820121881,40.3129800047284,1.5287034028488549
34.65553572878449,41.61535248828163,1.8864359169885538
24.634460094814145,39.06858828699334,2.4065486513353695
10.220608208505233,33.33821437807597,3.063218570150591
7.003211405387686,25.045787944192828,3.7559742900404514
25.05358455561274,14.957865587355098,4.341226112384858
41.665026654268374,4.1965740853442135,4.699855320783893
54.55093659246615,5.790854069503335,4.725455267142499
61.81047202485266,13.578463113134681,4.3162298347007635
62.363499212935935,18.233540495043275,3.419709280014428
56.22654046214676,19.6283017696187,2.045042979026006
44.48878220878029,18.38706401936467,0.2613759023627824
28.989731471305802,15.490239878082512,1.7769335613857125
11.852817627898308,11.801305929658213,3.8531722091410696
4.925636462903522,7.8080152519692,5.76474278604376
19.694562854489636,3.713989885953467,7.337204044601313
31.175417010450648,0.21606856948971806,8.438966287251787
38.430457444355255,3.3677043299890865,8.98921096540794
40.89291840865099,4.812353253422092,8.878192633959387
38.503104661485594,3.693892267438289,7.9978689761912545
31.87661849898533,0.24086495376182424,6.339464798632894
22.33367922996431,6.306808534890698,4.01332270441125
11.712669739973613,12.989750167272414,1.2563487979464691
2.0157952933400622,18.474132799298378,1.6546169162410038
5.005800287159869,21.312999242115005,4.462804654464479
8.161284877687553,20.8919705671237,6.877083121574202
6.941539772332566,17.477466826835997,8.622258224951501
1.4919483366933943,11.900893354073986,9.505640833236342
7.486361927945886,5.119769175629988,9.39891539498579
18.814519160764714,2.0936336761838867,8.265570588854498
30.893054989791764,9.204803471697797,6.221173654318879
41.804616020021946,15.775145747152234,3.5306594379925134
49.49465465290127,21.322578949715048,0.5464466628508228
52.06221143249772,25.323460724631598,2.3463368151483572
48.118703447951525,27.364726774578035,4.792703766164228
37.090945243651596,27.33807708017431,6.517572297815582
19.400146851937244,25.508297853055826,7.342992176143573
3.507862311201421,22.39282503860181,7.227629639568483
29.28406373224233,18.530803376919064,6.273623085744059
54.920130644587424,14.275263070772107,4.694133914657447
77.09172168535635,9.739259512270776,2.7560926974713293
92.5994849656048,4.92991317589314,0.7153143140148183
98.88761347669178,0.02596342607933371,1.1736249007776682
94.53808662196913,4.72171969084793,2.6821630927448963
79.60976985331932,8.48279210288823,3.694258648229975
55.70777535720243,10.550893764328247,4.197874155987207
25.732191219250385,10.487875821379454,4.241876010657384
6.699523649318346,8.321942366057806,3.926911310817067
37.87765625931779,4.4122852421554,3.3761848159555954
64.47536253958839,0.6152382432110213,2.7054611126914065
83.94359424030776,5.999921039541264,2.0181857904835168
94.79360520410465,10.98260490613314,1.393304147716471
96.73072139329363,14.912180675439917,0.8673876778901151
90.62289601710192,17.322198502960067,0.45573623538873964
2.3580319738592395,2.6072038059047937,2.5205634706369793
7.024690770965527,6.252606719635943,2.512779085510696
11.8504418587137,9.505298531987195,2.221918239357737
15.680713307398468,11.586515557026512,1.6416985104516584
17.382093293836334,11.871385357833873,0.8019289855790062
16.09619528065447,9.963924377601614,0.23814807252178166
11.425637968745235,5.745953775489863,1.3913635659014452
3.5209035818631715,0.5778599993616128,2.5520986457226162
6.878090765244825,8.399922909360116,3.6355931037202462
18.470363804761657,16.660154495436842,4.623067165402118
29.501905595196586,23.88350742490949,5.54829647752603
37.935776007609796,28.31272688724114,6.426293538678813
41.7211726718055,28.170791456436344,7.182702110630086
39.370685267027156,22.295096861508824,7.600637623391385
30.56219164377346,10.805396652350424,7.363857327062304
16.222809142737574,4.896951972968223,6.231346897372314
1.6631246745388728,22.49489939435798,4.164378691340872
20.43224087417782,39.21772974977027,1.369741541050735
37.396835405375036,52.463945354505505,1.7233643254740316
50.36399288845621,60.19499598562451,4.630788566024878
57.90173338558147,61.08316803226458,6.967951622155646
59.3410714733857,54.53712308781153,8.469159489887264
54.555355222604895,40.63308636421935,8.969252230074618
43.81921678143812,20.150615676246755,8.421556857522294
27.820275761606677,5.336061550914741,6.9353856168602634
7.81605140563253,33.42043133682366,4.743058794416273
14.187917252886384,60.9966844494665,2.1339635253998575
35.48688972783569,84.65124142451103,0.5592196220401371
53.042018763075454,101.21458589311993,2.9702533151169392
64.094225450629,108.32056604172311,4.722852887684481
66.80775222472643,104.76590224753102,5.509792400124753
60.71988489786681,90.60771048345998,5.234314321937227
46.83988530811713,67.07179608779654,4.069946797970324
27.37856773899543,36.34954834328914,2.3862479582197
5.276218350209671,1.4078145706374292,0.5881025421575456
16.294977340990528,34.18934019428798,1.0226337492510558
34.3370460571074,66.5590317493635,2.2918017147640564
46.323788609382476,91.93972150569635,3.220883820094156
50.453793911027546,107.28182108805497,3.901611807069042
45.91346720952573,110.85529307234258,4.40783058516623
33.13130779216209,102.65939405670383,4.766413060572685
13.90181806230496,84.46462910352002,4.9706555586209245
8.750646167453517,59.45498800726044,4.986176918592349
31.03500952746556,31.591145901718953,4.737246874583984
49.118258330268944,4.8862515442325485,4.132954471622675
59.917013969189746,17.215681682134914,3.157100305453678
61.708045008795686,32.25627789222325,1.9007040912615472
54.33511753766214,38.987876189030935,0.5487622469843049
38.99242665862742,37.46488698841717,0.6762038622556397
17.74343130240201,29.023772203799275,1.62099402823063
7.010203044728706,16.094232791143178,2.221868605052162
32.8751792745149,1.7884103892880854,2.464898144190367
57.536145476511166,10.702915364274519,2.3535995780712557
78.66814153805626,18.78377571025894,1.922127612732309
93.89775311745727,20.98314992502562,1.2853045141350945
100.97764077339488,17.15570843437663,0.6016372668221914
98.21475074987687,8.309235178511582,0.040962014758338036
85.01818134566682,3.830769159087937,0.20831649282227946
62.30455258205668,17.317007292777344,0.011976040517669893
32.54556868821212,30.3446844539644,0.7662159837444724
0.6047648281671166,41.394599103744525,1.9614925385737874
32.99572997848519,49.22341342315776,3.3952219808849096
60.729134615637946,52.856196785730376,4.856476103407416
80.75212951498764,51.67500813176862,6.096841740083476
91.18768627592999,45.59721314488038,6.872787801285247
91.4190568085841,35.2428917716691,7.05946039521086
82.06204756077275,21.93111145201514,6.647226744623853
64.91187634189552,7.435006156224251,5.715922347736345
42.82266930066304,6.416453327876578,4.3977602330697785
19.418231976509446,18.1177705415063,2.8361652532645896
1.4442839565381014,26.688251350511692,1.1809509575107806
16.418108598307516,31.647075424724875,0.4057799861239815
23.416457170159937,32.85480687804842,1.7418841903835334
22.095264445214188,30.37449559326995,2.6754999204398904
13.875320954948874,24.46392317457984,3.1170702091575704
1.4764004434952323,15.70593177576291,3.0354167855059244
11.851000165740079,5.154648742905101,2.5144688731035636
23.0929884574744,5.65795950143825,1.7566543499850262
30.00166722414376,14.929157992374908,0.9801994478565969
31.293693644780888,20.975098201610034,0.33661892657169895
26.594323556736107,22.655039579101892,0.0497439732461669
16.297496895250184,19.646567552150064,0.04159620247682557
1.4664110830570292,12.48833243463138,0.4054230625419112
16.21792267453722,2.4003109408607086,1.2238519142064457
34.559893932685185,9.034029596052124,2.330639551032513
51.10551754669317,20.161607415110453,3.601889554031299
63.56021316035538,29.444173271339118,4.859190016727289
70.2408787112939,35.56047074191261,5.9285972549461405
70.37516167638351,37.48089440004197,6.6606072393683196
64.14903349575903,34.60461975479477,6.936641873110631
52.51491100645144,26.961868181569187,6.679258932167351
36.88289016353542,15.39074955354999,5.879477308005092
18.85684809730294,1.5981590987437226,4.6032364785930024
0.11122213521014432,12.01496564391354,2.984283478278433
17.618811651092756,22.78401739257587,1.207754346468284
32.57933878418605,28.35767329492022,0.5544673248967855
43.16469786291461,27.271983775701052,2.1496527729655606
48.19997658581273,19.326364531801897,3.4383188858141267
47.250355205072935,5.6455100359295995,4.348584650344635
40.79610604707918,11.5509998932879,4.880193837729032
30.170962378057702,29.389201635522443,5.055569907571773
17.274232586821235,44.8601332623272,4.875972636214054
4.183753067916672,55.27778490181427,4.365248686473672
7.158692626017183,58.598654222893835,3.629535326022443
15.107820059344228,53.625507320454986,2.801530580880908
18.354670513437163,40.14846846340621,2.024184079172412
15.986919213602167,19.030553567383507,1.4550967597499675
7.6863210880164345,7.783386028713953,1.173904122806204
5.966911505803175,37.40931052420108,1.132651186637134
23.21630642544834,66.37691554038989,1.1675381772331306
41.0842326669947,91.15004759372172,1.047213933759061
55.728637841618315,108.6994868421743,0.5707030650867014
63.2150935129244,116.94001907386752,0.328806077153019
60.51282484143173,114.9022482716142,1.5069446760319505
46.36784780349978,102.65085461755191,2.66880380272021
21.77262446895649,81.0646178650255,3.5099311130693334
10.11082810901244,51.67504892869745,3.8062312483074843
44.55510749118048,16.6605665880141,3.4746091011827294
76.18882903749417,21.07677294166043,2.5543670880302556
99.96582467794164,57.912575950620585,1.140538328803719
111.9627975922408,89.77690098365153,0.6461534193775382
109.91837325732092,112.77113891896289,2.649048050517601
93.52747579108652,123.96593490348826,4.637835411844909
64.51761491588009,122.09706667742316,6.326186570325651
26.518258097841677,107.87425505699615,7.409739716351654
15.329383163880694,83.77213573099127,7.615050289892734
55.08375705480765,53.42281013085484,6.831890017406277
86.98414748911587,20.890163426129607,5.168129341131809
106.52103441752864,9.920928503477446,2.879592924214321
111.33161599959898,35.627212818669264,0.3140334220245969
101.6433036288438,53.57221107059272,2.15639352321377
80.0955180518299,62.03652357505369,4.243603455742265
50.990912373183235,60.54997612212929,5.832197275067591
19.254335028210765,50.19057053012438,6.943749562373061
10.550344133913727,33.62496279019212,7.595318330493449
34.89334623057022,14.699914595230885,7.7614941853951525
51.545651339308506,2.4176289571460434,7.426834478515496
59.5167708738188,14.296909729995557,6.605449378937933
58.86814088580749,19.08339678377297,5.356217444260767
50.56778572369519,16.78358197459305,3.7818473229159517
36.39850319054503,8.932324383118235,2.0231089846212904
18.838662577200473,2.1166382508510035,0.24982514314801188
0.5388643081588855,14.023865116973782,1.3757436148154265
16.2325215949123,24.9617264209975,2.720051619748657
29.80899123482167,33.67075483498511,3.6898015812297436
39.26711941185786,39.372549187339864,4.225977959480533
44.404431566049794,41.64603283856387,4.31057716669784
45.57829831792653,40.39635019327844,4.0107327833836
43.47344382675471,35.92943931096324,3.4594543783345633
38.886760956440334,29.03569429394756,2.793932743010344
7.2925871242691755,6.291633227815572,1.743698275083048
10.417914913834656,10.533234044649573,1.9391766243219517
12.990506436003894,14.06139688444468,2.073671981908614
14.195249700864101,16.0418648291943,2.1164394033819787
13.215129141449111,15.804091600858882,1.9968367700374068
9.449182015053083,12.926365242140564,1.6421639616520345
2.7180275947148593,7.327712207226335,1.0286504372190521
6.633963841201155,0.6718098802292151,0.18222914129016718
17.717843707237524,10.29367562011414,0.8423462986886583
29.196279086857892,20.34095946123505,1.9807653561275143
39.44020874239738,29.34925724242582,3.156396950640626
46.68183739474038,35.75678356077499,4.286967472721358
49.22715642745668,38.09164761958185,5.317303932662973
45.92883918341681,35.43531175977115,6.1923504306358055
36.558255411486144,27.89364523511888,6.818979658820263
21.66422360822089,16.478316995414286,7.0882165255272644
2.4715356272781888,2.7957820640320987,6.909974408625354
19.1147992799046,11.202978838395655,6.240226179249063
40.732897991562716,23.606193510661466,5.093602241332407
59.788858869995586,32.801617609145445,3.560355279765582
73.7633920824664,37.6778899601957,1.8087113732584963
80.58618602000313,37.82427622894667,0.023680297254187226
78.9302401207976,33.586122725875256,1.6524545609745722
68.49105358869306,26.02178349049478,3.1165073844036373
50.11396659524848,16.65112847841645,4.282178711619522
25.769679946238313,7.061327070953134,5.084137934378739
1.6390484140088877,1.4556588923169087,5.487868135463472
28.689879954249395,8.137276123669771,5.506082238463348
51.940937501630735,12.734553897094173,5.209639992387892
68.46450178950747,15.314822849490291,4.701475304701596
76.28561675656528,16.03838888623312,4.100956959531482
74.6208060840812,15.056401719209125,3.528026582365095
63.9505144807977,12.590356357890869,3.0781641265778483
45.941616189852496,9.089672301255685,2.821466189095187
23.26264954548159,5.301296486407067,2.763868396793121
0.701812074317601,2.129692248395835,2.812540028829686
22.27969869222896,0.3282110192833362,2.835362350131852
38.084515147969086,0.1889738057054313,2.758744640591746
45.67190493660425,1.415438220728381,2.6101320321767174
44.12503968110957,3.258852309333533,2.462838912022826
34.35153484396795,4.8409990591674115,2.374980896920065
18.923114423472487,5.479655687331227,2.3671935977763843
1.4621298123543187,4.819849423753833,2.3951462404762762
14.240748238012655,2.748434234169384,2.3723048499437756
25.098365802838604,0.7675141178549988,2.196259511643138
29.305615449344348,5.7586143377134755,1.7242391420246865
26.497029179919508,12.146821242132225,0.8229425533542266
17.553291791240348,19.517885725998532,0.5094613904967927
4.22323027500601,26.94079706912159,2.1046054332713866
11.242593736286803,33.01073312182713,3.6900384931134633
26.34290267796412,36.18043155248406,4.961019419539986
38.5279132508882,35.22741383764771,5.681446011234663
45.45909270968817,29.640461083427585,5.814126399628434
45.3695425289933,19.746491489757005,5.491067935343296
37.48960571622225,6.5368224385304305,4.874714220547889
22.38571405053022,8.649314282590485,4.124153578604661
2.0384080279101644,24.408581312395803,3.402842542459408
20.42919847920336,39.4162799274766,2.860461141922661
41.34719464514664,52.440032387116794,2.61342078597158
57.24536206893335,62.34252937475127,2.7171892627957677
65.52509577079374,68.15455570051326,3.1405500442692005
64.89117914954836,69.21962667169164,3.718719215444397
55.47434978303745,65.29807004291426,4.186860838032438
38.68162576870963,56.50863362759919,4.302939660714797
16.864235787588537,43.14453004813939,3.875452649889051
7.077233415266679,25.522542381495363,2.77916670275685
30.061891092291006,4.036646961348563,1.047090093342085
49.166141446337186,20.52622235206931,1.0844694734904563
61.92900486908058,46.550387290311726,3.231380985081511
66.64127169694513,71.34015631889757,4.978026795265653
62.62660538244381,91.35742425995268,6.019050013830437
50.44174800012213,103.00456477686201,6.293874806515399
31.913533240334417,103.67887988932756,5.946357962771925
9.924205553682748,92.6493297829862,5.159654286811458
12.097401838187405,71.34996897350825,4.1061511260376236
30.886036858077563,42.96229508702076,2.9172444677867957
44.04957076505731,11.524972439810568,1.6732045589690185
50.51629022777164,18.994424811682457,0.4822331492526406
50.5422732158599,45.292899103400096,0.5172128176028243
45.295476148092966,64.88790425380182,1.1943261258749962
36.219778591394906,76.0221348054862,1.465721867010708
24.49405540891108,77.63332001440659,1.3480330523793567
10.860048927648252,69.58898059759336,0.913079944022368
4.11927231430064,53.073397635019276,0.25400628295358274
19.587428242475934,30.799672500354625,0.49303719687872527
34.04933639939401,6.742530232981361,1.19028827413284
45.410029812982216,14.694722194900935,1.7324389081258371
51.459627144489275,29.82245236347968,2.0450473996636216
50.5993857020138,36.63017347885834,2.094447000934116
42.44051645819428,35.14922368738462,1.8538364427456298
27.999238582189815,27.095234863148253,1.2683499285014874
9.430492317607676,15.03953300567572,0.33257382929243084
10.528318553701292,1.5505946012649343,0.817188768176324
29.122128927147646,11.320863947973805,1.9490215094708898
43.94191689087073,22.09781797909871,2.844441363767267
53.061938971021924,29.653785985796496,3.34752495524676
55.104499177159106,33.02399658969641,3.3781413366707653
49.39048039730662,31.471127514696427,2.9649992385749444
36.20523985568959,24.80125298896932,2.2547132673595955
17.050051862252424,13.713695758496018,1.4346741573194282
5.35080827432116,0.08594779922486863,0.6589552006754118
27.43656210098593,14.15307368919516,0.04184956511911839
45.54519274591839,25.88059978889361,0.367592884048842
56.75714814625483,33.15300018371088,0.5953512806522006
59.51643521840594,34.82104035207241,0.6814651642382804
53.81809120542866,30.853512305998546,0.6619355500385153
40.97560943866037,22.198141003988308,0.5827767153148647
23.145011371122457,10.474306022817315,0.47996185615396
2.8410106162955255,2.374019473945915,0.40336087863700393
17.39895249365478,14.371980084769444,0.42935766352767446
35.20852598985131,23.741216396181358,0.5996320706465382
48.53907905426633,29.09063145681416,0.8859237235491285
55.82571628692491,29.570560134598104,1.1966006774633713
56.18838474457918,24.967842710490867,1.435127410942819
49.617523406229495,15.724637841596898,1.5572431342168198
37.030522980306394,2.874498245869449,1.5437288174964248
20.143239705151995,12.078196583868257,1.4026397504983672
1.191302386595479,27.311787166855215,1.1804157543525169
17.40950825841783,40.86407352207521,0.9094252734365258
33.36584254431692,50.833643957189,0.5985594486882655
44.74775872000323,55.63914776195186,0.24952196207988736
50.17964021168681,54.30431674990125,0.14539942622383897
48.98594204733775,46.67506553389575,0.5942709466905229
41.30379160906644,33.50385346191412,1.0992772924603287
28.132335207532236,16.34786609547342,1.6280020519728202
11.25279307278456,2.7208669864019375,2.092409224636141
7.008578125869247,21.487510281593334,2.406197146635643
24.14155121358965,37.905878970301515,2.5486609605610915
37.84966589839044,50.29068267996603,2.546616773670054
46.386351179684446,57.41229907205934,2.4266671674028
48.75845735023642,58.53359322368804,2.1991171543510464
44.78819317676744,53.47295391437579,1.8423227099480544
35.07514740540175,42.739837749456974,1.31883575190286
20.873357956791555,27.650750544196722,0.6394288461687273
3.914789738040138,10.307270825512152,0.11342640367221732
13.771206716942606,6.651842469410619,0.8251259810189602
30.044672494231044,20.53663163999213,1.4211521945322971
42.85382463278317,29.192074636743556,1.8829741392215633
50.45057720887779,31.503834538925826,2.1974260289903476
51.623767402639025,27.645854619923806,2.3576867641106545
45.91928260919661,18.96302254808111,2.3639769486124482
33.822488820785864,7.559266902096261,2.1998347932952345
16.918904562240943,4.52619625568924,1.881754117409401
2.4734399228284585,15.686070378606631,1.4514842487728252
21.91676951852382,24.591851466950068,0.9213464316374215
39.174561235811616,30.271313136812648,0.31311598987129374
52.490020772944646,32.189725700881816,0.30932315115091513
60.7818142310527,30.33589455263021,0.8644263272766531
63.72194134531766,25.261473527998007,1.2852703633689353
61.686379406098446,18.033862894435032,1.542849212190368
0.7210808395719617,1.369700948531329,4.2385061084870115
2.8971566800760375,2.640841510640001,5.439759889563459
5.204512014617822,4.584800639615035,6.07789477420202
7.77302094120598,6.525941284271875,5.87600799494878
10.727914689741638,7.576880646830263,4.701333582748158
13.960936835226407,6.956491400457736,2.561565112151929
16.960212361518884,4.231191239235942,0.40440615000195335
18.766405990029863,0.577202702291884,3.8975550249493365
18.18452649795471,7.058885326229942,7.489639624785586
14.147096198334863,14.540528981555314,10.731000353298631
6.160565972931898,22.175835356750863,13.214969663365823
5.248262896648591,29.038492036699513,14.604261245770395
18.3511708398535,34.206069109786895,14.673974504615803
30.81712109003842,36.63290707708734,13.353102028531437
40.57394359035108,35.10963261851022,10.765789371687921
45.97319024412422,28.773279301017073,7.224990520833092
45.88367230498155,17.62857891946576,3.178913900087219
39.910658572188275,2.677148481814457,0.8338974849856329
28.31757576721092,14.233630668241045,4.315605618022486
12.067143976889476,30.92736966797648,6.977851278286041
7.126646351446772,45.45989792996327,8.773033685546364
26.858220632409623,56.41827903835423,9.81518122422157
44.154734652769605,62.958453502240076,10.241664208644863
55.936363656456756,64.5966196864184,10.128650300748006
59.66433820593779,61.0340850991422,9.554214753543839
54.05292031058607,52.20076540266783,8.631370726927255
39.61432828844162,38.48711382457058,7.444340806540205
18.70567638188652,21.014643669956254,6.047259149383767
4.937488366862175,1.6772367509770048,4.532846952144917
27.105683553869145,17.154017183327525,3.031269386317626
44.112953219578685,33.1684575103527,1.650922827246506
53.538557655733136,44.663763508023074,0.4754465929777626
54.53553290665877,50.85696681291658,0.40883950656981993
47.666471235270954,51.855896566487935,0.9322469196781022
34.501385340922425,48.38973972340781,1.1082256988950925
17.20921373109929,41.52458338411862,1.0281879346483838
1.725288422351495,32.5208948519057,0.7648657339153089
19.66328111261029,22.830495120849204,0.36977066060781116
34.00832394602577,14.081855047054326,0.0702122375596161
42.55410741319191,7.884370094629877,0.43083874070174183
43.96308279660014,5.421156947457926,0.5683568582018392
38.183571875960425,6.983322568784665,0.3930640200864167
26.58537157797691,11.718824676420331,0.0879870640414712
11.710499185913903,17.778575159736356,0.8267248414458196
3.32785689597435,22.839042105183307,1.7352385902408012
15.582799023136143,24.791516202209994,2.6706372071615316
22.867221465335035,22.286003386108312,3.4986599795394224
24.040098759643,14.934065066358317,4.1369539740641645
18.993717509256037,3.191076466387953,4.534480577776309
8.49240625781801,11.89943542293486,4.6372578973962115
5.98872332092848,28.90777810418774,4.401837076721735
22.38211735653646,46.09909595107813,3.8453958604005085
38.15144010119568,61.464977032529376,3.057562705947629
50.52354866515916,72.86635397241743,2.1773503065472353
56.8949755825816,78.37336262062402,1.3549876334948776
55.35508732753247,76.72676659501298,0.6889249627204214
45.15797111084066,67.71778082971291,0.19316543706599779
26.96262426434886,52.28166295204442,0.15781569109877805
2.754088126629324,32.268675524304065,0.38602325332260473
24.496581155364947,10.019468278413255,0.5112415704729353
51.29760339611734,12.045180550574797,0.5452743727981336
74.10610906733694,31.665982433161084,0.5060015570470859
89.73855030454487,46.841162124949925,0.4400552502937499
95.74216674996136,55.927088577882074,0.38502922048860655
90.76383480293121,57.87464707056293,0.34377708184131295
74.8988313444352,52.573784573834395,0.32151340829299396
49.9089435619465,41.128492848658176,0.339366654499585
19.14495396149559,25.84150313105142,0.40296368843204955
12.906688497354565,9.78057871004752,0.4858197978722882
41.41129907327274,3.969182174245756,0.535441103948611
62.12260625528508,13.066448041278937,0.4947148311831398
72.1829617899753,16.37090368686818,0.3538810918313767
70.57796436754585,13.942858492296628,0.18061682107752589
58.16940211561473,6.699483250600619,0.08375587581115788
37.36255927409594,3.994658657673297,0.14047418443618526
11.589770507061715,16.572178270229895,0.3525975365581864
15.223686187806479,29.291593766884752,0.7069958302324864
39.15133138000109,40.20321918317447,1.2203983025568934
56.7205453825505,47.27852656071358,1.862145225413578
65.35215110995341,48.801483765900386,2.53702183878129
63.766891185044365,43.89422585955677,3.1504524625871784
52.26546092947443,32.914537418557515,3.6006467484253912
32.74250302817959,17.48171853567333,3.7643058068317963
8.343581198678631,0.048501062440466466,3.5515415846608644
17.193747409389026,16.78527098254028,2.9614916243365172
40.31974640994255,30.90130090120847,2.091966681204502
58.319018807142214,41.01789395449022,1.0832608112121018
69.65100569876003,46.703061170914246,0.035552713428527026
73.92885308748471,48.16583227901689,1.007626393330025
71.62053719158989,46.02266026361377,2.050188346578308
63.68360288897325,41.150684478518514,3.154459692721238
51.31290701178386,34.61911455907942,4.341535147455595
35.84770353475309,27.58463827952512,5.449827130641997
18.786951171111102,21.081822570086935,6.171976264941984
1.785059844680649,15.773561887151748,6.1936387891592375
13.48514714547242,11.792710043948555,5.340443289027735
25.594758819487986,8.800842686956083,3.6830376565765186
33.64373813409101,6.254817060342735,1.4900874773194026
37.42744390656913,3.7150587878024264,0.8613728790494881
37.38178626271394,1.0059071635525276,2.971718436402004
34.321110617738405,1.8638071807574117,4.5640349224713725
29.110412549296527,4.929977231511975,5.542616650586084
22.445129891103406,8.44976832780564,5.9044834956304255
14.825035537933983,12.843151558482964,5.641387113178506
6.7072096172548195,18.377089950118247,4.744330039026835
1.2771805454005867,24.787669832379567,3.281458492486046
8.212999258489393,31.092018910420936,1.4113790818275596
12.99405111099098,35.76733954736727,0.6482031411629039
14.602780997135321,37.26630363736523,2.597064845522479
12.464400409654344,34.60983295143535,4.070725058868848
6.6988859081187355,27.771157144450715,4.797002459173053
1.8356443972547194,17.669324150256344,4.759428147882964
11.714588987113057,5.812935712988102,4.180151810393466
21.272159380067148,6.180664546429582,3.364526670817725
28.934211743118716,16.948710273253106,2.571338032965297
33.45252188428602,25.484222667043568,1.9264112896074512
34.04386020739518,31.04483056512127,1.3795218271403455
30.453466206241718,33.04931048173863,0.7709208906256558
22.980890456271904,31.097412935714566,0.024165512697816513
12.514291762245902,25.143914140027665,0.9971913821574305
0.521268077971522,15.709012684792595,2.0130875379375817
11.092580310812261,3.961633633223611,2.8913522104746843
20.273569060357435,8.4310154384485,3.496759828048501
25.23678252292615,19.66960817998855,3.752830586823271
24.919919902844025,28.259222616113778,3.6096840650955135
19.30867938653828,33.35052101938771,3.0563598617431627
9.520774733037626,34.84080838097958,2.1495676553547294
2.382860484363772,33.208874610686706,1.032499759946545
13.82080935990782,29.188925718015945,0.09554283024271792
22.215135486907894,23.407216736735357,1.065103948967761
25.484437422033363,16.149659170608253,1.7555362202464944
22.431308553513244,7.374057711324851,2.0802059139223
12.968969165106564,3.054784915357445,2.0163529821608996
1.8283794537636064,14.995855818911268,1.5897811296089583
19.854308750501595,27.706285780151354,0.873327822446919
38.292219793810126,39.73978916221636,0.018820266534278346
54.10562846963678,49.15447204917518,0.8147747918233356
64.61783535272436,54.0023400729378,1.5283477824162457
68.0484438117438,52.929226279163224,2.0520121388844608
63.85746476084146,45.6355180848611,2.3274530956508417
52.788538357378236,32.99352285729373,2.3328402919757636
36.597788005943976,16.779667736061448,2.0785960350556496
17.611365034340935,0.8069745686967245,1.5881062769448575
1.6821711653569957,17.639879133857434,0.908748645558241
18.975325094149767,32.01107692463549,0.14294350414759874
32.440992248818986,42.768813884203844,0.5679801352529428
40.93942973768964,49.3072336912382,1.1334590485220575
44.117645714223634,51.48421492297412,1.5315655100227823
42.398341865911576,49.56783273522804,1.7444488175133108
36.8650620173128,44.220704036507186,1.7600954306392405
0.3776215695000248,4.902550613832632,2.1013768487483127
3.7393317192918314,12.87246600202856,2.0020515203509497
7.671387105535817,20.618957435722987,1.7821872867656152
11.223999088007767,26.215166547329897,1.4446617575009297
13.39250711708637,28.07547848853639,0.960882911789468
13.350582716567073,25.333775986450483,0.3052271612187658
10.595746524949837,17.96730567285074,0.5231652836175886
5.0202023252897945,6.664629423680578,1.4956789006464657
3.05799426417182,7.380503396556668,2.551261124061955
12.853840178978082,22.640525953536333,3.6140659635929295
23.084225051280384,37.3342058999983,4.588744977987893
32.01472774253045,49.4075696905529,5.382201405474577
37.64151319508804,56.54569849309132,5.970915104625707
38.02954399776871,56.69639895343831,6.375287801101876
31.862741217770637,48.937149598234896,6.554313730476617
19.080919116023694,33.866442244252035,6.42103427851957
1.1741347970353584,13.576460057776671,5.9278772945585505
19.060962001060027,8.737688343104287,5.068218525218061
38.181018123105254,29.65240564559314,3.876841018526537
52.96360223645512,46.337742708319354,2.422997969909737
61.1186575813303,57.05882976378087,0.7838226157652948
61.590506285463405,61.23981758837329,0.9237412493527287
54.46436302790541,59.11107091500517,2.5741745519035373
40.65417345169183,51.33746744151235,4.093365939912283
21.635149205033684,38.792038861821986,5.417993598639071
0.6547527765991368,22.568090247459107,6.4836058539503725
23.812626467970176,4.15504574598095,7.237470812673225
45.04230967657571,14.494367083863454,7.615963694004831
61.45899170875872,31.14114065500279,7.5679124435253735
70.62147417150243,43.680832634220025,7.1010131775879275
71.12393281125402,50.612430700069275,6.287787154658477
62.98423663534808,51.345546865479896,5.242813803868752
47.634497102749506,46.21146106685764,4.1135998057221155
27.515844114442356,36.19878283767346,3.060933651993347
5.46222492405917,22.62984342070782,2.2113871680250776
15.85001141822321,6.937138012566234,1.6407103775093657
34.19298504626435,9.38591393544429,1.3679455196788421
47.81990735797944,24.74090868106124,1.3356876588020168
55.39682877508232,37.46930329096577,1.4063118362174176
56.017904038542675,46.050793251960435,1.3814921015384964
49.40531283479256,49.42370648870797,1.0594069182390724
36.21724890274949,47.284225435962796,0.3137869944329147
18.230705736516924,40.185200407354905,0.8213510288307445
1.7863079914159812,29.379003702827895,2.1324683855398567
20.54996834840036,16.47272444999545,3.3441601099257268
34.962406924745096,3.0588026889235556,4.198189531210283
42.773489845559396,9.509745082149161,4.483698669532897
42.96726215744309,20.160587588118094,4.166067613845586
35.7914168046211,28.055371410682838,3.411849730957475
22.498262882827337,32.574462733908184,2.4672584867084266
4.9815810479689455,33.41527368548418,1.5771399221775466
14.5263441124599,30.793069048699774,0.9432456161321334
33.641871706238874,25.58562674315141,0.6953210666510953
49.951789287916895,19.259862957497628,0.8519873430693449
61.165996530538486,13.555963675005232,1.3596682928996338
65.37090808911886,10.015124538549726,2.169115274393142
61.38640073422081,9.532182318166374,3.170103283501453
49.102552235460394,12.124677843826722,4.175579231984995
29.651672871713448,16.99154369675065,4.988100252753256
5.336889048396857,22.774887973104168,5.379750577364911
20.717251037752764,27.86698019826983,5.140009955761598
45.09230298840699,30.677677892256312,4.228951794526821
64.62840269513899,29.82929289146089,2.824237559433875
76.89229387930457,24.298764366787406,1.2107507041166012
80.4618600543373,13.59390312270371,0.31301036314016656
75.0314381956222,2.0128541931363357,1.5245417272202904
61.39447475860165,21.29133507532705,2.3998770578221698
41.33149777556881,42.050615864369895,3.030648022515736
17.43783134376591,61.402018354865554,3.478154639660608
7.136788945961209,76.2783376815693,3.780581154436208
29.076044751215118,84.10041441638768,3.9451747251062876
45.389612791880985,83.36264739089786,3.939012869166834
53.93559944616705,73.95656915649394,3.7133792878482366
53.837773619705324,57.15986806242019,3.2333096052351062
45.66347034323213,35.31883793039235,2.522346778241642
31.27078902069173,11.346172342628034,1.6516720833714786
13.35996774216046,11.825524472467484,0.7501285764694118
5.111694467405679,31.68680611546518,6.925191169486987e-05
21.482469040805416,46.42728245223384,0.49216172875747527
33.746630943535315,55.0625483822404,0.753459886486445
40.67012399089424,57.41571889262933,0.8486113888966622
41.74781231051536,54.01229881541348,0.8060152289143871
37.12197121333324,45.95473137634053,0.6247124559844327
27.546150976921815,34.78026909989094,0.31024123849205015
14.362802809617072,22.298511400405992,0.08919284662496915
0.5905928236036959,10.393630600624837,0.5066736010931353
15.20039878401356,0.7848734691948006,0.9359759841627899
27.43940129059051,5.23493469613296,1.4103050593865785
35.77728802920654,7.0223782759038125,1.9140223921995552
39.47344587304638,4.683238985601084,2.3949361985219664
38.64262041815488,0.9726315553737704,2.802740294254489
34.09074349606689,8.60009912250469,3.061870521821382
27.024395944762194,16.564189904090952,3.0756986371048463
18.764195938271513,23.182064530211104,2.78071958852348
10.562287214058948,26.9187480679415,2.1523154424545456
3.529709396087528,26.55298509364805,1.1751370252505866
1.4136258398626527,21.348991072180663,0.13824211538830275
3.6330520853398216,11.252119411471973,1.6897104995623062
2.9249822906828298,2.935391679321941,3.288879516155632
0.34802908551043543,19.52724971520753,4.717898662767876
5.243589956858701,36.17600093751201,5.782968341828488
10.406282592598217,50.32276060255041,6.335607881153825
14.370323571604953,59.74963192369338,6.292547038917742
15.883216941535728,63.038804289970074,5.638571292466177
14.135418019610535,59.780001799973256,4.449436754587712
8.838526023147798,50.48941507339498,2.91814562162252
0.18559269047963253,36.33366161057349,1.3026588746148589
11.21672146437562,18.843256784830498,0.16021826231050973
24.386857214020438,0.26253576342671714,1.307799117182506
37.98070337782437,19.146936730256296,2.0618378221691027
50.33400741059253,35.91789023314609,2.4137123606848125
59.603543950566305,48.790151912763676,2.4047078998659517
64.02801979011456,56.367188197087074,2.0868333994903456
62.27026996797944,57.937300226777026,1.521674624426965
53.73179179834945,53.63053486610559,0.8349025026809724
38.73570348944733,44.35094652801647,0.2106485560054422
18.551416997462148,31.50205414128961,0.1802009850858603
4.737064084974355,16.642789043597663,0.2352761225595194
28.48886754410321,1.2593142200910281,0.05065328469845558
49.82994061913277,13.28232080770366,0.6003295571228648
66.01558226702775,25.674988771684863,1.3148385417825759
74.81945142675278,34.64675844336092,2.0809616395958996
74.89428633792375,39.10106393640534,2.7474328828332917
66.05133231350429,38.40146243461285,3.174955875367891
49.40967090666575,32.664927208185986,3.2542920414497734
27.33121026529268,22.895011187174635,2.8884195497832237
3.10672288257103,10.843077393163195,2.032524437969822
19.55985647148157,1.3592928468814156,0.7207100613280643
37.186710792611706,11.654310918136803,0.8891690436469263
47.145004248058875,18.4438608125459,2.4654815367087135
48.15591082333645,20.806140951939266,3.5716761967601274
40.53983300080143,18.555797340315234,3.817626791328235
26.129372490259033,12.223996888536263,3.0250457112119165
7.870761590527023,2.99290751980572,1.3476034627581912
10.780467938054217,7.443383464381064,0.7749236985281528
26.534700199631704,17.1085400146705,2.8377854673537564
36.83197018637274,24.075673610586446,4.45426535226537
40.161966632868946,26.85836581033741,5.385216538674475
36.12948311314871,24.717142121761658,5.5119782161320545
25.338792949318695,17.785019661628485,4.807108345219745
9.206592436998452,6.991800778375865,3.338311530806282
10.20585485035647,6.165320553446226,1.2602652058257797
30.281017467171033,19.93193897071308,1.1970008913239782
48.34557570895655,32.601715426016455,3.7161892668791685
62.31754915204045,42.729071497570324,5.9176234344952094
70.96471572416465,49.264020082501744,7.436986233164561
74.00098813736656,51.65167644878471,8.027133844817914
71.99178674117528,49.902552246619514,7.6484188525581684
66.09719642524104,44.60996528246,6.501505669179986
57.72231566072936,36.86687949325931,4.960214446619902
10.805526348162008,2.413299686398643,1.7778487297508012
15.085016902829178,7.964302153652013,1.689694550259759
17.660613975202217,14.501241848501907,1.5170708268447355
17.72057684344359,21.077152819622846,1.2173583730935817
14.8579546330448,26.430867153717408,0.7280839755228339
9.125652965604685,29.187189681591995,0.03360964697609016
1.012553031783731,28.164828864550984,0.8439651198289824
8.682732538218358,22.66035376202318,1.8545537145422168
18.95855283568749,12.643768078400067,2.9248927190522123
28.721572162934375,1.2307272062483112,3.927693256185513
36.82739930663616,17.744681229057104,4.680138761498069
41.98997694370747,35.19533098746532,5.045840290051024
42.75630840907285,51.41775551818167,5.00747097954771
38.10407152524573,64.10503879176018,4.6240471734023805
28.154119221912154,71.26165017310187,3.95571860223931
14.015517775238576,71.29499220683678,3.074040508706999
2.5099421789574263,63.22936081447884,2.068011620442948
19.112160023975235,47.182739073714245,1.0150086855226619
33.48547466008396,24.633450422318365,0.024707014087960742
43.69866547611753,1.546327188613356,0.7739862225574726
48.47007627260598,27.520336677131983,1.2961641905357024
47.350865179445094,49.363269344217095,1.5318283211274033
40.62798757731521,63.9725285771998,1.5862177404202442
29.20973308744147,69.7840246844517,1.6092202973186593
14.459658842855966,66.97583102821943,1.6969710564043743
1.9270286206090679,57.133944535337044,1.9090548404371366
17.967579975005936,42.643401188927214,2.2752344261414397
31.50826461934111,26.095758818582976,2.7689652534220706
40.43363623666917,9.957970418557487,3.2951122613964197
43.05657360663874,3.540244000532905,3.7114989306906656
38.55973967742521,12.467472869401309,3.890802826940774
