6.6552291007378965,102.68395868362335,3.8324048355653972
6.0797297981882,85.66853121818912,3.5898222621891085
4.719219450187729,53.940676265550074,2.9105940564198653
2.612948833917523,8.878516282151125,1.8070491704307285
0.10244186989104336,46.25837436484578,0.34508418815882214
3.2051279480913424,106.70927819078216,1.3621949154927713
6.417792906051862,166.8053413614641,3.1682644074060766
9.432988021607695,220.43598675759472,4.904531009400602
11.951123487941818,261.83470228093233,6.402133302680905
13.701819220540328,286.11930479228204,7.508185722661658
14.472103214325704,289.9418621236984,8.10324726631952
14.185158581881055,272.7958190890368,8.140991590242628
12.98645454679029,238.3639299082613,7.693608142698185
11.139915392924044,192.48470571661016,6.896917850760381
8.8377854858411,139.55230022355624,5.849647999288105
6.231716767788997,83.04035549183195,4.631657763840041
3.4766585195475828,26.227423073374425,3.3240881042995123
0.690345024318958,28.577941878043063,1.9846939479584567
2.012574214028151,79.4267930014437,0.6659920241074057
4.528870137134861,124.88851757913747,0.5885671367361227
6.781915150985643,164.12864206392436,1.7487746184473183
8.705218843363864,196.53237066139215,2.7871700934739656
10.256713032780475,221.93869918092386,3.6873088296221885
11.404808853459325,240.35767864781346,4.437492195048859
12.12387827262476,252.05008809697264,5.030959286779532
12.403839040039978,257.5403383320925,5.467675509313579
12.251643311795986,257.4268872005588,5.749491780547774
11.695331145496473,252.61104731031455,5.883365987468877
10.766170232553435,244.10931268633774,5.87833848336151
9.48891889553331,232.89331366468207,5.74551641763083
7.888182387728333,219.8143033126631,5.498468591703936
5.997012332687409,205.4317072976637,5.151062531954875
3.8648819925119278,189.9442344732976,4.718673623065015
1.551276918245764,173.11231401515388,4.21668871153458
0.8822908675903303,154.4313790937206,3.6604997322499804
3.371176160406316,133.30533770627062,3.0654840411134363
5.84009952810894,109.10783990062683,2.4460904501369276
8.200593706430084,81.32946668711934,1.8162948565518298
10.363414041911316,49.73397839952831,1.188926825619598
12.253911098406745,14.600644966190739,0.5757089533279882
13.815148729944505,23.128337310770895,0.012775622642931707
14.998884490318275,61.90207051352258,0.5674073684307008
15.76103315719896,99.76526618143075,1.0803006436216847
16.062450746421018,134.72682541188357,1.5450354819116854
15.867204470506973,164.9880717390714,1.9565563329083724
15.149794247746435,189.11186782150705,2.3111257545085175
13.904304556117175,206.36174373953847,2.606365527233153
12.143208491012658,216.79833048758576,2.8410769576339048
9.89086532394654,221.14547567974253,3.0152497571728025
7.174694890154239,220.69786161076493,3.129921537426848
4.032700745333227,217.02144309612865,3.187073544727884
0.5337059378921547,211.6189201340081,3.1895526342851444
3.221673274287477,205.7876479177474,3.1409107553321585
7.118867538614652,200.53310170959867,3.0453257226341166
11.053353909249958,196.50470164326623,2.907461331032847
14.931698590871996,193.84745655843446,2.732353379413643
18.645565084135242,192.16415934642677,2.525308008367254
22.069434867179968,190.67162274695073,2.2917755445545653
25.08236602622833,188.4597479360593,2.0372645928385626
27.59124551923076,184.8160341985043,1.7672372139205177
29.534589130807596,179.3147170375177,1.4870244535403299
30.858180378250886,171.88392917042333,1.201752499575703
31.5094239445453,162.78964289420708,0.9162674177052598
31.442363850638237,152.34769461189157,0.6350833801526868
30.61911457777695,140.82583696765258,0.362329562640615
29.02262582277162,128.34947942902338,0.10171277754494763
26.655417594121708,114.77385659120716,0.14351027717096423
23.53646899883339,99.66990673830367,0.3705552509096283
19.699431791872758,82.27876675972979,0.5771178847955022
15.190322439351567,61.73581487406524,0.7613780458196578
10.085405765878813,37.32678408855832,0.9219931751367054
4.500588809252649,8.54411390235201,1.0580849566544075
1.4181671893050156,24.833682807694522,1.1692209363341501
7.521464868711788,62.670634546518805,1.2553883551058966
13.677786957109612,104.33456876910806,1.3169651781537643
19.755510405961754,148.65735451748745,1.3546859048304714
25.60666922627454,194.01752601316264,1.3696045300430353
31.070765846864212,238.4373865569615,1.3630556312304254
35.99554917908446,279.76765320004847,1.3366130712509199
40.264596301870675,315.7846355118288,1.2920487459639367
43.78375947322221,344.4594952234457,1.2312906963766614
46.460035311734494,364.31139448555376,1.1563819787691103
48.2093955946336,374.41669490898374,1.0694408563821747
48.96566290573023,374.4550595179763,0.9726223829240501
48.68776095557545,364.74210773401643,0.8680825143572505
47.36057626319538,346.0785741063004,0.7579445617809863
44.992381727039444,319.6921234650858,0.6442686585302652
41.618313492330856,287.1082629001087,0.5290244468134595
37.29996262140516,250.02009541116527,0.414067015338287
32.123398091207164,210.2445713797349,0.301116476868815
26.200601420447097,169.50776846886737,0.19174100236970193
19.672713158071087,129.27093828003862,0.0873434704919239
12.704175791735015,90.69151005845457,0.010848359712611702
5.464928587987542,54.5873582408158,0.10178830879962973
1.8842580318226576,21.4337281013869,0.1846149155209676
9.190902079035533,8.663405700281254,0.2586515436934096
16.297552487200203,35.910023870088686,0.3234036092670635
23.04169899010268,60.665307376623296,0.37855320018013333
29.274596616757922,83.24515507071693,0.42395137670669036
34.87082074879356,103.77564566144981,0.4596084008961927
39.71753148924266,122.26642946804644,0.48568223545665606
43.708579973900534,138.67755657960188,0.5024655852258444
46.752419351177466,152.94215430591646,0.5103717974655053
48.77704029526861,164.97727722001133,0.5099199248038228
49.73392971402901,174.61932416641878,0.5017192268692745
49.59969301222842,181.6906712843912,0.4864534059168723
48.37829769032746,186.03246240112674,0.464864825495789
46.1080132843712,187.52280382823395,0.4377389618002362
42.85577813661612,186.12321424904647,0.4058893108161788
38.70721171126904,181.75296633451632,0.37014294509689183
33.766157508786904,174.2655872046867,0.3313269018812739
28.159834078621632,163.43253522939773,0.29025554635002565
22.041715986632184,148.9897643557566,0.2477190366257495
15.578355774733097,130.94154599870296,0.20447298823905632
8.933198055174355,109.63312089685978,0.16122940843748848
2.2673595543459584,85.70522122670323,0.11864895067666079
4.255747349437667,60.13440586775636,0.07733451079862232
10.472365255562273,34.2057514688664,0.037826167848396534
16.225522120713737,9.454685825963885,0.0005974501514321523
21.374274819174005,12.540392989495926,0.03394711215260055
25.796422318864554,30.371394050396606,0.06547320215459271
29.389620664022054,42.954842919884584,0.09371676984849288
32.07730610422655,49.73396904817889,0.11848300661283728
33.8110374369153,50.81450294332206,0.13964433404133356
34.56402593330694,47.01661371185044,0.15713750911571542
34.331910844372736,39.71652140084791,0.1709599532788895
33.145738899336926,30.580774236917495,0.1811654179167297
31.075077678856786,21.34369208260601,0.1878591001503571
28.216298522232993,13.46393095892745,0.19119232340536377
24.670439443829093,7.854171204544161,0.19135689562805663
20.53853499175919,4.775759841993624,0.18857925459516234
15.945354724029121,3.8356833825556316,0.18311450545699212
11.043014052769577,4.209260587011448,0.17524044944279255
5.994598569009029,4.798934726570041,0.1652516958236609
0.9575576964644917,4.332905336044313,0.15345394128757336
3.926770226513634,1.6784542653693202,0.1401584921707941
8.520178465772558,3.933440636745489,0.1256770959573332
12.68362036604512,12.82311506338493,0.11031713881457826
16.291713348382938,24.83961502395591,0.09437725630849718
19.243068594928054,39.417446349407264,0.07814339469610615
21.467914435071815,55.597131985919496,0.06188535057008739
22.924992670570862,72.1987369072891,0.04585380735171132
23.587056350156193,87.72393796802153,0.030477583730876272
23.4513367309609,100.57757179686651,0.016352631131173502
22.560773983186817,109.57856444606418,0.004007006118810863
21.007847563930905,113.99523900221548,0.006145890207209787
18.931000003844538,113.60322693737572,0.013843600511146503
16.500278256309773,108.62778257584428,0.018996484081844647
13.88847076914976,99.6176623563819,0.021692764319864208
11.249955877979609,87.46232186341022,0.022186137961662234
4.549964182201702,160.17251311211146,3.8324048355653972
5.16722078763464,147.2712507631738,3.5898222621891085
5.473643187982981,115.29099228971894,2.9105940564198653
5.376867164933512,65.03838028460025,1.8070491704307285
4.811077429303643,0.338434457078089,0.34508418815882214
3.7451031575581144,75.6496492954545,1.3621949154927713
2.193888922255911,154.2960838595761,3.1682644074060766
0.22656978983435558,228.7919347137555,4.904531009400602
2.036889393058091,291.70501198659497,6.402133302680905
4.4365763797292495,336.3842223388131,7.508185722661658
6.79176207762579,357.7805130367859,8.10324726631952
8.928940234171943,354.20077080987863,8.140991590242628
10.722169299315308,329.32451543431677,7.693608142698185
12.096551698348398,289.81198313323466,6.896917850760381
12.990521119618224,240.72124011191858,5.849647999288105
13.356640610174523,186.10726536017907,4.631657763840041
13.176502156959158,129.83846289283042,3.3240881042995123
12.454308518573246,74.47797861377606,1.9846939479584567
11.217893613687098,22.03424111610463,0.6659920241074057
9.514729162976097,26.198168163289104,0.5885671367361227
7.411393166895335,69.70270913368068,1.7487746184473183
5.000659378391331,108.15320239215386,2.7871700934739656
2.391888798827458,141.7067965455283,3.6873088296221885
0.304418773792175,170.66157234933505,4.437492195048859
2.9851939359581543,195.3929836554186,5.030959286779532
5.5540974902435085,216.30212629743625,5.467675509313579
7.917953905091956,233.50156991004204,5.749491780547774
9.990080325150446,246.94502744351604,5.883365987468877
11.698540209668703,256.3618162852672,5.87833848336151
12.990963049915065,261.39495417668496,5.74551641763083
13.834031586939552,261.70659077794113,5.498468591703936
14.216093552234426,257.03995076194377,5.151062531954875
14.14819552293993,247.40471749237753,4.718673623065015
13.655895426011599,233.00028282736457,4.21668871153458
12.76867315310409,214.24328607062932,3.6604997322499804
11.518650443487212,191.71512624300215,3.0654840411134363
9.947235273057151,166.08523215765402,2.4460904501369276
8.106805549133703,138.1125343806447,1.8162948565518298
6.057219876108063,108.55651495697133,1.188926825619598
3.863751152682935,78.25959191104182,0.5757089533279882
1.5990783809728972,48.080399609433805,0.012775622642931707
0.6574954763933313,18.785506672017735,0.5674073684307008
2.826551261161361,8.904854412336116,1.0803006436216847
4.832925408354114,34.31622537475854,1.5450354819116854
6.607912745493586,56.65745578392738,1.9565563329083724
8.09122596581782,75.07101054128668,2.3111257545085175
9.237237808654609,88.93967676121859,2.606365527233153
10.018981443724812,98.02842094976259,2.8410769576339048
10.421646095116179,102.56580540426111,3.0152497571728025
10.43794679534286,103.20381584274645,3.129921537426848
10.069845671095583,100.92265211244064,3.187073544727884
9.335537459336239,96.94886262408819,3.1895526342851444
8.273074259071642,92.63347217616268,3.1409107553321585
6.932341047186541,89.33368644404672,3.0453257226341166
5.365064101008776,88.20453182347784,2.907461331032847
3.622269014104627,90.02887960992902,2.732353379413643
1.7625391978837939,95.01650090410025,2.525308008367254
0.14500995856131088,102.61722564490948,2.2917755445545653
2.026260826456994,111.71481079488578,2.0372645928385626
3.807095083114328,120.85188262318559,1.7672372139205177
5.4213889602607255,128.34761426787657,1.4870244535403299
6.809541282738355,132.60966638345974,1.201752499575703
7.918784702309532,132.49170846615237,0.9162674177052598
8.711159124461503,127.63779862527474,0.6350833801526868
9.16270167950299,118.55974648816647,0.362329562640615
9.268233789260226,106.30148832569753,0.10171277754494763
9.043173034616908,92.2064002446431,0.14351027717096423
8.514080811482318,77.77634057936534,0.3705552509096283
7.710717063308828,64.49325739549936,0.5771178847955022
6.66004954177728,53.69369802082223,0.7613780458196578
5.391792489187789,46.331767531089746,0.9219931751367054
3.9441734183380204,42.82094641247711,1.0580849566544075
2.3599824252314816,43.02047327408112,1.1692209363341501
0.6827353330888262,46.30843321835634,1.2553883551058966
1.044928166873623,51.730554118846236,1.3169651781537643
2.7754596585992983,58.15556814097734,1.3546859048304714
4.454367626428533,64.6025115300452,1.3696045300430353
6.024223297229492,70.36129338232203,1.3630556312304254
7.428642278409913,74.99768531664817,1.3366130712509199
8.618602677363919,78.51741966375289,1.2920487459639367
9.551126654083154,81.10925036673638,1.2312906963766614
10.192308436537038,82.87938223557923,1.1563819787691103
10.524669768749655,83.752381545166,1.0694408563821747
10.54355599951842,83.26540856236693,0.9726223829240501
10.253817580179506,80.7165717397878,0.8680825143572505
9.668311886861385,75.30275222781123,0.7579445617809863
8.80755369057589,66.13611566174758,0.6442686585302652
7.700819217653861,52.38391700079743,0.5290244468134595
6.38515904349764,33.334584059658646,0.414067015338287
4.90344816365043,8.611240229509953,0.301116476868815
3.3013602888866656,21.633359981371033,0.19174100236970193
1.6263141369045535,56.71961451129858,0.0873434704919239
0.07092599531714937,95.51459002639562,0.010848359712611702
1.7331441166038695,136.50514167426485,0.10178830879962973
3.301648514225166,177.77202939029573,0.1846149155209676
4.725428630860892,217.11184808199275,0.2586515436934096
5.9618410755539575,252.21268532538704,0.3234036092670635
6.976761118266145,280.94019222187836,0.37855320018013333
7.742804134186628,301.7557542397955,0.42395137670669036
8.240321080103017,313.7206519872971,0.4596084008961927
8.463843638656485,316.44825941476284,0.48568223545665606
8.421175397763532,310.1514209253335,0.5024655852258444
8.131922269122464,295.48634922715434,0.5103717974655053
7.62098553277477,273.5487762937711,0.5099199248038228
6.908541013622817,245.82670879151976,0.5017192268692745
6.013803616393646,213.95591912557776,0.4864534059168723
4.961736867301218,179.59181935594603,0.464864825495789
3.7854992020091642,144.28577218856336,0.4377389618002362
2.524719636745287,109.39403033673345,0.4058893108161788
1.2204372620253063,76.04487073975807,0.37014294509689183
0.08417208768094923,45.01592213264948,0.3313269018812739
1.3428568796433178,16.66783035305765,0.29025554635002565
2.509923586257705,9.01675124744629,0.2477190366257495
3.5453147532503873,32.30136146449845,0.20447298823905632
4.417985467995535,53.51147127945495,0.16122940843748848
5.106444688166326,72.91177050888048,0.11864895067666079
5.59889324296334,90.62504335248668,0.07733451079862232
5.890910014946925,106.69180321266799,0.037826167848396534
5.98459854860804,121.10392983220953,0.0005974501514321523
5.886399075315747,133.73662069997604,0.03394711215260055
5.603095242981398,144.43256743721324,0.06547320215459271
5.146888421527157,153.02087275854552,0.09371676984849288
4.536511508411374,159.32866763069723,0.11848300661283728
3.791570479507208,163.23716934123874,0.13964433404133356
2.931291111149283,164.56842215911263,0.15713750911571542
1.9739899303316932,163.1343079361696,0.1709599532788895
0.9411950267787889,158.8093013487387,0.1811654179167297
0.13933137140173105,151.44245055485186,0.1878591001503571
1.2358969908247177,140.86857181612191,0.19119232340536377
2.311341506690624,126.9565738895189,0.19135689562805663
3.3251942813357522,109.74356583104897,0.18857925459516234
4.2403068144991725,89.57478362712565,0.18311450545699212
5.023381190807527,67.1617414321584,0.17524044944279255
5.64313129507664,43.58689620625213,0.1652516958236609
6.07351136257345,20.17155149190747,0.15345394128757336
6.298074469582674,1.6331138972373556,0.1401584921707941
6.310962809807495,20.407528336550303,0.1256770959573332
6.117444797860458,34.915242799599596,0.11031713881457826
5.729789101457253,44.150916673673926,0.09437725630849718
5.161519279982392,47.63347863306604,0.07814339469610615
4.430326780888981,45.676628996833585,0.06188535057008739
3.5606966537341855,39.31663753744029,0.04585380735171132
2.602379710696401,29.95558909605291,0.030477583730876272
1.627057281171584,19.06439328488444,0.016352631131173502
0.7002456303326088,8.15120134182362,0.004007006118810863
0.12203907392188273,1.3925782065152668,0.006145890207209787
0.795193207232822,8.578745765393435,0.013843600511146503
1.2908561557054623,12.966956849058038,0.018996484081844647
1.5969475323051807,14.637277363195928,0.021692764319864208
1.7188629353438247,14.04247988778339,0.022186137961662234
5.732743362930688,29.28201355966268,3.8324048355653972
5.130947064461464,6.956750630201384,3.5898222621891085
3.809725896664179,24.065421228619318,2.9105940564198653
1.809488754417191,61.52261023164313,1.8070491704307285
0.7360474169337935,101.92284399788156,0.34508418815882214
3.6088980173178498,141.03271143833373,1.3621949154927713
6.539971511944379,174.38912592050977,3.1682644074060766
9.234718958552605,197.68201290720592,4.904531009400602
11.41089379710896,207.363991258795,6.402133302680905
12.826217447585416,200.96282155101625,7.508185722661658
13.300777143589539,177.42531017770034,8.10324726631952
12.783429821831609,137.77659126452147,8.140991590242628
11.428404855511559,85.75445711123685,7.693608142698185
9.497542017436848,26.284064826453676,6.896917850760381
7.190348006290865,36.91853316782678,5.849647999288105
4.668931205844408,100.73600795630223,4.631657763840041
2.090125688278921,162.02942567113107,3.3240881042995123
0.43263622459788453,218.15970290737107,1.9846939479584567
2.7995816208284805,266.5197390489001,0.6659920241074057
4.92688401596856,304.795817601343,0.5885671367361227
6.756774161932181,331.2576332316082,1.7487746184473183
8.245628529742868,344.59831839838506,2.7871700934739656
9.375464850551783,344.1737962388951,3.6873088296221885
10.138197692049513,329.92188327492033,4.437492195048859
10.529640837519661,302.5131579968845,5.030959286779532
10.558721601286495,263.3848000286592,5.467675509313579
10.24454102242671,214.55624874423717,5.749491780547774
9.621316491682865,158.60729458750083,5.883365987468877
8.735277797633845,98.39774721268437,5.87833848336151
7.634069649154486,36.99027018166112,5.74551641763083
6.366765134377578,22.594513700659515,5.498468591703936
4.988470672695787,77.8334244692305,5.151062531954875
3.556351839337473,126.73763062749843,4.718673623065015
2.1241529978583564,167.94294881612097,4.21668871153458
0.7408000213268106,200.7746859971352,3.6604997322499804
0.5513543788637725,225.09441194616022,3.0654840411134363
1.7166264061609895,241.2454866797122,2.4460904501369276
2.7265822507451616,249.96310098040857,1.8162948565518298
3.560577333611832,252.27142497705344,1.188926825619598
4.208656764856056,249.4129631330575,0.5757089533279882
4.673286866797792,242.6403004072898,0.012775622642931707
4.964240730339188,233.0551543133486,0.5674073684307008
5.097361610289923,221.54216007051076,1.0803006436216847
5.09354961339355,208.72471405463781,1.5450354819116854
4.972295401268823,194.96877166154064,1.9565563329083724
4.750001331490717,180.35920930930635,2.3111257545085175
4.443917835871274,164.7402293835259,2.606365527233153
4.072491049637011,147.82002785826367,2.8410769576339048
3.650432297110369,129.37138804039162,3.0152497571728025
3.1902403539203665,109.41952008587171,3.129921537426848
2.706708855498415,88.1478481805445,3.187073544727884
2.2136724025019747,65.84183135125186,3.1895526342851444
1.7229839631427364,42.86424940607694,3.1409107553321585
1.2479118661704889,19.600666961519195,3.0453257226341166
0.8033497936686027,3.4305233366872474,2.907461331032847
0.40251518881108456,25.66022444736627,2.732353379413643
0.05364746360025608,46.57674902368378,2.525308008367254
0.23895468174107296,65.70899361546957,2.2917755445545653
0.47383062606313675,82.65776561260547,2.0372645928385626
0.6530870053618864,97.00894136177246,1.7672372139205177
0.7786079088641806,108.29494353250045,1.4870244535403299
0.8511565840812391,115.96104628521809,1.201752499575703
0.8742219852616188,119.45684524933081,0.9162674177052598
0.8509870105356545,118.53440925762358,0.6350833801526868
0.7854371323321255,113.29949234701049,0.362329562640615
0.6873064091638248,104.23162861263755,0.10171277754494763
0.5669295321487638,92.20141556631069,0.14351027717096423
0.4336878561765573,78.388273387273,0.3705552509096283
0.30016779697203233,64.24505668809068,0.5771178847955022
0.18403517789806634,51.27831316281605,0.7613780458196578
0.10647462645420697,40.85570744747703,0.9219931751367054
0.08526720156968941,34.105601886903095,1.0580849566544075
0.1322574579376908,31.777512469882847,1.1692209363341501
0.2538248191423758,34.12111930033277,1.2553883551058966
0.4494110727705108,40.61323873407292,1.3169651781537643
0.7104977058090532,49.92333934703225,1.3546859048304714
1.019028402544281,60.243284275298244,1.3696045300430353
1.3500671330215257,69.59835301610255,1.3630556312304254
1.6753173675306063,76.24176343041034,1.3366130712509199
1.9693587539281536,78.9920784340708,1.2920487459639367
2.2173330603988792,77.39825607690013,1.2312906963766614
2.411423767961147,71.7612132340488,1.1563819787691103
2.5480564477321144,62.93953464661515,1.0694408563821747
2.6267127727046957,52.23556236709513,0.9726223829240501
2.6475556592579874,41.24077546313095,0.8680825143572505
2.6157617686245507,31.509706692847896,0.7579445617809863
2.5393554143002177,24.371849748665053,0.6442686585302652
2.424496851682619,20.761493451463654,0.5290244468134595
2.272679182121419,21.12878653569786,0.414067015338287
2.079115494294686,25.444721018996024,0.301116476868815
1.839620664192511,33.11381571300896,0.19174100236970193
1.5507957047963725,43.08213806761827,0.0873434704919239
1.2099467568774513,54.07492297548484,0.010848359712611702
0.8181506681888048,64.89456452074812,0.10178830879962973
0.3757182305803268,74.72458738338985,0.1846149155209676
0.1131680858974069,83.14552797049029,0.2586515436934096
0.6363711268518158,90.12670876488562,0.3234036092670635
1.1772740248912765,95.84780287740821,0.37855320018013333
1.7165544280996015,100.34808125939463,0.42395137670669036
2.236878464391197,103.50828635779048,0.4596084008961927
2.7194204500794523,105.041114771971,0.48568223545665606
3.1411556465348918,104.41633707997612,0.5024655852258444
3.481509660735776,100.84663467222705,0.5103717974655053
3.7251213695069856,93.32306611260012,0.5099199248038228
3.864351035636717,80.8888628665811,0.5017192268692745
3.8989497194620406,62.82484276033913,0.4864534059168723
3.8338480160507626,38.748142042671915,0.464864825495789
3.6795588968405437,8.73078196916584,0.4377389618002362
3.450727302290496,26.698708692431023,0.4058893108161788
3.165332365564808,66.47808728303156,0.37014294509689183
2.8412421083212704,109.04308447262684,0.3313269018812739
2.494266471168799,152.4455163300781,0.29025554635002565
2.13967256221008,194.42994403061635,0.2477190366257495
1.7872530455465347,232.66085949123834,0.20447298823905632
1.4392487472041997,264.96991231506564,0.16122940843748848
1.09395459776138,289.63326032473793,0.11864895067666079
0.7466801132258749,305.5272582141002,0.07733451079862232
0.3918597012855093,312.0754917818036,0.037826167848396534
0.025285175960589913,309.3091283576878,0.0005974501514321523
0.3532454700483784,297.8622517430907,0.03394711215260055
0.7358883606611172,278.8167959865089,0.06547320215459271
1.1095080681354135,253.56350167935537,0.09371676984849288
1.46069955422348,223.65055567511837,0.11848300661283728
1.7756968564699664,190.7215214441397,0.13964433404133356
2.0414328345582757,156.42470168008253,0.15713750911571542
2.2475551492636314,122.21813338467521,0.1709599532788895
2.38668521333396,89.27329148896646,0.1811654179167297
2.4555657736464958,58.40384948268673,0.1878591001503571
2.4545430944841637,30.04823741445892,0.19119232340536377
2.386021349855152,4.326940691204571,0.19135689562805663
2.255391284770102,18.947326222597002,0.18857925459516234
2.071751265491179,40.12224825458574,0.18311450545699212
1.846324662122782,59.525349744735365,0.17524044944279255
1.589863759854633,77.3769449731029,0.1652516958236609
1.3106984526493137,93.70601340793002,0.15345394128757336
1.014956038223427,108.42664240180231,0.1401584921707941
0.7085685872905293,121.42541730883491,0.1256770959573332
0.39710924670148157,132.5761511143521,0.11031713881457826
0.08366245682668906,141.7550976434359,0.09437725630849718
0.22883575246696244,148.7719850322521,0.07814339469610615
0.535130573203058,153.404709533895,0.06188535057008739
0.8294669034213833,155.47147945026137,0.04585380735171132
1.0990934057169723,154.69238556896028,0.030477583730876272
1.3256441066216467,150.8019977981859,0.016352631131173502
1.494417564438514,143.75762163881114,0.004007006118810863
1.5952377693787982,133.73750847313835,0.006145890207209787
1.6241533650668611,121.14120218128461,0.013843600511146503
1.5829486892670956,106.5734024445742,0.018996484081844647
1.477542105655201,90.81468165833078,0.021692764319864208
1.3185507948474458,74.69404397099133,0.022186137961662234
8.521118468437916,173.58126769101744,3.8324048355653972
7.228986668163724,159.3471173508154,3.5898222621891085
4.734601599807987,124.4026548548632,2.9105940564198653
1.128810628085528,69.66240953787836,1.8070491704307285
3.351340000474788,1.4013882285782189,0.34508418815882214
8.345724083507125,83.15120564618825,1.3621949154927713
13.412109892460455,168.60651895709285,3.1682644074060766
18.06171842508958,250.12532768348024,4.904531009400602
21.819723577997483,320.29865196724217,6.402133302680905
24.26655599207256,372.4953818735127,7.508185722661658
25.085087346752953,401.6574226951334,8.10324726631952
24.17393023713125,406.07325083067826,8.140991590242628
21.768929206145256,389.3590703069694,7.693608142698185
18.28002138420985,357.75452323558255,6.896917850760381
14.005642613098443,315.27774299231294,5.849647999288105
9.184355712787552,264.69044370426224,4.631657763840041
4.063103416393377,208.62348497797737,3.3240881042995123
1.163169608237952,148.5643075141838,1.9846939479584567
6.304792544128681,85.83303946197216,0.6659920241074057
11.199235648210323,21.524078494850926,0.5885671367361227
15.732023914279278,43.45335662351744,1.7487746184473183
19.79421536177836,107.80005356502848,2.7871700934739656
23.297408286357825,170.20058452226738,3.6873088296221885
26.167271733219962,229.0498606092207,4.437492195048859
28.351984311647435,282.7008499501954,5.030959286779532
29.833139102998704,329.7250611587016,5.467675509313579
30.60411703954885,368.9140803304313,5.749491780547774
30.667349658225792,399.57041062246,5.883365987468877
30.025450110586366,421.3669229695685,5.87833848336151
28.68794565236432,434.5062702193842,5.74551641763083
26.686892581332934,439.5788791998547,5.498468591703936
24.07061362403607,437.1851064606709,5.151062531954875
20.89944171548562,427.85958265005445,4.718673623065015
17.23558771504245,411.8126085685366,4.21668871153458
13.13972374275468,389.03942977893763,3.6604997322499804
8.686101303678655,359.44950318201825,3.0654840411134363
3.968214377847934,322.84976006338815,2.4460904501369276
0.9037472775986078,279.0951212437929,1.8162948565518298
5.819997473644118,228.16574181223447,1.188926825619598
10.692419804126088,170.37148309484158,0.5757089533279882
15.441584561948975,106.4555978168039,0.012775622642931707
19.978640757505225,37.631490334144324,0.5674073684307008
24.20673772340251,34.402074883930275,1.0803006436216847
28.031920785899125,107.66022574656999,1.5450354819116854
31.381237822668623,179.84305630285607,1.9565563329083724
34.20005594313747,248.35966187153483,2.3111257545085175
36.4331933217545,310.5636141215868,2.606365527233153
38.020346252721126,363.99825481987665,2.8410769576339048
38.905635522854624,406.80783810005994,3.0152497571728025
39.054088326981876,437.84344044467025,3.129921537426848
38.455807039704126,456.558799469744,3.187073544727884
37.11602574886119,463.038687765677,3.1895526342851444
35.049080266858624,457.8956871023313,3.1409107553321585
32.2795944733648,442.24584382929436,3.0453257226341166
28.850178128177042,417.6493922501881,2.907461331032847
24.823873545805977,385.869950121248,2.732353379413643
20.279717413350276,348.7659096542548,2.525308008367254
15.310726298847328,308.1616756795872,2.2917755445545653
10.014332150723138,265.7171591897175,2.0372645928385626
4.480696812447973,222.8709502282215,1.7672372139205177
1.200984984997998,180.7266393521748,1.4870244535403299
6.928934468146305,140.00734439191496,1.201752499575703
12.589052648111632,101.03470556883083,0.9162674177052598
18.068420311845166,63.82317590776989,0.6350833801526868
23.269148436837554,28.307321839680007,0.362329562640615
28.102428877868775,5.54904804751945,0.10171277754494763
32.469220457129325,37.67720419159989,0.14351027717096423
36.26068141991301,67.94529362318988,0.3705552509096283
39.376619643277024,96.19724947940215,0.5771178847955022
41.742631111140064,122.13426723193099,0.7613780458196578
43.312557688516755,145.39521749636305,0.9219931751367054
44.05627802674792,165.6571007722989,1.0580849566544075
43.956726192040385,182.63913453495772,1.1692209363341501
43.01753591359697,196.12107795403674,1.2553883551058966
41.267878064634715,205.88038997574262,1.3169651781537643
38.75921868695826,211.73687702187047,1.3546859048304714
35.55730429874982,213.5672043389063,1.3696045300430353
31.740711738603608,211.23103669571228,1.3630556312304254
27.39208666813032,204.56664357046805,1.3366130712509199
22.58756449036205,193.43231107484425,1.2920487459639367
17.406314582019707,177.90108318996408,1.2312906963766614
11.938461250061636,158.35927463368688,1.1563819787691103
6.283322229099297,135.52487642156882,1.0694408563821747
0.5428632862115905,110.52086128807304,0.9726223829240501
5.185215376255018,84.7258256733397,0.8680825143572505
10.797240724421,59.6224678253167,0.7579445617809863
16.17682621339883,36.694348790197324,0.6442686585302652
21.2027720591338,17.28465462809555,0.5290244468134595
25.759664592185725,2.561219872342001,0.414067015338287
29.752034718639827,6.688564016594004,0.301116476868815
33.105062785970645,10.378606164985522,0.19174100236970193
35.75645483186033,9.240402678271206,0.0873434704919239
37.65997653460732,4.671294349377109,0.010848359712611702
38.79402174785513,1.6321809383449264,0.10178830879962973
39.16168828233848,7.934114722690509,0.1846149155209676
38.7817635855608,12.644203509501313,0.2586515436934096
37.68575553846104,14.616025726560705,0.3234036092670635
35.91808764380707,13.379375808754018,0.37855320018013333
33.53216505017393,9.2308916566798,0.42395137670669036
30.58957343017401,3.0744303075329458,0.4596084008961927
27.160524653298815,3.8658232716435745,0.48568223545665606
23.324469038397467,10.210984003375739,0.5024655852258444
19.168461050394594,14.6516779246506,0.5103717974655053
14.780727925094778,16.114920738561235,0.5099199248038228
10.245312393327847,13.835273454590457,0.5017192268692745
5.6437992382675475,7.541033424758555,0.4864534059168723
1.0627661753951796,2.5027258198988998,0.464864825495789
3.407466208338978,15.528574176370253,0.4377389618002362
7.684402761477302,30.37079312503245,0.4058893108161788
11.701156596141677,45.834968014108135,0.37014294509689183
15.402625243642358,60.91713362572834,0.3313269018812739
18.73714559147022,74.8705967599861,0.29025554635002565
21.657280431596426,87.29216572575905,0.2477190366257495
24.12143299148043,98.05132291863075,0.20447298823905632
26.095202733598832,107.15987780505719,0.16122940843748848
27.55487284980934,114.64494372746198,0.11864895067666079
28.483633093721114,120.3927075313363,0.07733451079862232
28.872241401324608,123.98174498650779,0.037826167848396534
28.72122263552452,124.69017332537234,0.0005974501514321523
28.045733008961456,121.65055438325348,0.03394711215260055
26.884083757699177,113.92405841404339,0.06547320215459271
25.288370924449467,100.68100739800136,0.09371676984849288
23.31558216958007,81.3449454623779,0.11848300661283728
21.023140909945162,55.62649292661803,0.13964433404133356
18.46459282470685,23.721441470262146,0.15713750911571542
15.698694544089777,13.61754298975588,0.1709599532788895
12.786167306594361,55.142920004662976,0.1811654179167297
9.780643640907062,99.17225868817012,0.1878591001503571
6.729064039255847,143.75315568520983,0.19119232340536377
3.670842853066762,186.6920915168342,0.19135689562805663
0.6454765650139997,225.62245206092996,0.18857925459516234
2.3045340187126393,258.3715308758466,0.18311450545699212
5.137475448704958,283.2622151163753,0.17524044944279255
7.813136675458146,299.22979106012264,0.1652516958236609
10.29601159984457,305.86857589046735,0.15345394128757336
12.551896602940609,303.35031609057035,0.1401584921707941
14.545049838345024,292.3220594745757,0.1256770959573332
16.24054033034646,273.84788331504683,0.11031713881457826
17.61224470438707,249.3097177008605,0.09437725630849718
18.652154415728255,220.29174290272007,0.07814339469610615
19.36454563626887,188.43774447168565,0.06188535057008739
19.76032706379819,155.3173928269654,0.04585380735171132
19.81997714028108,122.56765800535473,0.030477583730876272
19.50048831312433,91.80965769747823,0.016352631131173502
18.785924024993736,64.32921185893203,0.004007006118810863
17.687664881139177,40.994609098972944,0.006145890207209787
16.241972224592683,22.215577804434478,0.013843600511146503
14.510629543569516,7.96117843468064,0.018996484081844647
12.576379908102655,2.1406396053350574,0.021692764319864208
10.537504570063147,8.609030656752097,0.022186137961662234
4.4731535066688854,48.15565133562544,3.8324048355653972
4.299703327432558,58.23907926706385,3.5898222621891085
3.6227029708501504,66.37963462632092,2.9105940564198653
2.4336930391893254,71.39205769019944,1.8070491704307285
0.7883872228136082,72.21151245611314,0.34508418815882214
1.192050101580506,68.083919231295,1.3621949154927713
3.337337753303383,58.694390220592034,3.1682644074060766
5.445219891427285,44.19740359528134,4.904531009400602
7.306677679174087,25.17714549316593,6.402133302680905
8.72868189835766,2.5974468408410147,7.508185722661658
9.55480750088556,22.266656803758117,8.10324726631952
9.709566016290047,48.14335246576031,8.140991590242628
9.253354046462489,74.10596308497537,7.693608142698185
8.326075243422103,99.52022807557509,6.896917850760381
7.039405985049022,123.80225127760464,5.849647999288105
5.493664013754043,146.30270017060255,4.631657763840041
3.797600184685576,166.26472503418304,3.3240881042995123
2.0408252891529153,182.76214989880708,1.9846939479584567
0.30618432548478974,194.71833455882344,0.6659920241074057
1.3391616200359793,201.04836789953288,0.5885671367361227
2.8475745421822483,200.8106402952177,1.7487746184473183
4.177878509525791,193.33336664523492,2.7871700934739656
5.305827791101069,178.29973386944593,3.6873088296221885
6.215948541768939,155.88560909813924,4.437492195048859
6.893025361138021,126.99856790299361,5.030959286779532
7.326727991962632,93.27410345339968,5.467675509313579
7.513231002287831,56.81985291709875,5.749491780547774
7.458267196092191,19.94058717667486,5.883365987468877
7.1766780200381755,15.212762698097277,5.87833848336151
6.689966939475378,46.907388163533575,5.74551641763083
6.025417087390191,74.02427638212468,5.498468591703936
5.217807684272877,96.20059414845795,5.151062531954875
4.306607778816027,113.69743333695382,4.718673623065015
3.330511268800518,127.28433499616106,4.21668871153458
2.3240994049840484,138.10131324510866,3.6604997322499804
1.3172817806552304,147.340199089267,3.0654840411134363
0.3395577628516276,156.0730926834219,2.4460904501369276
0.5822637046719941,165.08665621940284,1.8162948565518298
1.428654726216627,174.75831083014705,1.188926825619598
2.1838477453807377,185.099339284058,0.5757089533279882
2.8322138440099565,195.67643988094974,0.012775622642931707
3.359196768121781,205.64246721382844,0.5674073684307008
3.7545334596532136,213.99914309441056,1.0803006436216847
4.01251096273679,219.88910887623638,1.5450354819116854
4.130082593914714,222.7806995216995,1.9565563329083724
4.108862043844195,222.49348210566458,2.3111257545085175
3.956671330745177,219.25267120501377,2.606365527233153
3.6860615393535627,213.49263544545056,2.8410769576339048
3.3125526486649193,205.52444600202548,3.0152497571728025
2.8533010050521668,195.5008268014679,3.129921537426848
2.329175050944053,183.34115032379728,3.187073544727884
1.7665338044658079,168.70446668566296,3.1895526342851444
1.193043822477678,151.02819464041133,3.1409107553321585
0.6318731692838688,129.53462430292277,3.0453257226341166
0.10219057148212886,103.49095117642923,2.907461331032847
0.376249775790363,72.38775793635212,2.732353379413643
0.7857563002355017,36.01764067131114,2.525308008367254
1.115377424174345,5.4143317482973625,2.2917755445545653
1.359454914517218,51.29367900038987,2.0372645928385626
1.515878403480206,100.50278796002085,1.7672372139205177
1.5831021689652265,151.40992274329753,1.4870244535403299
1.5602921726484187,201.99872493687027,1.201752499575703
1.4513073718812177,249.97413368180327,0.9162674177052598
1.2611680719378655,292.9653785583435,0.6350833801526868
0.9954187114162505,328.78794459063664,0.362329562640615
0.6653194779878364,355.7637576560945,0.10171277754494763
0.2874576915181636,372.8635485254499,0.14351027717096423
0.1186630022741172,379.6233803323176,0.3705552509096283
0.5338731046846953,376.18011383184785,0.5771178847955022
0.9370211397401932,363.24465398540934,0.7613780458196578
1.3018408274807354,341.9622246634663,0.9219931751367054
1.604545306332348,313.80158386008793,1.0580849566544075
1.8274049687118052,280.3872784248557,1.1692209363341501
1.9562849297705889,243.41975098530074,1.2553883551058966
1.97740536239452,204.6030278608544,1.3169651781537643
1.8778970776034563,165.44563011870932,1.3546859048304714
1.654013692442965,127.16183880690421,1.3696045300430353
1.3126893107762776,90.62967290874667,1.3630556312304254
0.8692541638298403,56.364891487453264,1.3366130712509199
0.34189778705419455,24.587790570071487,1.2920487459639367
0.2541392040624908,4.749330380843465,1.2312906963766614
0.9006126676537834,31.8705595676873,1.1563819787691103
1.5743272536188186,56.99653105790286,1.0694408563821747
2.247535302976976,80.23859872781827,0.9726223829240501
2.8886601322812306,101.559295130927,0.8680825143572505
3.4698434475160234,120.82543403044292,0.7579445617809863
3.967845544608117,137.86504266601727,0.6442686585302652
4.363164564549281,152.51837137969937,0.5290244468134595
4.638335291416162,164.64322273129045,0.414067015338287
4.778807992037029,174.03866898666973,0.301116476868815
4.779056349930999,180.51808455154836,0.19174100236970193
4.638292021624458,183.94807180820015,0.0873434704919239
4.359521341865799,184.23364935930232,0.010848359712611702
3.9501784310469916,181.3363047237631,0.10178830879962973
3.417978552080999,175.11473757252858,0.1846149155209676
2.776481738999059,165.3137569782106,0.2586515436934096
2.045970737781813,151.74554005637273,0.3234036092670635
1.2500410353073694,134.45308008832149,0.37855320018013333
0.41315428766596113,113.87315988337936,0.42395137670669036
0.4433474258050645,90.80093067237515,0.4596084008961927
1.297659045055926,66.3004506032027,0.48568223545665606
2.1255259577640975,41.67318759343242,0.5024655852258444
2.9000827208205124,18.384920885931805,0.5103717974655053
3.596238573980291,2.0405738640884166,0.5099199248038228
4.20101204757679,18.242795024297923,0.5017192268692745
4.711753715986547,29.192330219612995,0.4864534059168723
5.129916527314716,34.3245531473891,0.464864825495789
5.45824720377406,33.744624152636725,0.4377389618002362
5.700925332692336,28.257329991616974,0.4058893108161788
5.864809245908753,19.26664403401979,0.37014294509689183
5.953173434720976,8.588890111611581,0.3313269018812739
5.964406807848201,1.8358404453994048,0.29025554635002565
5.89570238601367,10.251734246700893,0.2477190366257495
5.741001769104439,15.50184873847673,0.20447298823905632
5.492653733039172,17.241977098981756,0.16122940843748848
5.145790131703029,15.795371910211687,0.11864895067666079
4.699437780662897,12.01069180331685,0.07733451079862232
4.158010335396029,7.074232075329471,0.037826167848396534
3.5333366070083208,2.3240752582897573,0.0005974501514321523
2.8428905813770626,0.8509200338659574,0.03394711215260055
2.1059902848172136,1.2950938772372702,0.06547320215459271
1.34299551489767,1.6971337327045228,0.09371676984849288
0.57447508388559,8.351487056085837,0.11848300661283728
0.18095111765559693,18.411219870857753,0.13964433404133356
0.9117538473158182,31.20898324384794,0.15713750911571542
1.6158106299059467,45.71704302756979,0.1709599532788895
2.293197869536063,60.763467939566226,0.1811654179167297
2.9434450159265255,75.30145826706858,0.1878591001503571
3.5664702855238937,88.5024147689785,0.19119232340536377
4.1610037785719385,99.91478305953395,0.19135689562805663
4.724200554524078,109.4676889925712,0.18857925459516234
5.247313244554677,117.2678447501222,0.18311450545699212
5.7139314715827885,123.36904910220085,0.17524044944279255
6.104313780284648,127.57666125526349,0.1652516958236609
6.403595700170962,129.46732782632154,0.15345394128757336
6.608560608460033,128.42420541334587,0.1401584921707941
6.721756947594306,123.67428897101144,0.1256770959573332
6.747454973253448,114.36533073597828,0.11031713881457826
6.691948345457229,99.64260526870294,0.09437725630849718
6.561827408531538,78.90878407982211,0.07814339469610615
6.367019247726921,51.98557711884339,0.06188535057008739
6.117608658349975,19.141338467150298,0.04585380735171132
5.817847092483053,17.80934622219546,0.030477583730876272
5.467353113079765,55.677107111612116,0.016352631131173502
5.063624438499674,91.17383172520474,0.004007006118810863
4.6078811176992645,121.18390966472799,0.006145890207209787
4.107550609456864,143.14752902959253,0.013843600511146503
3.5747649334445137,155.3815501687587,0.018996484081844647
3.0251696783129103,157.36970831854703,0.021692764319864208
2.475047352320547,149.80471117178146,0.022186137961662234
7.066345657164108,115.71037558904355,3.8324048355653972
7.081413593802791,100.2501727587409,3.5898222621891085
6.421399618731148,68.8991968974318,2.9105940564198653
5.062914242675382,22.74124535395083,1.8070491704307285
3.0581907585059582,35.09048336114914,0.34508418815882214
0.5303581670165984,99.78134766332728,1.3621949154927713
2.3388956324885317,165.4295208943041,3.1682644074060766
5.31902293024134,225.53003490603393,4.904531009400602
8.157528159237119,273.8067114982251,6.402133302680905
10.607183979216849,304.7907971515158,7.508185722661658
12.455154570203435,314.5305277000996,8.10324726631952
13.579871814479601,301.9945397310491,8.140991590242628
14.025140408047678,270.5347352411281,7.693608142698185
13.929622602140652,225.8651859101223,6.896917850760381
13.382487353396604,172.43416367822573,5.849647999288105
12.452030160867878,113.96679800332765,4.631657763840041
11.216053504584249,54.0562982778135,3.3240881042995123
9.726541261434583,4.726894511216372,1.9846939479584567
8.039648618173102,60.175774438756505,0.6659920241074057
6.21282329977572,110.62862524080684,0.5885671367361227
4.2959888591508975,155.06092643701075,1.7487746184473183
2.3436749325157558,192.6664453675785,2.7871700934739656
0.4022821045052959,223.10654408574135,3.6873088296221885
1.485669377697955,246.24954531849605,4.437492195048859
3.2897474969674905,262.2286673673594,5.030959286779532
4.995834424949486,271.4430066352841,5.467675509313579
6.591493533781426,274.3664529976619,5.749491780547774
8.064176860517994,271.6797976249419,5.883365987468877
9.398830058073925,264.1878962750753,5.87833848336151
10.582645093030479,252.9432530256947,5.74551641763083
11.604819392726178,239.08818156785472,5.498468591703936
12.447431492087405,223.53827147491336,5.151062531954875
13.087078295471326,206.92771258695072,4.718673623065015
13.49793278325211,189.42853827393202,4.21668871153458
13.659257555552024,170.8556119139639,3.6604997322499804
13.563242496169606,150.79805367532464,3.0654840411134363
13.211233580889218,128.64208431295842,2.4460904501369276
12.612535564680371,103.74772891510443,1.8162948565518298
11.785701048054177,75.54151563377584,1.188926825619598
10.753712227104968,43.6490412654586,0.5757089533279882
9.542104671286106,8.127232879379896,0.012775622642931707
8.179319921371603,30.25399436701428,0.5674073684307008
6.693576793141254,70.00795716777363,1.0803006436216847
5.107749745398433,109.29822569231989,1.5450354819116854
3.440030348502734,146.1125736230581,1.9565563329083724
1.7124281225286844,178.43525284124544,2.3111257545085175
0.045146449421606435,204.59734926809898,2.606365527233153
1.7953556184494757,223.54944421174218,2.8410769576339048
3.499226595573122,235.10778741597753,3.0152497571728025
5.121700741845796,239.90006753713078,3.129921537426848
6.626733847379696,239.0519886799142,3.187073544727884
7.9782662474238,233.99216553108417,3.1895526342851444
9.145879761260428,226.24332065566807,3.1409107553321585
10.108150500400367,217.2777359572098,3.0453257226341166
10.855523961940483,208.41630544395485,2.907461331032847
11.384490405032865,200.5663617062393,2.732353379413643
11.695139695257726,194.1198233565038,2.525308008367254
11.79357916074052,188.9870959399062,2.2917755445545653
11.690057580206496,184.614115308509,2.0372645928385626
11.397626301573423,180.22236040733355,1.7672372139205177
10.928103573386766,175.12394217870016,1.4870244535403299
10.289945113578627,168.82370223378908,1.201752499575703
9.491937175934904,160.9671100400503,0.9162674177052598
8.548496176122182,151.46311279039804,0.6350833801526868
7.483140749368995,140.5779507933222,0.362329562640615
6.326365743528537,128.64387564923263,0.10171277754494763
5.112331958457441,115.88568070826298,0.14351027717096423
3.8763361659398865,102.33645185630297,0.3705552509096283
2.654193157868904,87.68131810443026,0.5771178847955022
1.478173605933911,71.39142557880605,0.7613780458196578
0.3708114031580451,52.841876513029625,0.9219931751367054
0.6535996669711099,31.36945163665995,1.0580849566544075
1.5880074383352079,6.385345332597541,1.1692209363341501
2.428581442670028,22.598462837321545,1.2553883551058966
3.1704692846447724,55.762340796836114,1.3169651781537643
3.81104951412657,92.77308597252996,1.3546859048304714
4.348689767344833,132.80649353900458,1.3696045300430353
4.783573438861482,174.62233473107443,1.3630556312304254
5.119341649697356,216.6655567325918,1.3366130712509199
5.363351026772232,257.07043579380337,1.2920487459639367
5.529234782807078,293.67658575467436,1.2312906963766614
5.630160102901594,324.2861683307796,1.1563819787691103
5.677270677300218,347.0730711804178,1.0694408563821747
5.682895013689742,360.8741500398768,0.9726223829240501
5.657915706049066,365.1578233576633,0.8680825143572505
5.614317982368267,359.93340258152426,0.7579445617809863
5.562992625288004,345.7470913793212,0.6442686585302652
5.510316648617346,323.57850936758626,0.5290244468134595
5.457457946157506,294.74906314768543,0.414067015338287
5.4004170683873305,260.8479116519082,0.301116476868815
5.337226838524975,223.55190890770152,0.19174100236970193
5.264233703839766,184.4833119687417,0.0873434704919239
5.1713698169245,145.08401268013,0.010848359712611702
5.046793439581617,106.52920152958039,0.10178830879962973
4.879382601264918,69.75924976614345,0.1846149155209676
4.663517681977165,35.396340939458945,0.2586515436934096
4.394316763647087,3.6718695595332274,0.3234036092670635
4.062779081807727,25.477451848285853,0.37855320018013333
3.656891918256748,52.25286981785584,0.42395137670669036
3.1583732074976174,76.78748683015047,0.4596084008961927
2.5516144822590023,99.1009366256866,0.48568223545665606
1.8286639954289043,119.16825626483363,0.5024655852258444
0.9858968820290425,136.93704872440298,0.5103717974655053
0.02542599700266235,152.30621109253983,0.5099199248038228
1.0510495946581788,165.09875875332617,0.5017192268692745
2.2399097109320585,175.15553901330384,0.4864534059168723
3.52649027208337,182.34595687319586,0.464864825495789
4.883837943007864,186.55816623713164,0.4377389618002362
6.274940521150669,187.75406537967007,0.4058893108161788
7.663742381541665,185.87331518446462,0.37014294509689183
9.016208671976873,180.8569991474971,0.3313269018812739
10.289185676813817,172.62169016937668,0.29025554635002565
11.432814506781014,160.94741260174885,0.2477190366257495
12.400952165700149,145.6893546581342,0.20447298823905632
13.156325306240914,126.93414944894836,0.16122940843748848
13.666338087640854,105.02327544682205,0.11864895067666079
13.899088997313202,80.63834708241008,0.07733451079862232
13.828163728074541,54.82801068961505,0.037826167848396534
13.435296540031132,28.978022688606238,0.0005974501514321523
12.709658789394778,4.635039724442126,0.03394711215260055
11.650503900534202,16.694845869679266,0.06547320215459271
10.271644899445908,33.655101270622154,0.09371676984849288
8.599559289601428,45.13772097337675,0.11848300661283728
6.665046482959394,50.427422032352105,0.13964433404133356
4.498293390075878,49.45316030713112,0.15713750911571542
2.1325010003823026,42.943661873600604,0.1709599532788895
0.38460992338039746,32.36845196422172,0.1811654179167297
2.988575734579199,19.67097459680959,0.1878591001503571
5.6131438508080205,6.867711302380478,0.19119232340536377
8.20187146049842,4.2117275512830386,0.19135689562805663
10.702813987572116,12.1927931650143,0.18857925459516234
13.05843082145539,16.470544843580523,0.18311450545699212
15.207229054045749,17.176825990779975,0.17524044944279255
17.090118039733934,15.031766375822555,0.1652516958236609
18.65735934457613,11.265642601249253,0.15345394128757336
19.870927212211267,7.312969307411182,0.1401584921707941
20.69704247465021,4.53066414956529,0.1256770959573332
21.107530644668472,4.0754034735674995,0.11031713881457826
21.082274096401836,6.785882031401146,0.09437725630849718
20.61139706098219,13.129790954045058,0.07814339469610615
19.703764259522043,23.06122235491623,0.06188535057008739
18.381002741163538,35.93699070069887,0.04585380735171132
16.693685853968027,50.29166338533999,0.030477583730876272
14.727306307664929,64.13906143631685,0.016352631131173502
12.58125016745687,75.75038447000777,0.004007006118810863
10.367753617423926,83.90194407601406,0.006145890207209787
8.203889872806718,87.9009083588599,0.013843600511146503
6.195723759494032,87.53810265787506,0.018996484081844647
4.424530997791367,83.03494367443706,0.021692764319864208
2.93963900867213,75.02336397406447,0.022186137961662234
6.317301196330156,162.32128754070956,3.8324048355653972
6.273393849059101,153.41844116774544,3.5898222621891085
5.582467591553723,125.45614827192871,2.9105940564198653
4.218394898021369,78.66107565079041,1.8070491704307285
2.2313067398581694,15.6720552722262,0.34508418815882214
0.2556231914871252,58.722727630121305,1.3621949154927713
3.0584990325138195,138.1681129134451,3.1682644074060766
5.944361948498425,215.23885731045806,4.904531009400602
8.661368762241011,282.37755639505923,6.402133302680905
10.960764194829073,332.6421798447177,7.508185722661658
12.622629365880584,360.4992192592796,8.10324726631952
13.515565630385485,363.4477673917345,8.140991590242628
13.668480239308197,343.9094080772536,7.693608142698185
13.211618745657523,307.42589819222883,6.896917850760381
12.241539899758743,258.8716345898173,5.849647999288105
10.835554233900087,202.70544453557758,4.631657763840041
9.084570223275831,143.29807691830902,3.3240881042995123
7.065004600614319,83.8582239346792,1.9846939479584567
4.855459280604161,27.047692175231557,0.6659920241074057
2.531268602553264,25.214785973331473,0.5885671367361227
0.16156260723738766,71.86394619772686,1.7487746184473183
2.1793782578578305,112.23428138886598,2.7871700934739656
4.424674395288968,146.2756541875534,3.6873088296221885
6.509210805276505,174.22615402366273,4.437492195048859
8.377503492898365,196.59108018011497,5.030959286779532
9.988382924473274,214.05525960118084,5.467675509313579
11.304357930044112,227.1533102410808,5.749491780547774
12.299178575581427,236.3693376252145,5.883365987468877
12.955665925245006,242.01332723542487,5.87833848336151
13.259893307355606,244.25036051694818,5.74551641763083
13.20387345730816,243.09821955077874,5.498468591703936
12.789931973026091,238.36390911083294,5.151062531954875
12.035996388802138,229.854239372044,4.718673623065015
10.969029301488478,217.53534427049598,4.21668871153458
9.615532219882867,201.62552374079775,3.6604997322499804
8.004374612168423,182.50166950306985,3.0654840411134363
6.173040342265101,160.65193022971496,2.4460904501369276
4.16966832416585,136.64819962786464,1.8162948565518298
2.052622546298036,111.06835346673803,1.188926825619598
0.11368168313484278,84.59629013089274,0.5757089533279882
2.262822060005776,57.93608189826976,0.012775622642931707
4.326602706758595,31.752057572285647,0.5674073684307008
6.235563857421799,6.675916318248311,1.0803006436216847
7.925793000671882,16.800913195078902,1.5450354819116854
9.347381454973469,38.15631711482678,1.9565563329083724
10.464052800405872,56.71268382678211,2.3111257545085175
11.253106376846812,71.74386731934061,2.606365527233153
11.706085196334783,82.67145177789288,2.8410769576339048
11.82109249324094,89.29156761065292,3.0152497571728025
11.597124160868372,91.7734155766495,3.129921537426848
11.03661339837103,90.65751134834426,3.187073544727884
10.152471522663204,86.8609624807051,3.1895526342851444
8.970841669028221,81.57573739167665,3.1409107553321585
7.526193663360642,76.1823650476471,3.0453257226341166
5.8551501174850005,72.05381473863252,2.907461331032847
3.995351602443872,70.3770260793837,2.732353379413643
1.99266447131351,72.00273687120237,2.525308008367254
0.09426046565843754,77.26827849765287,2.2917755445545653
2.1976553726595487,85.87617655814854,2.0372645928385626
4.251949823827788,96.81330602091718,1.7672372139205177
6.202769260475276,108.5377410574237,1.4870244535403299
7.997760945855366,119.26589795491473,1.201752499575703
9.582234047530523,127.19103051731088,0.9162674177052598
10.909456174905614,130.91913299335863,0.6350833801526868
11.948488278163637,129.82591331899766,0.362329562640615
12.68460058735628,124.0384059820994,0.10171277754494763
13.110831063439758,114.2735112450547,0.14351027717096423
13.223462863412974,101.68549111100315,0.3705552509096283
13.018848305637947,87.76535643271592,0.5771178847955022
12.492903584435783,74.15264829889313,0.7613780458196578
11.649203975154775,62.317517583854396,0.9219931751367054
10.497827488793432,53.369693531944165,1.0580849566544075
9.056221451501136,47.95898339482738,1.1692209363341501
7.350493083990968,46.22179243653974,1.2553883551058966
5.408595079531879,47.82989492182267,1.3169651781537643
3.2657885822818495,52.01171785705434,1.3546859048304714
0.9718591786233379,57.7051229615563,1.3696045300430353
1.4103117559689415,63.84635418503784,1.3630556312304254
3.8154191943086055,69.55293439997064,1.3366130712509199
6.188789215261431,74.22053036164269,1.2920487459639367
8.480359002907946,77.58664327714368,1.2312906963766614
10.635175245425513,79.73343502833008,1.1563819787691103
12.597159854248158,80.82740901769483,1.0694408563821747
14.318706338937956,80.84175391450964,0.9726223829240501
15.765074687404482,79.5973983031685,0.8680825143572505
16.907407806275508,76.75703494490591,0.7579445617809863
17.716617390370157,71.77463861922011,0.6442686585302652
18.165074026989732,63.92520445556567,0.5290244468134595
18.233514623448226,52.34245859852979,0.414067015338287
17.914521177051228,36.2466730260297,0.301116476868815
17.20986523591225,15.145230557754342,0.19174100236970193
16.13100303458166,11.103718337233957,0.0873434704919239
14.701349013406396,42.20944619870013,0.010848359712611702
12.956012036075961,77.4428316926917,0.10178830879962973
10.935682484285682,115.63539529679886,0.1846149155209676
8.683171116641185,155.19050111610545,0.2586515436934096
6.247350632994708,194.13739276574398,0.3234036092670635
3.682477612853823,230.2275905092087,0.37855320018013333
1.043551894717062,261.2374382736439,0.42395137670669036
1.6211410466286094,285.34053581330073,0.4596084008961927
4.2700387537800895,301.31477468920684,0.48568223545665606
6.858355822075472,308.54660520366554,0.5024655852258444
9.337286731442829,306.9549186900134,0.5103717974655053
11.656986077255755,296.98618969511784,0.5099199248038228
13.769036147725592,279.56709060574343,0.5017192268692745
15.62723282446447,255.93893984972183,0.4864534059168723
17.184536076643035,227.52311452328243,0.464864825495789
18.397421928135767,195.81808219184546,0.4377389618002362
19.23061330902672,162.30398916454158,0.4058893108161788
19.660002228409464,128.36070634297892,0.37014294509689183
19.676035149471303,95.12038568857831,0.3313269018812739
19.283897217456754,63.3909353467907,0.29025554635002565
18.503447042357024,33.66048450153502,0.2477190366257495
17.361470974389928,6.1129233240394285,0.20447298823905632
15.885286749188694,19.278644872029663,0.16122940843748848
14.10730005230669,42.66314548898205,0.11864895067666079
12.069470542254475,64.17675256986236,0.07733451079862232
9.824019359521746,83.87598612228821,0.037826167848396534
7.424711164903962,101.76033331128993,0.0005974501514321523
4.920256545407444,117.72996626980994,0.03394711215260055
2.3599710729572525,131.64758913483692,0.06547320215459271
0.20316649408264464,143.34563491535724,0.09371676984849288
2.712148821900978,152.63924777156438,0.11848300661283728
5.109408384734869,159.41111960006407,0.13964433404133356
7.340673708619821,163.50175036289772,0.15713750911571542
9.353322715756855,164.7412181723439,0.1709599532788895
11.1001047843952,163.04418706686857,0.1811654179167297
12.541899324071803,158.3499182756433,0.1878591001503571
13.648499360666817,150.559571377743,0.19119232340536377
14.402235553810753,139.45610105686967,0.19135689562805663
14.799764408236411,124.86266426182682,0.18857925459516234
14.85374097695702,106.85368450203138,0.18311450545699212
14.587243590128212,85.84715624638994,0.17524044944279255
14.026427094494622,62.702898493702534,0.1652516958236609
13.198856942969,38.60408821655638,0.15345394128757336
12.132876724431146,14.938589543854745,0.1401584921707941
10.861141570420855,6.78306278394808,0.1256770959573332
9.420956564094636,25.09613521460436,0.11031713881457826
7.853137065402546,38.692001222061904,0.09437725630849718
6.200739212174156,46.57186025529887,0.07814339469610615
4.504993732719962,48.19053195659002,0.06188535057008739
2.809467712561276,43.68465173403885,0.04585380735171132
1.1798998549352773,34.08259097168009,0.030477583730876272
0.30142265906038446,21.004843951294166,0.016352631131173502
1.561430758190724,6.332701915903209,0.004007006118810863
2.545996947752448,7.9736632044655815,0.006145890207209787
3.223808152718294,20.18092416670014,0.013843600511146503
3.5880525569331136,29.074316195826285,0.018996484081844647
3.6555182808516955,34.14451209128898,0.021692764319864208
3.4641429733511484,35.472772116326425,0.022186137961662234
2.0889480088707764,58.06177711789361,3.8324048355653972
1.3686258389389447,34.205527089098524,3.5898222621891085
0.22184529757554575,1.6497725586881151,2.9105940564198653
1.2981375787214295,47.235080415342246,1.8070491704307285
3.084230911406979,98.64130126294533,0.34508418815882214
4.982947975586446,150.82588479136956,1.3621949154927713
6.813790111326286,198.26925489008136,3.1682644074060766
8.386432801137994,235.42411642952476,4.904531009400602
9.522687560398836,257.4438143772986,6.402133302680905
10.069140587042295,260.6600017289233,7.508185722661658
9.91115871043728,243.1036931436368,8.10324726631952
9.017681776066572,205.5505936938408,8.140991590242628
7.4867107437514,152.5355299525157,7.693608142698185
5.484082471713156,90.16681113550975,6.896917850760381
3.1374425682277414,22.727542327062928,5.849647999288105
0.5488951156634443,46.55232476682002,4.631657763840041
2.1730420227797134,114.61734892445621,3.3240881042995123
4.928036614175114,179.14638374536847,1.9846939479584567
7.61381398331488,237.79949351763906,0.6659920241074057
10.142247929,288.4315238782797,0.5885671367361227
12.452715102356416,329.31418066363165,1.7487746184473183
14.488119827817433,358.8355771745865,2.7871700934739656
16.19348610170977,375.8250377609518,3.6873088296221885
17.51721266005172,379.4267531895218,4.437492195048859
18.415378153036247,369.2850262566677,5.030959286779532
18.863386933077162,345.72766593922313,5.467675509313579
18.84690209440654,309.66389034461855,5.749491780547774
18.35566074131057,262.66785178829264,5.883365987468877
17.381484245461657,206.79057697143676,5.87833848336151
15.917154587933453,144.5472135025936,5.74551641763083
13.972106339796785,78.86705632959003,5.498468591703936
11.578208893670414,12.895537354791744,5.151062531954875
8.78373345128034,50.27483701574726,4.718673623065015
5.644105508724368,108.12130643360614,4.21668871153458
2.2052040573083076,158.80764915428364,3.6604997322499804
1.4851848222128723,201.08656013484742,3.0654840411134363
5.355605384239052,234.32635287651627,2.4460904501369276
9.313316035145993,258.43488091363145,1.8162948565518298
13.260196890361005,273.82453302802094,1.188926825619598
17.114078888914158,281.34648045244353,0.5757089533279882
20.798709149070508,282.09623089664785,0.012775622642931707
24.219742293487155,277.265586032134,0.5674073684307008
27.268409154941327,268.04621484816056,1.0803006436216847
29.835368482807375,255.53441856509562,1.5450354819116854
31.83217833924481,240.6586827296558,1.9565563329083724
33.193847314201,224.10969494370434,2.3111257545085175
33.86144528048351,206.28882168314277,2.606365527233153
33.78595077514534,187.3218316633606,2.8410769576339048
32.93811955962099,167.17639917841908,3.0152497571728025
31.31627053553275,145.8156713490251,3.129921537426848
28.949740397305423,123.29924104463421,3.187073544727884
25.891800089868504,99.84422227597497,3.1895526342851444
22.213523715321646,75.73195999451649,3.1409107553321585
17.9912443831976,51.266391152382454,3.0453257226341166
13.299301683719804,26.897890613303403,2.907461331032847
8.21957119004008,3.1362112354395633,2.732353379413643
2.850680002045262,19.550797991172406,2.525308008367254
2.693095085284033,40.734553289448705,2.2917755445545653
8.296730840030259,60.051501684351955,2.0372645928385626
13.85615808811905,77.1206062186099,1.7672372139205177
19.268206522383547,91.55725365388676,1.4870244535403299
24.41444512085122,102.97830017206141,1.201752499575703
29.163113796174052,110.91529192376579,0.9162674177052598
33.38987082477647,114.94591657114366,0.6350833801526868
36.99395751520038,114.8518051140188,0.362329562640615
39.89382063315358,110.68882057616995,0.10171277754494763
42.01663910363285,102.85659546198109,0.14351027717096423
43.301644810379116,92.1535080297001,0.3705552509096283
43.70910268426095,79.75542946559897,0.5771178847955022
43.223541823143655,67.03977453817609,0.7613780458196578
41.85384616388722,55.43668312638449,0.9219931751367054
39.62994218276182,46.29189762630172,1.0580849566544075
36.60055358566965,40.72245596738535,1.1692209363341501
32.82759585595877,39.53628202633496,1.2553883551058966
28.378666222605577,42.97748914827867,1.3169651781537643
23.332737806311307,50.472686754460966,1.3546859048304714
17.789118488429224,60.70243979859027,1.3696045300430353
11.868170435709592,71.89661681132985,1.3630556312304254
5.701949830006204,82.19955753587853,1.3366130712509199
0.5747504049967219,89.94103606292703,1.2920487459639367
6.817964095298252,93.84853931935206,1.2312906963766614
12.870941959214719,93.31085093355007,1.1563819787691103
18.574562813049972,88.46305212242932,1.0694408563821747
23.784171646940795,80.0807089030879,0.9726223829240501
28.380300068433744,69.45072967807857,0.8680825143572505
32.26371336063791,58.1148736233084,0.7579445617809863
35.356333129174395,47.58738590462814,0.6442686585302652
37.60601502639008,39.15488295231983,0.5290244468134595
38.98183981762323,33.78227656706272,0.414067015338287
39.47200086786923,32.064260356485256,0.301116476868815
39.08183879058037,34.04693059172513,0.19174100236970193
37.836537237478424,39.22683043581728,0.0873434704919239
35.786272685011156,46.69535448965822,0.010848359712611702
32.99996543418414,55.31044413434968,0.10178830879962973
29.556070835968555,64.05880642038989,0.1846149155209676
25.54286817683013,72.15301791550705,0.2586515436934096
21.067364387153848,78.9998029045889,0.3234036092670635
16.257931490756967,84.3128927962372,0.37855320018013333
11.257363353898626,88.01949585078908,0.42395137670669036
6.208270116041457,90.16219777787785,0.4596084008961927
1.2436558413921972,90.81040556293262,0.48568223545665606
3.508551875190467,89.87811251983314,0.5024655852258444
7.930843606106422,87.04255330673506,0.5103717974655053
11.922831778673919,81.72109498224769,0.5099199248038228
15.40386187567541,73.18837916254813,0.5017192268692745
18.321030162417145,60.75938621547507,0.4864534059168723
20.64336292108677,43.89152231117931,0.464864825495789
22.354153782987034,22.213290667423607,0.4377389618002362
23.44572526330079,4.418443943154051,0.4058893108161788
23.91000203958123,35.71087591446777,0.37014294509689183
23.745907076415083,70.90011080721852,0.3313269018812739
22.971060411736158,108.82873646054405,0.29025554635002565
21.623807435267835,147.95376005689604,0.2477190366257495
19.758176697247155,186.43954389990512,0.20447298823905632
17.43530356414628,222.17449438899453,0.16122940843748848
14.728353819331286,252.9767543359201,0.11864895067666079
11.730689764532487,277.04278118736283,0.07733451079862232
8.552180134839409,293.13097434844593,0.037826167848396534
5.305906980534897,300.6135818027042,0.0005974501514321523
2.0982705901702507,299.4787894971015,0.03394711215260055
0.9664566539843544,290.18803330825403,0.06547320215459271
3.7878239291695808,273.5963819503535,0.09371676984849288
6.278223285562755,250.88237255897218,0.11848300661283728
8.368384282049075,223.4386031619419,0.13964433404133356
10.00923695109884,192.78889783461065,0.15713750911571542
11.16933908908472,160.42675226127886,0.1709599532788895
11.84124689329194,127.63956089408224,0.1811654179167297
12.04082512886211,95.4365115092701,0.1878591001503571
11.795301258017044,64.57407294379132,0.19119232340536377
11.142532950218014,35.551650797934805,0.19135689562805663
10.13063536009181,8.54153314832914,0.18857925459516234
8.818378978742897,16.532481050855527,0.18311450545699212
7.275983883680518,39.83922119100416,0.17524044944279255
5.575009549636918,61.48985616825966,0.1652516958236609
3.781806286536102,81.43609696631478,0.15345394128757336
1.959619423597773,99.55570218705907,0.1401584921707941
0.1692505473653396,115.69569863010673,0.1256770959573332
1.5337993880918186,129.69980040328983,0.11031713881457826
3.100483252222209,141.42930023639556,0.09437725630849718
4.489734753764553,150.65336463839722,0.07814339469610615
5.669680172487437,157.12748066030414,0.06188535057008739
6.614631761910914,160.70086315450268,0.04585380735171132
7.296523380251693,161.10057306974576,0.030477583730876272
7.687993910265406,158.03923607417107,0.016352631131173502
7.776121498792303,151.47531492999997,0.004007006118810863
7.571523514017255,141.5935645467911,0.006145890207209787
7.107610212194891,128.81148222363709,0.013843600511146503
6.433912591127666,113.7834166685599,0.018996484081844647
5.611396488749132,97.3516652028077,0.021692764319864208
4.70347080912812,80.40863932689551,0.022186137961662234
9.831403669807539,176.8237664258384,3.8324048355653972
9.291748700769197,163.02708870685063,3.5898222621891085
7.635361545654894,128.17761580655906,2.9105940564198653
4.873289048197343,73.09119802605741,1.8070491704307285
1.1477362228678325,1.2003572014436212,0.34508418815882214
3.281214816982596,81.80382022979398,1.3621949154927713
8.06348839764717,168.6461336409615,3.1682644074060766
12.782449047366203,251.07858683851057,4.904531009400602
17.00522832634635,321.09608896117874,6.402133302680905
20.31845803295908,371.8406628231684,7.508185722661658
22.37278443357648,398.34138444229694,8.10324726631952
22.99006407606813,399.20284454212344,8.140991590242628
22.286179002922594,378.606905984283,7.693608142698185
20.544606215112676,343.5639020964789,6.896917850760381
17.966887840276137,298.91506652007087,5.849647999288105
14.717226589889199,248.0639956501425,4.631657763840041
10.985584509322107,194.06065176143588,3.3240881042995123
6.931966926046993,138.56441174100493,1.9846939479584567
2.7253750279726177,82.72177571699598,0.6659920241074057
1.473103781954688,27.15830945752689,0.5885671367361227
5.528120799070601,27.957082510807062,1.7487746184473183
9.303132000926134,82.26250442088225,2.7871700934739656
12.683709600661889,135.4380131175423,3.6873088296221885
15.57273915932686,186.85299127113228,4.437492195048859
17.898978389823178,235.630247770247,5.030959286779532
19.626405838936634,280.6861150295061,5.467675509313579
20.741656767957366,320.6117090473983,5.749491780547774
21.257933678927223,354.12865591161085,5.883365987468877
21.200012722345722,380.2223972436721,5.87833848336151
20.59965164891855,398.3145956434655,5.74551641763083
19.497723326478997,408.2924998356347,5.498468591703936
17.94052805025176,410.46583232246115,5.151062531954875
15.986571156693689,405.5012489250794,4.718673623065015
13.697831257985756,394.0161985727147,4.21668871153458
11.139709474478423,376.5473058001765,3.6604997322499804
8.391433312784853,353.54895564520945,3.0654840411134363
5.539199679154766,325.2612242644425,2.4460904501369276
2.6724174192434513,291.7240917807344,1.8162948565518298
0.1225834624943297,252.78515909511162,1.188926825619598
2.769265387816032,208.3234511534622,0.5757089533279882
5.196143887269657,158.4033528437729,0.012775622642931707
7.340605553280082,103.31299861291428,0.5674073684307008
9.153777870369247,43.66890054268008,1.0803006436216847
10.602809775384411,19.568587821344302,1.5450354819116854
11.672465871335952,85.04201079873187,1.9565563329083724
12.36070460221937,151.01528756881393,2.3111257545085175
12.680465109062263,215.4230385473661,2.606365527233153
12.658379356665279,275.90562773486954,2.8410769576339048
12.327434392113451,330.046937457899,3.0152497571728025
11.718555875345997,375.65876278473866,3.129921537426848
10.856758703502873,411.0590096291846,3.187073544727884
9.772033178310036,435.22994921888153,3.1895526342851444
8.502212846680765,447.75467607948957,3.1409107553321585
7.09071800258886,448.82045082696544,3.0453257226341166
5.588317039339373,439.2010351261135,2.907461331032847
4.047336772141833,420.0763973021921,2.732353379413643
2.521858162296437,392.9005666468485,2.525308008367254
1.06783846644281,359.30297208842273,2.2917755445545653
0.2596350969512483,320.9964899575078,2.0372645928385626
1.4058654534469748,279.681877904729,1.7672372139205177
2.324945609776783,236.86729453381827,1.4870244535403299
2.9870874173000863,193.78306326468814,1.201752499575703
3.378669255469548,151.36977334026844,0.9162674177052598
3.4966087946072713,110.25396233920611,0.6350833801526868
3.341465981461462,70.79912570206353,0.362329562640615
2.9218092379329517,33.16175007709809,0.10171277754494763
2.261408713508978,2.5652299960490508,0.14351027717096423
1.3999815321564935,36.2471966205303,0.3705552509096283
0.38646853023548455,67.71465643287864,0.5771178847955022
0.7276791544210843,96.67901875627501,0.7613780458196578
1.8877261628304374,122.80632594402078,0.9219931751367054
3.0364229801815177,145.82484737123463,1.0580849566544075
4.116155834066359,165.49424866948738,1.1692209363341501
5.071644296454694,181.6247300023647,1.2553883551058966
5.8552064606234735,194.00570835129218,1.3169651781537643
6.4285165892017675,202.43514616388453,1.3546859048304714
6.762384108174602,206.8366168920467,1.3696045300430353
6.836695465387204,207.20899313893435,1.3630556312304254
6.638877463677517,203.51129454361123,1.3366130712509199
6.160773086736232,195.5611570889636,1.2920487459639367
5.402396373441861,183.19336361932366,1.2312906963766614
4.380003684929196,166.49090013918115,1.1563819787691103
3.121561323566133,145.87358707905966,1.0694408563821747
1.6578660927629674,122.18360412312352,0.9726223829240501
0.01611871155623709,96.61389652615748,0.8680825143572505
1.7789497050992438,70.60585983633881,0.7579445617809863
3.690527076953997,45.742044753673575,0.6442686585302652
5.664650098244483,23.59914121330135,0.5290244468134595
7.634430067160132,5.668506409037131,0.414067015338287
9.52698405476712,6.881745598125532,0.301116476868815
11.273426505536861,13.425521880798224,0.19174100236970193
12.805111908298239,13.998247143986545,0.0873434704919239
14.052633426177094,9.413915716455936,0.010848359712611702
14.956579378693286,1.0768101931066674,0.10178830879962973
15.47469462530887,9.252104426041795,0.1846149155209676
15.58577909974028,19.572091626713743,0.2586515436934096
15.286035550361252,27.972581478776725,0.3234036092670635
14.586387421536744,33.060354746269304,0.37855320018013333
13.510087357867322,34.27998728133742,0.42395137670669036
12.084845562816355,31.8990544980819,0.4596084008961927
10.3467907698526,26.72488774422686,0.48568223545665606
8.343419387306094,19.930982497087367,0.5024655852258444
6.1261813741159585,12.87708429608382,0.5103717974655053
3.74557833989867,6.9444945827656275,0.5099199248038228
1.250573566678779,3.3903634084633425,0.5017192268692745
1.305083515551477,3.0914247043207563,0.4864534059168723
3.859179471842895,6.4640391410759195,0.464864825495789
6.341304863253964,13.41805322050525,0.4377389618002362
8.676061885172878,23.346112933309826,0.4058893108161788
10.792301960492203,35.3389784882857,0.37014294509689183
12.624042153121785,48.33086625952093,0.3313269018812739
14.111948568257507,61.29615268703053,0.29025554635002565
15.21056900716841,73.36188446145728,0.2477190366257495
15.891569411793204,83.78939119331679,0.20447298823905632
16.143481042687544,92.20072379781354,0.16122940843748848
15.965227487916707,98.59009423388349,0.11864895067666079
15.369984985964082,103.08714066721318,0.07733451079862232
14.391454403819996,105.76660200904067,0.037826167848396534
13.07292630774223,106.46526425992974,0.0005974501514321523
11.45877420849478,104.83078203695027,0.03394711215260055
9.592128419610598,100.38310071139045,0.06547320215459271
7.5178608759372,92.52195788474852,0.09371676984849288
5.289445741527625,80.60197402296598,0.11848300661283728
2.9686398356285872,64.00255934329542,0.13964433404133356
0.620310234476702,42.31508979820441,0.15713750911571542
1.692819968869732,15.45633040628401,0.1709599532788895
3.908558609483932,16.247775973628872,0.1811654179167297
5.963401692950433,52.01068377830127,0.1878591001503571
7.794269954090536,90.71657329791871,0.19119232340536377
9.342302795452177,130.8788942130099,0.19135689562805663
10.560735493659015,170.58835135480712,0.18857925459516234
11.415981497919294,207.65428885348575,0.18311450545699212
11.888212944326094,239.86578181792726,0.17524044944279255
11.969775502268561,265.4149389769502,0.1652516958236609
11.658599618276913,283.1063518413673,0.15345394128757336
10.965087426042047,292.33040153678496,0.1401584921707941
9.919013295836267,293.02671540609975,0.1256770959573332
8.567303194169382,285.5921477011519,0.11031713881457826
6.96632237074625,270.8623842324222,0.09437725630849718
5.168379516880337,250.0409413656669,0.07814339469610615
3.225102252869359,224.50510862599975,0.06188535057008739
1.197336649926742,195.69131347370387,0.04585380735171132
0.8108463015969846,165.19760063604716,0.030477583730876272
2.6628992263371436,134.6969056884956,0.016352631131173502
4.242648822743918,105.66987842294841,0.004007006118810863
5.462784979590875,79.3144729090284,0.006145890207209787
6.267322276911068,56.474245636567936,0.013843600511146503
6.635182651121905,37.582333103573944,0.018996484081844647
6.582409916991401,22.673196162333284,0.021692764319864208
6.161293873404623,11.518838728998713,0.022186137961662234
9.29981265435498,32.684060863836244,3.8324048355653972
8.444217722963245,44.57914857441371,3.5898222621891085
6.441841314789677,56.569993283878304,2.9105940564198653
3.3438388268413815,67.33947815591237,1.8070491704307285
0.6537209634793386,75.43358594343505,0.34508418815882214
5.225712715092263,79.51379081144674,1.3621949154927713
9.959697562835121,78.55606028280404,3.1682644074060766
14.394019214764944,71.90910675509151,4.904531009400602
18.077754314572108,59.36852570241257,6.402133302680905
20.610974839879034,41.203480712173885,7.508185722661658
21.687530348461767,18.183955467507552,8.10324726631952
21.202372991144447,8.517405028287445,8.140991590242628
19.371250192267517,37.57300191185357,7.693608142698185
16.58483096149451,67.77204399125067,6.896917850760381
13.139672398924793,98.12919418683698,5.849647999288105
9.27646549032129,127.68590706702763,4.631657763840041
5.235820850884566,155.4062506165591,3.3240881042995123
1.1950417198936658,180.13049498770852,1.9846939479584567
2.687693721155948,200.49943198141966,0.6659920241074057
6.2785709365442885,215.16683418141662,0.5885671367361227
9.482693512056379,222.95138161702693,1.7487746184473183
12.220961079481878,222.86973916258523,2.7871700934739656
14.44785810125563,214.24128021081557,3.6873088296221885
16.130416159793807,196.76109190121926,4.437492195048859
17.24422625092451,170.72229367400593,5.030959286779532
17.783823052891183,137.243501405554,5.467675509313579
17.759916081182663,98.27328303168618,5.749491780547774
17.209070284053656,56.34064028229769,5.883365987468877
16.179837751588096,14.12593622516117,5.87833848336151
14.729656805140612,25.830872816260193,5.74551641763083
12.930712106172221,61.42262589033015,5.498468591703936
10.864874312874498,91.301824563223,5.151062531954875
8.622732095171063,114.92501296831496,4.718673623065015
6.291933898372198,132.50537998225167,4.21668871153458
3.9508237644758073,144.9147111832982,3.6604997322499804
1.6719638825368193,153.39794196998494,3.0654840411134363
0.480846739480109,159.33277141895633,2.4460904501369276
2.455163067607382,164.03655670210873,1.8162948565518298
4.212092796161233,168.63600634698957,1.188926825619598
5.7232787644422904,173.9917702265776,0.5757089533279882
6.96552643273092,180.4709442324084,0.012775622642931707
7.924098692463329,187.8698931659496,0.5674073684307008
8.592434896920958,195.5297010720955,1.0803006436216847
8.969992360809922,202.488261472262,1.5450354819116854
9.06605740360138,207.81829399697926,1.9565563329083724
8.902039994887959,210.8384945481127,2.3111257545085175
8.510624021146713,211.11470165170635,2.606365527233153
7.931970728799642,208.46946097096026,2.8410769576339048
7.21099792812024,202.96665326086404,3.0152497571728025
6.394806558379925,194.8718978605098,3.129921537426848
5.527539888915647,184.5137012551639,3.187073544727884
4.646218906373775,172.09888462475368,3.1895526342851444
3.780239876057196,157.57455625859654,3.1409107553321585
2.9562150444025743,140.6199556862356,3.0453257226341166
2.1972635461229655,120.76486789766724,2.907461331032847
1.5192412204909012,97.45386282984168,2.732353379413643
0.9308254327615031,70.19175177088205,2.525308008367254
0.4305766718994354,38.657044251867134,2.2917755445545653
0.013654601175363844,2.714886959671527,2.0372645928385626
0.31792478778905753,37.38349622276538,1.7672372139205177
0.5597879897069277,80.89555856128138,1.4870244535403299
0.7091848942671575,126.66663324722742,1.201752499575703
0.7640999446249825,173.20680117176474,0.9162674177052598
0.726013722213214,218.77783473870946,0.6350833801526868
0.6021119295701557,261.3657363816056,0.362329562640615
0.40477229521136254,298.78666598851356,0.10171277754494763
0.15123543457249056,329.0503836637184,0.14351027717096423
0.13662581297474077,350.6418941816283,0.3705552509096283
0.4351523351908582,362.6904928355683,0.5771178847955022
0.720113632082732,364.9925990846571,0.7613780458196578
0.9674612156712827,357.86351421046425,0.9219931751367054
1.155836909150239,342.0580057242047,1.0580849566544075
1.2652229653327343,318.72721002304746,1.1692209363341501
1.2783844800913724,289.3016972355094,1.2553883551058966
1.181968683778369,255.36868048360583,1.3169651781537643
0.9646516139437553,218.5337578339381,1.3546859048304714
0.6221633172142597,180.30330762443435,1.3696045300430353
0.16048473765275786,141.97942492487618,1.3630556312304254
0.40561824452460304,104.5964119917148,1.3366130712509199
1.0582632306905984,68.93518627900339,1.2920487459639367
1.7811135487310756,35.45693298480587,1.2312906963766614
2.553498088498001,4.2868455235491325,1.1563819787691103
3.3483131802607398,24.656618652622107,1.0694408563821747
4.1339925984672785,51.47337281340907,0.9726223829240501
4.880767674857079,76.10377620957851,0.8680825143572505
5.569220671719601,98.39031596570491,0.7579445617809863
6.182910550170334,118.18776883848798,0.6442686585302652
6.703658888514739,135.37205709598607,0.5290244468134595
7.114549915256429,149.8276736998376,0.414067015338287
7.400326074416618,161.36868385574192,0.301116476868815
7.552420526085567,169.79483170158235,0.19174100236970193
7.5666174600549185,174.97661138842582,0.0873434704919239
7.437267662445271,176.8729311052816,0.010848359712611702
7.155123140127063,175.52853460680197,0.10178830879962973
6.7072775817677455,170.95921745784582,0.1846149155209676
6.083192841115244,163.09434600457584,0.2586515436934096
5.27650565129781,151.76747655668572,0.3234036092670635
4.288780212237006,136.87994476592888,0.37855320018013333
3.129216858782962,118.64431575884143,0.42395137670669036
1.8069962253640208,97.57853514055257,0.4596084008961927
0.33925541618737187,74.531529750772,0.48568223545665606
1.2420131524752334,50.651760949453184,0.5024655852258444
2.892614784178228,27.288753115576643,0.5103717974655053
4.56315399667005,5.997251117121067,0.5099199248038228
6.213756343478799,11.704393288006807,0.5017192268692745
7.812276408076062,24.603572372157377,0.4864534059168723
9.324095235462329,31.84645371271274,0.464864825495789
10.713024136863378,33.02879768389524,0.4377389618002362
11.94524277199426,28.378402112720096,0.4058893108161788
12.99495283404684,18.88908640248508,0.37014294509689183
13.840980793379178,6.1963416122976245,0.3313269018812739
14.458692064334675,7.679228853344564,0.29025554635002565
14.819616883457977,20.627084905893415,0.2477190366257495
14.894906759184611,30.8843300144965,0.20447298823905632
14.659602315484165,37.35805797902902,0.16122940843748848
14.090862865037929,39.72916362671946,0.11864895067666079
13.170860791794432,38.38211790728688,0.07733451079862232
11.896007909440105,34.20055265623528,0.037826167848396534
10.276463297482541,28.44790763560362,0.0005974501514321523
8.332104942864582,22.595214335431866,0.03394711215260055
6.094389666585893,18.04405784659592,0.06547320215459271
3.613330621633442,15.963999508091494,0.09371676984849288
0.9572406203504746,17.100960298071005,0.11848300661283728
1.7994001311244037,21.702359281143007,0.13964433404133356
4.5895827297598135,29.620953728307338,0.15713750911571542
7.355940514104171,40.21723206288727,0.1709599532788895
10.038022258513623,52.41227632163596,0.1811654179167297
12.569286517462047,65.04508782520637,0.1878591001503571
14.884925316062612,77.10778372143173,0.19119232340536377
16.92718920834953,87.83189843779894,0.19135689562805663
18.650934027203004,96.70325940948743,0.18857925459516234
20.01683732744438,103.53733126226884,0.18311450545699212
20.986021454188514,108.39880915494183,0.17524044944279255
21.526241305889634,111.33121714006536,0.1652516958236609
21.61389610025473,112.30748834461063,0.15345394128757336
21.238058603368227,111.18437613587804,0.1401584921707941
20.40095200765109,107.63549984131073,0.1256770959573332
19.11512813659443,101.15779879462784,0.11031713881457826
17.399518288506847,91.08231842118593,0.09437725630849718
15.271647841810088,76.75388075309104,0.07814339469610615
12.755063769496054,57.66142659022724,0.06188535057008739
9.889328998751289,33.536905122959126,0.04585380735171132
6.7999471943222805,5.432106581998932,0.030477583730876272
3.6888162122562003,24.371858102436825,0.016352631131173502
0.7465691147496865,53.407410143135586,0.004007006118810863
1.8543606647178865,79.20153169714415,0.006145890207209787
3.9690476487302764,99.60499083834897,0.013843600511146503
5.4959962194414045,113.02202705784686,0.018996484081844647
6.389849635141868,118.59633908224028,0.021692764319864208
6.6706081648948485,116.28613989256161,0.022186137961662234
8.442842300670836,121.95651916056168,3.8324048355653972
7.938445407725298,107.68664882947793,3.5898222621891085
6.4325635579133555,77.11465715954625,2.9105940564198653
3.9299222508350242,31.125705907013508,1.8070491704307285
0.5604104730869752,27.294704932679775,0.34508418815882214
3.4336056486337,93.40968050242361,1.3621949154927713
7.725826845326829,161.31191894446408,3.1682644074060766
11.929863234150071,224.40039287484717,4.904531009400602
15.644825675643876,276.21661686646513,6.402133302680905
18.48548163792991,311.05432717656066,7.508185722661658
20.12302446606473,324.6800428919542,8.10324726631952
20.385958248602883,315.7533807339509,8.140991590242628
19.37105912931115,287.38304153336645,7.693608142698185
17.336192727321368,245.10192019203456,6.896917850760381
14.48264092855653,193.1905584017668,5.849647999288105
10.986813693689296,135.33308928662407,4.631657763840041
7.0561341881863875,75.21034735980865,3.3240881042995123
2.879239998483398,15.482442572353293,1.9846939479584567
1.3543178199450576,41.554725389962194,0.6659920241074057
5.477306905060471,94.16949931155276,0.5885671367361227
9.358821607946185,141.29631556157176,1.7487746184473183
12.873479475265004,182.05689562623604,2.7871700934739656
15.91656187204838,216.01493391827617,3.6873088296221885
18.397535449650434,242.9400757586138,4.437492195048859
20.239244902328405,262.87706146814617,5.030959286779532
21.387176874248905,276.1281025264132,5.467675509313579
21.808188930807805,283.0266900562362,5.749491780547774
21.49818987712033,284.09972414581046,5.883365987468877
20.46878647362145,280.02299822673245,5.87833848336151
18.738116573108382,271.7442119218673,5.74551641763083
16.342565896364523,260.31638147520545,5.498468591703936
13.35228068167118,246.60821944147503,5.151062531954875
9.876457312753015,231.27317035757227,4.718673623065015
6.044813095723718,214.52254231061764,4.21668871153458
1.9898700795896638,196.20756201959298,3.6604997322499804
2.1525561904309063,175.97166260484744,3.0654840411134363
6.2388211072549895,153.26059436610169,2.4460904501369276
10.122707554097914,127.4510424439724,1.8162948565518298
13.671952684728401,97.91916416035498,1.188926825619598
16.781531889893024,64.25241429054302,0.5757089533279882
19.370947050758435,26.44587419061156,0.012775622642931707
21.377818120308024,14.992282214292581,0.5674073684307008
22.756481964516087,58.85543302974698,1.0803006436216847
23.47226995621808,103.31842270365155,1.5450354819116854
23.498506134118575,146.18335902586256,1.9565563329083724
22.822944002928153,185.08039435464408,2.3111257545085175
21.45514223451633,217.79102258945588,2.606365527233153
19.4276953066987,242.66930706679298,2.8410769576339048
16.785650238291115,258.9907800524923,3.0152497571728025
13.578557821995917,266.93539791910223,3.129921537426848
9.873636701863635,267.3356111453571,3.187073544727884
5.770226945607593,261.55245698672496,3.1895526342851444
1.3965444311062332,251.242753863394,3.1409107553321585
3.106082176524718,238.1360952344405,3.0453257226341166
7.607438955994221,223.95617073508737,2.907461331032847
11.992232783589051,210.14283354914275,2.732353379413643
16.1408531380599,197.6595820323152,2.525308008367254
19.930257270514936,186.97358007510138,2.2917755445545653
23.247856800422642,178.0520702413167,2.0372645928385626
26.001481849316836,170.46256118493767,1.7672372139205177
28.12258140995075,163.46659049703118,1.4870244535403299
29.556964489363498,156.29768100267992,1.201752499575703
30.26084480818072,148.3678731271759,0.9162674177052598
30.199084377680315,139.23076497697292,0.6350833801526868
29.347912929150265,128.76092684907385,0.362329562640615
27.70797230152229,117.17327125357734,0.10171277754494763
25.30814637199718,104.791188451666,0.14351027717096423
22.202535796762163,91.8583669949747,0.3705552509096283
18.461919091417467,78.36593494305636,0.5771178847955022
14.171715915448303,64.08619838526236,0.7613780458196578
9.443450300839443,48.60486292459018,0.9219931751367054
4.4154449004914715,31.34719551102405,1.0580849566544075
0.7552586275099185,11.66889755963048,1.1692209363341501
5.9143039391709005,11.107264676007096,1.2553883551058966
10.930920814659233,37.455437159163075,1.3169651781537643
15.688059562824261,67.48695732794785,1.3546859048304714
20.072617475806602,100.95122469155501,1.3696045300430353
23.979068929632582,137.19451947831305,1.3630556312304254
27.317121323907276,175.2290930185923,1.3366130712509199
30.02147202838582,213.71456646992368,1.2920487459639367
32.04532088329181,250.91564579229285,1.2312906963766614
33.35052168518408,284.8048163326161,1.1563819787691103
33.90943156302112,313.2803896783563,1.0694408563821747
33.709755898222724,334.57031750678414,0.9726223829240501
32.75802738621442,347.48339076255576,0.8680825143572505
31.07900648389738,351.40517374878556,0.7579445617809863
28.716010363709447,346.2730050267548,0.6442686585302652
25.731221780939837,332.5131638679753,0.5290244468134595
22.20373108984897,311.00253475060805,0.414067015338287
18.226511141394578,282.9979367160972,0.301116476868815
13.902939025099927,249.95982376787882,0.19174100236970193
9.348794609510634,213.4318313656172,0.0873434704919239
4.689126026777773,174.93371058666264,0.010848359712611702
0.04580247844023696,135.87142638407346,0.10178830879962973
4.469100026949618,97.4932257516051,0.1846149155209676
8.751182491291884,60.76407412004134,0.2586515436934096
12.700696002494276,26.310594472630942,0.3234036092670635
16.227543716548258,5.561129928254425,0.37855320018013333
19.259071464874946,34.81341537164676,0.42395137670669036
21.737974069564626,61.47750376014514,0.4596084008961927
23.61883347421518,85.56393097572744,0.48568223545665606
24.87367410966478,107.07460495747229,0.5024655852258444
25.49672725599473,125.98099154913272,0.5103717974655053
25.501299440359034,142.2271555763008,0.5099199248038228
24.914059730489136,155.7010228886182,0.5017192268692745
23.773423044936298,166.26669143312893,0.4864534059168723
22.132503621045476,173.8074103827797,0.464864825495789
20.059009379382687,178.26963824482365,0.4377389618002362
17.628826021717234,179.67154720427524,0.4058893108161788
14.919159612531548,178.01425782067966,0.37014294509689183
12.008350848262722,173.34579560906843,0.3313269018812739
8.979039604694606,165.70961806455128,0.29025554635002565
5.916927364392207,154.99256001143553,0.2477190366257495
2.90849815190047,141.07362068300566,0.20447298823905632
0.04284679576237246,123.9710689475365,0.16122940843748848
2.5891140845491747,103.90411394268992,0.11864895067666079
4.905248651637652,81.38684717745512,0.07733451079862232
6.8407664696143575,57.29801846664211,0.037826167848396534
8.347853414028409,32.88585519243017,0.0005974501514321523
9.394526422698025,9.59175042029829,0.03394711215260055
9.966970304670225,11.133069128302486,0.06547320215459271
10.076135737488952,27.926787181125306,0.09371676984849288
9.760357776799168,39.63111896611468,0.11848300661283728
9.078911565359833,45.39622451359135,0.13964433404133356
8.098867129524727,44.8687013718783,0.15713750911571542
6.887896822375775,38.43480347423882,0.1709599532788895
5.520986061189037,27.318300127642548,0.1811654179167297
4.077064972785374,13.351885937874254,0.1878591001503571
2.626251880619628,1.4331464419642133,0.19119232340536377
1.225592319305793,15.041410096498785,0.19135689562805663
0.08167377371156294,25.779975312426163,0.18857925459516234
1.261172114760168,32.640404062061464,0.18311450545699212
2.282056094114614,35.379714622270605,0.17524044944279255
3.11271392030807,34.42426704425984,0.1652516958236609
3.7171293252759874,30.783456400288,0.15345394128757336
4.063038520514445,25.79804634041592,0.1401584921707941
4.129827452683084,20.890055083454374,0.1256770959573332
3.9090845302924397,17.391024317404266,0.11031713881457826
3.4012221573450336,16.39689271099027,0.09437725630849718
2.612309024323416,18.684123850954418,0.07814339469610615
1.5599530015801417,24.522887428032146,0.06188535057008739
0.2808159689989698,33.60187047935558,0.04585380735171132
1.1312496311439313,44.76783586932228,0.030477583730876272
2.5396731238270314,56.21105762436331,0.016352631131173502
3.821156867898641,66.22709476359148,0.004007006118810863
4.868561873244129,73.55962644936315,0.006145890207209787
5.598344855737147,77.4553205863878,0.013843600511146503
5.963557591863427,77.58678502823739,0.018996484081844647
5.957343603463092,74.03055488173621,0.021692764319864208
5.613564145073548,67.27115173256826,0.022186137961662234
8.186881264197606,158.66522381220818,3.8324048355653972
7.308058409999507,152.66043613954292,3.5898222621891085
5.383175336319846,128.40057436617744,2.9105940564198653
2.470888840825472,85.68400187553466,1.8070491704307285
1.2314672683363599,26.625017270008875,0.34508418815882214
5.406598955693214,44.499484809085914,1.3621949154927713
9.664247862325915,121.78929154034672,3.1682644074060766
13.576378083854195,198.18261704779732,4.904531009400602
16.72856604188785,266.30827333288573,6.402133302680905
18.75928839113719,319.2291080528439,7.508185722661658
19.40003725579892,351.24352116524875,8.10324726631952
18.5743612170568,359.4433512019639,8.140991590242628
16.50524742744745,345.5191161487616,7.693608142698185
13.572830806951869,314.1458586208483,6.896917850760381
10.067640937089523,269.54409084847424,5.849647999288105
6.228419786390488,215.8486866941138,4.631657763840041
2.292369732832562,157.46976134730224,3.3240881042995123
1.5598076764376727,97.87968016091826,1.9846939479584567
5.165815912245872,39.96665174887659,0.6659920241074057
8.394057842571833,14.121107338363874,0.5885671367361227
11.157574579173254,63.02026881500858,1.7487746184473183
13.388860529561688,105.77203469998055,2.7871700934739656
15.053924064483573,142.07738685732866,3.6873088296221885
16.13181098184004,171.97722045880587,4.437492195048859
16.61114026470972,195.7905525933432,5.030959286779532
16.502734029895674,214.07788790489735,5.467675509313579
15.835187969439652,227.3654687133724,5.749491780547774
14.660744219481833,236.18389124509142,5.883365987468877
13.0442633629496,240.94356281068877,5.87833848336151
11.05587466964783,241.97937355997271,5.74551641763083
8.774664625042805,239.4943951010522,5.498468591703936
6.287857706119031,233.44956325543,5.151062531954875
3.6878519586745346,223.77637851982706,4.718673623065015
1.0641905906062346,210.5331548799611,4.21668871153458
1.4993371581796666,194.00819317501023,3.6604997322499804
3.923687002625995,174.6562203449217,3.0654840411134363
6.136967648017166,153.0090772742004,2.4460904501369276
8.076186589350419,129.6415297672633,1.8162948565518298
9.687031443958029,105.14018914780846,1.188926825619598
10.923970862668687,80.1629998941619,0.5757089533279882
11.752709759727898,55.333654794510444,0.012775622642931707
12.157102649624584,31.224582940663613,0.5674073684307008
12.140427098499403,8.37227539817915,1.0803006436216847
11.718026446612111,12.80307910910712,1.5450354819116854
10.913590963712284,31.85191782450746,1.9565563329083724
9.762003623633614,48.23174463939725,2.3111257545085175
8.315111430072287,61.323021346228785,2.606365527233153
6.640152533970454,70.56606691653501,2.8410769576339048
4.810864120715293,75.75502058996985,3.0152497571728025
2.897733558652557,77.05154526019997,3.129921537426848
0.9622608398620086,74.96495108087268,3.187073544727884
0.938194283269273,70.36484134715684,3.1895526342851444
2.7494178099227553,64.42605470222564,3.1409107553321585
4.422096592084368,58.571155699663294,3.0453257226341166
5.908652012056796,54.22938574235219,2.907461331032847
7.167926079781333,52.63801263275062,2.732353379413643
8.16706013150735,54.738494338057166,2.525308008367254
8.878272420503492,61.06663005795783,2.2917755445545653
9.280766353659672,71.60763773305034,2.0372645928385626
9.362028103023208,85.5361554045097,1.7672372139205177
9.122647439829283,101.28289248300212,1.4870244535403299
8.579183194498308,116.85964679522664,1.201752499575703
7.758586529640472,130.1277221900356,0.9162674177052598
6.693875500566128,139.2454545607711,0.6350833801526868
5.426393613952193,143.04207144038725,0.362329562640615
4.00960852580473,141.14251032337967,0.10171277754494763
2.505145442231635,133.95483672606187,0.14351027717096423
0.9780910499744776,122.45453077905718,0.3705552509096283
0.510199072954031,108.04339806693919,0.5771178847955022
1.9097174171485984,92.44000572909232,0.7613780458196578
3.177717057184105,77.35353180732037,0.9219931751367054
4.279022666464073,64.2347599488744,1.0580849566544075
5.189059415396638,54.160643523035226,1.1692209363341501
5.891302382136743,47.77508105993839,1.2553883551058966
6.3741365874570155,45.26964213122894,1.3169651781537643
6.629457329949432,46.28142666103922,1.3546859048304714
6.660147284204406,49.93364307100565,1.3696045300430353
6.481317159544347,55.081114080766206,1.3630556312304254
6.114187336551072,60.649295481304215,1.3366130712509199
5.582702709550688,65.84881410713626,1.2920487459639367
4.908341713559559,70.11320145390289,1.2312906963766614
4.112416865522349,73.18974100159753,1.1563819787691103
3.218711874351433,75.11474397967,1.0694408563821747
2.253785703708844,75.91486475827435,0.9726223829240501
1.2474705071170515,75.55343073523258,0.8680825143572505
0.22754513042252772,73.85929826286814,0.7579445617809863
0.7763104044543241,70.46884248291897,0.6442686585302652
1.7306456099731797,64.84690906655725,0.5290244468134595
2.602993013334366,56.2290952089785,0.414067015338287
3.3592917183830107,43.841668335685,0.301116476868815
3.966686441656796,27.11021423727242,0.19174100236970193
4.397299388869642,5.683986944354109,0.0873434704919239
4.6316969982124405,20.497121080599882,0.010848359712611702
4.66014502382823,51.163616826275245,0.10178830879962973
4.479665884302533,85.59017209502936,0.1846149155209676
4.101231793968129,122.57384380677547,0.2586515436934096
3.549274646156787,160.5485151984895,0.3234036092670635
2.856620106076445,197.63779803795032,0.37855320018013333
2.0637885280434225,231.77793689874088,0.42395137670669036
1.206946490286496,260.9006345446934,0.4596084008961927
0.3160338914370618,283.2678550849009,0.48568223545665606
0.5782050287771336,297.72545103337757,0.5024655852258444
1.4466105907610998,303.65239108731623,0.5103717974655053
2.2629861836986818,300.9775752628301,0.5099199248038228
3.005754397000681,290.164692495166,0.5017192268692745
3.6564415604413805,272.0760751549848,0.4864534059168723
4.197180553266499,247.90635539802727,0.464864825495789
4.614642598427428,219.04280290864006,0.4377389618002362
4.899884451637198,186.95136967310836,0.4058893108161788
5.044845881159578,153.13365175739776,0.37014294509689183
5.040114994486725,118.9474598088033,0.3313269018812739
4.877529651011509,85.47330437813368,0.29025554635002565
4.556780260432804,53.50805639265149,0.2477190366257495
4.086476684889354,23.584937626594254,0.20447298823905632
3.4816184618984605,3.995449257034016,0.16122940843748848
2.7604920649728784,29.189333074204935,0.11864895067666079
1.946495030954777,52.122409063546584,0.07733451079862232
1.0728607147810794,72.91866006259225,0.037826167848396534
0.17596147279785765,91.62056743382762,0.0005974501514321523
0.7137334853541459,108.16712060121175,0.03394711215260055
1.5721103443326678,122.45843606318218,0.06547320215459271
2.3805791172266435,134.3832479509964,0.09371676984849288
3.123928392255355,143.84251749419917,0.11848300661283728
3.787397489111793,150.76407206106603,0.13964433404133356
4.358442927159868,155.03539702308734,0.15713750911571542
4.827015610587676,156.57749231488071,0.1709599532788895
5.184399592554513,155.36994370750114,0.1811654179167297
5.425028494496112,151.4257013188596,0.1878591001503571
5.543528806983991,144.7834701387326,0.19119232340536377
5.532901687127591,135.31047684979373,0.19135689562805663
5.388700481441989,122.77328341046551,0.18857925459516234
5.111075677749307,107.11371278273245,0.18311450545699212
4.705674935941762,88.53580298915799,0.17524044944279255
4.181730715723109,67.63819182981891,0.1652516958236609
3.552738331045648,45.41614720654006,0.15345394128757336
2.8420037552164366,23.10041798938174,0.1401584921707941
2.0818997734670504,2.0640809651175775,0.1256770959573332
1.3088782503661163,16.265172065286034,0.11031713881457826
0.5558747653393645,30.505595756521565,0.09437725630849718
0.15151868694908846,39.51215507677799,0.07814339469610615
0.7944158059592544,42.55461277598484,0.06188535057008739
1.3629976602784264,39.480082796611,0.04585380735171132
1.8426879947494212,31.041247427543425,0.030477583730876272
2.2129179909874264,18.727199437319634,0.016352631131173502
2.4615413908838555,4.353227546371415,0.004007006118810863
2.5850194390135846,10.133503109584327,0.006145890207209787
2.5881479203186437,22.908959255844625,0.013843600511146503
2.482255062304238,32.53429131445759,0.018996484081844647
2.2843823942846186,38.25665444428013,0.021692764319864208
2.017416296451201,40.002083331785244,0.022186137961662234
5.123276685440256,66.87837830717167,3.8324048355653972
4.655748998637553,42.77662857147001,3.5898222621891085
3.5655243143727833,5.672970331061915,2.9105940564198653
1.8821617404149795,42.169052420105864,1.8070491704307285
0.286882829653416,96.71366182538964,0.34508418815882214
2.7641272827745835,152.67727639781702,1.3621949154927713
5.325993158594237,204.2407191881161,3.1682644074060766
7.723711803011895,245.50984389079053,4.904531009400602
9.716794836613206,271.2618429625562,6.402133302680905
11.093593283590272,277.45299938562437,7.508185722661658
11.690667561836827,261.79856351554025,8.10324726631952
11.452263907858208,224.91778546154603,8.140991590242628
10.49689325580169,171.43730628619917,7.693608142698185
9.037473768833678,107.77316801444874,6.896917850760381
7.23503953549139,38.615141694933044,5.849647999288105
5.217975773837388,32.40671993437494,4.631657763840041
3.110431408513938,102.02321984621577,3.3240881042995123
1.0004598633108437,167.94078006554196,1.9846939479584567
1.0307361269539796,227.96033180246494,0.6659920241074057
2.9152933202667737,280.1559126233546,0.5885671367361227
4.611884948553465,323.04922812638614,1.7487746184473183
6.087945524210903,355.222063845716,2.7871700934739656
7.327178417701226,375.6024452243321,3.6873088296221885
8.318941033116369,383.30595722866434,4.437492195048859
9.054304654928439,377.86778367643603,5.030959286779532
9.532611155277586,359.4500205535417,5.467675509313579
9.757176403939773,328.6919699476474,5.749491780547774
9.739612752850913,286.8115562458433,5.883365987468877
9.495459911166641,235.4418396539306,5.87833848336151
9.042078588739558,176.65629966055548,5.74551641763083
8.40296479101941,113.00329570809963,5.498468591703936
7.604670789957068,47.34580310570045,5.151062531954875
6.67721740843448,17.317858414201247,4.718673623065015
5.652107698954593,78.26535281502484,4.21668871153458
4.555724880415251,133.2845423012033,3.6604997322499804
3.408058600712621,180.7793358676721,3.0654840411134363
2.2259281288134734,219.82540158947708,2.4460904501369276
1.0265490096273995,250.02406454315323,1.8162948565518298
0.1756113100251997,271.46272251934727,1.188926825619598
1.372774764863543,284.69087982361,0.5757089533279882
2.5588559308435292,290.53867388742856,0.012775622642931707
3.723842472660879,289.96745079975057,0.5674073684307008
4.851382563368607,283.9938784707187,1.0803006436216847
5.9193764848784,273.64239961849273,1.5450354819116854
6.905773439374113,259.8831029635027,1.9565563329083724
7.789003182271161,243.50119002865566,2.3111257545085175
8.542089826049954,225.03215718786137,2.606365527233153
9.136128230392751,204.77623574339043,2.8410769576339048
9.549186889686139,182.86635111186828,3.0152497571728025
9.768832860376754,159.44484733640383,3.129921537426848
9.793169073386586,134.75709049232464,3.187073544727884
9.630442077064338,109.13167747431018,3.1895526342851444
9.293335920571195,82.93675706691477,3.1409107553321585
8.794164818447713,56.60139878155841,3.0453257226341166
8.142582434936935,30.645639962922683,2.907461331032847
7.345111286742879,5.5651831402359715,2.732353379413643
6.407446085491172,18.157970841744476,2.525308008367254
5.336742738850031,40.06514362806758,2.2917755445545653
4.143217761326928,59.80660171210353,2.0372645928385626
2.8383392437190715,77.03068022164375,1.7672372139205177
1.4349425761558001,91.42538773338273,1.4870244535403299
0.04699157932479114,102.7153850080362,1.201752499575703
1.5789594497520543,110.51295078324137,0.9162674177052598
3.127914432465288,114.43089653530576,0.6350833801526868
4.6646059281328665,114.20990160075843,0.362329562640615
6.165165621191802,109.81971906751845,0.10171277754494763
7.602157167681565,101.5883879397004,0.14351027717096423
8.944271612043663,90.2481083409643,0.3705552509096283
10.160148869140752,76.92751076974733,0.5771178847955022
11.222256946548855,63.011602054435166,0.7613780458196578
12.109080447733076,49.97752132152902,0.9219931751367054
12.797259867780143,39.242414879340664,1.0580849566544075
13.259284504246864,32.0425272022884,1.1692209363341501
13.467367993374786,29.358992432403625,1.2553883551058966
13.397044828678203,31.717100528081065,1.3169651781537643
13.031368472682406,38.98003527259746,1.3546859048304714
12.36187291026137,50.21068401215099,1.3696045300430353
11.392154483549245,63.752565934309146,1.3630556312304254
10.136556778991284,77.62592589934705,1.3366130712509199
8.616505486519898,89.80219935630424,1.2920487459639367
6.863995651378126,98.46937256339636,1.2312906963766614
4.921767689643519,102.46244305793385,1.1563819787691103
2.8437628849356362,101.40330261128928,1.0694408563821747
0.6864192449436708,95.65393806790856,0.9726223829240501
1.5079055505846142,86.24674843996384,0.8680825143572505
3.7058310328857607,74.59245615572168,0.7579445617809863
5.87158690332501,62.22082830850412,0.6442686585302652
7.9668980326754895,50.641050781231186,0.5290244468134595
9.953858108950074,41.19430021266794,0.414067015338287
11.798498976046751,34.940648602558745,0.301116476868815
13.467228156278953,32.490356613881964,0.19174100236970193
14.921505115585296,33.88927408570451,0.0873434704919239
16.11909249262297,38.60828729517849,0.010848359712611702
17.02050094735068,45.673156343302416,0.10178830879962973
17.596466891570106,53.97272490357772,0.1846149155209676
17.82689363708025,62.47903695999615,0.2586515436934096
17.69789005223016,70.38091532763045,0.3234036092670635
17.202083664141842,77.0788242844192,0.37855320018013333
16.336994003755414,82.20022133436342,0.42395137670669036
15.102067338131345,85.72028823807192,0.4596084008961927
13.499461914775159,87.74589766873827,0.48568223545665606
11.543652707221653,88.30949672299471,0.5024655852258444
9.265956050658145,87.27902808186961,0.5103717974655053
6.704584120987364,84.20220614323514,0.5099199248038228
3.8944605662591414,78.45728920801066,0.5017192268692745
0.8738340404360814,69.40614169941495,0.4864534059168723
2.299001150790799,56.4261357691314,0.464864825495789
5.545865642596396,38.992699471596644,0.4377389618002362
8.780343608285708,16.704966707487802,0.4058893108161788
11.918575750946303,10.54516634335147,0.37014294509689183
14.884678651527116,42.39091557404434,0.3313269018812739
17.60006871232083,77.98160635853858,0.29025554635002565
19.98118152636745,116.06927870621428,0.2477190366257495
21.952507669034848,155.10010423713783,0.20447298823905632
23.455932998658138,193.18985299011928,0.16122940843748848
24.454764352259097,228.19901784725752,0.11864895067666079
24.92549083701061,257.98587927444265,0.07733451079862232
24.850218483285197,280.7544251361358,0.037826167848396534
24.21607447069288,295.3528285581777,0.0005974501514321523
23.016027896714434,301.2624843321841,0.03394711215260055
21.25828794751017,298.5045084114203,0.06547320215459271
18.969253180567353,287.59670412834396,0.09371676984849288
16.18992959325119,269.44508063085567,0.11848300661283728
12.966956809646712,245.28395170446305,0.13964433404133356
9.342505102771959,216.59156279492527,0.15713750911571542
5.368439424361828,184.91011918844805,0.1709599532788895
1.1209167236822328,151.7024037796181,0.1811654179167297
3.3016091609206106,118.23586514446707,0.1878591001503571
7.792255046548565,85.53233200253217,0.19119232340536377
12.259576872834876,54.396039337331175,0.19135689562805663
16.623179179261005,25.351026694408343,0.18857925459516234
20.79038762709933,1.4173635267479883,0.18311450545699212
24.65361196129936,25.98992970239798,0.17524044944279255
28.103136103131725,48.52637589795913,0.1652516958236609
31.044832499669564,69.08319709445678,0.15345394128757336
33.401097884380064,87.63259729895431,0.1401584921707941
35.096462570565166,104.09678113310757,0.1256770959573332
36.05665068508025,118.37675334422197,0.11031713881457826
36.21444352923047,130.39177660998286,0.09437725630849718
35.51466838034122,140.00275737396987,0.07814339469610615
33.92320564232648,147.0636458214867,0.06188535057008739
31.43574411323209,151.47238089043387,0.04585380735171132
28.14841825988975,152.94888183662684,0.030477583730876272
24.261349484969706,151.16406083770596,0.016352631131173502
20.010332044424725,145.99918658890792,0.004007006118810863
15.654810391858689,137.53435893279803,0.006145890207209787
11.458700304129453,126.08717248755644,0.013843600511146503
7.662194936776214,112.22396014827038,0.018996484081844647
4.446079853820288,96.73132266516238,0.021692764319864208
1.9119731998480927,80.49450345446161,0.022186137961662234
12.807257877364325,177.4656457458153,3.8324048355653972
13.041968289568654,164.25996046566078,3.5898222621891085
11.92254405659802,129.9733398797202,2.9105940564198653
9.312830241684825,75.35278108006867,1.8070491704307285
5.219341256339581,3.757356601139962,0.34508418815882214
0.20693196666774194,79.17421109717351,1.3621949154927713
6.658608852607786,166.19141117475496,3.1682644074060766
13.676280568578756,249.04202072466524,4.904531009400602
20.7078476256773,319.6225113694811,6.402133302680905
27.16158789028465,370.92155317794516,7.508185722661658
32.4719021934749,397.87188376836485,8.10324726631952
36.20923840343458,398.994466644381,8.140991590242628
38.219221585547096,378.3549493474062,7.693608142698185
38.54579473044367,342.9265222307987,6.896917850760381
37.21687483258905,297.7140762772067,5.849647999288105
34.29202826295199,246.39189999482997,4.631657763840041
29.921787088687086,192.1985301007981,3.3240881042995123
24.287133271646077,136.9145528982986,1.9846939479584567
17.605313675449384,81.77409927482535,0.6659920241074057
10.08717734298531,27.38685075899184,0.5885671367361227
1.941784124211848,26.169379639072538,1.7487746184473183
6.572470420578066,78.63963383212116,2.7871700934739656
15.173900770124883,129.8490543462987,3.6873088296221885
23.579666186141154,179.37061810307895,4.437492195048859
31.54180072616359,226.53814778383483,5.030959286779532
38.84530435067389,270.44554607300284,5.467675509313579
45.274630546438,309.8144163205995,5.749491780547774
50.62671525280541,343.3973879065455,5.883365987468877
54.7247430988801,370.13064816296173,5.87833848336151
57.43846650722776,389.33950114185336,5.74551641763083
58.68833813223436,400.7060900538987,5.498468591703936
58.43106979129458,404.2383693467236,5.151062531954875
56.66177603238444,400.34493135448673,4.718673623065015
53.405908910726595,389.55677016084127,4.21668871153458
48.71351139598859,372.4955075291978,3.6604997322499804
42.67048409320608,349.7943093922063,3.0654840411134363
35.41198102520841,321.9201159797262,2.4460904501369276
27.121522258910673,289.1647484314993,1.8162948565518298
18.004355316448343,251.58311696190586,1.188926825619598
8.26373445474783,209.1473965708696,0.5757089533279882
1.8854157985180344,161.93434822034897,0.012775622642931707
12.189803013664003,110.17913254463637,0.5674073684307008
22.363093303686707,54.325933288753816,1.0803006436216847
32.11994719212129,4.935214068250484,1.5450354819116854
41.209730819673915,66.55118755973336,1.9565563329083724
49.41398404748154,129.1191756575071,2.3111257545085175
56.52312437033657,190.95239193728955,2.606365527233153
62.34169518305743,250.06864785019445,2.8410769576339048
66.7054061262563,304.2997840291166,3.0152497571728025
69.49246046388716,351.46105034646376,3.129921537426848
70.62685442403291,389.65868898145874,3.187073544727884
70.07533497424382,417.5856672293227,3.1895526342851444
67.85003800182406,434.5456504462181,3.1409107553321585
63.99924932230914,440.4469768234212,3.0453257226341166
58.60000191726132,435.76620443642685,2.907461331032847
51.76929015556023,421.40042076376443,2.732353379413643
43.67577629266012,398.56790243271496,2.525308008367254
34.54025975086163,368.70059406348565,2.2917755445545653
24.60992995573997,333.347665703273,2.0372645928385626
14.133204715959204,294.12140727234714,1.7672372139205177
3.3659090772018008,252.53257171839667,1.4870244535403299
7.415888094055776,209.8573728503026,1.201752499575703
17.918180849144115,167.12590085630052,0.9162674177052598
27.85746201440921,125.12575337314219,0.6350833801526868
36.99095642156811,84.39906568877497,0.362329562640615
45.1115388176988,45.24798770628734,0.10171277754494763
52.03461148643571,7.86899448627269,0.14351027717096423
57.599826024829746,27.523276062544873,0.3705552509096283
61.67561387769771,60.66039266597526,0.5771178847955022
64.16316022707905,91.19815287867414,0.7613780458196578
65.00154914912298,118.79285736987538,0.9219931751367054
64.17666437347032,143.11967188590862,1.0580849566544075
61.72366622264732,163.9113701298146,1.1692209363341501
57.71642014849361,180.98765728986038,1.2553883551058966
52.25429486415815,194.13440102415208,1.3169651781537643
45.4686162657967,203.17787625569966,1.3546859048304714
37.54725849202756,208.05826152128222,1.3696045300430353
28.735547762519793,208.78711270214714,1.3630556312304254
19.30586827698094,205.42238969406608,1.3366130712509199
9.520132940382554,197.89232694676156,1.2920487459639367
0.37598042858650454,186.03077747555454,1.2312906963766614
10.122357133225508,169.81876169114506,1.1563819787691103
19.443974613189376,149.5309706741017,1.0694408563821747
28.083097036778362,125.84889893382149,0.9726223829240501
35.82156334820606,99.82114388650452,0.8680825143572505
42.4817159827166,72.7853002426535,0.7579445617809863
47.910543799158944,46.28355458532547,0.6442686585302652
51.97683884780493,21.932543151334418,0.5290244468134595
54.57486009283196,1.3209030914548172,0.414067015338287
55.628288678490655,14.19477038273505,0.301116476868815
55.105771946864564,23.65146155381222,0.19174100236970193
53.0274662866728,26.631952221388293,0.0873434704919239
49.4638442496723,23.45940839352139,0.010848359712611702
44.52031186207912,15.185447060954703,0.10178830879962973
38.31836778082979,3.4904560682451713,0.1846149155209676
31.013636640044123,9.512715078744362,0.2586515436934096
22.81722550273824,21.625288082125984,0.3234036092670635
13.987489519412781,30.95511880997304,0.37855320018013333
4.79656426728968,36.36692205356703,0.42395137670669036
4.5059270254316885,37.623453570687005,0.4596084008961927
13.681723325663178,35.15473300867616,0.48568223545665606
22.479220262377165,29.879000346131217,0.5024655852258444
30.644952016585595,23.05004300951738,0.5103717974655053
37.946897464988204,16.11150865949321,0.5099199248038228
44.19061296687032,10.53772487291295,0.5017192268692745
49.21646592730135,7.5582705669649695,0.4864534059168723
52.89318353869138,7.998748525973588,0.464864825495789
55.12162756572297,12.1957904981441,0.4377389618002362
55.836504527851694,19.96253386898548,0.4058893108161788
55.012660609225605,30.650986024169654,0.37014294509689183
52.67182937256271,43.20202487487113,0.3313269018812739
48.8878392353851,56.42335082596555,0.29025554635002565
43.78519806575433,69.24418314960381,0.2477190366257495
37.5171788938307,80.75144785608414,0.20447298823905632
30.247094393712665,90.3516197421798,0.16122940843748848
22.157320273703377,97.8468132751663,0.11864895067666079
13.468519212941322,103.3292512524728,0.07733451079862232
4.43581142479825,106.93989242637724,0.037826167848396534
4.6806123024350885,108.6243762015008,0.0005974501514321523
13.642427280031482,108.18535711178725,0.03394711215260055
22.23029512393713,105.30850563407064,0.06547320215459271
30.226582759671565,99.51185078484725,0.09371676984849288
37.419324785957855,90.18089297587753,0.11848300661283728
43.6154414693652,76.62718804773426,0.13964433404133356
48.65239183721502,58.285706532494395,0.15713750911571542
52.40747817120869,34.85845455288605,0.1709599532788895
54.79262501996749,6.389544524666974,0.1811654179167297
55.752489967014085,26.67631702298543,0.1878591001503571
55.26883590105611,63.53421743063566,0.19119232340536377
53.36151763530627,102.96444871509827,0.19135689562805663
50.095231288616,143.34242931783098,0.18857925459516234
45.58386406265066,182.7035346136981,0.18311450545699212
39.98340987639048,218.82726971528334,0.17524044944279255
33.46949555916965,249.61800488282523,0.1652516958236609
26.216881122188646,273.4408597724164,0.15345394128757336
18.407466733102176,289.21347308126104,0.1401584921707941
10.245312328405145,296.4143085728933,0.1256770959573332
1.9550304748819027,295.02043411641483,0.11031713881457826
6.238710078144725,285.5113607622397,0.09437725630849718
14.131245879121575,268.82685065122024,0.07814339469610615
21.532375716593606,246.19127586672698,0.06188535057008739
28.25869295353437,218.98820200939022,0.04585380735171132
34.015724474212355,188.84469720627075,0.030477583730876272
38.436554406277224,157.55993518320338,0.016352631131173502
41.259916607430775,126.83232261184436,0.004007006118810863
42.35027254745653,98.13391758050976,0.006145890207209787
41.704866897057926,72.61748534331973,0.013843600511146503
39.45575726652981,51.006722990241585,0.018996484081844647
35.851363386653695,33.56246704707263,0.021692764319864208
31.2320590223443,20.166808004352724,0.022186137961662234
8.982784412122681,25.114307967198005,3.8324048355653972
7.715438850184763,37.307717150891676,3.5898222621891085
5.274642220855162,50.4098600704217,2.9105940564198653
1.7736977347724896,63.13894782479961,1.8070491704307285
2.519824758218018,73.97223444136067,0.34508418815882214
