2.387874118878869,44.919019036287516,3.8324048355653972
1.9025121230762965,53.16997949836649,3.5898222621891085
1.0717256470593715,58.825169836121965,2.9105940564198653
0.057939008032974124,60.633137664618616,1.8070491704307285
1.3936774404160526,57.53440754595487,0.34508418815882214
2.8025487708056525,48.84181148369344,1.3621949154927713
4.1311121002546205,34.35239235167775,3.1682644074060766
5.223194503274458,14.376066202673805,4.904531009400602
5.941466088509829,10.22829041297694,6.402133302680905
6.178631505336439,38.087700149488235,7.508185722661658
5.869132504745437,67.44176547451488,8.10324726631952
5.026754445650135,96.37734704387994,8.140991590242628
3.778171911025645,123.19863315243664,7.693608142698185
2.3007962155304336,146.53693540308143,6.896917850760381
0.7281785937087101,165.20860347880628,5.849647999288105
0.8353306263090295,178.29717595433448,4.631657763840041
2.2947819104789877,185.21463260945276,3.3240881042995123
3.5855625302322074,185.59576890967386,1.9846939479584567
4.655695064937932,179.27104970220597,0.6659920241074057
5.466278179115961,166.25311792069198,0.5885671367361227
6.001451273890621,146.7797977394537,1.7487746184473183
6.2607408995633165,121.36555866612535,2.7871700934739656
6.260888195433741,90.73580722134061,3.6873088296221885
6.025219601005719,55.73739569777435,4.437492195048859
5.5760227808666984,17.33051058830524,5.030959286779532
4.938254367609691,23.381901002664637,5.467675509313579
4.140860236128949,65.23243086009919,5.749491780547774
3.2185210895876155,107.02157151320512,5.883365987468877
2.205209768362458,147.51901563101296,5.87833848336151
1.129914441639006,185.55499816067382,5.74551641763083
0.02298140663737987,220.03742369422096,5.498468591703936
1.0811651625331913,249.99109737667416,5.151062531954875
2.148472251575551,274.57527530298574,4.718673623065015
3.149727639580975,293.0312113947172,4.21668871153458
4.061234809066757,304.7529045802125,3.6604997322499804
4.86114889703957,309.33437568133934,3.0654840411134363
5.527050733306377,306.56363980942325,2.4460904501369276
6.039623299785059,296.4027178669959,1.8162948565518298
6.3865688382386825,278.9119221338495,1.188926825619598
6.564384666507508,254.30674560698395,0.5757089533279882
6.577277258390703,223.05674460257035,0.012775622642931707
6.431943838918846,185.85298026923172,0.5674073684307008
6.136514502602708,143.5306026706431,1.0803006436216847
5.701556403237722,97.01011294728318,1.5450354819116854
5.138598054205736,47.30396221487206,1.9565563329083724
4.461040518581774,4.477412192157027,2.3111257545085175
3.6844780174846856,57.15074985803504,2.606365527233153
2.8264958736799985,109.4874664760311,2.8410769576339048
1.9066352582135648,160.27927733237897,3.0152497571728025
0.9445666201175956,208.3537468240779,3.129921537426848
0.038162237018369675,252.5863399078602,3.187073544727884
1.0164829137370504,291.96045446440786,3.1895526342851444
1.9651172921462308,325.553704881473,3.1409107553321585
2.8602963731353106,352.53537300796563,3.0453257226341166
3.6804290139852105,372.211198893163,2.907461331032847
4.4063161385018565,384.05212906673114,2.732353379413643
5.019705688146986,387.73991561447065,2.525308008367254
5.506317218091988,383.14346441703884,2.2917755445545653
5.858190712918918,370.26738928832043,2.0372645928385626
6.072250289505178,349.3082258125639,1.7672372139205177
6.149532973177713,320.6906403319564,1.4870244535403299
6.094808642417205,285.0338305659165,1.201752499575703
5.917034974261838,243.11491819906504,0.9162674177052598
5.6264174084548495,195.81660932361532,0.6350833801526868
5.236381480207433,144.12825411449012,0.362329562640615
4.768041070243945,89.17383671061289,0.10171277754494763
4.243955324566635,32.17105942877538,0.14351027717096423
3.686217096302859,25.62209316207562,0.3705552509096283
3.114606155056061,82.93099342833284,0.5771178847955022
2.5416166862862326,138.47581987835218,0.7613780458196578
1.9763939618296307,191.00390966081295,0.9219931751367054
1.4241443509389418,239.34169746315408,1.0580849566544075
0.8857904953360599,282.41104732980006,1.1692209363341501
0.36142559916169664,319.21800532458684,1.2553883551058966
0.1489001962948712,348.8937797637135,1.3169651781537643
0.6419481306703055,370.7685725627197,1.3546859048304714
1.1133223217208041,384.3825157258337,1.3696045300430353
1.558141832432315,389.4701859931391,1.3630556312304254
1.9685315124552372,385.934014948222,1.3366130712509199
2.33265689345017,373.8236113851402,1.2920487459639367
2.6327520815376175,353.3909699161438,1.2312906963766614
2.8512194447427506,325.12103827421544,1.1563819787691103
2.974116519102429,289.68738585780494,1.0694408563821747
2.995204692758777,247.8920997366822,0.9726223829240501
2.9203179802355024,200.65400045704592,0.8680825143572505
2.7587702477620857,149.03391876914878,0.7579445617809863
2.5251901413784434,94.19818438527226,0.6442686585302652
2.242149534945557,37.39403775515986,0.5290244468134595
1.93420260884703,20.063765882236112,0.414067015338287
1.6257294407482878,76.84827808084876,0.301116476868815
1.3320905264276923,131.65306045104043,0.19174100236970193
1.0591076174815357,183.2378958548102,0.0873434704919239
0.810522552531813,230.43584518656306,0.010848359712611702
0.5906674486315115,272.13230289762623,0.10178830879962973
0.40294004553438806,307.325768624307,0.1846149155209676
0.24268686738950418,335.1885954197373,0.2586515436934096
0.10134395275358474,355.1068232617096,0.3234036092670635
0.027638419679114692,366.6670226812564,0.37855320018013333
0.1454866204069862,369.56802479455166,0.42395137670669036
0.24352454483455935,363.6649985110531,0.4596084008961927
0.3112513648385835,349.0807333056124,0.48568223545665606
0.3380764145973761,326.18190819376053,0.5024655852258444
0.3130731327252127,295.52177645416435,0.5103717974655053
0.23037511863390478,257.7835983865333,0.5099199248038228
0.08629911161364646,213.7611965337084,0.5017192268692745
0.11665236849516084,164.42009223235092,0.4864534059168723
0.3669295250930101,110.90671237854149,0.464864825495789
0.6478156149364126,54.49894884447197,0.4377389618002362
0.9398226807220208,3.475185260870825,0.4058893108161788
1.2286157663467203,61.68461512591021,0.37014294509689183
1.5053186621142591,118.78811252221819,0.3313269018812739
1.7600655281111173,173.4931359585033,0.29025554635002565
1.9825531443985482,224.5567050332403,0.2477190366257495
2.1661719257034315,270.7685712239719,0.20447298823905632
2.3087608127955015,311.0384709724068,0.16122940843748848
2.4087245694478585,344.44004932120697,0.11864895067666079
2.464188734994574,370.24773676837424,0.07733451079862232
2.4727367893674317,387.8962113066605,0.037826167848396534
2.431054095523785,396.9150648973682,0.0005974501514321523
2.3374286831199464,397.04539435855315,0.03394711215260055
2.19168223438796,388.27328422028205,0.06547320215459271
1.9964532895910463,370.78771075883367,0.09371676984849288
1.7585075556931615,344.97297747328963,0.11848300661283728
1.4864229526749755,311.31855323259157,0.13964433404133356
1.1913255524407507,270.4525064740976,0.15713750911571542
0.8866580803745365,223.2315115830472,0.1709599532788895
0.5841362159134825,170.69976646691376,0.1811654179167297
0.2920808352808415,114.01971380684604,0.1878591001503571
0.01461248184280845,54.39856459232108,0.19119232340536377
0.24741473507200085,6.921012183141077,0.19135689562805663
0.49218583189811815,68.64989886713886,0.18857925459516234
0.7176935312612028,129.48433695258845,0.18311450545699212
0.9245183153578345,188.1137633514776,0.17524044944279255
1.1125749778434788,243.2602180216355,0.1652516958236609
1.2823398470571785,293.7246487811159,0.15345394128757336
1.439522546056463,338.41234540367066,0.1401584921707941
1.5922258247203764,376.35045848070024,0.1256770959573332
1.747539262096228,406.67210536711536,0.11031713881457826
1.9094323384920993,428.64345350558415,0.09437725630849718
2.080869551442836,441.7043241284895,0.07814339469610615
2.2674905043409455,445.4919611026349,0.06188535057008739
2.4707711073740795,439.8861799894811,0.04585380735171132
2.674198541044484,424.93563624931653,0.030477583730876272
2.84983016516092,401.035124345155,0.016352631131173502
2.972977810324789,369.2093238340838,0.004007006118810863
3.0228906874865906,331.04412620298217,0.006145890207209787
2.9841143705596345,288.5320327580831,0.013843600511146503
2.8490612313384713,243.87618385955417,0.018996484081844647
2.6203907542329414,199.27666980211836,0.021692764319864208
2.3123733269436295,156.7896169240481,0.022186137961662234
8.04430122423239,31.03855151172966,3.8324048355653972
7.241865978825632,34.86990316967507,3.5898222621891085
5.444254719787978,36.07422416517378,2.9105940564198653
2.705850017503479,33.82136895178452,1.8070491704307285
0.7956218068823774,27.55327531857659,0.34508418815882214
4.776279115298406,17.0632759406228,1.3621949154927713
8.88369309367535,2.532598505857406,3.1682644074060766
12.724988860336042,15.443609084256977,4.904531009400602
15.915892579027155,35.853283699684404,6.402133302680905
18.11514815901514,57.32980443080996,7.508185722661658
19.062426608591316,78.29546599565529,8.10324726631952
18.673506603007386,97.17420115588246,8.140991590242628
17.142558550602413,112.7012348079369,7.693608142698185
14.80983425518986,123.97248185797554,6.896917850760381
11.924159593866008,130.23767301186552,5.849647999288105
8.680579880998723,130.98116978144034,4.631657763840041
5.2732265657895425,126.01280214950994,3.3240881042995123
1.842240234706305,115.36387912582826,1.9846939479584567
1.4827474846048148,99.2551659313944,0.6659920241074057
4.591753009069379,78.07856844567276,0.5885671367361227
7.412910891392206,52.42248107981576,1.7487746184473183
9.883998028485841,23.047707303207236,2.7871700934739656
11.96577391505595,9.156917013052658,3.6873088296221885
13.628686135060564,43.15423322350208,4.437492195048859
14.852830357960281,77.8463240003915,5.030959286779532
15.641263915455065,112.1244017224634,5.467675509313579
16.009467547984915,144.89068043443103,5.749491780547774
15.984809969832632,175.0892486075475,5.883365987468877
15.597186838465785,201.6762451814687,5.87833848336151
14.879718498062797,223.6948564467729,5.74551641763083
13.875533332313545,240.3477439554781,5.498468591703936
12.630106121506183,251.01525928326876,5.151062531954875
11.190802591630485,255.24785088694722,4.718673623065015
9.603472015475399,252.68764472882327,4.21668871153458
7.910157171547689,243.1329079583853,3.6604997322499804
6.153546436432417,226.64888040179937,3.0654840411134363
4.372411197958223,203.53717692987126,2.4460904501369276
2.6010994282853623,174.27816122541358,1.8162948565518298
0.8682354150697754,139.4626786995521,1.188926825619598
0.8118586745511671,99.79315702723846,0.5757089533279882
2.4322952876447923,56.13601114154955,0.012775622642931707
3.983672545744577,9.514287309043759,0.5674073684307008
5.454282885174956,38.924724519636776,1.0803006436216847
6.8306752868515055,88.00257918116483,1.5450354819116854
8.100474154320487,136.5376720324696,1.9565563329083724
9.250269687744769,183.32056663677395,2.3111257545085175
10.259361616113745,227.19385852201216,2.606365527233153
11.102515417932596,267.0476177327303,2.8410769576339048
11.757451883893243,301.81088929662724,3.0152497571728025
12.207450721171362,330.54475509842354,3.129921537426848
12.440128212963138,352.46305294221577,3.187073544727884
12.447730137211359,366.9541373643771,3.1895526342851444
12.228289930323513,373.56844467888266,3.1409107553321585
11.78896494785412,371.9838471919034,3.0453257226341166
11.146550885826407,362.08228604665004,2.907461331032847
10.321782829345512,343.9847366136295,2.732353379413643
9.337573636928056,318.0344451681411,2.525308008367254
8.21980812308043,284.7547974967022,2.2917755445545653
6.995901954084193,244.77129782094312,2.0372645928385626
5.694016504780403,198.85185381096844,1.7672372139205177
4.343669300371136,147.96584025001033,1.4870244535403299
2.9735557479233403,93.2365527259255,1.201752499575703
1.607819457992175,35.86702096966881,0.9162674177052598
0.26795416616719886,22.90365299273526,0.6350833801526868
1.0241112895955662,81.7951637640512,0.362329562640615
2.246130333239203,139.51350495110043,0.10171277754494763
3.377057649691545,194.79009861334248,0.14351027717096423
4.398089629693933,246.3821356479736,0.3705552509096283
5.293610838873345,293.1113678814757,0.5771178847955022
6.056326020657424,333.9072210472602,0.7613780458196578
6.688574729613752,367.8315861018121,0.9219931751367054
7.196500196028996,394.1096635639377,1.0580849566544075
7.586280573526194,412.1339234203003,1.1692209363341501
7.863422098737266,421.45325319136737,1.2553883551058966
8.034493489245305,421.79769201508964,1.3169651781537643
8.103620173148368,413.12778647487823,1.3546859048304714
8.06786062909592,395.6413653470662,1.3696045300430353
7.924250457637268,369.7272334396697,1.3630556312304254
7.673294685591527,335.9242824261604,1.3366130712509199
7.316791849850489,294.9511422789484,1.2920487459639367
6.859750813378623,247.73213327218804,1.2312906963766614
6.3100102128388995,195.34302500574717,1.1563819787691103
5.677269062384409,138.9637909362574,1.0694408563821747
4.973130214347592,79.85227665342721,0.9726223829240501
4.212337414332881,19.330514495434468,0.8680825143572505
3.413472782907184,41.22914036871327,0.7579445617809863
2.5971309271245424,100.45760025498285,0.6442686585302652
1.7851414018693887,157.02177737944723,0.5290244468134595
0.995966257007443,209.63716125335532,0.414067015338287
0.2430259528445049,257.09535657983105,0.301116476868815
0.4611776957087334,298.3125640589888,0.19174100236970193
1.1047546540609703,332.3938460991659,0.0873434704919239
1.6779631880026622,358.6341990089168,0.010848359712611702
2.176956664684963,376.4719746124913,0.10178830879962973
2.5977842206072035,385.52208391360006,0.1846149155209676
2.928215013255695,385.6427261831587,0.2586515436934096
3.157865498521354,376.9205622166167,0.3234036092670635
3.2832229827698813,359.64102643919495,0.37855320018013333
3.3061679545037466,334.25786617373535,0.42395137670669036
3.2345729177303513,301.36761303105095,0.4596084008961927
3.0780230151230015,261.74707469825864,0.48568223545665606
2.8502221253813875,216.35065533752262,0.5024655852258444
2.5694775510673136,166.26538728139656,0.5103717974655053
2.2574328067085,112.68781451160602,0.5099199248038228
1.9366653105804472,56.90108512754595,0.5017192268692745
1.6198982754869118,0.2435277824444348,0.4864534059168723
1.3134992848286058,55.95291573446659,0.464864825495789
1.0238218984370535,110.36865586599504,0.4377389618002362
0.7567513097621623,161.6778281466014,0.4058893108161788
0.5186625311421209,208.6232846853984,0.37014294509689183
0.31171230851994064,250.08926968588997,0.3313269018812739
0.13671684385852287,285.1393860791039,0.29025554635002565
0.005550914991561163,313.00350880334895,0.2477190366257495
0.11475492468182891,333.02269674640183,0.20447298823905632
0.18607432258575046,344.695515448552,0.16122940843748848
0.2166183099896938,347.7449703554696,0.11864895067666079
0.20498532597486915,342.1287011344818,0.07733451079862232
0.14929017409475115,328.02578905296775,0.037826167848396534
0.05123679466180843,305.7581274857116,0.0005974501514321523
0.08743251112387218,275.80376918389703,0.03394711215260055
0.2601473292328882,238.88365721353895,0.06547320215459271
0.45405063694433356,195.9236432349894,0.09371676984849288
0.6554859562611065,148.00900918126743,0.11848300661283728
0.8533360156584243,96.33326895083843,0.13964433404133356
1.0476367613415782,42.127837652268994,0.15713750911571542
1.245006663517351,13.329407957422188,0.1709599532788895
1.4501891497298076,68.72404834336061,0.1811654179167297
1.6666786265290328,122.72892678047303,0.1878591001503571
1.8956211188563181,174.04775640682982,0.19119232340536377
2.1364069013867444,221.48190488725686,0.19135689562805663
2.3818289635087924,263.93774944072794,0.18857925459516234
2.618054066286604,300.4606122362541,0.18311450545699212
2.830836321644353,330.22226907272653,0.17524044944279255
3.003681408178222,352.47417473163665,0.1652516958236609
3.1220870640068434,366.6267171361984,0.15345394128757336
3.1754333202061624,372.3092963174054,0.1401584921707941
3.155263795226484,369.3864522957099,0.1256770959573332
3.059138199288526,357.9272894991749,0.11031713881457826
2.8887896699306443,338.1236929936559,0.09437725630849718
2.651990031723451,310.3503623456663,0.07814339469610615
2.362897629507042,275.2225052400581,0.06188535057008739
2.0351643963266337,233.55176935891296,0.04585380735171132
1.6862370740832529,187.17938855108704,0.030477583730876272
1.336294646984606,138.94975535665563,0.016352631131173502
1.002217114383064,91.7674975010123,0.004007006118810863
0.698100224661221,48.361061704173075,0.006145890207209787
0.4335517382551584,11.008230896421452,0.013843600511146503
0.21421887996509476,18.650721816993077,0.018996484081844647
0.04285345986863045,39.75191982919528,0.021692764319864208
0.0801084182883941,52.22229867661639,0.022186137961662234
10.336950984907048,16.712271186824147,3.8324048355653972
9.697373216754944,20.013946406007577,3.5898222621891085
7.8701119451514625,21.85207954413279,2.9105940564198653
4.8770254537212985,21.52256732788804,1.8070491704307285
0.8850553126117234,18.48155704022551,0.34508418815882214
3.8055229917197266,12.424414372537552,1.3621949154927713
8.800430997499829,3.3571560997861742,3.1682644074060766
13.641725533118422,8.366088856259635,4.904531009400602
17.865950945507464,22.02312824904315,6.402133302680905
21.048361950833737,36.56012783834423,7.508185722661658
22.84914903112294,50.707269202898594,8.10324726631952
23.125473919029535,63.109073741621316,8.140991590242628
22.05493927875677,72.4802836189193,7.693608142698185
19.98577550866109,77.82178873477348,6.896917850760381
17.16929742345803,78.54679333158349,5.849647999288105
13.810781816846104,74.43976000748704,4.631657763840041
10.125881988775133,65.59320440059234,3.3240881042995123
6.274753156164929,52.36282318382111,1.9846939479584567
2.4089078610240593,35.319741946280296,0.6659920241074057
1.341303617233487,15.224993941738331,0.5885671367361227
4.879414943852104,7.033093371191667,1.7487746184473183
8.110835458447115,30.507330042100396,2.7871700934739656
10.969298651173832,54.203325197236346,3.6873088296221885
13.403740919316052,77.0931280346963,4.437492195048859
15.376512160916144,98.16436183280372,5.030959286779532
16.87295523401107,116.49625537664556,5.467675509313579
17.885354766964365,131.31153360595886,5.749491780547774
18.421029671006497,141.97502770771942,5.883365987468877
18.49948742878198,147.96429941092086,5.87833848336151
18.15154646994795,148.8952213955455,5.74551641763083
17.426112080180896,144.59883672013396,5.498468591703936
16.379436345612994,135.1028673317814,5.151062531954875
15.06781145428245,120.58154448723633,4.718673623065015
13.543691946006664,101.3403929013474,4.21668871153458
11.855248474310152,77.80233902985343,3.6604997322499804
10.051464485484713,50.535703279274145,3.0654840411134363
8.17805362826223,20.248941920727606,2.4460904501369276
6.273253898666219,12.231717570182926,1.8162948565518298
4.367745997180788,45.977029459168264,1.188926825619598
2.4864588229939284,80.01806964000049,0.5757089533279882
0.6590517369854481,113.37564106079974,0.012775622642931707
1.081147950461332,145.0767323085695,0.5674073684307008
2.7064683836704324,174.16883218418013,1.0803006436216847
4.196204079332801,199.70820059681003,1.5450354819116854
5.536462620187196,220.8097543446867,1.9565563329083724
6.7152293329691295,236.7275403970337,2.3111257545085175
7.722996538756606,246.90490587785845,2.606365527233153
8.557033513067196,250.94305532777167,2.8410769576339048
9.219727043827007,248.5326149398626,3.0152497571728025
9.717224890579784,239.5050149843604,3.129921537426848
10.053499951895772,223.89801133907537,3.187073544727884
10.228512786236642,201.94096042075986,3.1895526342851444
10.2430614763434,174.03892020817986,3.1409107553321585
10.10295712160099,140.7179372824864,3.0453257226341166
9.820263263019955,102.61637402485219,2.907461331032847
9.40802561505555,60.55643410803464,2.732353379413643
8.880958549418217,15.53354583018307,2.525308008367254
8.256182095541138,31.340635356072706,2.2917755445545653
7.551213690407999,78.91948683327429,2.0372645928385626
6.790045437602713,126.08521272382167,1.7672372139205177
6.001019189608949,171.71551968630942,1.4870244535403299
5.209889362943675,214.69787574907414,1.201752499575703
4.438385000591186,253.96796755684082,0.9162674177052598
3.7034812038723564,288.521226786392,0.6350833801526868
3.018341265870964,317.4679623866316,0.362329562640615
2.3895093535977328,340.07417418674095,0.10171277754494763
1.8154175208973369,355.7785089686643,0.14351027717096423
1.289840042200023,364.14786113999963,0.3705552509096283
0.8060997281173915,364.83420866738015,0.5771178847955022
0.361018855850372,357.6412660862496,0.7613780458196578
0.0463098530426949,342.5712844046069,0.9219931751367054
0.4169711079249957,319.84280490393326,1.0580849566544075
0.7551244692599556,289.8530425751919,1.1692209363341501
1.0681286361166562,253.08554249009293,1.2553883551058966
1.360706548796755,210.17208846835723,1.3169651781537643
1.6354752806901964,161.95846931170558,1.3546859048304714
1.8951945591631432,109.44594580922382,1.3696045300430353
2.1409958494862087,53.73686095854033,1.3630556312304254
2.3742490746319933,4.042442409332889,1.3366130712509199
2.596970660047895,62.736760712522305,1.2920487459639367
2.808904575606334,121.09711081603038,1.2312906963766614
3.0075169027080597,177.8448097793413,1.1563819787691103
3.189932041947485,231.74370241099774,1.0694408563821747
3.3539964360265877,281.61013654533554,0.9726223829240501
3.499389386206497,326.33819087141916,0.8680825143572505
3.6274508841785815,364.9295198692658,0.7579445617809863
3.7373510647238946,396.521090809592,0.6442686585302652
3.826676296159648,420.38334321687745,0.5290244468134595
3.896473061387667,435.9015929491218,0.414067015338287
3.9520055069180984,442.63136037575276,0.301116476868815
4.001261340143549,440.3580478749299,0.19174100236970193
4.048345449434304,429.0765849449244,0.0873434704919239
4.089652462090595,408.960022771495,0.010848359712611702
4.120829821704071,380.34315944699756,0.10178830879962973
4.138542740895828,343.7313142662164,0.1846149155209676
4.1368376465829275,299.8263534804159,0.2586515436934096
4.105593458112326,249.52592651077225,0.3234036092670635
4.030345599669793,193.8707390515757,0.37855320018013333
3.895440462133528,133.98419207456936,0.42395137670669036
3.6912235600989747,71.09494237453775,0.4596084008961927
3.418848907700858,6.536100295124337,0.48568223545665606
3.085320067254888,58.32160944249232,0.5024655852258444
2.7006261648208776,122.08937545026495,0.5103717974655053
2.2761650532449242,183.38436380414004,0.5099199248038228
1.821687816647802,240.86358746589892,0.5017192268692745
1.3498621410637561,293.2593703601862,0.4864534059168723
0.8717161817078771,339.43749280393433,0.464864825495789
0.3914203098958349,378.3989938198473,0.4377389618002362
0.08917053670149391,409.27027515460964,0.4058893108161788
0.5701396905036135,431.3403248394763,0.37014294509689183
1.0489110203551317,444.10521410661744,0.3313269018812739
1.5206845258468082,447.30626194841926,0.29025554635002565
1.9826437073046894,440.91860165314233,0.2477190366257495
2.429081577065563,425.08705761913546,0.20447298823905632
2.848370321212926,400.1409211045277,0.16122940843748848
3.2210743336443017,366.6546359960995,0.11864895067666079
3.523766816729303,325.4083519199989,0.07733451079862232
3.7363552185476023,277.34339961492014,0.037826167848396534
3.8476638227265254,223.52657296116257,0.0005974501514321523
3.855989037972409,165.09991131812538,0.03394711215260055
3.761044113319434,103.30875545245455,0.06547320215459271
3.5663428650385582,39.5016459698275,0.09371676984849288
3.2836754253054137,24.917541227679596,0.11848300661283728
2.9318527582535814,88.5195441359541,0.13964433404133356
2.5334634804400142,149.89669465663903,0.15713750911571542
2.1048022187291964,207.69950635660922,0.1709599532788895
1.6592510888461591,260.67419508615137,0.1811654179167297
1.213451169502016,307.66238588180903,0.1878591001503571
0.783117294450865,347.575970469851,0.19119232340536377
0.38077772542402116,379.4653151428685,0.19135689562805663
0.013141980411745507,402.603093263098,0.18857925459516234
0.3148268254470616,416.51182343399483,0.18311450545699212
0.5975251425311733,420.9268358008067,0.17524044944279255
0.8297479346728505,415.73537893492306,0.1652516958236609
1.0043130910717253,401.02625645226107,0.15345394128757336
1.1158625240263804,377.14234862990673,0.1401584921707941
1.1610107610458789,344.6578797530849,0.1256770959573332
1.1391555651652514,304.35271378927797,0.11031713881457826
1.052212149368751,257.1317884259864,0.09437725630849718
0.8981399044523185,204.01599746582198,0.07814339469610615
0.6753721636101032,146.21466790107212,0.06188535057008739
0.3864474092160299,85.08410439142412,0.04585380735171132
0.05101338407374432,23.341910828227455,0.030477583730876272
0.29651916812793855,35.06373820609775,0.016352631131173502
0.626640837467526,86.51333090504073,0.004007006118810863
0.9124658274981473,128.04787218963952,0.006145890207209787
1.1305516874580461,157.6409214855144,0.013843600511146503
1.265817660702856,174.32339696994217,0.018996484081844647
1.3136530560511654,178.24315974400858,0.021692764319864208
1.2804349530847778,170.6432114971284,0.022186137961662234
7.794142215563528,72.37022408297095,3.8324048355653972
7.655139764691678,69.04784744746827,3.5898222621891085
6.719837245986409,56.94521303143371,2.9105940564198653
4.974296395685833,35.81104527888551,1.8070491704307285
2.4975896368354937,6.498756857496178,0.34508418815882214
0.5447474839843365,29.10032603270168,1.3621949154927713
3.9184825792780167,68.27425708253978,3.1682644074060766
7.335674678294411,107.65540602508501,4.904531009400602
10.490726231808479,143.57401032299424,6.402133302680905
13.089022752397844,172.40611308217484,7.508185722661658
14.880649085827034,190.9988986012869,8.10324726631952
15.73329339452762,197.43182229491657,8.140991590242628
15.717621468859695,191.91387767239928,7.693608142698185
15.020943511808591,176.0865253969456,6.896917850760381
13.77749407703653,151.4249013665635,5.849647999288105
12.10204539947642,119.4668067907211,4.631657763840041
10.123117254214007,82.0755707600228,3.3240881042995123
7.9376978806611405,40.95456674131576,1.9846939479584567
5.642662223222001,2.1149927747119692,0.6659920241074057
3.3237604392717146,45.3888631643119,0.5885671367361227
1.0466788209036169,87.30305158759145,1.7487746184473183
1.1233524624600797,126.35671600646677,2.7871700934739656
3.1405837138190096,161.2741303988468,3.6873088296221885
4.969679596409703,190.90777306588038,4.437492195048859
6.585689955950184,214.30004014238193,5.030959286779532
7.976933269144708,230.80038276838113,5.467675509313579
9.13258683452759,239.97856183376308,5.749491780547774
10.048103203109168,241.64365122280205,5.883365987468877
10.721830090992821,235.79304972950538,5.87833848336151
11.158315024350012,222.62221446789226,5.74551641763083
11.370768933423799,202.56150817499534,5.498468591703936
11.371829903790726,176.24581744953667,5.151062531954875
11.174957768625344,144.49743221109196,4.718673623065015
10.794914892036969,108.2699198885795,4.21668871153458
10.251681370693191,68.64425115602607,3.6604997322499804
9.570650611730452,26.804522011920792,3.0654840411134363
8.774101434637373,16.025080144917798,2.4460904501369276
7.884538334253151,58.60459793927782,1.8162948565518298
6.923338816430292,99.70957726364084,1.188926825619598
5.906802942836383,138.14931905381147,0.5757089533279882
4.851142696778491,172.82784359562623,0.012775622642931707
3.7696719139506674,202.8072258789105,0.5674073684307008
2.6731639544054504,227.28283333121263,1.0803006436216847
1.573631310756646,245.56418367544097,1.5450354819116854
0.48619500042829095,257.10923050627645,1.9565563329083724
0.5663571874130597,261.5736263925464,2.3111257545085175
1.5583932921967913,258.8361152973801,2.606365527233153
2.4670282064447178,248.97611339584105,2.8410769576339048
3.2760935401334614,232.21418809014637,3.0152497571728025
3.976238101622885,208.92800017011663,3.129921537426848
4.558825967568398,179.70769145887837,3.187073544727884
5.020949975377995,145.30771042283982,3.1895526342851444
5.36708880222511,106.62856390285513,3.1409107553321585
5.607160041422217,64.69760791152721,3.0453257226341166
5.753837245534504,20.588165851710137,2.907461331032847
5.81160539025686,24.575101869128066,2.732353379413643
5.782302739379477,69.62894883072397,2.525308008367254
5.673943996744541,113.38991273116416,2.2917755445545653
5.497685003122755,154.65085305820523,2.0372645928385626
5.263340600132031,192.28156294602917,1.7672372139205177
4.9741225743780735,225.28783045282648,1.4870244535403299
4.632017981384125,252.81208622314813,1.201752499575703
4.241258562334421,274.1415085736328,0.9162674177052598
3.807573342975771,288.6638943446842,0.6350833801526868
3.341616310870646,295.88771200124194,0.362329562640615
2.8555040205030275,295.53985974307346,0.10171277754494763
2.3628088004473997,287.6014401182495,0.14351027717096423
1.8777217345616857,272.2458211135277,0.3705552509096283
1.4130632286095615,249.7603852324647,0.5771178847955022
0.9819196715380946,220.57814072371,0.7613780458196578
0.5910410056001275,185.3317478810348,0.9219931751367054
0.24145683923137334,144.83843443142078,1.0580849566544075
0.06687099499103018,100.0745570396805,1.1692209363341501
0.33242329985346886,52.08830939522341,1.2553883551058966
0.5468364070858095,1.956365253275846,1.3169651781537643
0.7013816175872502,49.152582286361124,1.3546859048304714
0.792756568662023,99.9966121166754,1.3696045300430353
0.8214675647377392,149.309130249118,1.3630556312304254
0.7880899130286105,195.84867541030667,1.3366130712509199
0.6897769316887249,238.47223505389866,1.2920487459639367
0.5277961569717289,276.1370917097691,1.2312906963766614
0.31010271501757625,307.9332996629325,1.1563819787691103
0.04686403164623123,333.0924426285341,1.0694408563821747
0.24914954081070478,350.94048479371185,0.9726223829240501
0.563879648246791,360.97569363433416,0.8680825143572505
0.8790505534813906,362.9332995598816,0.7579445617809863
1.1712131439830853,356.7579035921533,0.6442686585302652
1.4182835256478197,342.55804155530126,0.5290244468134595
1.602003674813434,320.5525066400655,0.414067015338287
1.71213218522922,291.108836833422,0.301116476868815
1.7484287134848022,254.8018808220239,0.19174100236970193
1.7150822714810454,212.41413129882926,0.0873434704919239
1.618303324013423,164.88264400252353,0.010848359712611702
1.464827714350668,113.20655941564493,0.10178830879962973
1.2606832003002852,58.46769487383709,0.1846149155209676
1.0124832433515558,1.8621131217198768,0.2586515436934096
0.726100545130337,55.356221523815364,0.3234036092670635
0.4054684751044369,111.90421887182318,0.37855320018013333
0.05348714106455765,166.5212980736739,0.42395137670669036
0.3278248245357261,217.9982314884949,0.4596084008961927
0.7356519627131668,265.1715038109067,0.48568223545665606
1.163957367582474,306.98038365668015,0.5024655852258444
1.6039880104275177,342.4853061896569,0.5103717974655053
2.0460496843921785,370.8604923126689,0.5099199248038228
2.480719673476258,391.4334827069453,0.5017192268692745
2.8978061134274737,403.7192571869401,0.4864534059168723
3.2840551883570863,407.4470488987024,0.464864825495789
3.624631578473221,402.53381993707694,0.4377389618002362
3.907687526351062,389.0332092939509,0.4058893108161788
4.129314835916204,367.1869961655923,0.37014294509689183
4.292508815087818,337.473258414696,0.3313269018812739
4.400250061644667,300.56681149718327,0.29025554635002565
4.453767351282135,257.29460549478136,0.2477190366257495
4.4530605608501395,208.59658049101705,0.20447298823905632
4.3990843800435115,155.52252995321604,0.16122940843748848
4.2951369386824645,99.23830285393802,0.11864895067666079
4.142019704779084,40.988906524791126,0.07733451079862232
3.938786988635332,17.940524091327116,0.037826167848396534
3.6828752403253104,76.2522277918992,0.0005974501514321523
3.369023357904822,132.64845463228335,0.03394711215260055
2.9941452285669334,185.87122025177325,0.06547320215459271
2.556237213022443,234.75644662381504,0.09371676984849288
2.054430240916917,278.2442084530752,0.11848300661283728
1.490538298335391,315.36705874796405,0.13964433404133356
0.8710325342459155,345.2654408791092,0.15713750911571542
0.2127180155741946,367.2729180743588,0.1709599532788895
0.4619937097093292,380.9615114784455,0.1811654179167297
1.128896483110405,386.0920295041199,0.1878591001503571
1.7630434093333014,382.5795236182182,0.19119232340536377
2.340666151563053,370.50498675445834,0.19135689562805663
2.8349828420905223,350.1554165586518,0.18857925459516234
3.221231996374614,322.03461489099953,0.18311450545699212
3.4833239351731953,286.82254377680823,0.17524044944279255
3.6170201555622015,245.32511728174526,0.1652516958236609
3.629572830770004,198.4795326247902,0.15345394128757336
3.532536330702201,147.38115266059424,0.1401584921707941
3.344951729703911,93.22610798014928,0.1256770959573332
3.0927177593119426,37.286838101265964,0.11031713881457826
2.802515696132871,19.099193212924117,0.09437725630849718
2.4981495853881817,74.61348027375678,0.07814339469610615
2.192399875359123,127.98178499995004,0.06188535057008739
1.8908043903343847,178.002794686548,0.04585380735171132
1.5991187670935558,222.483162586318,0.030477583730876272
1.3233326886803862,258.42748883381574,0.016352631131173502
1.0700716006266575,283.5124121060314,0.004007006118810863
0.842910954650677,296.32591659652786,0.006145890207209787
0.6410754160732103,296.46265000864554,0.013843600511146503
0.4624274260924139,284.51731372503866,0.018996484081844647
0.3063658214006023,261.99104986826814,0.021692764319864208
0.17630765030199488,231.1682025936379,0.022186137961662234
2.299130659714223,50.26519618299754,3.8324048355653972
2.351712493516292,33.20701371945376,3.5898222621891085
2.2182000318717465,6.4188841399595225,2.9105940564198653
1.8939916987362064,28.567140310654377,1.8070491704307285
1.3955879277764194,68.87556948077086,0.34508418815882214
0.7608968722357944,110.6509725794655,1.3621949154927713
0.045168535592753196,149.5361520483369,3.1682644074060766
0.6862193226674119,181.0244526279533,4.904531009400602
1.3685018450962356,201.0473317559167,6.402133302680905
1.9429164509658032,206.3550726567736,7.508185722661658
2.36331650985934,194.960211939695,8.10324726631952
2.6149525573801666,167.02680180267686,8.140991590242628
2.7340069959933606,125.71470147372492,7.693608142698185
2.7792112327933256,75.66694040675237,6.896917850760381
2.785502019982339,20.56002198744336,5.849647999288105
2.773211767721781,36.47181588907269,4.631657763840041
2.7564184352571393,92.42447726548562,3.3240881042995123
2.732735723452058,144.97357081288447,1.9846939479584567
2.6975507767611906,191.98601177297093,0.6659920241074057
2.6481957385633548,231.7218636825696,0.5885671367361227
2.5812710629116493,262.9959819589485,1.7487746184473183
2.494098312566975,284.90201009994956,2.7871700934739656
2.3805687948618686,296.9713499707064,3.6873088296221885
2.2353025446835066,298.9663783412915,4.437492195048859
2.056778172505593,290.92783084726886,5.030959286779532
1.8476300979384888,273.2878886722735,5.467675509313579
1.61321890217538,246.74083782506378,5.749491780547774
1.355949090644643,212.25887817475765,5.883365987468877
1.074792358483148,170.9355824649609,5.87833848336151
0.768111714854213,123.99470066785778,5.74551641763083
0.4344726088435552,72.850202057019,5.498468591703936
0.07395627447504341,19.002236770526647,5.151062531954875
0.3069931206233203,35.990027092212145,4.718673623065015
0.6972509001168248,90.57749029614897,4.21668871153458
1.0881298921204838,143.26337629254928,3.6604997322499804
1.4708277594935306,192.62341310251318,3.0654840411134363
1.8324281917992364,237.35761383490947,2.4460904501369276
2.160301426513555,276.29141715422304,1.8162948565518298
2.447434375510888,308.3894365322597,1.188926825619598
2.694232700964565,332.7957948902288,0.5757089533279882
2.9053687646875197,348.87393060783705,0.012775622642931707
3.0848469184831893,356.2382732171832,0.5674073684307008
3.2356338365113597,354.72419308782804,1.0803006436216847
3.360203631848811,344.3349622657226,1.5450354819116854
3.461087568283435,325.29255105248507,1.9565563329083724
3.541665328332466,298.0877399036917,2.3111257545085175
3.602415335199809,263.42187711804917,2.606365527233153
3.6373449497945995,222.15719097339112,2.8410769576339048
3.6358164060718074,175.28831077273688,3.0152497571728025
3.5891657686239906,123.9291787382179,3.129921537426848
3.4944897820453193,69.3112389976978,3.187073544727884
3.3519471275286015,12.755453559145817,3.1895526342851444
3.163005716359246,44.36206962295248,3.1409107553321585
2.9270983297934117,100.65300664406685,3.0453257226341166
2.6421353234207072,154.74210092485666,2.907461331032847
2.3102755533225294,205.30611762587858,2.732353379413643
1.9342644973102594,251.12919621903612,2.525308008367254
1.5144683211070624,291.11575155912993,2.2917755445545653
1.0516257722004854,324.2879761765949,2.0372645928385626
0.5511644731515214,349.80232361219095,1.7672372139205177
0.027549788802713082,367.0232485361262,1.4870244535403299
0.5010776794424754,375.57560466993607,1.201752499575703
1.0161435172987465,375.29794155376146,0.9162674177052598
1.499841392696791,366.1896270597159,0.6350833801526868
1.9371697142396709,348.42350953881197,0.362329562640615
2.313046811244275,322.3950976740661,0.10171277754494763
2.6160647150296232,288.72410183155574,0.14351027717096423
2.8391929606498314,248.21361132973902,0.3705552509096283
2.9810101842086616,201.79524008946044,0.5771178847955022
3.048068157688327,150.5102350385496,0.7613780458196578
3.0472444542060266,95.54840985727957,0.9219931751367054
2.9881736274787123,38.20675143595042,1.0580849566544075
2.8843375128208337,20.163729328489648,1.1692209363341501
2.7477299535600723,78.16713314073185,1.2553883551058966
2.586624064819041,134.42221320637842,1.3169651781537643
2.3985603359401892,187.59720751142135,1.3546859048304714
2.1740189881355207,236.454313733821,1.3696045300430353
1.905038907041391,279.8665135176595,1.3630556312304254
1.59091714256992,316.7707855113354,1.3366130712509199
1.2393852856218388,346.2553951337183,1.2920487459639367
0.8580256891104507,367.6463155797551,1.2312906963766614
0.4566800781609481,380.4765600275462,1.1563819787691103
0.05058968229636841,384.4646689896393,1.0694408563821747
0.3417972647693543,379.4685818610418,0.9726223829240501
0.6982849545811888,365.50591579315955,0.8680825143572505
1.0002014720109658,342.8472889982657,0.7579445617809863
1.2335212456351046,312.01962613952935,0.6442686585302652
1.3861576130384783,273.74396012638,0.5290244468134595
1.4485010670299758,228.86240968199974,0.414067015338287
1.4132249950264153,178.35265550829862,0.301116476868815
1.2802332685341804,123.36601685757363,0.19174100236970193
1.05571013518486,65.17076478644366,0.0873434704919239
0.7512686120122849,5.134018379411082,0.010848359712611702
0.382585743369539,55.33179230415553,0.10178830879962973
0.039172033745572994,114.84806334802744,0.1846149155209676
0.5040186334159107,172.04213124796982,0.2586515436934096
0.9976044784376171,225.57594448531717,0.3234036092670635
1.5014622640810795,274.1988024752393,0.37855320018013333
1.995361484810268,316.77680339056684,0.42395137670669036
2.462472132749482,352.3430070168416,0.4596084008961927
2.884757108286347,380.0959701852104,0.48568223545665606
3.240679298427083,399.4421846040549,0.5024655852258444
3.510455398076856,409.9854665191574,0.5103717974655053
3.6788798731327925,411.44250321630454,0.5099199248038228
3.7414669606641433,403.72801463752955,0.5017192268692745
3.7025212976734236,387.02510275664946,0.4864534059168723
3.5675558392799154,361.73363578708637,0.464864825495789
3.3454335727145716,328.42344381057455,0.4377389618002362
3.050544681891504,287.78789751688674,0.4058893108161788
2.699664918201965,240.66577559436013,0.37014294509689183
2.3069228175024774,188.069464989784,0.3313269018812739
1.882881579900444,131.17078084722434,0.29025554635002565
1.436013165488558,71.25295677687906,0.2477190366257495
0.9704068699774705,9.624909475052135,0.20447298823905632
0.4885134276039809,52.35780762825296,0.16122940843748848
0.005335874157389202,113.28543633633892,0.11864895067666079
0.5073637756987521,171.78713087901798,0.07733451079862232
1.013015552319735,226.55844854596546,0.037826167848396534
1.5149023340206487,276.3700416452791,0.0005974501514321523
2.00524416716033,320.09976625996103,0.03394711215260055
2.4769921318662487,356.77337266581924,0.06547320215459271
2.9218561776620926,385.6045695916316,0.09371676984849288
3.3310007301321396,405.9763290130965,0.11848300661283728
3.699042357820987,417.43531903276624,0.13964433404133356
4.023971872808471,419.732060249724,0.15713750911571542
4.303947061077317,412.8398987939418,0.1709599532788895
4.535777252723916,396.95976655919134,0.1811654179167297
4.716010340920244,372.49711310688207,0.1878591001503571
4.84127760746985,340.0139975645749,0.19119232340536377
4.908212976648202,300.2505326114163,0.19135689562805663
4.916039511951174,254.15524968946528,0.18857925459516234
4.8637811054380835,202.82980770859376,0.18311450545699212
4.747784489295814,147.4740458165801,0.17524044944279255
4.565669349681597,89.36185547859502,0.1652516958236609
4.317516180608718,29.832820636183758,0.15345394128757336
4.006933807014275,29.73081830219107,0.1401584921707941
3.64174867364678,87.96769149432468,0.1256770959573332
3.231620410309983,143.56001622175907,0.11031713881457826
2.782898586140972,195.23338149678762,0.09437725630849718
2.2986393888184455,241.80444466144664,0.07814339469610615
1.7845011417552057,282.23615282540584,0.06188535057008739
1.2445908710246087,315.6634956648912,0.04585380735171132
0.694631172625859,340.6466056668668,0.030477583730876272
0.16539427808702967,355.40547743434223,0.016352631131173502
0.3154805155197176,358.88764833290315,0.004007006118810863
0.7235450244752133,350.88200676714234,0.006145890207209787
1.0382522696323635,332.04527388898236,0.013843600511146503
1.2458801112196622,303.82385074289965,0.018996484081844647
1.341559609098831,268.30753631436056,0.021692764319864208
1.3334524883572898,228.05503932011175,0.022186137961662234
3.8418295075499804,47.69381363626786,3.8324048355653972
3.3099376437598034,55.65808507218972,3.5898222621891085
2.2684518776858855,60.634794311104294,2.9105940564198653
0.7590941314577071,61.37929527917444,1.8070491704307285
1.1094079822953213,56.90040434294309,0.34508418815882214
3.1678058436313608,46.615813465540654,1.3621949154927713
5.214164303586003,30.427385056393003,3.1682644074060766
7.034119607692116,8.794228599777457,4.904531009400602
8.427726453597533,17.24831809130635,6.402133302680905
9.227975364696613,46.174440385432355,7.508185722661658
9.316062006438573,76.09057939704059,8.10324726631952
8.672084753101672,105.01163338758147,8.140991590242628
7.428181480838549,131.2697347274685,7.693608142698185
5.790593480320545,153.56563740317927,6.896917850760381
3.914051596534201,170.7903835593982,5.849647999288105
1.922794149503078,182.12105483364502,4.631657763840041
0.06290274491253335,187.05297980056227,3.3240881042995123
1.9557072214976834,185.29433931888684,1.9846939479584567
3.6815658169425842,176.75697765472717,0.6659920241074057
5.182360295140402,161.52664143721066,0.5885671367361227
6.423181446781645,139.939339267688,1.7487746184473183
7.380972751393113,112.61362651666842,2.7871700934739656
8.052208714896215,80.3382404271485,3.6873088296221885
8.439372111822898,44.03662221691329,4.437492195048859
8.544735927910981,4.726399764800126,5.030959286779532
8.379425086941337,36.49890708595684,5.467675509313579
7.961525221516164,78.46623258724436,5.749491780547774
7.317911377039838,119.96135727358642,5.883365987468877
6.479415323652165,159.76945677662647,5.87833848336151
5.47561371420501,196.73188683395634,5.74551641763083
4.339639834791148,229.78547497161856,5.498468591703936
3.1072902004679124,257.99793351148605,5.151062531954875
1.8141821218088747,280.5502164710027,4.718673623065015
0.4972005640783856,296.7231678537373,4.21668871153458
0.8083019518901826,305.96786003852776,3.6604997322499804
2.0683194761177246,307.9219716359834,3.0654840411134363
3.2478998469510447,302.4398616466363,2.4460904501369276
4.315998655027652,289.57843676691255,1.8162948565518298
5.247961551759754,269.49100578246447,1.188926825619598
6.028078625777552,242.49645507794733,0.5757089533279882
6.651138282298852,209.1547975621979,0.012775622642931707
7.116476999060361,170.20294641851476,0.5674073684307008
7.425060606128784,126.51905033728451,1.0803006436216847
7.578443443572749,79.06613135827804,1.5450354819116854
7.577640990403954,28.873463866927697,1.9565563329083724
7.4250871871389625,22.93293695599895,2.3111257545085175
7.1240327715356075,75.16336083602644,2.606365527233153
6.678732714286914,126.60164698522321,2.8410769576339048
6.097359633083157,176.05058686032848,3.0152497571728025
5.3905884584671355,222.36356664828747,3.129921537426848
4.571235659812618,264.45208605288747,3.187073544727884
3.659542662212376,301.3314799826362,3.1895526342851444
2.6826614260344477,332.12963521117587,3.1409107553321585
1.667857771654931,356.0726233434723,3.0453257226341166
0.6397352607411769,372.5252555715142,2.907461331032847
0.37962772348022716,381.04524251459395,2.732353379413643
1.368988946391704,381.4087229408995,2.525308008367254
2.3071744292568908,373.5666871505882,2.2917755445545653
3.176658437545678,357.6071405155744,2.0372645928385626
3.967388442270782,333.806553517537,1.7672372139205177
4.676722114771779,302.65090304699424,1.4870244535403299
5.303454822312913,264.8133660750344,1.201752499575703
5.843655521225527,221.12875643977034,0.9162674177052598
6.291859225124915,172.53623218646746,0.6350833801526868
6.644120291040596,120.08393120187147,0.362329562640615
6.899148458181151,64.94714593132893,0.10171277754494763
7.052450033424727,8.369460182117924,0.14351027717096423
7.0969153629486295,48.3869951072664,0.3705552509096283
7.026658446439833,104.0555653830802,0.5771178847955022
6.835855965338244,157.37334260859058,0.7613780458196578
6.522640325998807,207.13244971221692,0.9219931751367054
6.086304457924439,252.2387354359896,1.0580849566544075
5.525739761767118,291.70240439274335,1.1692209363341501
4.845799135328756,324.6226647931049,1.2553883551058966
4.057353274718847,350.2341475842372,1.3169651781537643
3.1802887783064135,367.9706333996881,1.3546859048304714
2.2423823698461978,377.46831223601816,1.3696045300430353
1.2745095776191822,378.55518976153604,1.3630556312304254
0.309427592944394,371.2292148529508,1.3366130712509199
0.6218709639657044,355.63239238863724,1.2920487459639367
1.4868455169279042,332.11366896162235,1.2312906963766614
2.254347067035939,301.25058823328084,1.1563819787691103
2.902481738645175,263.7809181286512,1.0694408563821747
3.4207639995227863,220.5514840809123,0.9726223829240501
3.8121781007275772,172.50776317774816,0.8680825143572505
4.083604315205753,120.72288642613277,0.7579445617809863
4.245009184458561,66.3701732132436,0.6442686585302652
4.315599427032883,10.691018962067488,0.5290244468134595
4.3163100381596315,45.005277509890256,0.414067015338287
4.264066178079216,99.42392265551163,0.301116476868815
4.163476392282306,151.33655001646002,0.19174100236970193
4.009381007993493,199.57685241085554,0.0873434704919239
3.798049153213256,243.04544837543276,0.010848359712611702
3.5276044438323333,280.7093979918801,0.10178830879962973
3.2016934291547825,311.6531418547802,0.1846149155209676
2.8267423678547665,335.1397596588833,0.2586515436934096
2.409672482862813,350.66250160707784,0.3234036092670635
1.9626981236328387,357.91162365284,0.37855320018013333
1.5025580682359052,356.6638036379667,0.42395137670669036
1.0502077157348295,346.87014764299727,0.4596084008961927
0.6243306993132315,328.75917840196075,0.48568223545665606
0.23986112833939507,302.76008150104514,0.5024655852258444
0.09022150032571084,269.48062779494956,0.5103717974655053
0.36020319941478873,229.6597772862712,0.5099199248038228
0.5681076795608655,184.13370652167322,0.5017192268692745
0.7166356066911314,133.92560970503416,0.4864534059168723
0.8139572136273938,80.22722867330425,0.464864825495789
0.8688520414528359,24.331652679331846,0.4377389618002362
0.889603650092163,32.43449529196992,0.4058893108161788
0.8750919763154497,88.78014065021782,0.37014294509689183
0.8174333994154689,143.41385649386817,0.3313269018812739
0.7106913498234725,195.08127443780145,0.29025554635002565
0.5489364651644358,242.6055610731732,0.2477190366257495
0.3304393063757752,284.86473601206905,0.20447298823905632
0.05807380124380163,320.87418625793475,0.16122940843748848
0.26074794388025674,349.8418119463479,0.11864895067666079
0.6103404674848212,371.15779525499045,0.07733451079862232
0.970485323022117,384.3489696769552,0.037826167848396534
1.3197932833487658,389.0543670649128,0.0005974501514321523
1.6391281514842173,385.0992176417179,0.03394711215260055
1.9115324421603876,372.510868118423,0.06547320215459271
2.1208548548079698,351.5403503722087,0.09371676984849288
2.2563907618139343,322.6417319547351,0.11848300661283728
2.314599550014682,286.3454798475755,0.13964433404133356
2.2995421234399807,243.33013878490596,0.15713750911571542
2.2196252573359114,194.5054413826148,0.1709599532788895
2.0822567166603907,140.9307274233554,0.1811654179167297
1.8957118223630882,83.7718687962432,0.1878591001503571
1.6687799694383767,24.239779205728464,0.19119232340536377
1.4101149245500741,36.42516853880881,0.19135689562805663
1.1298791516837412,96.92308367514516,0.18857925459516234
0.8362267118500119,155.94710226433665,0.18311450545699212
0.5348400966653334,212.2105143294134,0.17524044944279255
0.23077401713114887,264.47656817158935,0.1652516958236609
0.07340445689303148,311.6073888610302,0.15345394128757336
0.37785317578153776,352.57692181229186,0.1401584921707941
0.6846491100485298,386.4916974649155,0.1256770959573332
0.995653760891726,412.58690002824426,0.11031713881457826
1.310265141898671,430.2186509928916,0.09437725630849718
1.6289215333485811,438.90318953677547,0.07814339469610615
1.9526853975415266,438.3777708568089,0.06188535057008739
2.2777631654908213,428.63067771352024,0.04585380735171132
2.585050388828085,409.8951180722491,0.030477583730876272
2.8453828530347343,382.82470659793825,0.016352631131173502
3.0337789893080593,348.6589154018315,0.004007006118810863
3.1287757311737368,309.116738253635,0.006145890207209787
3.11495956873604,266.2378186903932,0.013843600511146503
2.988123588630688,222.1982785543626,0.018996484081844647
2.756311772045416,179.09564162365842,0.021692764319864208
2.4386870547494275,138.8180840724537,0.022186137961662234
8.210260964992168,33.053859713569054,3.8324048355653972
7.370281190486784,36.42466499457886,3.5898222621891085
5.513527798798189,36.83073050030753,2.9105940564198653
2.697996866317407,33.47938827481309,1.8070491704307285
0.8936441043399955,25.889519291522006,0.34508418815882214
4.970029320627026,13.959935414898482,1.3621949154927713
9.168770630533421,1.99631778930489,3.1682644074060766
13.087124647613003,21.23313842473178,4.904531009400602
16.332512172280886,42.59530495273809,6.402133302680905
18.558306959891368,64.58867944500109,7.508185722661658
19.501824073193248,85.53899923205373,8.10324726631952
19.081484496185407,103.83798360092457,8.140991590242628
17.501970331591554,118.2850667160568,7.693608142698185
15.114154045495821,128.0983743448429,6.896917850760381
12.17099147994563,132.6310434960879,5.849647999288105
8.867063001645658,131.48140733456574,4.631657763840041
5.393517842990823,124.58586034654434,3.3240881042995123
1.8885635296210224,112.058884517027,1.9846939479584567
1.5183528205825272,94.19172456970286,0.6659920241074057
4.715780316185003,71.43491751848654,0.5885671367361227
7.626200715216374,44.41259479849806,1.7487746184473183
10.179441908480317,13.937696389442564,2.7871700934739656
12.32900028360912,19.055364132783048,3.6873088296221885
14.041175122445459,53.5140087444844,4.437492195048859
15.297876052118283,88.33328405594999,5.030959286779532
16.107259157238556,122.40278044305387,5.467675509313579
16.48793612777404,154.63208253574976,5.749491780547774
16.470666296981054,183.98407573721423,5.883365987468877
16.091974994397503,209.44859710161353,5.87833848336151
15.387854710847208,230.10040104094585,5.74551641763083
14.400054776988423,245.16235823231858,5.498468591703936
13.17235387402045,254.05269298629398,5.151062531954875
11.74511342359986,256.37869259698874,4.718673623065015
10.15307275215732,251.8348175309718,4.21668871153458
8.425110691925816,240.2916182144235,3.6604997322499804
6.591747906445409,221.89807220964602,3.0654840411134363
4.68815323879379,197.00435799113464,2.4460904501369276
2.750291559043594,166.13042239780378,1.8162948565518298
0.8136838204054775,129.90640823299722,1.188926825619598
1.0891362285651698,89.04942544864619,0.5757089533279882
2.925098699820644,44.46126898146596,0.012775622642931707
4.659105143170379,2.788855413970922,0.5674073684307008
6.258379397274046,51.54263509476908,1.0803006436216847
7.694847599832892,100.60441919510177,1.5450354819116854
8.952236460341359,148.78112360657158,1.9565563329083724
10.021006359766446,194.88521778914088,2.3111257545085175
10.892428788497076,237.77980189339064,2.606365527233153
11.563848045379043,276.38971970958715,2.8410769576339048
12.03520176343083,309.6855479551597,3.0152497571728025
12.309954584299343,336.75128178686015,3.129921537426848
12.394021393281236,356.8426717002244,3.187073544727884
12.28856182615115,369.4100135793257,3.1895526342851444
11.994286333140318,374.05989361053594,3.1409107553321585
11.51604681591673,370.52658522238534,3.0453257226341166
10.866766401037927,358.7470076930526,2.907461331032847
10.066566530466458,338.8786318200935,2.732353379413643
9.135117218036434,311.2932567185957,2.525308008367254
8.092683827899117,276.5428902280894,2.2917755445545653
6.962917389184562,235.26501103756905,2.0372645928385626
5.772575852378111,188.2531245323586,1.7672372139205177
4.548362323721299,136.51782891770793,1.4870244535403299
3.3122994893629696,81.19966447598523,1.201752499575703
2.083783409281004,23.52414186693654,0.9162674177052598
0.8794128651521921,35.24835386466443,0.6350833801526868
0.28829861423106506,93.84740746562099,0.362329562640615
1.4075033572163511,150.98285015423158,0.10171277754494763
2.4679939359832956,205.38609532145668,0.14351027717096423
3.461193282823885,255.83403526824296,0.3705552509096283
4.378072278138428,301.17557924503217,0.5771178847955022
5.211927577084532,340.3705519715828,0.7613780458196578
5.957385259650721,372.5232723438509,0.9219931751367054
6.607750916810702,396.91393422138754,1.0580849566544075
7.157996441032261,412.98761522753824,1.1692209363341501
7.606288757655803,420.34598056800155,1.2553883551058966
7.953695648285693,418.77490714381935,1.3169651781537643
8.201139409748592,408.2849645243308,1.3546859048304714
8.345863139894117,389.11881259890146,1.3696045300430353
8.385296836164432,361.6986840345383,1.3630556312304254
8.31914868418566,326.602835634288,1.3366130712509199
8.14925488773164,284.59061550287277,1.2920487459639367
7.878910458420267,236.59658405565426,1.2312906963766614
7.510793701410121,183.7080017977101,1.1563819787691103
7.048904514966278,127.12191421473915,1.0694408563821747
6.496823638344428,68.09029039452243,0.9726223829240501
5.86084845265099,7.9324579107405455,0.8680825143572505
5.154851500222718,51.97434643048461,0.7579445617809863
4.395955552837686,110.26917593883876,0.6442686585302652
3.60435996851092,165.6333520869197,0.5290244468134595
2.7971493794891242,216.79576550893447,0.414067015338287
1.986211196815826,262.570604280585,0.301116476868815
1.1863237241855236,301.9137083806009,0.19174100236970193
0.40989746041031255,333.9771516619884,0.0873434704919239
0.33456459445868103,358.10392692872546,0.010848359712611702
1.0410367259749447,373.7813044006153,0.10178830879962973
1.7058346858183957,380.6809995816996,0.1846149155209676
2.321674275392798,378.7266442276723,0.2586515436934096
2.8832770190193613,368.0602985813724,0.3234036092670635
3.388045241771831,349.02542390725563,0.37855320018013333
3.8318316008176563,322.1417838156516,0.42395137670669036
4.211046066339214,288.0543108285727,0.4596084008961927
4.5184130023283435,247.58707008047125,0.48568223545665606
4.74423129081664,201.740903655689,0.5024655852258444
4.879705647369985,151.62493807459944,0.5103717974655053
4.920435904877869,98.44195560241761,0.5099199248038228
4.866661083637059,43.45204855417628,0.5017192268692745
4.715569991191106,12.054096836518312,0.4864534059168723
4.466975954296839,66.78188535022863,0.464864825495789
4.126302102941385,119.450444486354,0.4377389618002362
3.7054343299439254,168.78397522352373,0.4058893108161788
3.2266114488161914,213.5810942013007,0.37014294509689183
2.7103248233877975,252.79222349815322,0.3313269018812739
2.17350140637944,285.53693589658434,0.29025554635002565
1.6350581066853251,311.0836242279969,0.2477190366257495
1.1143105561936535,328.81401837937176,0.20447298823905632
0.6282349399780353,338.2532191937208,0.16122940843748848
0.1834568139793905,339.1316384201181,0.11864895067666079
0.21798833562881245,331.4352803212748,0.07733451079862232
0.5725891552113627,315.3869553791138,0.037826167848396534
0.8793963697088123,291.3416169944334,0.0005974501514321523
1.13645301898446,259.8297648973813,0.03394711215260055
1.3418306418371113,221.64416386766354,0.06547320215459271
1.4943997855125275,177.76379305625883,0.09371676984849288
1.5931561750482315,129.31543607921935,0.11848300661283728
1.6367315180167048,77.51625326864418,0.13964433404133356
1.6183155659834298,23.593051127239338,0.15713750911571542
1.5319636304949906,31.173659271467436,0.1709599532788895
1.3768563142922712,85.46405160891503,0.1811654179167297
1.1561150244332312,137.96789398449408,0.1878591001503571
0.8782401030234972,187.41027561246165,0.19119232340536377
0.5499588870539956,232.62004771097472,0.19135689562805663
0.1760513027524106,272.55480068915216,0.18857925459516234
0.23308653536821436,306.32338760259177,0.18311450545699212
0.6630032360972347,333.17288972246547,0.17524044944279255
1.1025471619316225,352.4342134159127,0.1652516958236609
1.5464906364378748,363.5750576127814,0.15345394128757336
1.988913249888029,366.27925284060007,0.1401584921707941
2.420360889760835,360.46930119001973,0.1256770959573332
2.82991365984221,346.2558332747733,0.11031713881457826
3.205302222885417,323.8875250351114,0.09437725630849718
3.535201677055643,293.8056011214581,0.07814339469610615
3.8083943493504124,256.6602799022574,0.06188535057008739
4.011307182861893,213.29750358967746,0.04585380735171132
4.127222256881795,165.65310872208045,0.030477583730876272
4.1408339282011175,116.6840417680431,0.016352631131173502
4.045288793750716,69.3707113064306,0.004007006118810863
3.8427602905363862,26.480091952691275,0.006145890207209787
3.5436575647528383,9.730762284430202,0.013843600511146503
3.166104374356686,37.688551065955075,0.018996484081844647
2.7332676557879028,56.62725286027523,0.021692764319864208
2.2709551363601603,66.61562268404961,0.022186137961662234
10.51264583250053,20.174199546134837,3.8324048355653972
9.746406106831904,22.7679839148632,3.5898222621891085
7.734905890685465,23.3607329190148,2.9105940564198653
4.512209776627464,21.30768216065345,1.8070491704307285
0.26825451675614115,16.19009893295958,0.34508418815882214
4.664972869970853,7.883972468768521,1.3621949154927713
9.858595698686766,3.3786569770550856,3.1682644074060766
14.822083625858003,17.00159704170567,4.904531009400602
19.066004336852174,32.04184759340129,6.402133302680905
22.15006437087649,47.25944642791177,7.508185722661658
23.730098179355902,61.26204317056599,8.10324726631952
23.6709592015485,72.6761743632208,8.140991590242628
22.176798080664593,80.34870760022231,7.693608142698185
19.638646244932303,83.5072041389071,6.896917850760381
16.350217543854114,81.74868182394222,5.849647999288105
12.553886672140067,75.00808545336105,4.631657763840041
8.49773884142749,63.530979860911486,3.3240881042995123
4.365270374596399,47.7927606978659,1.9846939479584567
0.32366406722857194,28.4651457342599,0.6659920241074057
3.48949081720179,6.386162548790658,0.5885671367361227
6.980723423193272,17.50069081578032,1.7487746184473183
10.067606498181913,42.19449706118425,2.7871700934739656
12.702631640549171,66.66954977653825,3.6873088296221885
14.851702575724424,89.88962071645828,4.437492195048859
16.4897236393527,110.84740597593743,5.030959286779532
17.614455862076294,128.63512671058925,5.467675509313579
18.232486325612257,142.50526607627526,5.749491780547774
18.366409169120633,151.868789781537,5.883365987468877
18.049420861501844,156.24271434137796,5.87833848336151
17.3226878221672,155.2936656696864,5.74551641763083
16.23996773833879,148.90955524514968,5.498468591703936
14.86182772150068,137.16348555362705,5.151062531954875
13.2538618515654,120.29657039152256,4.718673623065015
11.476183611108583,98.69824633675773,4.21668871153458
9.582788334033612,72.86955103851416,3.6604997322499804
7.630289585948894,43.45859217896699,3.0654840411134363
5.670409403578968,11.24558439878796,2.4460904501369276
3.746763041182714,22.89086994349189,1.8162948565518298
1.8942374185767632,57.98330896794042,1.188926825619598
0.13887802141355327,93.02846873122137,0.5757089533279882
1.4916289723735434,127.01153407157352,0.012775622642931707
2.9709687746322246,158.93750112436834,0.5674073684307008
4.2800664582191805,187.85049640410023,1.0803006436216847
5.406052024463535,212.80722163385437,1.5450354819116854
6.344851024544166,232.9378735073728,1.9565563329083724
7.0961125099933495,247.5426246050657,2.3111257545085175
7.662976389712496,256.1156737802001,2.606365527233153
8.0552783826671,258.30519219027804,2.8410769576339048
8.286966717523292,253.86261242722813,3.0152497571728025
8.374742734975513,242.6699213537485,3.129921537426848
8.332988443063329,224.7958884467302,3.187073544727884
8.173729276605574,200.52427459388227,3.1895526342851444
7.908078805456276,170.33591923968868,3.1409107553321585
7.5477238240917774,134.8132063890009,3.0453257226341166
7.108886666609267,94.65390111286001,2.907461331032847
6.606194489486734,50.75219095832211,2.732353379413643
6.052122525864849,4.137095528424818,2.525308008367254
5.460499501108176,44.069241723702405,2.2917755445545653
4.8476990319372835,92.69637510210373,2.0372645928385626
4.23944468685871,140.58682599436423,1.7672372139205177
3.665438341730637,186.56538049999602,1.4870244535403299
3.149303815936854,229.50073856519515,1.201752499575703
2.707936078283077,268.3351398838758,0.9162674177052598
2.352456000081207,302.05865724362997,0.6350833801526868
2.087901444916114,329.8079309752213,0.362329562640615
1.9101523640810587,350.89104844432495,0.10171277754494763
1.8064495552573283,364.7798169485996,0.14351027717096423
1.7570391752688732,371.1017213879697,0.3705552509096283
1.7388764445712024,369.5696374883939,0.5771178847955022
1.7352156880510612,360.03335861322074,0.7613780458196578
1.7340032289138896,342.5559318727221,0.9219931751367054
1.7204056314830254,317.4185394596388,1.0580849566544075
1.6789958014719193,285.07522669628554,1.1692209363341501
1.5984327387258899,246.0784682476141,1.2553883551058966
1.4722847558305534,201.11815800379662,1.3169651781537643
1.2959028679670865,151.05960414327726,1.3546859048304714
1.0642852807198881,96.91677047941221,1.3696045300430353
0.7725884153184859,39.81362344331268,1.3630556312304254
0.4159077243892575,19.089942777163742,1.3366130712509199
0.008038649599433671,78.58158877613559,1.2920487459639367
0.49488793857698066,137.38573075042453,1.2312906963766614
1.0356742662752358,194.22845390074716,1.1563819787691103
1.6186819066886833,247.85466747632358,1.0694408563821747
2.2257399981473074,297.0765375943515,0.9726223829240501
2.8355431949578613,340.8051231983463,0.8680825143572505
3.430053557085111,378.04824555600027,0.7579445617809863
3.9904109360736952,407.9693628292305,0.6442686585302652
4.496430913273662,429.8843671170387,0.5290244468134595
4.934696152816918,443.2263867186292,0.414067015338287
5.302549814495141,447.6047012030263,0.301116476868815
5.604130715302044,442.8554230237899,0.19174100236970193
5.843155867168202,429.03568066904427,0.0873434704919239
6.023587008758356,406.3879619481282,0.010848359712611702
6.151798702909736,375.28799372631966,0.10178830879962973
6.2326831213794325,336.2720961554535,0.1846149155209676
6.267033691180259,290.09528674481925,0.2586515436934096
6.248528627939952,237.71283541308085,0.3234036092670635
6.164051489203179,180.2172488872406,0.37855320018013333
5.999713882983144,118.78242744198518,0.42395137670669036
5.745794806383341,54.67136617594352,0.4596084008961927
5.396349720776412,10.76379806508444,0.48568223545665606
4.947216874883075,76.13050299788495,0.5024655852258444
4.400189139152882,140.01888686864268,0.5103717974655053
3.7610583312717214,201.03522924807444,0.5099199248038228
3.035142199955754,257.83836472184896,0.5017192268692745
2.2319379840798734,309.1746248409775,0.4864534059168723
1.365934865083997,353.9318876342241,0.464864825495789
0.4549579745366345,391.1486072509879,0.4377389618002362
0.4831335772747591,419.9965352077859,0.4058893108161788
1.4280474643728032,439.80040391346216,0.37014294509689183
2.34869994327539,450.09865063114734,0.3313269018812739
3.2120380409307914,450.69541483886945,0.29025554635002565
3.9896040329643427,441.62987794265325,0.2477190366257495
4.654718315169343,423.0961117983397,0.20447298823905632
5.184791655130326,395.47172350442816,0.16122940843748848
5.559547070077698,359.3905472681356,0.11864895067666079
5.765408599766719,315.68887937526523,0.07733451079862232
5.801428717368503,265.36051238127783,0.037826167848396534
5.678947072568575,209.52904006398853,0.0005974501514321523
5.417503543852415,149.38985085106873,0.03394711215260055
5.035624950737473,86.24558618512285,0.06547320215459271
4.553692655729394,21.50850274235195,0.09371676984849288
3.997114993247189,43.37217238098314,0.11848300661283728
3.3928903484477795,106.94918276694396,0.13964433404133356
2.7651203579358645,167.81678943538466,0.15713750911571542
2.128613122522937,224.6494627825906,0.1709599532788895
1.4953057349372265,276.2419289995121,0.1811654179167297
0.8759675662172439,321.49865972692635,0.1878591001503571
0.28067938754758154,359.39028899359516,0.19119232340536377
0.2748659176031227,389.0239607636737,0.19135689562805663
0.777094679638819,409.7437078096891,0.18857925459516234
1.2140657596208082,421.1445032973111,0.18311450545699212
1.5710110851903494,423.0174565570475,0.17524044944279255
1.834865723194088,415.2938657944584,0.1652516958236609
1.9965447592182501,398.08395128201107,0.15345394128757336
2.0553314319623315,371.7325692711957,0.1401584921707941
2.0165697163317358,336.83791544649733,0.1256770959573332
1.8892406906170205,294.2255147235318,0.11031713881457826
1.6851001367325322,244.84274059761873,0.09437725630849718
1.4121713008113765,189.77493296967984,0.07814339469610615
1.077652853263642,130.31696045992467,0.06188535057008739
0.6911719471163824,67.88311482610793,0.04585380735171132
0.2771623007742406,5.259684669457318,0.030477583730876272
0.12859145438661573,53.520678416720536,0.016352631131173502
0.498596255215568,104.7990759813472,0.004007006118810863
0.8092898118107325,145.6214228712137,0.006145890207209787
1.0412717219120045,174.0091603605964,0.013843600511146503
1.1857761512462743,189.08044032479881,0.018996484081844647
1.242537534017866,191.09252054299822,0.021692764319864208
1.2185370152019002,181.41528212194743,0.022186137961662234
7.63236982191764,73.55749538084794,3.8324048355653972
7.444748234824595,69.56787154496402,3.5898222621891085
6.4601018451907155,56.511155650841935,2.9105940564198653
4.67127248613665,34.20915722322904,1.8070491704307285
2.1661452302551076,3.6339452502021663,0.34508418815882214
0.8814244790740055,33.185345946768024,1.3621949154927713
4.229876907353842,73.39212707432011,3.1682644074060766
7.587039180939379,113.47002430235992,4.904531009400602
10.647718833226474,149.62974205584158,6.402133302680905
13.123767821006888,178.16087539139656,7.508185722661658
14.776168447629315,195.86533186319605,8.10324726631952
15.483824999171642,200.86975795131985,8.140991590242628
15.329744625485493,193.5383751019963,7.693608142698185
14.514836063134037,175.70705228163308,6.896917850760381
13.182350766072238,149.01461578541333,5.849647999288105
11.448910302817296,115.12794928850302,4.631657763840041
9.441810753131424,76.00860761136803,3.3240881042995123
7.2553096890616295,33.441958453779286,1.9846939479584567
4.981953702225892,10.711601543468179,0.6659920241074057
2.70321753459218,54.65906484077932,0.5885671367361227
0.47831526253795703,96.81794944690166,1.7487746184473183
1.6328093671989954,135.69008216292323,2.7871700934739656
3.583207232434427,170.02010737452477,3.6873088296221885
5.336655186201858,198.685687864829,4.437492195048859
6.871036709768615,220.7790741051549,5.030959286779532
8.178733728975493,235.7137223036797,5.467675509313579
9.253091120245053,243.1113537765871,5.749491780547774
10.09357335587702,242.84313599020737,5.883365987468877
10.705210281511034,234.97859204197889,5.87833848336151
11.096562660766562,219.7835376086771,5.74551641763083
11.27730475262304,197.77035689883772,5.498468591703936
11.255939663447124,169.65718443671744,5.151062531954875
11.042314515252338,136.3306035146125,4.718673623065015
10.644240633066294,98.78965518620949,4.21668871153458
10.073157272169444,58.14985244708501,3.6604997322499804
9.348839240156993,15.621112505951613,3.0654840411134363
8.492514077206778,27.565241798121423,2.4460904501369276
7.527316805736649,70.16793021734539,1.8162948565518298
6.476967849920245,110.95186516239542,1.188926825619598
5.363925961950055,148.73412469863933,0.5757089533279882
4.213204399770998,182.44741152596276,0.012775622642931707
3.0463328522720516,211.17656659360296,0.5674073684307008
1.8789828365114691,234.14360827278156,1.0803006436216847
0.724491184202865,250.69828682723409,1.5450354819116854
0.40415338014365393,260.33728735739095,1.9565563329083724
1.486496171782414,262.75104003634334,2.3111257545085175
2.498787560793273,257.86228119010525,2.606365527233153
3.421530834935503,245.80867372247653,2.8410769576339048
4.236827871609721,226.8724001734093,3.0152497571728025
4.929622801478514,201.49315852824807,3.129921537426848
5.487694882827941,170.33382972505086,3.187073544727884
5.902979824796492,134.21423855417635,3.1895526342851444
6.174122829240261,94.06858294875981,3.1409107553321585
6.308047394921875,50.958317148696246,3.0453257226341166
6.317915963827964,6.019421135193128,2.907461331032847
6.214301806742516,39.56622753743698,2.732353379413643
6.009097968974275,84.60808380811406,2.525308008367254
5.718794408361096,127.92574618642067,2.2917755445545653
5.361549450266776,168.34497934725096,2.0372645928385626
4.955265996816018,204.77059223258576,1.7672372139205177
4.507633702121378,236.23650801033642,1.4870244535403299
4.020765570802804,261.9291332406132,1.201752499575703
3.4994027888623416,281.1865698006429,0.9162674177052598
2.950353038500346,293.43837379204473,0.6350833801526868
2.386116948201138,298.24016787875297,0.362329562640615
1.8193860758606808,295.37913347963047,0.10171277754494763
1.2612975319164585,284.89049466906164,0.14351027717096423
0.7249497238204216,266.9889975070656,0.3705552509096283
0.22357943359298796,242.01131797729803,0.5771178847955022
0.23025468114470946,210.44953967134848,0.7613780458196578
0.6302880618257601,172.9869226350473,0.9219931751367054
0.9747198527368744,130.48227156193343,1.0580849566544075
1.2619022411343517,83.95577021875734,1.1692209363341501
1.4904750163243423,34.520427178071806,1.2553883551058966
1.6542763074999056,16.65627025868136,1.3169651781537643
1.7466658784900284,68.33258259372822,1.3546859048304714
1.76382755019027,119.24553071477146,1.3696045300430353
1.7041035850493627,168.1341897154745,1.3630556312304254
1.571078264735334,213.76297248874434,1.3366130712509199
1.3676891587884932,255.0049891875454,1.2920487459639367
1.097045701587317,290.8600382561973,1.2312906963766614
0.767751921838979,320.48202243884356,1.1563819787691103
0.3917973771318105,343.1721927786023,1.0694408563821747
0.015627772427590177,358.3249440939777,0.9726223829240501
0.4390218808025993,365.5031198593542,0.8680825143572505
0.8643039082877888,364.49715323263626,0.7579445617809863
1.2758170857959334,355.29897378370606,0.6442686585302652
1.6561242488848895,338.07438987404396,0.5290244468134595
1.989312287105715,313.1093485738468,0.414067015338287
2.2642835813092552,280.8319192595373,0.301116476868815
2.473611098101901,241.87810557907974,0.19174100236970193
2.6116393506989106,197.08698223542547,0.0873434704919239
2.674873087155952,147.4404673891,0.010848359712611702
2.6606351823414163,93.99688268599165,0.10178830879962973
2.565599155687851,37.900134811199266,0.1846149155209676
2.386580181609305,19.617208178074247,0.2586515436934096
2.1218264937806115,77.2757352211421,0.3234036092670635
1.7731128024040845,133.7743900979265,0.37855320018013333
1.3453650273193887,187.8450187842498,0.42395137670669036
0.8459411291477601,238.28168092023267,0.4596084008961927
0.28976260489870276,283.9539396594214,0.48568223545665606
0.3001956631443072,323.85552038751774,0.5024655852258444
0.8974567686171289,357.0993855568107,0.5103717974655053
1.4757620531434785,382.9060951636113,0.5099199248038228
2.0186365679388407,400.6456728569483,0.5017192268692745
2.5201513401338462,409.8801945894648,0.4864534059168723
2.976189983125998,410.40258204264245,0.464864825495789
3.384338626627557,402.20863776378525,0.4377389618002362
3.7432265904087454,385.4278267949923,0.4058893108161788
4.052864798550092,360.3762071918962,0.37014294509689183
4.315398845789501,327.6115214993179,0.3313269018812739
4.529963813351691,287.8771525377874,0.29025554635002565
4.691792685982702,242.0614195899345,0.2477190366257495
4.792102525822546,191.1622451557234,0.20447298823905632
4.823687825771876,136.26970109280197,0.16122940843748848
4.784524033896718,78.58351459007287,0.11864895067666079
4.6703926574653,19.385340042800987,0.07733451079862232
4.476299245588159,40.006633398943535,0.037826167848396534
4.199825374949865,98.27315350913156,0.0005974501514321523
3.8448510055072465,154.11507416583973,0.03394711215260055
3.423068302084928,206.2869018766854,0.06547320215459271
2.9452475567365792,253.64674858162178,0.09371676984849288
2.4218990475076687,295.16242946223844,0.11848300661283728
1.862273178325532,329.90576449063065,0.13964433404133356
1.2721079274296476,357.09016894023847,0.15713750911571542
0.6601826309721422,376.1402647834412,0.1709599532788895
0.03556089287261634,386.7089641992185,0.1811654179167297
0.5920489480906871,388.63117694297335,0.1878591001503571
1.2089834577313594,381.8975761788821,0.19119232340536377
1.797915814115891,366.6635064257611,0.19135689562805663
2.3371438138904943,343.27982477520425,0.18857925459516234
2.8075169634190167,312.3076044254507,0.18311450545699212
3.193120900926498,274.4908498738118,0.17524044944279255
3.4828560763611076,230.6968731159833,0.1652516958236609
3.6734349531446484,181.90841712254573,0.15345394128757336
3.7610201620146193,129.2567672703454,0.1401584921707941
3.7456878858426124,73.95998162297897,0.1256770959573332
3.635899770906668,17.29485531367424,0.11031713881457826
3.445638501177462,39.39439014335226,0.09437725630849718
3.1916658276586602,94.76987937775334,0.07814339469610615
2.8811359898225133,147.54051919346776,0.06188535057008739
2.5152186070040865,196.50732325510813,0.04585380735171132
2.1064219572092338,239.5170797845327,0.030477583730876272
1.6774343001864336,273.6638681330346,0.016352631131173502
1.2529545049487565,296.73535685840335,0.004007006118810863
0.8546784759265381,307.4278895217334,0.006145890207209787
0.49906701230118583,305.44680797587205,0.013843600511146503
0.19828902022313494,291.49167641385594,0.018996484081844647
0.037939101757331166,267.14561039970187,0.021692764319864208
0.20222271084313215,234.75086760666804,0.022186137961662234
2.1451474504960335,45.044503083539915,3.8324048355653972
2.245678754673434,27.97368834690104,3.5898222621891085
2.183509636688573,1.7220609997127705,2.9105940564198653
1.9485543502108107,32.13112686698915,1.8070491704307285
1.5508979557505835,70.73453112242251,0.34508418815882214
1.021162611271095,110.31589299265299,1.3621949154927713
0.40381810805646295,146.64930667393958,3.1682644074060766
0.24668584230509788,175.40650780509822,4.904531009400602
0.8739405820971426,192.72230917523726,6.402133302680905
1.4269497016497628,195.5851994709783,7.508185722661658
1.8653236297929932,182.26189668845126,8.10324726631952
2.1745056038783814,153.08196938031784,8.140991590242628
2.3830700514813685,111.22612917856402,7.693608142698185
2.5385631425339312,61.289210359389976,6.896917850760381
2.6689260165712305,6.9062159975632085,5.849647999288105
2.789979563015678,48.84205024099958,4.631657763840041
2.909801224604403,103.02174851919554,3.3240881042995123
3.0198609166320716,153.3764918464768,1.9846939479584567
3.109114161508596,197.85185501976437,0.6659920241074057
3.167540967721672,234.79173380311678,0.5885671367361227
3.183840355250113,263.0964634384172,1.7487746184473183
3.1485075812556502,281.94239984339293,2.7871700934739656
3.051613170243187,290.9427945907617,3.6873088296221885
2.8874562384073896,289.96187943359877,4.437492195048859
2.6573236344998112,279.13444067136857,5.030959286779532
2.3691165569560355,258.9720061368399,5.467675509313579
2.035799315824265,230.24624345608675,5.749491780547774
1.669353645886901,193.9879334102046,5.883365987468877
1.2790859931001834,151.36185618311143,5.87833848336151
0.8718176523630722,103.66745915336533,5.74551641763083
0.453493059937841,52.335381761070586,5.498468591703936
0.03025441611483029,1.1499467584908656,5.151062531954875
0.3911276269105684,55.24423725162889,4.718673623065015
0.8021619902700888,108.43427837895727,4.21668871153458
1.1976083593103632,159.27265370261065,3.6604997322499804
1.5764038690966964,206.38973790206802,3.0654840411134363
1.9370740284164736,248.5486818167108,2.4460904501369276
2.2781651161929233,284.6361798629436,1.8162948565518298
2.5990916909350132,313.674458710917,1.188926825619598
2.900925626297053,334.8612377014148,0.5757089533279882
3.186030360990865,347.6092704526656,0.012775622642931707
3.453486896989681,351.5922341242479,0.5674073684307008
3.6973795720364064,346.7232321655553,1.0803006436216847
3.908584596075695,333.08604831820685,1.5450354819116854
4.078517175063139,310.9825705691507,1.9565563329083724
4.20080338837478,280.9886657482085,2.3111257545085175
4.2670457371409025,243.88173300014506,2.606365527233153
4.266713974555677,200.5942657527554,2.8410769576339048
4.191106202765305,152.18256002000086,3.0152497571728025
4.038264933163749,99.7973023813854,3.129921537426848
3.8151016915797564,44.700442731415144,3.187073544727884
3.5334462068467603,11.763958802943415,3.1895526342851444
3.208565423362409,68.21880390949438,3.1409107553321585
2.8523662940738443,123.28316095854055,3.0453257226341166
2.47131052906043,175.60503176625107,2.907461331032847
2.0730182329973155,223.90389037542613,2.732353379413643
1.6603001207135586,267.01964279377665,2.525308008367254
1.2323754833181715,303.9263582948134,2.2917755445545653
0.7903354336090284,333.70992737590336,2.0372645928385626
0.33474452825910145,355.5915578461378,1.7672372139205177
0.12826454165513101,369.01679514082554,1.4870244535403299
0.5875360018504344,373.6936343375386,1.201752499575703
1.0319892574741092,369.5476728453259,0.9162674177052598
1.4512216973341328,356.67050704153496,0.6350833801526868
1.8355953798563382,335.31557595477483,0.362329562640615
2.1725552009671563,305.9466894534773,0.10171277754494763
2.451207524433673,269.2623453894953,0.14351027717096423
2.6660884801681837,226.15341244810992,0.3705552509096283
2.816652444794941,177.6280825626347,0.5771178847955022
2.9078308632127374,124.79875489088947,0.7613780458196578
2.9454963587122207,68.90815951063803,0.9219931751367054
2.9378133015451393,11.277278958698309,1.0580849566544075
2.89439513273857,46.72772844216664,1.1692209363341501
2.8249527532924565,103.71780707119008,1.2553883551058966
2.7369098139549393,158.34669456257353,1.3169651781537643
2.62475563485035,209.33216059978653,1.3546859048304714
2.478444281606862,255.5067287530419,1.3696045300430353
2.2916577564041334,295.82355348690703,1.3630556312304254
2.059231728901162,329.29964747075417,1.3366130712509199
1.7847661442977543,355.1047432127713,1.2920487459639367
1.4785138644548501,372.64208988867847,1.2312906963766614
1.1513628376103626,381.5253894591409,1.1563819787691103
0.8171092137506465,381.56343978487445,1.0694408563821747
0.49529102163340116,372.68859030291674,0.9726223829240501
0.2080499133172344,354.9681909731615,0.8680825143572505
0.030506343131221907,328.74187423476485,0.7579445617809863
0.21363108150527677,294.62172366820613,0.6442686585302652
0.3381817439510156,253.4005525602409,0.5290244468134595
0.4035259926804318,205.99658447476776,0.414067015338287
0.40817738619575294,153.44744543236544,0.301116476868815
0.3555356297222423,96.9440294273115,0.19174100236970193
0.2548604988963566,37.80650011325525,0.0873434704919239
0.11777208627068855,22.56552428750945,0.010848359712611702
0.04476305527913742,82.74959191444687,0.10178830879962973
0.22764878146077097,141.3476010260161,0.1846149155209676
0.42674281526201335,196.99610712968916,0.2586515436934096
0.6370431108687978,248.41970625424509,0.3234036092670635
0.8549351134867177,294.43377308522764,0.37855320018013333
1.0742446233528213,333.9509199113955,0.42395137670669036
1.2875084966701922,366.0667460097394,0.4596084008961927
1.4877932106566607,390.0649386851854,0.48568223545665606
1.6643419307421015,405.4432152080187,0.5024655852258444
1.8023340944027562,411.8959631675456,0.5103717974655053
1.8914296807541784,409.2203270741512,0.5099199248038228
1.9307875880764676,397.41796840499984,0.5017192268692745
1.925244314177784,376.7613753985835,0.4864534059168723
1.8815296146757785,347.72568426971833,0.464864825495789
1.8056472327478341,310.9647123393378,0.4377389618002362
1.7016060841226295,267.24586736044665,0.4058893108161788
1.5719622225224594,217.46363301229923,0.37014294509689183
1.4165620031956556,162.7010691508685,0.3313269018812739
1.2316384052702285,104.18721740862291,0.29025554635002565
1.0118271616466499,43.23904524279222,0.2477190366257495
0.752441825777605,18.79578647045765,0.20447298823905632
0.44994965018481564,80.5508854414065,0.16122940843748848
0.10300330888884136,140.65398685975558,0.11864895067666079
0.28509149883743634,197.7760628665842,0.07733451079862232
0.7059509286352524,250.64187151205996,0.037826167848396534
1.1472134988447487,298.0651464002419,0.0005974501514321523
1.594687394210991,338.9833129510206,0.03394711215260055
2.0343256692716487,372.4844929844644,0.06547320215459271
2.4524646003507797,397.8500574813313,0.09371676984849288
2.8374162524042656,414.53656713161746,0.11848300661283728
3.1790514843463913,422.16542906949235,0.13964433404133356
3.469883644282662,420.55658340937737,0.15713750911571542
3.707263181946622,409.7526157385149,0.1709599532788895
3.88854865965647,390.03638972619297,0.1811654179167297
4.010579829035451,361.89621507746585,0.1878591001503571
4.071630750948621,325.9739479815748,0.19119232340536377
4.070234338907176,283.09327459700876,0.19135689562805663
4.007833196348727,234.27069510342847,0.18857925459516234
3.8878470955775106,180.65549367866515,0.18311450545699212
3.7127936139159052,123.4961995496747,0.17524044944279255
3.484878467308716,64.11553112691604,0.1652516958236609
3.2087217920415596,3.8779469217370677,0.15345394128757336
2.8947660324979654,55.83525989264197,0.1401584921707941
2.556635834858061,113.67119872727481,0.1256770959573332
2.2072240914175234,168.3332063707333,0.11031713881457826
1.8551515384394441,218.58367877911314,0.09437725630849718
1.5035039400217078,263.276724366375,0.07814339469610615
1.1527756356471726,301.4183568362713,0.06188535057008739
0.7989676452770558,332.2000495888867,0.04585380735171132
0.4465211473883302,354.2882460965961,0.030477583730876272
0.11162886352209074,366.05911144437414,0.016352631131173502
0.1917516587359143,366.6209979728071,0.004007006118810863
0.4508102479616112,355.914064063392,0.006145890207209787
0.6537705023464707,334.7220621563499,0.013843600511146503
0.7920892114845195,304.58488741087734,0.018996484081844647
0.8613607877701003,267.64153640753955,0.021692764319864208
0.8650672453977215,226.4482071925482,0.022186137961662234
4.211085382471281,47.310970323408434,3.8324048355653972
3.6467476351079293,55.2290595539872,3.5898222621891085
2.5171990564937077,60.157116116931526,2.9105940564198653
0.8652538489087422,60.83771151482256,1.8070491704307285
1.1907520577662343,56.272793633561555,0.34508418815882214
3.466700601597757,45.8815009818748,1.3621949154927713
5.739119517320818,29.5837522858847,3.1682644074060766
7.768958485262853,7.850810467795239,4.904531009400602
9.333607424989085,18.2742001473867,6.402133302680905
10.245672457315084,47.23966412923426,7.508185722661658
10.371370759936632,77.13623795239113,8.10324726631952
9.68509614012152,105.96772682564618,8.140991590242628
8.326485183702774,132.0375036708578,7.693608142698185
6.51990329791493,154.03525753532924,6.896917850760381
4.436954822072119,170.85332688612016,5.849647999288105
2.218143507424978,181.6578390062487,4.631657763840041
0.0010619863045373719,185.94818112341818,3.3240881042995123
2.11332327150646,183.461865904474,1.9846939479584567
4.037283982746595,174.15465113810595,0.6659920241074057
5.70409263357946,158.16430105006057,0.5885671367361227
7.080230651745274,135.87480402245092,1.7487746184473183
8.146208007164455,107.9453578824873,2.7871700934739656
8.900634267542504,75.1996586685792,3.6873088296221885
9.347487188370486,38.5845122475164,4.437492195048859
9.491258598084062,0.8620229051971025,5.030959286779532
9.344633030124644,42.016223648351044,5.467675509313579
8.92774878808636,83.6953958172104,5.749491780547774
8.271447696294416,124.69837879388612,5.883365987468877
7.406884937794609,163.8132249014526,5.87833848336151
6.361893935679241,199.90284697094344,5.74551641763083
5.168076647531638,231.9421103823996,5.498468591703936
3.859813142525071,259.02457096684117,5.151062531954875
2.4741834694326883,280.37261479818284,4.718673623065015
1.0479510112170172,295.30301636017384,4.21668871153458
0.3845135381622333,303.2788868676668,3.6604997322499804
1.7885547686239927,303.96408679749464,3.0654840411134363
3.1290897284332395,297.24497763775406,2.4460904501369276
4.371251483212372,283.20394823192476,1.8162948565518298
5.485303700676802,262.0202625900636,1.188926825619598
6.451034748757938,234.04042753456528,0.5757089533279882
7.255849334616506,199.86074974153857,0.012775622642931707
7.891698570560439,160.24914183055407,0.5674073684307008
8.351664395238686,116.10569889050555,1.0803006436216847
8.629068128648774,68.41570510701213,1.5450354819116854
8.719178043637067,18.22843864455951,1.9565563329083724
8.620889132054266,33.311997350247196,2.3111257545085175
8.334536879465649,85.00638582084896,2.606365527233153
7.860158636601026,135.6390035927404,2.8410769576339048
7.203095712148874,184.02005224588132,3.0152497571728025
6.375980353547077,229.01703927871438,3.129921537426848
5.400462431135866,269.5642564743992,3.187073544727884
4.310927841080787,304.7114719338949,3.1895526342851444
3.148155813753254,333.61978148463754,3.1409107553321585
1.9525585688403342,355.5558424552043,3.0453257226341166
0.7609973657904645,369.94627201617436,2.907461331032847
0.3955970692039522,376.4097686246302,2.732353379413643
1.4899311063592184,374.77451003518536,2.525308008367254
2.4986973564278596,365.0434400716255,2.2917755445545653
3.4053077684450557,347.36143837371105,2.0372645928385626
4.200852093779582,322.0593848613672,1.7672372139205177
4.88378745746005,289.6589788108554,1.4870244535403299
5.455409418916337,250.86678835139332,1.201752499575703
5.916908013973055,206.5481329156035,0.9162674177052598
6.270332303943359,157.64500769775003,0.6350833801526868
6.519938152003138,105.19958467069621,0.362329562640615
6.671020648476655,50.37918476943354,0.10171277754494763
6.726190265532457,5.593152645865616,0.14351027717096423
6.686810873323437,61.47067296229013,0.3705552509096283
6.5543455666164325,115.99960922821657,0.5771178847955022
6.33301204957575,167.9396382141129,0.7613780458196578
6.033441836415952,216.10020275288477,0.9219931751367054
5.665780005325955,259.3952128434121,1.0580849566544075
5.2369418522891875,296.8513790996871,1.1692209363341501
4.751627763908374,327.5992168448258,1.2553883551058966
4.21215323390583,350.91035253622346,1.3169651781537643
3.6246908590665394,366.260486984426,1.3546859048304714
2.998711216651821,373.34039268329735,1.3696045300430353
2.3445500289108927,372.04188770108027,1.3630556312304254
1.6749246756113032,362.42659187970975,1.3366130712509199
1.0070374913268982,344.7004920436121,1.2920487459639367
0.3652643227576474,319.2764392322231,1.2312906963766614
0.22645754793675876,286.782595291753,1.1563819787691103
0.750655697187296,247.98975867703072,1.0694408563821747
1.197672586673928,203.7787998298084,0.9726223829240501
1.5664468055005338,155.1307057315626,0.8680825143572505
1.858542194976605,103.13345013611803,0.7579445617809863
2.079882917620209,48.96257722799705,0.6442686585302652
2.2440766461521773,6.148504885705174,0.5290244468134595
2.371253420318302,60.92123717502136,0.414067015338287
2.4807307634219486,114.08310686398538,0.301116476868815
2.5781527964205027,164.41191412001746,0.19174100236970193
2.6610835955160184,210.76178373251233,0.0873434704919239
2.7252142435665765,252.07018408654153,0.010848359712611702
2.765113781132298,287.35124999273484,0.10178830879962973
2.781056427674823,315.73687866458334,0.1846149155209676
2.7749399782446367,336.53512828279173,0.2586515436934096
2.7482890592629565,349.28851644386526,0.3234036092670635
2.70516763536581,353.75063390253734,0.37855320018013333
2.654880774846151,349.784397170785,0.42395137670669036
2.6129048711735323,337.41805852044627,0.4596084008961927
2.5912640853480142,316.93137969939283,0.48568223545665606
2.5981220752004535,288.7983734267035,0.5024655852258444
2.6386208735223864,253.67440424683704,0.5103717974655053
2.711782001040154,212.35626528238473,0.5099199248038228
2.81505393302402,165.72820673432966,0.5017192268692745
2.9415927692401103,114.83948875547755,0.4864534059168723
3.0786338477851274,60.899376036035825,0.464864825495789
3.207831176913114,5.194852843081687,0.4377389618002362
3.3089212101495344,50.964684634281426,0.4058893108161788
3.3715882039414784,106.28928226944335,0.37014294509689183
3.3920927511127448,159.50196859034267,0.3313269018812739
3.3675112263340616,209.39302016257147,0.29025554635002565
3.2968472846511334,254.8370683552937,0.2477190366257495
3.1780713136058103,294.760902934741,0.20447298823905632
3.0105569303005213,328.2285317327673,0.16122940843748848
2.7957205417077065,354.4936559475908,0.11864895067666079
2.533822033292118,372.9947374394716,0.07733451079862232
2.225132711137726,383.3186853227282,0.037826167848396534
1.8723952268651909,385.16303505881467,0.0005974501514321523
1.4828235590548176,378.39769084449273,0.03394711215260055
1.0645283420399092,363.0945326039713,0.06547320215459271
0.6229744124945431,339.5599749964812,0.09371676984849288
0.1644725661547484,308.31342587538745,0.11848300661283728
0.302998338690249,269.94972671502705,0.13964433404133356
0.7731235659399041,225.2049366614299,0.15713750911571542
1.2419281011485739,175.04635488686372,0.1709599532788895
1.7048358965027646,120.57403660204696,0.1811654179167297
2.155554773782709,62.96994979190281,0.1878591001503571
2.5893493874695426,3.4632413170101057,0.19119232340536377
3.0020126585679128,56.69675942643069,0.19135689562805663
3.386596378261385,116.23400602181174,0.18857925459516234
3.735292932629539,173.8765618465603,0.18311450545699212
4.040293256459376,228.37720183213128,0.17524044944279255
4.2944742350415135,278.55346412892607,0.1652516958236609
4.493138845419071,323.3187435314132,0.15345394128757336
4.6317417367353535,361.6843624552682,0.1401584921707941
4.705632205881397,392.79718559987055,0.1256770959573332
4.711318521301106,415.9411653997594,0.11031713881457826
4.645362850616404,430.5177318454777,0.09437725630849718
4.50729020739977,436.0965898801393,0.07814339469610615
4.300066199007851,432.4848156627094,0.06188535057008739
4.027405655194982,419.7370356995352,0.04585380735171132
3.696484056420775,398.21838229629,0.030477583730876272
3.318245003104209,368.77772541174073,0.016352631131173502
2.906694886656278,332.82297328528534,0.004007006118810863
2.479818642591028,292.1915227304651,0.006145890207209787
2.0555728157555286,248.97855581417355,0.013843600511146503
1.6488252274611808,205.35779680399364,0.018996484081844647
1.2733665787826742,163.3610968272609,0.021692764319864208
0.9421694555658103,124.75134418443892,0.022186137961662234
8.052099696409336,33.59494183198393,3.8324048355653972
7.172418458333738,36.339863642162264,3.5898222621891085
5.2767808106591465,35.872061125375474,2.9105940564198653
2.427494747336263,31.450463313951637,1.8070491704307285
1.1869043904289698,22.679348729839163,0.34508418815882214
5.271044500048554,9.578972232267812,1.3621949154927713
9.462997638609732,7.407962181704278,3.1682644074060766
13.361740580616722,27.412594178159765,4.904531009400602
16.574685071990956,49.15768019151917,6.402133302680905
18.75304871718819,71.04601341418237,7.508185722661658
19.631217954513705,91.3411142733456,8.10324726631952
19.125894815696565,108.4324291072223,8.140991590242628
17.440816528923012,121.20622142206295,7.693608142698185
14.92550523596655,129.01536076719572,6.896917850760381
11.832179000219176,131.3171076878935,5.849647999288105
8.35976825004073,127.81293994971932,4.631657763840041
4.710042462143161,118.56805881717298,3.3240881042995123
1.0329451934611198,103.80574229818828,1.9846939479584567
2.5312689651409883,83.92476412471306,0.6659920241074057
5.860351597886724,59.48639668998149,0.5885671367361227
8.867622305723083,31.188279085998918,1.7487746184473183
11.476416156693896,0.10348448014402792,2.7871700934739656
13.633842053635528,33.41838033760289,3.6873088296221885
15.299542103578236,67.69034261895207,4.437492195048859
16.452881458243713,101.81239932211147,5.030959286779532
17.10576122241033,134.70697100500865,5.467675509313579
17.28715625954918,165.3441982530458,5.749491780547774
17.039949357988807,192.74367271169405,5.883365987468877
16.407705773065384,215.9490536505444,5.87833848336151
15.433277443261664,234.08996681116648,5.74551641763083
14.167543606196334,246.4490939718071,5.498468591703936
12.662455708923263,252.51311143473188,5.151062531954875
10.96723600304349,251.96427687760976,4.718673623065015
9.124626255802394,244.56720797082394,4.21668871153458
7.171868102059007,230.2546519226686,3.6604997322499804
5.1488399139595495,209.2432010113788,3.0654840411134363
3.0953739179528603,181.9452227910061,2.4460904501369276
1.0487897097789582,148.9414444520965,1.8162948565518298
0.9541889148697197,110.93775504156338,1.188926825619598
2.882116211525106,68.72177629247486,0.5757089533279882
4.707007168088254,23.252723773457298,0.012775622642931707
6.399552768790357,24.355972818906764,0.5674073684307008
7.930795498316288,72.9195824298317,1.0803006436216847
9.275441634898012,121.2354902396658,1.5450354819116854
10.41883948925309,168.13301960382773,1.9565563329083724
11.355793335965423,212.46683694754734,2.3111257545085175
12.081690915977248,253.14873759058815,2.606365527233153
12.591988387996063,289.15296855898407,2.8410769576339048
12.885986896044868,319.505732172568,3.0152497571728025
12.966768475757949,343.36959251527367,3.129921537426848
12.83812047927944,360.08380334531637,3.187073544727884
12.504023164927732,369.1766877021937,3.1895526342851444
11.97003454938379,370.3436052820581,3.1409107553321585
11.246126557686178,363.40430495378473,3.0453257226341166
10.349850311016734,348.3574170161568,2.907461331032847
9.304161294703432,325.4012168226131,2.732353379413643
8.13673139042916,294.95109444423343,2.525308008367254
6.8793119583185645,257.62246753270426,2.2917755445545653
5.562475741759279,214.12250023568922,2.0372645928385626
4.215498687866463,165.30742914167374,1.7672372139205177
2.865200180991674,112.2383327487406,1.4870244535403299
1.5320347082202552,56.092067479388824,1.201752499575703
0.2333662777096422,1.8809412688441545,0.9162674177052598
1.016711051708293,60.403794579616964,0.6350833801526868
2.2085890210291566,118.1964672908317,0.362329562640615
3.331063768759052,173.9734299469059,0.10171277754494763
4.372421809695327,226.4856014358753,0.14351027717096423
5.322788076681079,274.5467613328806,0.3705552509096283
6.169630160599503,317.0670966944578,0.5771178847955022
6.901561953746285,353.0778659902713,0.7613780458196578
7.510891661387602,381.7584608682934,0.9219931751367054
7.98752906674176,402.4782142329914,1.0580849566544075
8.32230851498928,414.77956017928256,1.1692209363341501
8.512762505487803,418.34963583769377,1.2553883551058966
8.563056531044348,413.0448160797703,1.3169651781537643
8.48473855743431,398.950076441566,1.3546859048304714
8.292941570055472,376.39172561667266,1.3696045300430353
8.000939222346902,345.876440376581,1.3630556312304254
7.620611741267139,308.05998550496315,1.3366130712509199
7.165327694322546,263.761862027391,1.2920487459639367
6.648206369089189,213.95949401312197,1.2312906963766614
6.078628171652585,159.77086280279664,1.1563819787691103
5.464288683824882,102.42519491949788,1.0694408563821747
4.812018368035539,43.21492541426745,0.9726223829240501
4.1300907571968235,16.52672971823814,0.8680825143572505
3.43122610349311,75.44317103447128,0.7579445617809863
2.729432056005963,132.20158384553676,0.6442686585302652
2.0389870124573037,185.53063740145723,0.5290244468134595
1.368679780103261,234.2246029378804,0.414067015338287
0.7207087694079456,277.16087643010826,0.301116476868815
0.09887196776228886,313.369459207484,0.19174100236970193
0.4960582098672597,342.0882307406946,0.0873434704919239
1.067742210917234,362.7441812873296,0.010848359712611702
1.6188433502505382,374.90946535238197,0.10178830879962973
2.1480540314928884,378.3365628138133,0.1846149155209676
2.6459370460286546,373.01987713964263,0.2586515436934096
3.0993973505111443,359.1713728991381,0.3234036092670635
3.4938670715023536,337.2032426993556,0.37855320018013333
3.8168773261777615,307.6952285323168,0.42395137670669036
4.062638586381836,271.3474295618625,0.4596084008961927
4.224248328780337,229.0300402562844,0.48568223545665606
4.297107199713674,181.78055329910512,0.5024655852258444
4.284165294777148,130.7432193135162,0.5103717974655053
4.194175889094063,77.14506170812568,0.5099199248038228
4.041760943953012,22.260723154788597,0.5017192268692745
3.8382172736566584,32.614775392149454,0.4864534059168723
3.591572026977963,86.20140217063174,0.464864825495789
3.3118622482743487,137.243858653893,0.4377389618002362
3.008782680772749,184.5107308697299,0.4058893108161788
2.6891218700249957,226.86219438776845,0.37014294509689183
2.351003481003081,263.3105380890514,0.3313269018812739
1.9887271601159924,293.04280724060305,0.29025554635002565
1.5994924210799302,315.3988697119236,0.2477190366257495
1.1864214169530034,329.8346535083393,0.20447298823905632
0.7622887452302299,335.9556834754913,0.16122940843748848
0.3417828512260217,333.574000150297,0.11864895067666079
0.05985873778652519,322.76118443851766,0.07733451079862232
0.42571501822240027,303.82595518246285,0.037826167848396534
0.7407222730818326,277.20535435808216,0.0005974501514321523
0.9897557852294556,243.50474544935807,0.03394711215260055
1.1634404892246897,203.56802733745351,0.06547320215459271
1.2603968109302173,158.39757512981652,0.09371676984849288
1.2833834955239936,109.13786517244563,0.11848300661283728
1.237220522800664,57.03092622632803,0.13964433404133356
1.122189904029477,3.3211474644816996,0.15713750911571542
0.9377373902987276,50.69759983225365,0.1709599532788895
0.6886387502967529,103.70722087927446,0.1811654179167297
0.38376704485823343,154.43847718665518,0.1878591001503571
0.03525759765505653,201.6698431403175,0.19119232340536377
0.34526784668716665,244.28785655061787,0.19135689562805663
0.7452686289538768,281.31986740836504,0.18857925459516234
1.1496103676798326,311.94548503979,0.18311450545699212
1.5421218957306413,335.4873662771919,0.17524044944279255
1.9046679833174511,351.3531524004689,0.1652516958236609
2.2231506530399217,359.09653161745706,0.15345394128757336
2.4896381881285117,358.50377853197926,0.1401584921707941
2.6972340962999257,349.597388434698,0.1256770959573332
2.8402137901264495,332.57146908732017,0.11031713881457826
2.915208476556633,307.729859281391,0.09437725630849718
2.9225722719713385,275.5484648839058,0.07814339469610615
2.86712474465998,236.7044054511029,0.06188535057008739
2.7545500446559674,192.0605453019135,0.04585380735171132
2.5913059740710134,143.60319207850537,0.030477583730876272
2.3861216650887367,94.3673951756765,0.016352631131173502
2.1486066617313733,47.38290760889647,0.004007006118810863
1.8873962436163825,5.415300817060046,0.006145890207209787
1.6110642281977392,29.330848193652844,0.013843600511146503
1.330956410934744,55.3692541272822,0.018996484081844647
1.05946135002034,72.05675473497223,0.021692764319864208
0.8077428684678254,79.60573548678056,0.022186137961662234
10.34330474647792,21.1501945313327,3.8324048355653972
9.64243139057844,22.878113806819314,3.5898222621891085
7.731279495445042,22.296267826269595,2.9105940564198653
4.640600172874294,18.857142830223367,1.8070491704307285
0.5532469280256265,12.2891912725023,0.34508418815882214
4.213103617833292,2.648802768152179,1.3621949154927713
9.248740146874992,9.65079664036046,3.1682644074060766
14.084197292245728,23.84692333516743,4.904531009400602
18.24748517111278,38.8664633410512,6.402133302680905
21.31144476540713,53.39429894837857,7.508185722661658
22.9416847172977,66.02743583131826,8.10324726631952
23.00476557950156,75.47286181554863,8.140991590242628
21.69495734943155,80.77199332443065,7.693608142698185
19.386665320309458,81.39839350614793,6.896917850760381
16.357241008408636,77.14162214992481,5.849647999288105
12.831554635222433,68.07543338468193,4.631657763840041
9.039471917168541,54.56892590402772,3.3240881042995123
5.1491407278401224,37.19495056890369,1.9846939479584567
1.3149528731360882,16.696736760182183,0.6659920241074057
2.3324938263130317,6.03804344352488,0.5885671367361227
5.702923801079246,30.039159446708315,1.7487746184473183
8.71522837728618,54.301077098059174,2.7871700934739656
11.315736985537653,77.82228297756431,3.6873088296221885
13.463429249766353,99.60747447769288,4.437492195048859
15.134108863573344,118.69852252420641,5.030959286779532
16.33073878221283,134.25580691936557,5.467675509313579
17.064082780427253,145.61415107118907,5.749491780547774
17.3578456395706,152.27468423585563,5.883365987468877
17.245719522380398,153.85133643002234,5.87833848336151
16.770036773334606,150.10311273602056,5.74551641763083
15.983719416861197,141.0048443545395,5.498468591703936
14.94129934188914,126.70855308358313,5.151062531954875
13.69767926575846,107.52457464523286,4.718673623065015
12.300928716545691,83.9184830046771,4.21668871153458
10.7889396502262,56.46897528485566,3.6604997322499804
9.196457128339347,25.889300112041834,3.0654840411134363
7.550559194541333,6.992805534377328,2.4460904501369276
5.870619478291351,41.27147049853933,1.8162948565518298
4.175336968694734,75.95468436873169,1.188926825619598
2.4848264393570183,110.0263648351848,0.5757089533279882
0.8277326601293605,142.48995704009317,0.012775622642931707
0.7614752507823189,172.39092976449794,0.5674073684307008
2.2513071717167112,198.8383408052279,1.0803006436216847
3.616309897839751,220.97098193706623,1.5450354819116854
4.840105109079777,238.01190245189048,1.9565563329083724
5.9086713281712475,249.36434503182528,2.3111257545085175
6.810955914303076,254.6188706165501,2.606365527233153
7.545654194465313,253.51368379818885,2.8410769576339048
8.119101056530008,245.88003108295618,3.0152497571728025
8.544539958470677,231.66276194677624,3.129921537426848
8.834491724803591,210.9820880291425,3.187073544727884
8.997778993534501,184.16730136628289,3.1895526342851444
9.043907074641997,151.75391390899273,3.1409107553321585
8.9829715033407,114.38403882590843,3.0453257226341166
8.827747562485158,72.80951723482507,2.907461331032847
8.586777623499158,27.96958289936433,2.732353379413643
8.262596664706763,19.075997132963668,2.525308008367254
7.859499972853841,67.17124567597207,2.2917755445545653
7.384434223912703,115.11351254832914,2.0372645928385626
6.852976455795544,161.7506193930613,1.7672372139205177
6.287620204031346,205.94981774675244,1.4870244535403299
5.709361340053553,246.63945550564412,1.201752499575703
5.137102914329821,282.8365350578313,0.9162674177052598
4.584194544566768,313.60809453157157,0.6350833801526868
4.058815209777237,338.1612628942411,0.362329562640615
3.5640996802937592,355.8888619036095,0.10171277754494763
3.093383146010393,366.3408929418891,0.14351027717096423
2.633924345929228,369.1921587014734,0.3705552509096283
2.1739869506291982,364.205699783695,0.5771178847955022
1.706022988470926,351.2845929777318,0.7613780458196578
1.2262913562678095,330.54080692883093,0.9219931751367054
0.7326629711243567,302.3166626320882,1.0580849566544075
0.22378318631549998,267.1247123754863,1.1692209363341501
0.3003687716090195,225.57694087966507,1.2553883551058966
0.8356418919653777,178.43408970145077,1.3169651781537643
1.371800796732986,126.62634350027089,1.3546859048304714
1.8960148358003457,71.23137325152562,1.3696045300430353
2.3961663647844618,13.438772909727948,1.3630556312304254
2.862346218850732,45.55542142991681,1.3366130712509199
3.2889994170060985,104.54268425703306,1.2920487459639367
3.6722724473836674,162.2711250838014,1.2312906963766614
4.007555373103455,217.51230705771124,1.1563819787691103
4.291282461961757,269.0618030727924,1.0694408563821747
4.520523812223436,315.76954997023324,0.9726223829240501
4.694853696455603,356.61130640070496,0.8680825143572505
4.81596466864472,390.67354429216874,0.7579445617809863
4.883175788623896,417.1744771288456,0.6442686585302652
4.897127972410032,435.49422983537386,0.5290244468134595
4.862221576380612,445.1383630290016,0.414067015338287
4.785619822904059,445.7754209888382,0.301116476868815
4.678144386604428,437.3090301531598,0.19174100236970193
4.548998478170931,419.8697944838557,0.0873434704919239
4.402941590785217,393.77122288969815,0.010848359712611702
4.242187627524622,359.46623728022615,0.10178830879962973
4.068502936611514,317.56847372892577,0.1846149155209676
3.8845150360513223,268.9042797733972,0.2586515436934096
3.688706330926091,214.48698161314206,0.3234036092670635
3.4745247856744697,155.44567286788757,0.37855320018013333
3.233641835579173,92.97984777580193,0.42395137670669036
2.9600889124425778,28.370406084538985,0.4596084008961927
2.6544049071751386,37.02578823181516,0.48568223545665606
2.3188936342805904,101.81764589703134,0.5024655852258444
1.9566219492798134,164.60650818498155,0.5103717974655053
1.5716179932624117,224.025158856136,0.5099199248038228
1.1678752268217982,278.7694374502595,0.5017192268692745
0.7553388595153548,327.6341187583442,0.4864534059168723
0.34501740181237023,369.56457179679575,0.464864825495789
0.05662994699402336,403.6621117894725,0.4377389618002362
0.44551155287576505,429.1595726460245,0.4058893108161788
0.8204435788680942,445.4397524612225,0.37014294509689183
1.1797676210474486,452.1119742154739,0.3313269018812739
1.5234817049635676,449.05991396560626,0.29025554635002565
1.8537411018026069,436.39899788446854,0.2477190366257495
2.1696772509863393,414.4024897872109,0.20447298823905632
2.4682052614582766,383.52759009192977,0.16122940843748848
2.7396976182110047,344.47556030091283,0.11864895067666079
2.9703580365638524,298.13752201448096,0.07733451079862232
3.1493494632027565,245.56028401149203,0.037826167848396534
3.269303734064784,187.91462448232562,0.0005974501514321523
3.327288590006078,126.43151805221336,0.03394711215260055
3.318532702214573,62.4419184807055,0.06547320215459271
3.2375921448780347,2.631230331455399,0.09371676984849288
3.085980358140856,67.33535005570198,0.11848300661283728
2.8729649847068806,130.21747471563705,0.13964433404133356
2.613035472715479,189.8858865898998,0.15713750911571542
2.317292305685704,245.04209413346425,0.1709599532788895
1.9950793321459657,294.5122976916936,0.1811654179167297
1.657692082062003,337.24345393564903,0.1878591001503571
1.315810763997605,372.2640143063649,0.19119232340536377
0.9799441227321164,398.76369754255876,0.19135689562805663
0.6557371810134071,416.1713474490737,0.18857925459516234
0.3466830263359496,424.15556873228263,0.18311450545699212
0.05912034878352383,422.5802499990604,0.17524044944279255
0.1989829314813886,411.4429221529062,0.1652516958236609
0.41734052251996945,390.9225938272618,0.15345394128757336
0.5875756356502807,361.4393227602309,0.1401584921707941
0.7044490816072875,323.66791857136053,0.1256770959573332
0.7649502259362521,278.5085493031956,0.11031713881457826
0.7678584865728256,226.96214853544294,0.09437725630849718
0.7107080713865167,170.1510847537851,0.07814339469610615
0.5932236691964177,109.40333412689856,0.06188535057008739
0.42058452862885426,46.15999188424316,0.04585380735171132
0.2098612850095009,16.75212026113066,0.030477583730876272
0.01368711863618046,75.26575584999233,0.016352631131173502
0.22954782102789614,125.72313414041086,0.004007006118810863
0.4198019175826078,165.20423498276116,0.006145890207209787
0.5684453869650413,191.80329487789413,0.013843600511146503
0.6656935967313553,204.7511536725493,0.018996484081844647
0.7089646009782177,204.44671881909363,0.021692764319864208
0.702221548750135,192.3993103203655,0.022186137961662234
7.794142215563528,73.8400734379384,3.8324048355653972
7.655139764691678,69.32139385854546,3.5898222621891085
6.719837245986409,55.603822463311744,2.9105940564198653
4.974296395685833,32.56059522256004,1.8070491704307285
2.496778630639757,1.2337751867123044,0.34508418815882214
0.5500435655129665,36.24762233892548,1.3621949154927713
3.935755192348212,76.91115062178773,3.1682644074060766
7.375328764182862,117.14638579087026,4.904531009400602
10.564963001523916,153.10461943514565,6.402133302680905
13.209969022401737,181.0473860678493,7.508185722661658
15.057261073955903,197.79442958526184,8.10324726631952
15.967450765697262,201.54382467831408,8.140991590242628
16.002208818747448,192.79016582839733,7.693608142698185
15.341839678282195,173.51231344336625,6.896917850760381
14.114658001810044,145.44781409007015,5.849647999288105
12.429814219585127,110.34289389345982,4.631657763840041
10.414025333682961,70.2273472943588,3.3240881042995123
8.165602527042402,26.93055409021447,1.9846939479584567
5.783026253390343,17.657794203266747,0.6659920241074057
3.35618224434086,61.72885292132642,0.5885671367361227
0.9593022902138514,103.68558172406489,1.7487746184473183
1.3314448952758118,142.03228098810774,2.7871700934739656
3.45864989426727,175.55301699670022,3.6873088296221885
5.377358810834527,203.17789828129298,4.437492195048859
7.06001471758408,224.040360971115,5.030959286779532
8.499424002409144,237.58053423553721,5.467675509313579
9.692244553214861,243.45633770150238,5.749491780547774
10.642526199564756,241.58960374448264,5.883365987468877
11.355518033179761,232.10298987390692,5.87833848336151
11.836762658005123,215.3260045773037,5.74551641763083
12.093843023411255,191.83220276774614,5.498468591703936
12.130185116514491,162.38051135320748,5.151062531954875
11.950100443423848,127.89194999186475,4.718673623065015
11.559297052672818,89.40933133009642,4.21668871153458
10.969597956965316,48.085387753367435,3.6604997322499804
10.205122397000226,5.15192924353334,3.0654840411134363
9.29416555493862,38.13476267548256,2.4460904501369276
8.266210122928142,80.51841256608219,1.8162948565518298
7.149054422522203,120.76437680375032,1.188926825619598
5.9665868993071145,157.68775805706917,0.5757089533279882
4.744482682698744,190.23024691271877,0.012775622642931707
3.506472164442581,217.50127244880116,0.5674073684307008
2.2717187075696534,238.76271456115506,1.0803006436216847
1.0560712030966402,253.4197549298793,1.5450354819116854
0.12709397542189746,261.022850970245,1.9565563329083724
1.2609908710150588,261.3179720828177,2.3111257545085175
2.3290432706533264,254.28882147173795,2.606365527233153
3.3169240928386916,240.1405428360526,2.8410769576339048
4.210233704843761,219.24000029224555,3.0152497571728025
4.995711599672344,192.10465949309736,3.129921537426848
5.6577663535341856,159.44023048749176,3.187073544727884
6.183101939487083,122.1015685683304,3.1895526342851444
6.565100808943542,81.07010338934309,3.1409107553321585
6.80504735406363,37.429126213745675,3.0453257226341166
6.913870023591186,7.686795238940843,2.907461331032847
6.902262041668002,53.08490286025093,2.732353379413643
6.7800479866747025,97.57942340906848,2.525308008367254
6.559287299023143,140.01575351007196,2.2917755445545653
6.2506313256495165,179.2425333137072,2.0372645928385626
5.865488968738311,214.20623854592534,1.7672372139205177
5.411870701597112,243.98837211887684,1.4870244535403299
4.893198334479107,267.8097883098925,1.201752499575703
4.315791758776549,285.0479849874185,0.9162674177052598
3.6932863436769585,295.17137259195624,0.6350833801526868
3.0456311941543484,297.77535941524377,0.362329562640615
2.3926039951104143,292.68859813860956,0.10171277754494763
1.754865386120232,279.98752041410745,0.14351027717096423
1.154115028111906,259.94753113630196,0.3705552509096283
0.6095676825171406,232.96665254430852,0.5771178847955022
0.13781476943360602,199.57782956937365,0.7613780458196578
0.2530264340897138,160.51091813304723,0.9219931751367054
0.5620616475257018,116.68443770772697,1.0580849566544075
0.7935589874435207,69.16629988723884,1.1692209363341501
0.9570206900944669,19.102905427049603,1.2553883551058966
1.057238999329329,32.30775432412532,1.3169651781537643
1.0963032835980067,83.8121596481032,1.3546859048304714
1.0803588752893116,134.15615092491888,1.3696045300430353
1.015728324412768,182.0971130256426,1.3630556312304254
0.9068191211096717,226.43704564958156,1.3366130712509199
0.7559856246309861,266.0866840837232,1.2920487459639367
0.564709818765256,300.0687281339286,1.2312906963766614
0.3362682674235427,327.56689305466904,1.1563819787691103
0.07957880018707356,347.9194306275489,1.0694408563821747
0.19085700450407042,360.56432841202746,0.9726223829240501
0.46001734538697275,365.1240932744674,0.8680825143572505
0.7101016840062361,361.45866603726125,0.7579445617809863
0.9190262108522468,349.6316291602999,0.6442686585302652
1.067542888045757,329.87638665530847,0.5290244468134595
1.1446738265528715,302.5429580079711,0.414067015338287
1.148012394758116,268.1297240852624,0.301116476868815
1.079516065928924,227.3461627784904,0.19174100236970193
0.9439746801242681,181.09284369602838,0.0873434704919239
0.7502978788879509,130.3951905748027,0.010848359712611702
0.5073497013174733,76.33546326410946,0.10178830879962973
0.22363148760877033,20.06176289156406,0.1846149155209676
0.08958031348638379,37.20383287735327,0.2586515436934096
0.42167384053389306,94.20559800854728,0.3234036092670635
0.7649296857447536,149.66870640928943,0.37855320018013333
1.1131566043637016,202.3467460185667,0.42395137670669036
1.461094090092785,251.0610452329985,0.4596084008961927
1.8020874007847845,294.7106966509323,0.48568223545665606
2.124168543292446,332.313386732603,0.5024655852258444
2.411336157058863,363.0087049035471,0.5103717974655053
2.651049305248948,386.0625030085162,0.5099199248038228
2.8379734226075684,400.9102952436378,0.5017192268692745
2.9711169363832113,407.18317681101547,0.4864534059168723
3.051682983773198,404.73951303525615,0.464864825495789
3.084444419412629,393.64368541391366,0.4377389618002362
3.07683161119894,374.10506599062006,0.4058893108161788
3.0367814697831115,346.52225241224585,0.37014294509689183
2.972901535850778,311.5228632451868,0.3313269018812739
2.890964455921778,269.9088063156065,0.29025554635002565
2.7921661423601747,222.61230471340016,0.2477190366257495
2.6752995892127727,170.66328754957232,0.20447298823905632
2.536734925198113,115.18616152010406,0.16122940843748848
2.3721233886432254,57.41012645498552,0.11864895067666079
2.175831159083349,1.3752960372080258,0.07733451079862232
1.93984132465307,59.86263480234692,0.037826167848396534
1.6578805155242917,116.74578282036481,0.0005974501514321523
1.3315612224806197,170.74569696236023,0.03394711215260055
0.9732687508558332,220.6502540663899,0.06547320215459271
0.5983184493015866,265.3556116464437,0.09371676984849288
0.22017976988248347,303.88158875602943,0.11848300661283728
0.14835773147522696,335.3684750934586,0.13964433404133356
0.4976482465844114,359.1058239880718,0.15713750911571542
0.8192523915007007,374.5998133147357,0.1709599532788895
1.1069853354570813,381.5857440269661,0.1811654179167297
1.3584403452819271,379.99006073660547,0.1878591001503571
1.572592300864769,369.9027596733853,0.19119232340536377
1.7481049384362464,351.5664912477014,0.19135689562805663
1.8784978976912667,325.41154651393526,0.18857925459516234
1.9565221104991752,292.0766551915959,0.18311450545699212
1.9787344530748128,252.35888400544906,0.17524044944279255
1.9446667209834,207.16531147172552,0.1652516958236609
1.8584241566205615,157.52330555344395,0.15345394128757336
1.7241503733257002,104.57682770392223,0.1401584921707941
1.5496408468872334,49.53448014282754,0.1256770959573332
1.3495035675347316,6.325753642168046,0.11031713881457826
1.140326978280113,61.667702928388486,0.09437725630849718
0.9388185297459906,115.17744244148078,0.07814339469610615
0.7512405575241244,165.5913474968092,0.06188535057008739
0.5754989609335819,211.73781714587804,0.04585380735171132
0.4144275075080957,251.57177276615388,0.030477583730876272
0.2734589580368494,282.3854479883366,0.016352631131173502
0.15658356188447678,302.17338182020313,0.004007006118810863
0.06398418343873015,309.8257290594836,0.006145890207209787
0.008896633840685425,305.2144948675122,0.013843600511146503
0.06822341239600827,289.1686787573116,0.018996484081844647
0.11731735876022215,263.3449734908023,0.021692764319864208
