10.461287916677579,7.098639303935697,2.7073834154028127
6.657503311637416,4.467243014273806,2.6014721592817733
0.30859979826588685,0.13896147342394977,2.1963420354182728
8.159029705026358,5.58524848501772,1.4752154366782433
17.841535118108276,12.086996614035883,0.4537728286472918
27.448588454311228,18.495250854705883,0.8032618604205888
35.472911600225146,23.80677684667001,2.1840401219759125
40.40382934491057,27.02130392440785,3.5490097296521093
40.974517719549745,27.305021611814077,4.760966668474537
36.37899031314189,24.137520729606823,5.6893847595098785
26.45094356146807,17.426644996983388,6.22624098811215
11.842924383615834,7.630840268830582,6.310167491416328
5.834530188279367,4.142803323817477,5.961335541224126
24.26066148493567,16.314628817238905,5.268792448420047
40.9584789299302,27.223336685853,4.315205622996554
53.621475873252535,35.357033825008614,3.170300985441007
60.404254551890084,39.53706167461904,1.907944792689316
60.27380959954633,39.12944208193082,0.62884059803715
53.12703464512198,34.116268613884074,0.5324536758003052
39.81834637174299,25.108602276232958,1.4894387831126545
22.067805350353602,13.272837468600116,2.2115387429650224
2.1894169811990767,0.16066368553515817,2.690208996622141
17.224765839057405,12.496005040836902,2.9548381126331638
33.6650803453937,23.04179098227848,3.0558173268563253
45.03471759773125,30.11353433387811,3.0514093417297046
49.924780705116596,32.81489178898746,2.990034410833786
47.8084635050406,30.84985716452369,2.908145378879498
39.110656551557256,24.558329396012454,2.8494818418558583
25.16561619980092,14.880806895299624,2.851599201967605
8.033963396286158,3.238775104777338,2.93961083072128
9.776879118446479,8.666610508508384,3.102245351650363
25.66745908741497,19.102542912027836,3.291532573204019
37.33246895047545,26.559412261841224,3.4580708172041006
43.08211258429833,29.962362532759524,3.5453171868570106
42.08595277432718,28.821926520529438,3.5098155440467504
34.49367528177103,23.294548172801424,3.334904387706755
21.398715167272787,14.148017952230592,3.0051202703772746
4.6744860341261605,2.657539580938848,2.5200607196947704
13.298207978061669,9.567455847450601,1.9031518214939775
29.97042213399462,20.81221638539411,1.1864454264419475
42.977965564893175,29.499725168161216,0.40899866624384973
50.4653391322747,34.40229957706432,0.37531419221057893
51.33998756379231,34.80823870669606,1.1015829041145675
45.42485992595459,30.63657700497036,1.713555548894992
33.489276061577904,22.45387455195315,2.173755997634705
17.152349616183404,11.390433822927562,2.471254913241278
1.3455892822998075,1.0142783784848641,2.6195979631075916
19.459403123888066,13.034907475243198,2.645092867278223
34.68697950380261,23.01306891474488,2.5766219091059477
44.93160999977314,29.59247448669437,2.4358867961146995
48.803354594569704,31.90706060182696,2.2588219992351197
45.8039097399507,29.687647066620205,2.088374497264078
36.40300098150059,23.28840488614364,1.9409937349641408
21.9749658233975,13.637941612086504,1.829798709998853
4.5978735065564456,2.117224330440394,1.761135353125644
13.241358497446216,9.621222204431147,1.7150382569341998
29.002335368084168,19.888855521445876,1.6786205767076292
40.44963397299539,27.20986511564233,1.645284160284065
45.95892729468512,30.5277552853148,1.5891214563834604
44.737298745893206,29.352871223224856,1.4857009161210035
36.92996252616211,23.836059096928565,1.3350927597364666
23.603555435598157,14.746828296350193,1.1389339970181032
6.607726381811691,3.3584775801192808,0.8909915290471289
11.681071978075094,8.73344404058192,0.5971464259013021
28.696983596254327,19.836303922816203,0.2614478611637564
42.04313216103748,28.397527487180415,0.12150825943276301
49.82829382883037,33.21722227165019,0.5390076664054791
50.940190803189665,33.615280472511884,0.9394870539681486
45.20344984653671,29.522893497591852,1.2576045444918351
33.40532352457391,21.486725450304867,1.465400317904805
17.189033412214044,10.600299289035755,1.5550770752546061
1.189928126493599,1.6391568488921737,1.5104223464655022
19.190066155592643,13.539244807301078,1.3274369773808756
34.33540616336239,23.453928749413215,1.0052545355052922
44.56704366782181,30.018974858250115,0.5597889195776724
48.52146333072022,32.342584118613864,0.0650992678933531
45.697610613439,30.12936298903163,0.3816285432643654
36.529655605556336,23.72144728415822,0.7078748769813353
22.33458594490159,14.048639064959652,0.8632597534226693
5.127184357817681,2.4970991809480405,0.8182566811387221
12.65189089706779,9.287584622815068,0.5839428193823012
28.472079383199823,19.636063805964707,0.20670946676187424
40.07744802975842,27.089713101006648,0.264245950899265
45.8109080436701,30.598399686530325,0.7713060845899217
44.845599645350376,29.66635073790798,1.2362225493992527
37.30498839730002,24.42644036218684,1.586911801288311
24.257761827775873,15.617344209985333,1.7822889553262211
7.560558352113033,4.480187316585039,1.8078639665926421
10.422896739448458,7.405680456451638,1.661312988954455
27.154609206631253,18.348866442804233,1.364900294425846
40.27008824416486,26.7936346751739,0.9641810445993236
47.91067437185402,31.538235040030983,0.5097722225920861
48.98556400717343,31.90279909930676,0.07241068884952084
43.313845984043574,27.824980191747873,0.27645324887093364
31.65049425039038,19.867104801378545,0.5061768717460574
15.599073536620184,9.138411330881903,0.6143176987857848
2.6123832842452828,2.8594187405701073,0.610312730377756
20.448251333467738,14.44807286911306,0.5088542879942896
35.416834726610716,24.011783876317814,0.31517210526534817
45.427626444287355,30.22285370952199,0.03524517716224822
49.09302963368691,32.22605745410875,0.29867865668239757
45.91776741975186,29.75519824747855,0.6274247288809611
36.363515639042426,23.16845610139591,0.8915904967660825
21.793610688960808,13.395889227536207,1.0464933929742748
4.28521555568411,1.8093903507862543,1.0568335452921225
13.679162824266125,9.964749580382227,0.9002335962271008
29.565321650753415,20.274843994409824,0.5749141174650497
41.136643674220004,27.676650212137815,0.10734710328120381
46.77348991813824,31.131738486480433,0.44671846121033504
45.697489031201194,30.153525728292625,1.0206555172425347
38.06726393661501,24.87745319582707,1.5460961412246033
24.954178622025875,16.04153686781555,1.963779582984636
8.201279116774032,4.890685279498545,2.2380283824180514
9.827203335689426,6.99161233370122,2.337974023322935
26.5791268328528,17.914170675246456,2.239119551000391
39.67153881660938,26.32283992264679,1.9530500974053853
47.22569203311723,31.01793150745063,1.5221283161126575
48.144117945704494,31.32217529285292,1.008922257760828
42.273137287645774,27.174576273628414,0.4952033546851398
30.426174254146215,19.135774629220524,0.054815313189367214
14.267960188269994,8.311697093527568,0.2739928200538487
3.929297245798383,3.7913265582429116,0.48398379978806877
21.616920328310584,15.475106514565171,0.5850285133104787
36.332290655429006,25.09407054454874,0.5966317970185702
46.03581344352984,31.286067524046093,0.5398360524517651
49.38092711176913,33.160062357643255,0.4416128808740265
45.89065426176135,30.42436430515511,0.3352336672581051
36.02750058864583,23.435077866666465,0.24930149475233399
21.144554448788412,13.152993431289529,0.2170852847692692
3.307756363550163,1.0146989250092207,0.2643565637363076
14.985115081386715,11.271636334321597,0.38575405547168273
31.155897944331286,21.978604680975955,0.560190310800926
42.92109555940841,29.61038050391515,0.7581795654597112
48.62019915309617,33.114167040775776,0.9519403036881019
47.457541090257095,32.02280674548109,1.1217496878605837
39.616521702378144,26.510057911173206,1.2342427410851011
26.21898614709865,17.361926233201835,1.25676965321804
9.157524145684642,5.8680244696498445,1.1748663760741451
9.176165702770163,6.355194780538697,0.9859559734014725
26.228746087521493,17.592655576757032,0.7067643430038195
39.631797189985804,26.277737367301444,0.3648165291855995
47.52088649729622,31.203757585792435,0.01761030454348123
49.13290057764457,31.912053307085724,0.409407272411982
44.88186119669594,28.73626735906333,0.7608692966748866
35.901689440107745,22.484955156956605,1.0265443664732878
23.836530272138628,14.293217550095632,1.1835920964850457
10.565175404625819,5.432386010640981,1.2306977122643055
2.0905819816359643,2.8908765447384903,1.186684362902964
12.618720677015958,9.701731799363515,1.0753599687748887
20.004142818895527,14.370791550412106,0.9125092042133404
10.32948127774038,7.07141172422674,2.99813807668648
6.452101644108045,4.466437108411093,2.862645651443449
0.04135268542168831,0.17926732898230635,2.3742867751931076
8.468477109292825,5.501284717315548,1.5217601492498212
18.175122593799877,11.977573287257783,0.3425845889055633
27.79066711117082,18.396409072230593,1.065465152711197
35.8087858741409,23.758904715475108,2.568470936976409
40.712899896295745,27.056804020385538,4.014862027049926
41.226182769788544,27.44177260300783,5.257892543933077
36.53374497874614,24.373647469802393,6.177519824057254
26.46513700598765,17.744958381223462,6.6814964623477895
11.681728341376262,8.0066274501928,6.7185896570191215
6.186500512322143,3.740810014388059,6.3220666455814465
24.79486006044456,15.920977218651265,5.585451429935172
41.642022345796825,26.875316059044447,4.591291926516137
54.41354303314315,35.09758539464805,3.423472717098926
61.278556546179196,39.412220656677995,2.1690128545862666
61.221042446958215,39.18336502511333,0.8931546518244183
54.144840092674514,34.38338737735307,0.33604150980900466
40.90245440015256,25.604554800718503,1.461630690566035
23.198117213724544,13.988788565797725,2.442463557004681
3.319301703345471,1.0618721704310505,3.2367816121618285
16.155048531726614,11.459627328226354,3.833530519729736
32.708599977471316,21.918363117398872,4.240572128656181
44.23695256643315,28.94784557557927,4.462647524626872
49.33220216013407,31.662011157242354,4.516661153532543
47.479169351870134,29.784380487724672,4.431370012997994
39.117580738760516,23.67554462347986,4.250588657749017
25.590127876348483,14.290505170302914,4.027600323140909
8.95124252633408,3.0450967007191543,3.802426942165212
8.327337660769773,8.3930542331656,3.5849270994438283
23.70114272402166,18.343379053888075,3.364905876839634
34.92244329398073,25.35701076598705,3.1489098539343674
40.35877430538233,28.415727422829352,2.9453116010620257
39.22044873837723,27.064543913021794,2.719037137339693
31.66791429867824,21.47390533931056,2.4126220153542333
18.7799825500044,12.414390313967774,1.9862320471497932
2.405020282028782,1.1476368859624784,1.4148022069753554
15.10310273951302,10.747881989872187,0.6912077705587549
31.228844695678493,21.597129874311104,0.14644982836218365
43.64591249173784,29.86716058872975,1.0192156954304787
50.54511272642823,34.38324043338402,1.8473091369478818
50.88851397112622,34.49343553932476,2.567060120109937
44.541315406085864,30.15925929675832,3.1189479515412746
32.29349612158553,21.953931937055277,3.454476268096172
15.758904785496087,10.984528638521342,3.5594190093743823
2.848097854772331,1.254504740489106,3.4567642038751023
21.01175956765121,13.095662899076116,3.1864597062678044
36.25598367638522,22.935581753251856,2.7818523957249415
46.49582819199475,29.452297653731314,2.271475443848438
50.34590726415057,31.786189054586078,1.7064487670983275
47.31653433205651,29.659830288292238,1.1717105489411037
37.88214158700577,23.411739008591024,0.7461702148838505
23.422330425361153,13.951385898451559,0.4474877221739604
6.016005698446677,2.6430336826947594,0.2585526740957091
11.860678222347754,8.887132250814016,0.1827952229411631
27.68079560003733,18.984829271837754,0.21077559034956866
39.22052544227911,26.19758410122179,0.29461619024273866
44.85998113659434,29.480547037975057,0.38342484096963375
43.80093763971561,28.34361444756063,0.438905913612384
36.172347824078614,22.9159170122454,0.43170650541797
23.021393827765046,13.932021165799718,0.33673316926486213
6.191007189970317,2.6416388612479027,0.1442479302759526
11.937519958396487,9.357630697485474,0.13281751001696782
28.783081579325362,20.35298721877179,0.47168618875193846
41.92415956661175,28.771589170555572,0.8350663909180405
49.45371295430249,33.40501669511969,1.1716188007121162
50.26492950667101,33.57552466908726,1.4186883295108972
44.207665274452374,29.231374714731178,1.5106995760753335
32.10136288537456,20.952557022189282,1.413210506347672
15.615305430473565,9.85858481485043,1.1263350621441788
2.9749023585867804,2.5437908421985767,0.6698869338510504
21.115999141129144,14.555312242968288,0.08826167124727702
36.323179995165525,24.527557891842722,0.5455721606240211
46.52167513631207,31.09663440728777,1.1436928692353399
50.33599851446123,33.36672001565372,1.628155585337996
47.267010619134005,31.03882079126058,1.9437316057732117
37.76525261277793,24.45477670331965,2.060256127621627
23.182337529280996,14.554576266239337,1.9721864509240647
5.585743410039044,2.7522742154540234,1.6939575789610477
12.530031314977599,9.270941174239645,1.2550551575586437
28.59749484263541,19.816672110841314,0.7030111807016707
40.34026654078797,27.412515291298536,0.1005737106283849
46.09986317628265,31.01424283049678,0.4956278602233599
45.0776441071882,30.14189498342767,1.038771201801247
37.447597303198954,24.93958124523653,1.4841210355549426
24.327801117491777,16.151719012630025,1.7967725829640058
7.61162931204481,5.017469229542357,1.9638945579037999
10.31347010561109,6.893757836705488,1.9975743323592454
26.900512807046756,17.888733871613184,1.9175181891066815
39.79045953865333,26.391057136426344,1.7439852733327699
47.1442926089842,31.175937619855404,1.4949045060411958
47.89979469888983,31.543918775557305,1.179927184328655
41.909602011340645,27.4210409683875,0.8305172684452882
29.966874666842806,19.377751176976904,0.5029490384293887
13.712708510213783,8.552003000469854,0.23455943741522434
4.591905440921614,3.509411021941261,0.03555318754930928
22.388097407631133,15.080875450109794,0.09225975307669589
37.172741528879385,24.5177012392758,0.15243484913238045
46.85633602540607,30.484293054446006,0.15672645352330059
50.075183124404646,32.13751974185439,0.1260276768321276
46.38452761724852,29.241086457885217,0.09902357062606364
36.310369490532814,22.189179754108917,0.11817317293734685
21.27266530836813,11.95184070381244,0.19808553467360324
3.377180001140929,0.05320060044901668,0.33132074946415346
14.891802249783447,12.146412065680115,0.5066818591677331
31.01057866781278,22.617806039452244,0.7140606098094983
42.75615819916936,29.977477101325434,0.9393802787311845
48.51480028666098,33.168250152002244,1.1505177946496539
47.503997340643544,31.716289246952382,1.303515753325434
39.87489335029497,25.80477202774351,1.3546609989878668
26.694152304622538,16.25315654626067,1.264965317679155
9.807605723230395,4.4016206698203,1.0212885444153659
8.415223511745726,8.086709712021882,0.6491153289957972
25.415851848529236,19.470654301064204,0.19132601794705031
38.80544057225887,28.180847980710606,0.3079153042903126
46.70643250030937,33.02746887063981,0.7926426339205488
48.024717124567005,33.351907269743975,1.1982099404508153
42.59841152128204,29.12026122472227,1.4700363815989064
31.207697699045763,20.92514919897036,1.5772905426992427
15.463335277998516,9.902016776444354,1.517004280849533
2.4212600424623263,2.4190619327813456,1.2915991720773738
19.941325307350905,14.322603221433335,0.9088904971457457
34.63976268068496,24.153157498483317,0.40870606796741643
44.451816814457864,30.552945177938234,0.1511874465968516
47.997185688834385,32.647021721119444,0.7103950481812897
44.765635277801636,30.160979006437287,1.1987306428872122
35.197288929552094,23.461271931080756,1.5471148614741774
20.62772058564993,13.505333017590592,1.711585477675868
3.094451606392376,1.707330502746334,1.6830521452206724
14.945075032454291,10.269173596576751,1.47932720690502
30.954280336332587,20.752224237076096,1.1381697908929191
42.6755535770488,28.286328127891185,0.7055179190260227
48.451645502386135,31.822348382591056,0.22712310122783377
47.459197501100775,30.860895307735113,0.24373954553515453
39.81901393956801,25.528304543450115,0.654579537489279
26.58306706386534,16.561986055957227,0.9667915299452553
9.59207868218216,5.208791117713511,1.1443221855894958
8.781008198128443,6.94031237651577,1.1539119236720534
25.961998610670946,18.171392405648582,0.9878399535447797
39.54546501588236,26.896356404051552,0.6800202026006618
47.640667974950645,31.880298690269466,0.2973741573577498
49.472269253382855,32.6431518652033,0.09882299558474478
45.44178831563124,29.499298076652735,0.45752531459255386
36.661499305686824,23.240207770268587,0.7273567255490867
24.74744498784763,14.986876932527418,0.88272254733255
11.547126318345244,6.003597135588442,0.9320527867126122
1.1397595890694514,2.4952025516884806,0.8969039576993941
11.79885608461572,9.515309653954164,0.7964720246607668
19.385925530090567,14.39613276477375,0.6495402392319491
10.415903853633443,6.979034459893591,2.8928275662180845
6.62278244688697,4.34673082457958,2.717245560122697
0.2871693987805167,0.020803681893559998,2.203934446243419
8.162912409482134,5.691954436649644,1.3576679008761416
17.821381887625485,12.16772072909151,0.22088928135816788
27.395805710930595,18.532761268927278,1.1222761858306765
35.38341835554891,23.782976852652446,2.5558669692982843
40.28195974264409,26.92051697395322,3.9443194032102746
40.83441868930935,27.117754563692746,5.144790149249208
36.2423438937113,23.86059236063217,6.020353416085563
26.339200400628183,17.067230054925915,6.459599816807238
11.774247215313732,7.210985370589942,6.411154135505489
5.848384800393537,4.591793480033086,5.920726667053605
24.22012606850216,16.76119983929786,5.094644205887827
40.872395114209816,27.639531141784207,4.0291540166743856
53.501714088447464,35.718961548093866,2.8102799040835653
60.26947414364447,39.829602710628144,1.5287586014570136
60.15289648599184,39.35403756670523,0.2835068269392509
53.058617539617245,34.292932565846186,0.8291899240147599
39.846421611129436,25.2726474347685,1.7481132868050564
22.227346713417795,13.459910590518366,2.4361522517482093
2.4920494411140757,0.3808334354237801,2.873590802118093
16.79351536492246,12.269446377311246,3.0797313141078035
33.14465869724848,22.86633685184757,3.1011055819570257
44.485122867739115,30.067138961643206,2.9913678252591325
49.41615968506418,32.97756102850286,2.8085730222138348
47.41170631282472,31.281854065720452,2.6195370801039926
38.88572370850959,25.290208741274782,2.4910943870666795
25.153144959374202,15.915146664784332,2.4660393579596582
8.25518256428802,4.550286267329643,2.555391374787185
9.328393276040195,7.132991939151693,2.7496707026515703
25.0273831693288,17.431243349922728,3.0148116475444735
36.54935519637583,24.863185120263648,3.28425740778318
42.21188034075389,28.371158116624052,3.490647040300131
41.19397712700993,27.462889546750795,3.5878930632088615
33.6418664242226,22.280749375683406,3.53302984077658
20.629586313470337,13.569177517416847,3.2908836447916667
4.013015485107616,2.5652818900130665,2.860691102678271
13.835039307595986,9.165273117755984,2.270300331254907
30.370992549221278,19.94530118901109,1.5467772633984829
43.23221496832203,28.224446902182283,0.7226220442210282
50.56062848412519,32.79691125730715,0.13328567633916447
51.26279169961198,32.972990079999654,0.9169198207603497
45.165131853132,28.68385151312573,1.5296550595357215
33.04104397624973,20.501151364356076,1.9230533112484103
16.511058540920647,9.560968662041502,2.0983235806412783
2.1757717490664383,2.602622685319527,2.0926904511070568
20.454986672947253,14.286524233792035,1.9717323943747922
35.80175200023656,23.868874036016184,1.7999484644599741
46.0952459710406,30.039377196075502,1.6466420187158157
49.932847797460475,31.972947572169986,1.5953753895459521
46.82630839878271,29.432409292033743,1.705257079098422
37.26903679052765,22.797583096490186,1.9902558617918225
22.658861158458688,13.008448353268937,2.424269431539347
5.090056813173761,1.4373765408677328,2.943781274168712
12.937332549936272,10.28737895464423,3.4544379669475003
28.873250657430475,20.507479364384857,3.8667671829874797
40.4821345709986,27.77317951060416,4.116854168346116
46.14384854970475,31.045110053986352,4.135953966852978
45.07020205575559,29.84119432236505,3.86159315467875
37.4123330138801,24.308801971605938,3.2845558528238024
24.243509163720876,15.207232897198672,2.4601249846114093
7.416700959289769,3.804393077426186,1.4787968106684224
10.696662099556132,8.302285740553716,0.42471800795301545
27.538476016978443,19.42098834738573,0.6198586053228107
40.71966656745812,28.008401822979707,1.5718483809024
48.367208998530906,32.875581214395105,2.368162700704531
49.398714814031415,33.34619345702923,2.952671871799766
43.66075760749566,29.34621273357435,3.284124540584422
31.943723092051876,21.409551821026106,3.3659959999960285
15.88400641603481,10.612324213877995,3.2377244167854347
2.275971299636539,1.561329681499682,2.939966028501646
20.010249350376956,13.421761703581303,2.4990051765452423
34.8530356685804,23.31789708926338,1.952065748979136
44.750109937626505,29.876592122759252,1.3563832715342239
48.34552520844923,32.199571594984384,0.7796145021908271
45.15581839532639,29.987178198988236,0.2936142803648468
35.63454282040798,23.572699017701154,0.048393286639260465
21.11605167925522,13.87671385016031,0.21902858474876544
3.6353711902217936,2.281582530095449,0.22150196446831918
14.353146282869076,9.565636674512326,0.0933231789103318
30.315637098525862,19.98589730886655,0.12150476114737771
41.9927318136705,27.50481813108513,0.3837262071241571
47.72277571464758,31.05525657387491,0.6421135931239644
46.68383024065648,30.122124503650333,0.8304448379661177
39.010369557753705,24.823162564205383,0.8866298308726657
25.772188430525265,15.897992106911143,0.7781630317364616
8.831387202071467,4.605132015865491,0.5164293493109584
9.421844191123999,7.4496703350960525,0.14243329735175758
26.42083959754857,18.546778750387695,0.2954799764469062
39.78516324271706,27.108104380435694,0.738010885347218
47.6534491923493,31.916506309653098,1.1210397124758231
48.93742407257388,32.283005912001535,1.397436258973777
43.459933814668794,28.145920136240715,1.5390033856072884
31.982833023193393,20.072454336256044,1.5397683732256253
16.105040628756402,9.183248870423297,1.4132249900753955
1.95979186398301,2.9885839931362708,1.1804786622779664
19.683275720035947,14.720603957792411,0.8777016838822802
34.5708631526616,24.35524838531012,0.544921012663709
44.52164368485405,30.5325562050168,0.21031344736210114
48.137904029697,32.38552756258178,0.09205455662777982
44.916680110600815,29.658542126131703,0.32498781770255764
35.321230373208735,22.735091894623366,0.47056943409045343
20.724121632646167,12.585281147714037,0.5306618367458867
3.1988865618997897,0.6346725321499274,0.5191121144252652
14.779454364878488,11.432895091862783,0.4529604227010735
30.680309074957574,21.916977808837867,0.34766125149860466
42.27737851715197,29.341867664139663,0.22975409678703457
47.95562381350621,32.65580736349462,0.1311034913930979
46.92523096699288,31.374550405243152,0.06456726932847412
39.32240635357973,25.653385059313823,0.030618013577964016
26.198229288902628,16.272070665813928,0.024357586913791567
9.385869347211463,4.530950493970931,0.037548232118216056
8.758377171504353,7.925429660708971,0.07382272994176829
25.682811103232513,19.34440223945775,0.136955564786048
38.99450126487771,28.128880665300716,0.2169060906494036
46.81039043106724,33.05836873938462,0.3073672095809771
48.03469371552373,33.45048791886165,0.4091793580710854
42.51012109015273,29.26155876220569,0.5003611251244218
31.033861060957967,21.089118940230396,0.5297260686334918
15.243001927864336,10.081885572830279,0.4516828610188628
2.6254946507421315,2.2220163939838096,0.25974623383948053
20.06056982965822,14.111822162014846,0.01301984437193194
34.62291339630638,23.945276418742033,0.3222711551168586
44.278419399304155,30.376435695082243,0.6203755102543901
47.677778705838406,32.5302493090544,0.8645736159133188
44.33347368486559,30.119575465327188,1.0379517506616633
34.688342384597696,23.49356562538473,1.1282040382171779
20.068666734833055,13.59561286601853,1.1067167828884388
2.5118244743367275,1.8401123174631384,0.944345105004322
15.51504107706307,10.08790845524477,0.6315039334294987
31.465940119214583,20.48472675046101,0.1916329521481009
43.08347373825933,27.88110670108235,0.31687794445528183
48.7277041601615,31.24929248273233,0.8181827802948941
47.60980290224101,30.13396631024849,1.247964217006834
39.89812989372271,24.711426200124773,1.5535674374585693
26.68872930879596,15.759543721742796,1.6808136630881796
9.837668107959288,4.538656577770715,1.605175609093629
8.310043185813985,7.381560171164064,1.3590056359755212
25.24206596517892,18.337066707284862,0.9978025776628555
38.62105233449799,26.792752534940018,0.5601783546606365
46.603245439943336,31.545595109842914,0.0835687110213575
48.42183209405839,32.13017172512197,0.38125255981763095
44.46336257033337,28.87012295271671,0.7910111604480461
35.821794285906684,22.562561408061256,1.1128977388528591
24.096426506172765,14.330839384384923,1.3157662961241188
11.12831166283733,5.437617658090789,1.3845409649583025
1.2865938795679848,2.9103713592650386,1.3336951016265577
11.65323797649364,9.73714694930941,1.2002225124018446
18.966359358060654,14.416553569729933,1.0232418821927671
10.476256066576601,6.956250929575024,2.965861056991605
6.559493206396131,4.2952592429714285,2.8173443053532337
0.08871682981622649,0.03689772657247412,2.313943563741066
8.492332514216182,5.747863008319107,1.456590555539992
18.261364808263796,12.232534394990841,0.29264977684001875
27.912461947300525,18.62481269065234,1.092135759277966
35.9315793162062,23.917557200667037,2.5820939557532374
40.80332793770447,27.101445355231178,4.032103498221483
41.264355606669795,27.33399221190452,5.285769337181627
36.523107185595535,24.091463373194642,6.199841983068817
26.430553488720726,17.291653648793893,6.665040497639936
11.663381976692541,7.412120924642614,6.63316445942577
6.139079146743649,4.425821063895278,6.1510539094006385
24.63918379577767,16.63630541115693,5.330120283037254
41.36260117476246,27.566474187314338,4.277118136451853
54.02031076549479,35.72315027807254,3.0908779964843616
60.79108494816179,39.94257362985389,1.8608807587156284
60.66503621942963,39.59694491019549,0.6556552633566654
53.55338400487156,34.65699547550599,0.460429610660418
40.307914175020535,25.7124864742577,1.4411550642582354
22.62827952111219,13.909887806837473,2.267045017021162
2.8052253663597506,0.7830213286257471,2.936823744663889
16.580899875788198,11.938066673321108,3.4641256539174154
33.02822616734168,22.589556094889566,3.856334050415558
44.449431929778115,29.80884910173188,4.117629977803283
49.445582429477064,32.70805656435962,4.265430743917673
47.5051394035892,31.001812067712283,4.318503442316754
39.05859637390648,25.035655428137066,4.279203499664277
25.42717608490975,15.742150341198194,4.1380091620544786
8.644836485680049,4.510411332469513,3.894368004212281
8.830199417656766,7.011302645065259,3.561177366664992
24.45463152985014,17.14186062600666,3.1632068112275458
35.96087296403984,24.419453483531605,2.740795121474483
41.67853650684624,27.80985150555182,2.3335751440137646
40.77602698722208,26.840590918071875,1.962021768781931
33.37914482055498,21.658068337775855,1.626267392521976
20.543916143874988,12.995535208688803,1.3070381326548393
4.103480478708772,2.077535675684814,0.9761390177243616
13.59483400509621,9.54371339462399,0.6108008068195525
30.02375011448543,20.210527185568143,0.19569334589872983
42.83151716917581,28.391037678495668,0.27463634295191836
50.17254783952285,32.8922071632359,0.7849126314317227
50.962623730975395,33.03136065396061,1.2970604276203124
45.02707178350252,28.74031723658638,1.7676362746185674
33.12704684865871,20.57848870592626,2.1607526455601938
16.85884856568141,9.659717396289725,2.4472813587971296
1.5650963794580746,2.4964152086091613,2.5983450313508643
19.62587547665891,14.194758204377885,2.5871799848831762
34.84715987916133,23.819629899554936,2.408052084553638
45.14207620204361,30.05739001397612,2.085482416726294
49.112674577661906,32.07618955145413,1.6749424826615766
46.249902412299356,29.631609709544723,1.2526826787464438
37.008914375749455,23.091286989919034,0.8877384375575104
22.741784402629264,13.387096034897725,0.6359538614154001
5.502909197672455,1.8936829241590984,0.5368769008523994
12.237922059312009,9.750484482362339,0.5895464199165187
27.948977843895264,19.87682027126314,0.7547749645824781
39.399343701331645,27.034353909901647,0.9800297849318932
44.97249705191696,30.189478857279806,1.2135336012969642
43.88462605344799,28.873105706318878,1.4100821490932773
36.281764702056755,23.25317011798801,1.5324964975122586
23.222578355612267,14.108516507452132,1.5499077114856092
6.5408519073770774,2.7220211385690436,1.431201693114206
11.409122298993195,9.298303728830403,1.1540856432674649
28.08358165591542,20.252263438671946,0.7299381919681146
41.106075158074546,28.594564293629777,0.20478044704565931
48.606211806557134,33.14425830969675,0.3473550042885436
49.49305094234349,33.23626328144515,0.8367682398578012
43.61406193649418,28.82087759403256,1.197636766894074
31.776685948517525,20.474166245066126,1.3988162633415582
15.628058031280892,9.315757013560157,1.4284341254548636
2.5891067929880647,3.1344152778043757,1.2940196025075903
20.352667467608466,15.163994737303373,1.019146483261313
35.20860531032628,25.115778513884692,0.6500424880100029
45.11921173537803,31.624964582524957,0.24999555278438973
48.74188065007627,33.807476333606616,0.12472709253698365
45.59356758687061,31.37862490237951,0.41854356216746713
36.11756894145945,24.694403031489113,0.5724527859972209
21.63882620844081,14.705129251909847,0.5401847242547234
4.188168813784748,2.8295363089114707,0.31446664762479837
13.774486039459275,9.245752479205922,0.06595418662879518
29.70282327437695,19.818012390555193,0.5376957888895503
41.33267049330202,27.412096414358697,1.018899242520109
47.01176567932211,30.983214593458236,1.4313842157623895
45.935725640454,30.058847307326232,1.7178688237081887
38.260939899531444,24.801368214810072,1.841752507116751
25.07419546550422,15.981461398962907,1.7967347362548836
8.23079320152523,4.8619971496802155,1.5853167368879653
9.90523107991408,6.973919734267928,1.2241527974626893
26.791414947059287,17.83736935291139,0.7563204451974999
40.060151492453244,26.179417935149043,0.2252644624671659
47.84480157562182,30.806488632453664,0.3142463831657139
49.04207485685518,31.040839980226966,0.8009385816329131
43.46603532597102,26.8226702034026,1.1831923613835487
31.8783136755076,18.723342652369396,1.4159488334460082
15.896349708715901,7.871471595201314,1.483522706816677
2.234567324915786,4.1996100737470226,1.3943580212866684
19.964925116691116,15.775687463148556,1.1707489987737
34.79886091461028,25.215891581452933,0.8464802937848545
44.65525368527706,31.190164100596313,0.45422292710533074
48.16932210998898,32.861538054753986,0.04615765154416247
44.87611404514154,29.996789221133255,0.3137752625141208
35.267438172081874,22.99630026744747,0.5767593963125773
20.71998085958758,12.8302050606349,0.7071143385653815
3.2967890693713247,0.9020762042185234,0.6953375325607742
14.540294284623991,11.136492796831641,0.5642919033598188
30.270551918928067,21.614223268154692,0.3442135541533353
41.67492256348048,29.07701584929945,0.052919898690752434
47.15250865247045,32.48729331307575,0.2802469411633123
45.9355966412039,31.368094556504737,0.5971965551821131
38.18751248683086,25.87880600455823,0.8429293673324095
24.983647349574216,16.79530481160251,0.9750021906566055
8.162964570650765,5.400614302128035,0.964825514961153
9.934681594774037,6.69158960824859,0.8061774124806154
26.789114891694695,17.77423476809951,0.5005552341276337
40.04075503995095,26.298968786895642,0.0726464876214506
47.821102266608676,31.087412092051192,0.4189840509646298
49.02239145079225,31.48796816576193,0.9054208901023084
43.45763785928996,27.463071782844874,1.3173794444012072
31.892293588031468,19.587570575806904,1.5999468865030904
15.943444119358634,8.962313487128188,1.7135785945553568
2.1525009801762005,2.933359711907051,1.6325554400751228
19.86245219433913,14.43447703600757,1.3622644834628317
34.717849164743384,23.923559282559932,0.9216498706437526
44.66377442173134,30.061634668761634,0.33633782057394446
48.3392439993578,31.973893867774258,0.3375367535092607
45.254876533917376,29.378817713235836,1.0211200021017317
35.852670471203666,22.634382712002743,1.6318916594116897
21.45130634636685,12.68864873468139,2.0890458920419253
4.072098520533792,0.9482676650182453,2.3247259274641685
13.842761926192793,10.92555863389458,2.3108096771780917
29.763097448904713,21.26308196277571,2.0656167563984393
41.42561581180357,28.622176545227926,1.6262097629385308
47.16821595321541,31.9812915699016,1.0394494066949393
46.16926616517777,30.876710280143417,0.37291826202669387
38.564029165588565,25.463768517123174,0.29083178230846063
25.428184542229236,16.49067935433879,0.8716994911846635
8.623289012508625,5.200732169099683,1.3062145385188813
9.473551486981217,6.828265153143032,1.5604766084388737
26.311725259753015,17.903035416390146,1.6367738275124455
39.52680491176872,26.461929474606844,1.5581623667092535
47.26934011477951,31.299933160943237,1.3611444957810923
48.79213354944348,31.960368716033013,1.0981947789699216
44.51283354985031,28.773827972249112,0.8197676710883202
35.554692274643635,22.54204727769923,0.563818311468095
23.53702193895242,14.38349754118175,0.3642398773557564
10.310750141423126,5.5486502917203095,0.2418420885920803
2.3219954220149552,2.768532745425342,0.18944344638781302
12.855936814713088,9.599251117662922,0.1814911426313451
20.26600238128755,14.309639092448025,0.19713796193237274
10.529143197863895,6.883650199469525,3.0020225079586407
6.681560847287114,4.249538284816237,2.9231309014620113
0.2789166965322242,0.04723057091122332,2.5084979785890975
8.246236139966626,5.70825669334567,1.7655462622914393
17.981729027988525,12.125867478243864,0.7267734461324251
27.629439572568387,18.442425629639818,0.5466413050988345
35.67866604842546,23.661454804344576,1.9582146937695615
40.61237627754812,26.784090225361577,3.3862230789491883
41.1577600364537,26.9789984724287,4.705485785381628
36.51281769813766,23.72744436934957,5.794661626378922
26.523631539712557,16.941683043615615,6.541610341212551
11.862256042177256,7.094362937726604,6.870498228337786
5.837566553127028,4.686654338144624,6.776601636506246
24.241693269967996,16.807604862804027,6.304059014789249
40.87781669823233,27.607965050641354,5.502578581029326
53.459344204590394,35.589322338789785,4.440206020385312
60.17243023211988,39.599736667865265,3.197975576906888
60.020121704763696,39.04054411574564,1.8564490803870117
52.927324608016455,33.92150740221638,0.5033706682564502
39.757124393110644,24.866546279097406,0.7878032920232578
22.21370531759893,13.042887596527004,1.9458457613772029
2.5788448127738515,0.012261632800558888,2.88851949997795
16.59022134577224,12.590416657351028,3.559759090431438
32.82168817604536,23.053820035903655,3.9500713731392314
44.06039602968966,30.0571028281078,4.096002129335775
48.93142773520309,32.729192642099875,4.058627587545465
46.93071996294612,30.79865324029368,3.910615784098318
38.488926000509665,24.62482171771366,3.745917617098792
24.91955729675579,15.155667817350428,3.651436675474009
8.236547143829158,3.7991520008183213,3.6710802656253056
9.124666064046302,7.7790033609152305,3.804808679465982
24.643677206560472,17.90313078096685,4.018064691014236
36.07452947149971,25.131212417472188,4.252798406179885
41.76310785002416,28.442595510600427,4.437565305633393
40.8863390136162,27.371830823179433,4.494020713642153
33.564650293096406,22.070688840780438,4.352710379470097
20.839584767516524,13.280671949178455,3.9721995585617975
4.525633654025121,2.2311706844661208,3.3419064090258903
13.056075671718455,9.520716835678012,2.48688413549274
29.401409568530127,20.306656090205692,1.4719989172990968
42.171124090104705,28.587224792434775,0.386087368987748
49.523090255859124,33.162358261008606,0.6732542482449377
50.36383831600994,33.34263400004371,1.6183596384115806
44.500573869470145,29.05594601231005,2.387064005350509
32.68155861787407,20.860041583015956,2.939032440525127
16.505755770566758,9.872247591584882,3.2518491550860253
1.804527002232332,2.385565005886821,3.3306162951156555
19.720738121069957,14.20853714723174,3.2226872788153096
34.75491508518575,23.95723177084123,2.9948615182471148
44.817612369537585,30.296627627497976,2.7040346750214423
48.5241911206845,32.372831708160625,2.41099335862492
45.38942895555165,29.92034316846721,2.177294741273878
35.897621845632834,23.301873001450865,2.043795782638854
21.42923994115532,13.453406900153688,2.034946341037877
4.060822603613686,1.7593787607374218,2.156488981974532
13.72838823773072,10.123391165386527,2.380094745500876
29.40845017141318,20.49949404112475,2.6549823976891025
40.75390248832432,27.8838937307095,2.929398805753498
46.155702219707855,31.21449381112406,3.1473996366455133
44.841707829615395,30.001645856049734,3.2511408864072417
36.97943617877456,24.4036513097621,3.1961510728776634
23.65670837671572,15.209757618901246,2.9517574287404806
6.730083180538978,3.723582782300157,2.495202930413655
11.435619008499453,8.426175999752878,1.8227743418056153
28.29434029303312,19.526555073854517,0.9755311727208815
41.4705889530624,28.026944776147126,0.03236510779022226
49.098675679826286,32.746113897452865,0.9204695420632488
50.096182431741774,33.02878586924474,1.7901652777227213
44.30989936342397,28.826440186061,2.486170945576486
32.535907554502295,20.704907586070938,2.9469446117565723
16.410776223146307,9.779588831767072,3.136146619601197
1.8272557415823938,2.4347264342555697,3.042558290594988
19.649905612420536,14.23013523969056,2.7062138646197944
34.59026065666882,23.95273548854762,2.20712987765501
44.59153137299332,30.250109422693534,1.63140852882766
48.28555596300251,32.25707826634646,1.0740450780544109
45.17352971289574,29.710408398704534,0.6272078404789911
35.7009599901952,22.983839407970287,0.3454718624256959
21.20362776043406,13.034932243290509,0.24336341597248665
3.719446159755858,1.271397454913438,0.3173839344780847
14.292471763137664,10.649535694500688,0.5540906433833261
30.287534321840578,21.057489537238148,0.9012451432311185
41.99280396788559,28.50040691461081,1.272149869245267
47.739213599798745,31.93751886663612,1.5852070370728695
46.706476816740135,30.88141792985469,1.7786269960827337
39.02755412636958,25.469348773682515,1.8315864088966003
25.767951964699737,16.443401808869183,1.744143969006958
8.787389102664038,5.055915541758051,1.5017869989333406
9.528476012008781,7.095805272195616,1.1026659068625022
26.611737725765046,18.30234685769641,0.5833153801108634
40.072052621866575,26.990251747842343,0.0175681662645659
48.03125842939126,31.940914128317594,0.5189563193173622
49.38181590275571,32.4582290184611,0.9739927005205299
43.93875731488588,28.46625400280981,1.300989238757226
32.46734572861296,20.52734116925649,1.4740563603252812
16.58329136881726,9.76596753689515,1.4942148458483486
1.473663496682053,2.2902441400059006,1.3637427058051934
19.161414740437962,13.925959206351054,1.0947125689924655
33.986769585346316,23.49077495345059,0.7322083680880105
43.85920053504342,29.63884746980825,0.3484975566979048
47.39317073043242,31.510581283883436,0.01068063956449895
44.09874067853155,28.84510210353668,0.23370723388766337
34.4525921095452,22.015914273920334,0.3546741577099893
19.83349128166073,11.981770792598795,0.332955189538508
2.330222020842812,0.15513207943345117,0.15586263441765852
15.560213336357943,11.791049895215536,0.15033590300326793
31.29859856760609,22.15838371894871,0.5247578471924751
42.653862016125366,29.47119932904085,0.9074822710820049
48.01125573342654,32.683198209423274,1.2393492370908963
46.597941008205225,31.31980405406398,1.4762032133960403
38.584559385043995,25.55052205748936,1.589315432172966
25.06680421672847,16.164721883056057,1.5620471149183843
7.916506864654471,4.459973461854127,1.4081468508642325
10.48003100399876,7.934152835601426,1.1445133608411815
27.55682466012506,19.29004203909476,0.7885847319858439
40.93047078440907,28.035142490223425,0.389046610367281
48.73371863718784,32.97157603023497,0.0037858599230764824
49.88479772409825,33.43504558610141,0.35898145222290345
44.234299996492595,29.37966143901039,0.6496784199334512
32.57853432921238,21.380285134548227,0.8595660289251178
16.559343507918328,10.55534110034483,0.9810957772928324
1.5772771071798612,1.583499681868408,1.0052346257189395
19.307835495153828,13.344702366763006,0.9298767025326693
34.17616732762493,23.100185052408058,0.7652487748125344
44.13445355144522,29.51031397671281,0.5368123346590739
47.821717752878186,31.70274605457402,0.28884043744130433
44.7514793330621,29.39161573667244,0.07165476680059964
35.377819242436495,22.919917402675388,0.08051433247845617
21.030520081405726,13.216393225984064,0.15119283508833098
3.74166826176829,1.666471234667467,0.12959452332790436
14.039029541270201,10.081482825485837,0.012991345552584571
29.78870601747772,20.349826793457673,0.17904937864676024
41.26396404576635,27.678886139818044,0.3973365539612441
46.82388140768364,31.030184853376838,0.5946522199848566
45.664183163300585,29.92574699692111,0.748873907074479
37.934812179507944,24.51941963044929,0.8340310513520539
24.718838431991653,15.569974882598112,0.8315334118458606
7.87811804284057,4.333872839665827,0.7519844087389853
10.208850953539386,7.601488283783914,0.6024552543164923
26.98644414915773,18.541927848241606,0.3942546046303346
40.08237046767713,26.930625259978715,0.16101530472579828
47.64243381932314,31.566062350258,0.06931981130248566
48.93025437175246,31.996293452302265,0.2752021942068545
44.38803705751356,28.56028764765645,0.4379406208189347
35.168524639567,22.071646270245516,0.5486280668831421
22.921626267650236,13.668139811489223,0.6047405230232036
9.525239648479076,4.62481176860132,0.6095715480425199
3.19772548096142,3.841121863870757,0.5710216879023303
13.736025545736844,10.740335930756354,0.5083762551715673
21.07515461500367,15.428517994036511,0.4440345120687685
10.302285079930114,7.0419081147888125,2.9280058930669477
6.479611936292049,4.308965870618461,2.7356326419575465
0.15969602133048405,0.09875786462804204,2.2052705599691995
8.229916597068149,5.87033813528994,1.356839759121638
17.797877481545896,12.389469749314458,0.23413554114004922
27.276937789808244,18.792503040368743,1.0820168636774499
35.18597416779904,24.081485875786335,2.479633019058
40.034028411730105,27.2580610448761,3.8349901391702064
40.56856434651802,27.485209495055518,5.020280005359989
35.991270081839254,24.23455339858909,5.914762761043678
26.136983735915774,17.414152942526968,6.416745170276615
11.65619413787945,7.499917091686283,6.461520077544775
5.852384021814768,4.369582875291047,6.063123305617406
24.09345761732106,16.58736976674299,5.309323602129994
40.6186282426754,27.492425584454796,4.29890414769515
53.15046067477697,35.5959327420174,3.130817406310295
59.87665921556794,39.75148207827904,1.8920302245036391
59.785700300052945,39.35640631417455,0.6344209411413243
52.769367560591895,34.40076122076797,0.576813902133525
39.65199397630184,25.474809826672676,1.659723311151135
22.108550354655478,13.70734799340808,2.5459030850393547
2.4156798780983317,0.6093391628514804,3.177859097474598
16.848993480209423,12.109199044959102,3.54823964251628
33.17616043760677,22.785334068168343,3.6975486844258887
44.46935119610022,30.030529166595706,3.6587348234047194
49.32941722160936,32.92063419228803,3.4690803285744374
47.249415767708705,31.13838945099801,3.1939623843699305
38.67057140230298,25.015900552561313,2.906212584163499
24.92825503608134,15.49393426347678,2.6704047387929433
8.064359151099133,3.986843408414645,2.5362203047844787
9.457772403784796,7.823138107351291,2.5159561832873973
25.091420320106053,18.23305987604734,2.581325167020373
36.567503212543976,25.76513949507237,2.703045236253062
42.218348697564714,29.355739505648707,2.856002127343717
41.222576599210655,28.49408906001169,2.9896505601906753
33.71892692369489,23.29488498878411,3.045092162034327
20.778729350312474,14.482781051887597,2.9768129666581364
4.252390928549937,3.292102935234349,2.7488605563750323
13.500139278523477,8.705984810238082,2.34681858395693
29.951020014265325,19.818667576772768,1.7921508010775145
42.76125545093638,28.472934239899498,1.1214609560724162
50.10347776245799,33.44440731697938,0.35312610250785303
50.90745832724793,34.02646829968233,0.4830861989644573
45.00122867611888,30.131202635822852,1.307889908697709
33.1432868804387,22.299317819093204,2.034478256588065
16.927191577792854,11.616957441833359,2.6008624065851906
1.441370267152773,0.43110938681938377,2.9633615469444337
19.443475577532453,12.166586919412477,3.1112069089759413
34.5933920716208,21.963240816332924,3.065018400172562
44.800888071778196,28.48272456983602,2.8591418029736957
48.67558224135546,30.85079901395352,2.5398646799732605
45.72365905635694,28.770979572198573,2.1715734038872867
36.418624423429016,22.573810275776136,1.834065494602578
22.135206815158227,13.168344402531355,1.5856376366511555
4.947409490733752,1.9140481287267646,1.452597831686641
12.673906624881775,9.561637161679377,1.4564666816974743
28.208563545223953,19.59552921170433,1.6041827576163794
39.443403771325556,26.727166884197388,1.8681741965194367
44.785015103330416,29.905579457413715,2.1832086268341744
43.47293475444724,28.640620132501155,2.459379734053468
35.67698045162549,23.072665599961503,2.608110622781221
22.4788384024778,13.95356217955538,2.5587211042750804
5.732507863873752,2.5448348662105547,2.273832136492597
12.198011534826213,9.552115948164216,1.7565911222563533
28.771419538861156,20.62320043283436,1.0531895468919539
41.617028237423085,29.094387598220173,0.2419392675149342
48.88129756878127,33.75593650992264,0.6001834274099868
49.50548786806579,33.93296500424844,1.3981697035522
43.36864927688329,29.5787760206102,2.0727722351230793
31.30185727509488,21.27846029911103,2.559450829077258
14.97463770027886,10.171159119760011,2.817052341923867
3.351531903784679,2.209823063647905,2.8369189437935822
21.150189914099215,14.152378740770756,2.638728698400984
35.97557783631921,24.00778828836218,2.261300083295879
45.79965678709749,30.428103238266,1.7703932656458974
49.28834088149913,32.54501236705786,1.2513546934657171
45.97237822190985,30.084907915984086,0.787435295712397
36.3155632730775,23.41666899828171,0.43572742598711073
21.66471723725038,13.5030752380909,0.22474501851044193
4.071078812342289,1.7700526599184019,0.1689455395013148
13.988928826995739,10.090488203893667,0.2598215936811904
29.961717872286297,20.37284568937397,0.4604201214433153
41.58440907721684,27.61271628659314,0.72603991385552
47.215179259141216,30.79340669709552,1.0122695295094915
46.072540477436576,29.48285142490643,1.2574085519780014
38.33828135553698,23.887799355728276,1.387202102911526
25.122565257194573,14.812440107439443,1.3421437641079117
8.300125598119092,3.5383376339957358,1.0925787403235643
9.764409867852931,8.3527512566052,0.6505110559809331
26.54540300069035,19.197992325723238,0.06192382476699677
39.69661567147378,27.482135150510558,0.6129876362990421
47.377433284834424,32.044238974981546,1.3023123121778462
48.5124925576617,32.23759058218301,1.9240311183122654
42.93349742931477,28.02322161105822,2.3865889350266722
31.405600684446522,19.980053691911138,2.6060788235263144
15.538255421965761,9.226877570484584,2.547420435320393
2.4424547844942115,2.7317378425032723,2.2289865051101763
20.01402703774553,14.22158480068818,1.6915083968525157
34.71036325131569,23.64349605966201,0.999339698064151
44.47478022835395,29.700412311491906,0.2518168303367503
47.95366605421434,31.573333373949446,0.44568128998295475
44.68178319708125,29.026215631682756,1.0020647908104894
35.13846243444602,22.430104049128865,1.3498737268072059
20.676775134789466,12.708562449515565,1.4703613831219766
3.335681419718459,1.2175418680558587,1.3872241306332145
14.448110909547657,10.434346137860475,1.1478161829109728
30.178912439535914,20.606817598607883,0.8127404293746997
41.645660338987845,27.856753990376465,0.43454670979430926
47.23229221113222,31.14715832060574,0.05937731609693614
46.14424616398032,29.99303510455712,0.25472228618700826
38.51479070430491,24.52960296155251,0.4469886272218106
25.386628715762637,15.503004155734875,0.48822439676827867
8.579062710790826,4.1681259133902575,0.40232980944550434
9.561409247301162,7.883758623654717,0.24389538201805533
26.4969331307675,18.955896701906788,0.05057459512055477
39.84866758414176,27.49813439416008,0.1632991839951335
47.73196927775625,32.31541482419809,0.37024994540186773
49.03366454660771,32.73420263336161,0.5308187782566173
43.56448128445673,28.69699260189819,0.6149888667097316
32.085612057613226,20.757746008511067,0.6007606835589181
16.2068875156118,10.008982517809104,0.47939760393956565
1.8431389257233781,2.0611094444580256,0.2592775459923754
19.533080004973797,13.773481013004561,0.03489531079761659
34.39059894826044,23.495376752098867,0.37407864971034854
44.353256689474556,29.875291595523077,0.7332464310053713
48.050218426456006,32.035560582866765,1.0675504912152827
44.98770574851615,29.697085196595918,1.3236683912148317
35.61809465613536,23.214636894409637,1.468863428608455
21.272064238770838,13.527487542215432,1.482804978598977
3.9738464617902296,2.0297828566608453,1.3589286545018877
13.82976605015027,9.632774147976075,1.109492136047243
29.614966951321584,19.803107582787902,0.7520413884954565
41.13897440135553,27.05200059988534,0.2978637858593792
46.753435452502984,30.368652048333555,0.22981883174171636
45.64799378537866,29.29019797071215,0.7685983547412137
37.96637853965534,23.9730463633461,1.2362228515530498
24.781148369644395,15.16806221825129,1.5632745735397962
7.948782845504402,4.111363885542366,1.7043538662930948
10.154799910227549,7.635763985785032,1.6455670095526425
26.97693309495256,18.404015053594172,1.4078623609947183
40.150183727722094,26.660047800891224,1.0338215368124415
47.82133289100492,31.225116064768923,0.5676407288809455
49.24576861101152,31.667775109602196,0.06375639016279762
44.85311039008496,28.336757406714014,0.412898931519008
35.778472465182794,22.03632798011616,0.8180817095878985
23.649004013345422,13.874042850041707,1.120705313928721
10.318400718034605,5.078919079739285,1.2909807935713729
2.4058862529405785,3.1785939099020415,1.3270777811634638
13.010533361059059,9.945670477156343,1.2518690879610146
20.468127386430773,14.598811068979941,1.0874139758089976
10.4299361988044,6.864508900161362,3.0120257238834407
6.557218820299043,4.2759915504501445,2.7197842015421743
0.1425678661792075,0.03445050036943659,2.0576600132705973
8.381812193293417,5.5746566055499445,1.0437877115285947
18.109457498016894,11.957508579662116,0.24479231941643237
27.74730259753196,18.265815737883035,1.6956436205640026
35.78623942140148,23.51112528678139,3.1866644808771922
40.71113504317724,26.700237544054474,4.579570726013773
41.25182591638189,26.99398274151211,5.7270652451352415
36.599733937597,23.854026647563458,6.490330651348727
26.589566382551023,17.17386766198593,6.763751162768205
11.884601654054821,7.4065827707333876,6.518205483904338
5.8912629500424645,4.341985612996384,5.833724068274506
24.40568208378458,16.493841865214783,4.847321535150106
41.175860529430025,27.388850563415268,3.6692113267257658
53.90174678490808,35.50989254382149,2.392910767976695
60.753945748518866,39.67954906491738,1.1031406859628536
60.71564911863419,39.276571320771126,0.13762368051614077
53.69090452511502,34.288691034015166,1.2550485557220237
40.53017523687182,25.321345451006874,2.1804325153992337
22.936136516281955,13.528365727652984,2.8793869336899736
3.194814774309072,0.4430429440888837,3.3444417786179583
16.123577136119067,12.216583540222192,3.5940924494684756
32.525521041450126,22.800760531934483,3.6553227466940146
43.93526076582921,29.950897740070463,3.574317695765623
48.96399830928124,32.77194893202451,3.42468871136709
47.094272539635256,30.96346129224913,3.277277964299682
38.73991321217016,24.864275777968054,3.181931580874869
25.2097850607369,15.41683072183604,3.1520608620703805
8.531737818032774,4.034196760638334,3.1771168320864462
8.834538350130341,7.605807366754626,3.241373207178771
24.33653376713158,17.805213030388487,3.3148546782641124
35.70133633090398,25.09421577174958,3.3547209960965008
41.26307107937047,28.43255366887899,3.3130978981165713
40.200138654978254,27.351959000972844,3.154721230488017
32.64898098491731,22.010051858797116,2.852857442573902
19.674754827311883,13.155237087657552,2.378380694902876
3.1204148198320305,2.0308514951331587,1.7340172779714076
14.660119080107519,9.793089368393705,0.9582904479143434
31.136601537007767,20.643610867847478,0.10581705328258557
43.94541472435799,28.973507823160126,0.7575690194503193
51.22202549751368,33.57287260811399,1.5717345436490813
51.86577374340111,33.74524043271553,2.2847131925213193
45.68888971004367,29.414168429138147,2.850671833341964
33.4566881598057,21.140109045729147,3.234063288015568
16.798315796146827,10.047665459072697,3.415089264362956
2.0224175216273994,2.3300523717106807,3.389637248529732
20.429503406050976,14.27689674042654,3.153852852245606
35.89897138002275,24.147358724025995,2.725870915932183
46.32180963176685,30.596880784681705,2.1738613573173904
50.309216972330276,32.76404831118857,1.5922476272274468
47.379545975050064,30.387829808821714,1.071366554833023
38.018814686178466,23.83889954162558,0.6818622968761202
23.615397857021986,14.059096475096597,0.46366951777542975
6.253745955017271,2.434258979284082,0.416097729077358
11.58882159949835,9.389679235580614,0.5102641481957942
27.388871225412604,19.743124755970154,0.7178344128443097
38.9247113010836,27.1655940266559,0.9977792289702939
44.582550004183084,30.60625014567766,1.2819470226319345
43.583413865894734,29.578021535835667,1.5077150269424087
36.08081423296716,24.222109780198082,1.634890231885357
23.137866207508196,15.287145319495796,1.625071443660187
6.594410241349229,4.031558195090018,1.4373191044310687
11.1972340748771,7.953193733094677,1.0623453408810974
27.710230402020215,18.969563988192828,0.5414967209115256
40.59203192901196,27.457633790767595,0.05927785156314475
48.00001581590146,32.214287656474724,0.6632661362939546
48.86690309133811,32.558547108929424,1.1837502072885253
43.04308224315772,28.42850375538478,1.5556756859463767
31.310660529424887,20.386161509104276,1.7520710310367866
15.282240827826076,9.532459019914992,1.7675846154990937
2.820857363738089,2.6383673686792855,1.6156598154845783
20.489284358944904,14.436710888298355,1.3281998052021189
35.27651838794476,24.21953260983128,0.9524411193021944
45.135904327430055,30.621244593488978,0.5616014522751794
48.70560229111119,32.7405798796274,0.24279752561454787
45.49778758312732,30.276354138479938,0.051940352542325534
35.97073710660017,23.570723129434388,0.0028974061455562033
21.46671205046615,13.56316014329548,0.09925576186387577
4.030929682431209,1.6701599464270032,0.33765576105530154
13.871170127941115,10.423475163646353,0.6817658813146215
29.708982770440063,21.013142060348905,1.0568007776207784
41.241691589142114,28.611931904692273,1.3838944777952706
46.834289385085945,32.15752741188373,1.6123030767421485
45.689972710425955,31.15519655276492,1.699687175175821
37.95797144797173,25.74314498898685,1.6017745465119528
24.720066855842422,16.673066110507218,1.3102966472979012
7.841615625191119,5.207471400020884,0.8661927725528308
10.298031734896497,7.044688532987373,0.3285904260842282
27.145328024526897,18.34896985198389,0.24780955414318334
40.33478990104254,27.102156828707503,0.8101539466349975
48.019026773828344,32.06760595179231,1.3004156363170811
49.12158348713549,32.54731096815329,1.6646092859019272
43.478517084567294,28.47619085586297,1.8761978336951683
31.86108701460189,20.427754569699747,1.9297405978432711
15.877594444638952,9.532954514859314,1.8196102302248838
2.2512591157944146,2.6738609791956462,1.5568404640261415
20.002151120298645,14.471807497248616,1.1764905980856248
34.89771143227841,24.2019287955311,0.7154184187370621
44.85729426148016,30.50291265344556,0.20571369599890277
48.495292855001246,32.502179678575686,0.3114371094932746
45.32134004719528,29.93607531244865,0.7735568841172455
35.80560253513225,23.185227407673786,1.1198960382465026
21.311553214169543,13.217762900718371,1.3131631094897513
3.9085245919682823,1.4497177800067602,1.3314459371136462
13.933731215950104,10.453892459750923,1.1709209655872281
29.703245653317182,20.818558255913295,0.8476227836842593
41.190583711232655,28.19911972013516,0.40551593322082896
46.78979887278921,31.575438358061774,0.08039724331656052
45.71987924938017,30.48575121493858,0.5356129325807221
38.130785524211824,25.08551606866003,0.9042576057098692
25.077885126640293,16.13095499115308,1.1562930981910815
8.382443965829882,4.885535704050848,1.2919247136950909
9.613965597479794,7.050859370231264,1.3152827324047267
26.377937442628042,17.974785962871493,1.2193333546094574
39.53970134978443,26.33290204192834,1.011021443641488
47.23149887751949,30.941385005983488,0.7183253396703215
48.35564692454105,31.148434321690353,0.37654344295489334
42.74256109755444,26.92469689292914,0.03997662153229421
31.177684988887563,18.859512677856515,0.23740029961173661
15.282634036253796,8.071798961048035,0.4340191645621001
2.7204197079742483,3.9388598839075715,0.5372624625632153
20.321808551058293,15.491303495832566,0.5418249270649396
35.07967066156734,24.961231900071574,0.467195915808422
44.95703220253127,31.010599289428026,0.3451173779544486
48.59043120980298,32.76894645088139,0.2146038548972677
45.472770351858514,29.96108414380235,0.11288197007322942
36.03453564070325,22.95642362827294,0.06822936229011217
21.592592505555118,12.722505391964768,0.10380318695538451
4.166323866728364,0.694403120014031,0.22176894263648228
13.798283837014921,11.43243515921603,0.3942095298526324
29.76898883585622,21.958720018341772,0.5841874581670791
41.49110990455673,29.42883599787883,0.7560453156285524
47.31434926304608,32.82573685133887,0.8690286489568514
46.43218169716424,31.70264608457568,0.9021722043518797
38.99025926809004,26.242120941829395,0.8595212791030696
26.05984887563829,17.222108663477513,0.7407861731432452
9.48098859169319,5.90005456491272,0.5583174542505118
8.406405834712757,6.151362808798833,0.3429281510160504
25.088737907850685,17.251715139926308,0.1188770260642322
38.22643128953821,25.851026027542307,0.08909700114440937
45.975764403779635,30.747939726864168,0.25139302272718894
47.580977122809614,31.484871640922673,0.3437005768544882
43.447595694262944,28.38984172535483,0.35421805618536967
34.68458478159734,22.25782948342778,0.2910852465525431
22.8992323532324,14.20050003074237,0.17970872517982645
9.927702268098983,5.461016078970465,0.05895558202126461
2.450757411043865,2.775113256688384,0.028767926636939268
12.757438458466718,9.545793803499912,0.060868145808307385
19.99316919959874,14.22550296268247,0.0484577006523668
10.59271889481071,6.92458378670425,3.2117381362595636
6.732370437040226,4.262616553112056,2.9903402397166943
0.31916701501167,0.07154968704013705,2.380378272533687
8.216128525535717,5.784341140926335,1.3796473743800894
17.971578854094957,12.26832089172461,0.04004921214765482
27.658280813008243,18.655473874055648,1.532383948918092
35.76693820624116,23.935408034248315,3.193211717477513
40.777364824798944,27.096588570754925,4.779522519944944
41.416752754709975,27.29552608736734,6.1324822488639565
36.87777246066811,24.0114695474698,7.097376246126089
26.99017170989588,17.16658459894295,7.541208612670431
12.408307639412195,7.245517446322563,7.40698011382674
5.25330578110306,4.6125926092348895,6.753013088821177
23.676273490442327,16.80595332651125,5.706582778763901
40.39614112284813,27.68020326782454,4.3805952462597215
53.134774512226876,35.75226937330719,2.880514645934902
60.07784835822774,39.873674352846386,1.320661498803416
60.2068608956066,39.43160826777524,0.19849993006726702
53.409562882932654,34.41043462782169,1.5854436561971306
40.508467860769194,25.407011747905113,2.767352527721119
23.173980223352906,13.571891364785726,3.6950666963362138
3.6633527160385237,0.4416898970160078,4.335452273289285
15.473493323753564,12.261077871056415,4.687412332498381
31.74832937071935,22.87681065112256,4.779620619690636
43.079083754317665,30.037604780858462,4.656487906372922
48.07382202601008,32.85210177314814,4.372165205045389
46.223744481545474,31.032478108365396,3.9920165643793255
37.95168607188479,24.926777975019746,3.5921728262587345
24.561416622650654,15.475052532280783,3.231742804753586
8.063679192307323,4.0790712716424595,2.936420632162137
9.108904606063255,7.59312448953866,2.714840854241504
24.43674499145555,17.850024148987274,2.5657768622210035
35.67168038046253,25.225307998966304,2.4686824519252863
41.15700549486333,28.66765211301057,2.3816844240520516
40.06696357153529,27.682057774078675,2.258068243283583
32.52738471813007,22.403358961161697,2.0604029478640316
19.588147375242368,13.568870317368516,1.759731157160269
3.0772815727235208,2.4168016800850642,1.3352344155164726
14.652793191968572,9.47598200707808,0.7804713753144717
31.065385462524958,20.416332816815416,0.11578251546616591
43.79798912909045,28.838809326565332,0.6112965394553014
50.996514873766074,33.52427490767219,1.3395718487656936
51.578941403076854,33.77544665231385,2.0010021629648347
45.3818646361579,29.521596259329954,2.530735765800436
33.185262872726696,21.325033146572842,2.8746132556948174
16.611174013493553,10.307257689111298,2.9941132185280614
2.100437160598747,1.9997270574399497,2.8904890843850843
20.40063103317111,13.87748052144667,2.6077832667833074
35.78444046958506,23.672545546702544,2.2036876367625697
46.14827014834408,30.031738456363552,1.7387746864101912
50.08987378172808,32.088335522390004,1.2702563550590955
47.10454094741601,29.57741688997062,0.8394840217589868
37.66322626143044,22.878179004310674,0.4898794457802666
23.15118442221825,12.955844048130876,0.28243342943897515
5.666196197512437,1.2229727971084083,0.2528951768264078
12.284914856605052,10.640458513162988,0.38780124577302894
28.14698792009215,20.92356457723814,0.6619235623138756
39.68058237008589,28.139218268032373,1.0328856931817392
45.27338597095222,31.23657317582817,1.4254554655762048
44.1561281022998,29.74866278617122,1.7548257308782425
36.499542882204885,23.85495073483053,1.939989533292104
23.391950337882772,14.36207978558376,1.9376350898325017
6.6935304266121545,2.597078099433241,1.7555328613914243
11.224581855946925,9.78399372419622,1.4270366288438474
27.812823079372954,21.03615898785079,0.9998680296093067
40.697177191333616,29.582407571151037,0.5165425255913848
48.01846767284034,34.23403171018613,0.010012117462939289
48.70908433778885,34.34560341408652,0.4883982600394427
42.64720028880546,29.905783761395064,0.9489715257860251
30.6723908053862,21.533322500244036,1.3240205095819197
14.464122846101965,10.377948344843501,1.554627556670455
3.710491127095911,2.0382823439263604,1.6237521370030719
21.327687726684783,14.021186600067285,1.5718657122280362
35.95929161098341,23.935249153882634,1.4358776473704098
45.59850810055207,30.436182957452292,1.2185688957624774
48.924883188144975,32.65552502905391,0.9391698703682918
45.483723062473516,30.31332499145156,0.6446125572568057
35.74943868111622,23.758338142061746,0.3731449189515101
21.066489160054388,13.929481881913624,0.14944589464691604
3.4727472732566733,2.2343512800036005,0.007320368638498833
14.578028080402948,9.654658890530769,0.0800833175008107
30.55823658071918,20.04669938546809,0.06100913793106368
42.22750645638547,27.470169054061817,0.04607781944068177
47.95281095629455,30.881259164475864,0.22861912757282912
46.94284498774137,29.807735217694617,0.45257262623894196
39.359865983437835,24.403721763701355,0.6732206134225704
26.283840398809897,15.423479983538309,0.8489445307603869
9.55097812335041,4.115915936393009,0.9370262760427734
8.50195888336892,7.943404535754601,0.9159884978666035
25.360928724997553,19.06157435283583,0.8003056393925903
38.680141193978635,27.666595773770634,0.6119420160837984
46.60231115814213,32.53059171340736,0.36250202209770654
48.01344110614367,32.94144872782941,0.07723234618250364
42.702771856852806,28.812898242048398,0.18571703589779168
31.406718395816874,20.70506187464149,0.36077061537919747
15.715817525065189,9.749413971465858,0.418750060815338
2.15090791132902,2.5081811156237563,0.36546643277265684
19.661345433652347,14.338207577190193,0.21758473402916054
34.32570818145153,24.085418958876968,0.015858923801016753
44.05510190382097,30.402270525997015,0.18621412552244182
47.465066693828746,32.43204631557721,0.3545078282372398
44.06684937405119,29.919765611009254,0.4562223727806921
34.336615791520344,23.235770205958392,0.45883332751863315
19.64690150966194,13.316816774961435,0.3565598937273353
2.064846254071721,1.5480277617970442,0.15851380370629486
15.93272766478259,10.415194149412232,0.12018083754324685
31.805249360981964,20.88248979872917,0.43885879141262446
43.31393563567904,28.370071487202566,0.745843189944265
48.83428551035864,31.807301441881936,1.0156322704696772
47.57744496936792,30.69055935654857,1.2302018042794496
39.69594260840975,25.16143288489028,1.3511923606487133
26.26351379527702,15.987583147480253,1.3508378682987414
9.133786727305644,4.451706931089008,1.2423835597595057
9.317847145276241,7.825936327887332,1.0532438993817823
26.528587826453798,19.12093239494775,0.7875079564643208
40.09960702610661,27.8571942842959,0.46160535858412305
48.13247250435373,32.821189477374055,0.13121997584211506
49.508193809237774,33.322772964704235,0.16096851968728856
44.0486081085498,29.29152663548415,0.3843578197276225
32.538758430664224,21.285979620016896,0.5014149486421994
16.616651379710365,10.413391321385483,0.508279417435392
1.4664266647252946,1.8215415168240177,0.42735384813679433
19.17165623359724,13.720993582780386,0.2757058569171526
34.02547445952859,23.638400801700996,0.07454155116902271
43.96933575911605,30.212532985671373,0.14341935672427344
47.64230413159638,32.54802139759412,0.34631879051492986
44.552781807110144,30.34064652423252,0.5049909478692512
35.14872210223765,23.923685186552316,0.5776133416175601
20.76118465308188,14.220046775072314,0.5304329417822686
3.421199262017198,2.616869149910051,0.3640273309559615
14.416850627721793,9.225771165530764,0.09423346276910416
30.222139197199166,19.617222522625386,0.2530170526119406
41.74803765635408,27.087559848397973,0.619284206504901
47.351664479771365,30.593841849567646,0.9301771593975721
46.230358646904016,29.659572204187757,1.1482481925542862
38.53450858144937,24.435891420579743,1.2709998608730109
25.34424592082674,15.673652354554466,1.2936356917647267
8.511484525541594,4.6182213927311855,1.2213700223601043
9.604183582040594,7.162341171058483,1.0783445287109314
26.46532354854985,17.995533957979365,0.8769310851792764
39.71478297366496,26.336543432669437,0.6181328325866232
47.50058117395717,30.986425337766885,0.3268057008163425
49.06942901624207,31.489231416161953,0.045398572837963704
44.83631787189202,28.17423816349577,0.1940487688683199
35.91943938051739,21.842320003938177,0.37393680835643406
23.934957338080686,13.614785829810863,0.4889338064221726
10.730010531592391,4.747168772092798,0.5468851764507958
1.898958050201417,3.560785083884128,0.562598687409949
12.449473330062109,10.33714026158255,0.5488626373259542
19.898446771704187,14.95566295017734,0.5175986378550396
10.304371640210976,7.256424848568435,3.159184485786703
6.48083110698742,4.629479977102866,3.0528098927463936
0.1383432874357738,0.30081052498161337,2.5765083701543814
8.291457361983898,5.435668421723211,1.710919899233722
17.905346825993263,11.969427361933908,0.48760523363493297
27.420521453336764,18.43505351112763,1.013586830336117
35.34270635459318,23.8291106024069,2.6647289947404618
40.173599864053216,27.143656478892595,4.29429323325188
40.660159517507026,27.535089110393205,5.724423839642594
36.01219259692525,24.473356866376296,6.794578967040024
26.076404993489678,17.86326945807406,7.375151054349986
11.514549406011028,8.166772778067347,7.402000855652349
6.06075908273372,3.502913613980292,6.913321111837121
24.34039041394713,15.562682305367844,6.015861325444059
40.86990824537173,26.367152916296472,4.813046972270846
53.37181043004173,34.43425232548625,3.402541465164367
60.03479992586321,38.615817799584775,1.8970539698416167
59.85689178442609,38.306889624244604,0.42258391953743263
52.75810992570842,33.502542756853714,0.9046337244612761
39.60283697677823,24.80442619307268,2.0122108615209746
22.094425724899285,13.350393331807863,2.864099050307444
2.5090508597290517,0.6490902591679837,3.4514693218841535
16.59909305646862,11.611623415798443,3.7984491882732065
32.757625370190226,21.81503262571957,3.955834665715648
43.91338308880293,28.62930904107674,3.9952147741701687
48.70178343366794,31.18302520451028,3.9781862429454016
46.63158294911674,29.20168036045324,3.939680195490698
38.13948071279561,23.038815194350732,3.9117417506796266
24.542116918779392,13.630562932101261,3.9187258334391117
7.85914338848406,2.3658886425669903,3.9510477584464385
9.46427774237692,9.106581625347946,3.977269130369895
24.89428817082433,19.113176397982592,3.976215626433953
36.17150060590367,26.20564850847199,3.9321395827295857
41.63655007594586,29.357118047725066,3.813540826245005
40.480875268785994,28.098105902947353,3.5774054259808272
32.857189656100196,22.58113563811162,3.1883193522553928
19.842278321165445,13.55491525323756,2.6373590154300586
3.2831784514612306,2.26205334581489,1.9473930420013636
14.471956617498693,9.730287180334033,1.1648901926091755
30.90351997290952,20.74714278461366,0.3491148536646909
43.66562791665026,29.24305729860455,0.442596404115843
50.918832503208634,34.018726407967726,1.169518252015279
51.584427801658535,34.3896411409803,1.8110207289951858
45.49094453242392,30.2921622059484,2.358085565176207
33.40755671966809,22.29288000904771,2.797832272853983
16.947228462050067,11.505262304260112,3.1115245701501424
1.6512562188765647,0.5626561723422492,3.297255531240643
19.834121309144113,12.225477601325801,3.369027854081562
35.09523535355973,21.868806851628918,3.329497626277659
45.34157733633744,28.17865764978051,3.1790571484092562
49.19809660485527,30.324088959962328,2.94346373573381
46.195617984229365,28.067690368686968,2.66562955771446
36.83225880581295,21.787277501592673,2.3842349021470834
22.500963930374844,12.420758372199309,2.1294631646364017
5.284589349855209,1.3386842876188427,1.9162401301858099
12.344014135294913,9.850238422810845,1.7454381190179626
27.86863599619228,19.527031001007774,1.6195240123593555
39.08011398037058,26.28969390788574,1.5407208759347863
44.38848082161906,29.147897860445383,1.4992921404863033
43.04003987365275,27.66309419072249,1.46185265399163
35.21181881969681,22.01424653040125,1.3750055345456753
21.990396355731196,12.96707299052977,1.192660612559589
5.228612748195418,1.7690918847119297,0.8913160775723942
12.714429193192922,10.010620966308906,0.4741891783801834
29.30270576579607,20.708909955052494,0.033705488736946426
42.173131970742936,28.815810538051018,0.5976665886733608
49.47579638842857,33.1772662370431,1.1730153931692808
50.14389781285733,33.15259816032861,1.7044858691364377
44.03691383667549,28.710396823043666,2.1266881389069736
31.95984439398104,20.427540890062687,2.376050913173232
15.558794232616819,9.409263818282751,2.412018929682256
2.9146811791709837,2.8496323190455044,2.224188789847765
20.926943202788173,14.670482871600207,1.8325064255941252
36.01223149131781,24.43289468978748,1.2869826008752756
46.11436947265084,30.79430826273918,0.6706192873512268
49.874699559344194,32.87300869913871,0.08112279757758878
46.811256158371,30.380961106419836,0.3985663286543156
37.377871140381984,23.67001624951553,0.701102227099887
22.907747278117238,13.691016537718392,0.7811653998866066
5.436331572127108,1.8665661046561095,0.6330479750671693
12.576400405505684,10.114964229982077,0.2856209658271422
28.59134032463653,20.548894882939678,0.21587342140344662
40.350924184953065,27.966847842395577,0.8090589293165356
46.19412398659293,31.335279222999656,1.4000848625006306
45.29802731873522,30.188589406152072,1.8825542758515472
37.798533470995935,24.693848129338544,2.1723536058736985
24.761775763931436,15.617834867794867,2.2209672274649472
8.040076997749084,4.228018837846158,2.0260240436022663
9.982935154828622,7.869203691597978,1.6284918282696665
26.738395784311088,18.961464559985107,1.0840353837759422
39.84064541822167,27.474826693700194,0.44769000317158986
47.4248592754881,32.19202737623154,0.2131802205634024
48.404140769881074,32.42343222290482,0.8174615139454607
42.61394381678558,28.111998821808125,1.2997157394694863
30.836047015782913,19.848110679378625,1.6130726604514956
14.695540565658456,8.783062989576282,1.7074381725134118
3.564145714113605,3.528142228162593,1.5610980406958526
21.393442103865784,15.353081724345708,1.2125521553924494
36.286258235146626,25.041748294006794,0.7318850089203456
46.14153480072718,31.249133359336582,0.20071093428382464
49.57510497056725,33.11333599358086,0.2980993546219491
46.104434425681625,30.378410113922385,0.6997409467444372
36.21735929997958,23.431415324609628,0.9561951779368975
21.31826669508441,13.247656486974027,1.0430415808927023
3.519009647361741,1.26095919659296,0.9611121967921223
14.665444973935358,10.831704576849061,0.7168132715718526
30.66969591728034,21.32176195495099,0.31828997904349793
42.25166649032256,28.735477078204,0.2135501620653494
47.80593599459123,32.03725421900812,0.8215312492346026
46.57267029722525,30.775517913946302,1.405976058094419
38.73144851722035,25.140372038523992,1.8650522144281523
25.378428293515817,15.939871103427077,2.134744650655642
8.388086928051614,4.490824110966716,2.1793847667237
9.849070459940615,7.572657229837189,1.9799690426602454
26.76421815366935,18.53607381079974,1.5647610097263795
39.964983573062995,26.854685643832322,1.0082312347993623
47.57899088488768,31.367641124085516,0.39689923999818577
48.52823608920487,31.45158097700407,0.18687117774898857
42.675285096117534,27.10630817889957,0.6783567710532274
30.834312319608628,18.950848554533852,1.0160597100553785
14.663797583474743,8.128799516077517,1.1388442049047516
3.5687545797975777,3.8563468306843056,1.0256001285908898
21.32170857498227,15.346357248924374,0.6937034902144612
36.13032941199826,24.754953573862853,0.1821081960267659
45.946617114470996,30.78576589962547,0.4307093633525266
49.428582390032894,32.606182222857264,1.0257251146447757
46.10834832357974,29.963202067878637,1.4826590430767146
36.45005232010676,23.221119208521078,1.7089527705086656
21.79653146540715,13.318549872347706,1.6314678184807017
4.191962707970502,1.6454822613912325,1.2002113734610096
13.894181622118412,10.160036558444625,0.4169879909365982
29.923397762694353,20.451788620078545,0.6342461455354507
41.6512408425778,27.807639488749405,1.7860058123252631
47.43863175377089,31.221759387619176,2.8355722528309264
46.4881521079163,30.2388311937847,3.6019681496726794
38.953922192028315,25.021536274954926,3.9612777677587125
25.918340299574535,16.322826375885374,3.85248344610981
9.239696398296894,5.373281726125084,3.279825410668233
8.717900282898698,6.282914873111056,2.3209676181577987
25.41874279511212,16.99518450892635,1.0999222315608013
38.50475981971864,25.23595807977079,0.23266456647285969
46.12096242137038,29.817516238328675,1.5019823210492
47.521434583378536,30.292681234315314,2.5496161510371422
43.13688441093916,26.995076975059586,3.2669523336039257
34.1016191913855,20.72173712595532,3.600666865222094
22.047988282563995,12.58718687044388,3.5477952434801097
8.840039188751446,3.837501708649208,3.1522139008540337
3.7117761381278256,4.341832487042137,2.5153717823764183
14.10269447948299,10.990004059241608,1.7825053129501398
21.325890866362617,15.484134019787147,1.0936141326743662
10.464081872433452,7.011540948013077,2.7628008036563427
6.586700508484922,4.3231087045432375,2.639216955841136
0.17770237319959836,0.03458264804573275,2.202113896053982
8.323060826467726,5.753431684897232,1.4570434957061265
18.006762157880075,12.221733333652082,0.43423300288956623
27.582974712954954,18.578928100947493,0.8049261936690654
35.55103659842613,23.827657748455206,2.1627952011289633
40.40294389017447,26.970947691301042,3.5076546870079586
40.87201172755418,27.179008503697393,4.697846803391733
36.1604410023199,23.938425885211252,5.5980354995866675
26.120572159094937,17.172578451359016,6.093485800512871
11.433837365840713,7.3655812431343275,6.133031161942306
6.256651776920092,4.349453843061094,5.757324379715103
24.60330097751577,16.38405417254393,5.063735293594805
41.12344907114829,27.100797690513655,4.148858187879484
53.53708105582896,35.03674497160528,3.097155154718283
60.04535699736185,39.06747272619402,1.9890736386175705
59.664001356398856,38.606620077257354,0.9033445264301293
52.333883232294404,33.657352709516715,0.08234653895610801
38.939262262404306,24.816694680153983,0.9142062872736088
21.201592042753518,13.214497889128236,1.5691869631115638
1.4192068318191622,0.35436738003419205,2.0416962875695526
17.826546010058664,12.071161586290325,2.351357303414179
34.03774229122665,22.427137813696202,2.546289698289894
45.1394908198895,29.365517029927734,2.6794934177675076
49.75585415070153,32.004542299381704,2.791160153720898
47.40401424606025,30.060317486016565,2.923138979504207
38.54925755210776,23.88388940146829,3.122552742266446
24.551392736022333,14.420076893675775,3.4242493708484636
7.471793019122725,3.0760181550351398,3.8435213166803126
10.215743134019874,8.483587919160424,4.355860749788127
25.957668117801074,18.574812570182065,4.873243269615549
37.48728940754968,25.73840752926556,5.272601301383017
43.1470584829765,28.939343497645705,5.431148472187856
42.123331366636364,27.706405818666116,5.2364407201301555
34.56302840222173,22.19817823660464,4.637801872311198
21.546955504352688,13.176353440115117,3.6630158274405034
4.929544969051698,1.8966079271299694,2.375089406418022
12.930818775479306,10.061325692072478,0.8820302653900498
29.503828067278093,21.008487327521514,0.667315544938917
42.442716581486685,29.392878942120248,2.1239742378593216
49.905712939486,34.02104320742281,3.354789344539852
50.803230480303526,34.213224464971155,4.262984903442625
44.953745439081764,29.904181855032537,4.784091429327684
33.111574769960676,21.665357980529294,4.882585838014075
16.876472349097213,10.627836236840063,4.579065921522429
1.5184674000434302,1.6757474334190696,3.9453325496307126
19.529227742248704,13.53524733719899,3.107254983403695
34.65503056953083,23.315674698777077,2.226264737971866
44.79547139851348,29.69125862538392,1.4194320350714618
48.5636295862181,31.824110641076686,0.744161358305788
45.481280384662476,29.468613558986153,0.23154434495487983
36.0413265726011,22.995883849778277,0.11715759731914718
21.629338400287654,13.339047513390259,0.3245393138628704
4.318098405585835,1.8739805121184627,0.40310461218792343
13.423672442415945,9.76319021142857,0.35716305590962627
29.076723675543157,19.903725940591432,0.2112419853954143
40.424215189273845,27.084359647758784,0.00455080008875379
45.858374703767346,30.26453240903938,0.2612700973306128
44.59829720945936,28.971375437903028,0.513216188153451
36.79814453048568,23.36424204151871,0.7056731345948212
23.536384749906038,14.222104756571957,0.7926501538097185
6.668538387297557,2.8335965783363855,0.7543640270980358
11.434055416021385,9.187935628653118,0.5874351770122012
28.214554470361477,20.14215498462625,0.30502771135972995
41.29201448460708,28.49308895358687,0.04293156979252157
48.80203520197121,33.07606108766141,0.4066034077791296
49.66612500401349,33.24846864634384,0.7428045992651258
43.740330373972604,28.968554719908614,0.9818557355948698
31.833572735053508,20.798141657809776,1.066199619752324
15.59812407164613,9.841818531903048,0.9750113443974593
2.7104352245878416,2.3954005249761527,0.7053065954880556
20.551652693918243,14.221399170852827,0.285549643362299
35.45378680480237,23.99923294795351,0.2199235516655203
45.36216002698353,30.38108661547266,0.7285926443080127
48.92004076826831,32.4951428638052,1.150987156968968
45.64912183700397,30.065125154969596,1.407632024094095
36.01239465238261,23.450703150604685,1.453991548394275
21.356682546862817,13.597282656230334,1.2940045986772677
3.734188570263192,1.908519920618895,0.9636483062862242
14.380317780674286,9.94723295593691,0.5100266716912367
30.429831910600395,20.28459426435777,0.012336399944686719
42.138172951993155,27.648175632755432,0.5382410847529367
47.84365506717335,31.00485510153488,0.99932998676167
46.74181345549094,29.878905316085696,1.339915247683383
38.99963022854189,24.42651258127906,1.5186844195184133
25.7238243352089,15.414823145225764,1.516528604376727
8.801037188028197,4.1148367370199415,1.3422958766936228
9.377075801330326,7.868675281767024,1.0272209158224441
26.263612593799422,18.83345023494943,0.6344934400140821
39.506049208538855,27.224702679363574,0.24168175417361815
47.264680429637075,31.843611264680522,0.1024198516832015
48.46162725786183,32.02182262230474,0.38212244155731245
42.92573052721456,27.717455465758714,0.5929533573029483
31.423581623642864,19.518697798673927,0.727246354841007
15.562394510472052,8.57181780218968,0.770414919783538
2.4277624635996946,3.577749358071306,0.7057205738614217
20.008089931292314,15.209572200459242,0.5248650203589024
34.686914109916316,24.679862755541105,0.24092643437815442
44.378907304825944,30.658844935735043,0.1179615792347705
47.71890778875471,32.31030618999828,0.5200476538925095
44.24811360657416,29.406201560670215,0.918830525562714
34.47413467974781,22.363003863918028,1.2578843609151256
19.79980571541141,12.179184454653788,1.4936667557843586
2.3081753137994374,0.2888160691365206,1.5950359617727967
15.531183857384082,11.638980622249184,1.5409845346129447
31.2045753493523,21.93190448794918,1.331914120386071
42.50756210111361,29.1514804155973,0.9801160349933982
47.844791782729175,32.292817155154445,0.5081196074155677
46.44966170716696,30.92024911832739,0.024720557391984643
38.48938651563787,25.22772034290104,0.5317355551351876
25.045287288507456,16.00589158651703,0.9304878782085401
7.974212122872564,4.53490594562416,1.1578130984193324
10.348704483650316,7.5811778770324345,1.1868024829620631
27.361212431753984,18.64752646560399,1.035908170630398
40.66958802236353,27.128694359299857,0.7585831606409423
48.39257743212381,31.858685334621676,0.419770484638504
49.437395043502875,32.19935894033506,0.08216437516591898
43.650444306793105,28.125219278988695,0.18823387509918738
31.83124150031105,20.220172209367224,0.3287177493360583
15.625851932476118,9.5899864410809,0.2997735135441126
2.7103287613529123,2.2945542828416636,0.09178737286496944
20.640143872190198,13.79446815114361,0.27097531815131637
35.68572508206916,23.323855452673087,0.7287491362537087
45.769945412281864,29.565560893970385,1.2055629626719886
49.50958233286881,31.64826859719752,1.6191390899829452
46.396621653494584,29.272449185858154,1.8842779988870404
36.87089409616027,22.757086789729797,1.94559457858891
22.26711051361331,13.002119098470526,1.7946371167319692
4.629209209247244,1.376366507751731,1.4496343810240002
13.570414448512922,10.471893274690993,0.943415937395203
29.775871873554276,20.8586426888293,0.32751088927932537
41.713373774408055,28.316755701943837,0.330834704910838
47.71680367216038,31.801876084452033,0.9660733837841018
46.96130422687355,30.828088575090653,1.5187039663797015
39.57349691680122,25.531748723101,1.9266858362370802
26.612460673369693,16.645802754440602,2.1403523536098747
9.92036715188964,5.398621981442325,2.142020793555477
8.142044297249148,6.64668211709396,1.9476684209655029
25.02860420719744,17.808066428335554,1.6061061274488333
38.36138627445784,26.521642774514806,1.1830689331516497
46.25961608351482,31.561194006227975,0.7296698851772981
47.94863582890033,32.437464670597265,0.2841267551355941
43.833982057561926,29.44731220383585,0.11266916684729332
35.030345218144596,23.364530019501167,0.4320718962018488
23.151366847060444,15.290612320297331,0.6647438203660112
10.041042916991824,6.472064090025583,0.8064712580429656
2.5054865466491285,1.8888467541329108,0.857629287418239
12.983434574534627,8.807219467692793,0.8280984001655799
20.365662751251435,13.633261985595183,0.7362727553160463
10.217628957216691,6.924410419906094,3.0235556915078163
6.365531142430635,4.320900963442214,2.8395171904757013
0.025887183123616073,0.06653014472686979,2.284370274474641
8.365566042248997,5.5529963172621875,1.3668366966136178
17.91276583194573,11.94825752593251,0.1509293311249822
27.344818240580665,18.269396830955746,1.2725576056413959
35.181569639587885,23.51613112978691,2.7890628992245867
39.93925444752052,26.682843567772046,4.2615749676462835
40.37446511495034,26.93189697576017,5.540189096752562
35.70028588879257,23.741927519330318,6.470902241661631
25.7660224752078,17.0274908493114,6.932214884578236
11.23515527426098,7.266251122361793,6.867821206534865
6.277618275045101,4.409522423225365,6.318900124888211
24.4634897228939,16.40588520199274,5.3945041447842845
40.8792965018503,27.07570837728327,4.195638242323163
53.264045313541104,34.94486321670677,2.8254758440318666
59.82318094438561,38.880155424942416,1.392644623396965
59.56507987551567,38.294006596896295,0.0024583968242370036
52.40470328996203,33.201288139071856,1.2485362336251733
39.191077487125455,24.22080639762595,2.2627379378842023
21.60718487418905,12.508460391023405,3.0165260284451043
1.9178656386422288,0.40508560888407186,3.5085353885207002
17.3130090132887,12.807567717890885,3.7492891895861393
33.58855454036143,23.056534264969248,3.769884854081527
44.821218820068914,29.813838658530276,3.6374104300662142
49.61121503962418,32.224332929127016,3.425583279173657
47.442050445209844,30.03086148695162,3.1948214188657404
38.74523386547568,23.604095128533704,2.998699536870253
24.85566289526414,13.905886900971359,2.865494794041343
7.823767089403037,2.363115449882787,2.8010366051198123
9.86639392440488,9.337281741124697,2.798162973449251
25.641513612241518,19.49798431752926,2.8280428770806902
37.213361244054276,26.659258519600098,2.8493261524750664
42.90136271280304,29.792576102224075,2.824104767177095
41.8810190805657,28.43663796543934,2.7211375111650624
34.29649319341154,22.760965236781647,2.515219547687521
21.22528178015914,13.535625312419308,2.1987229049771075
4.527365162381347,2.0223444513812994,1.7847396999729994
13.423018769243525,10.187257410600715,1.2890146097226316
30.075754864560377,21.383979180996544,0.7319164276351842
43.06342149649884,29.98605428040089,0.1471272601478677
50.53213641904728,34.759517229763084,0.43236968646519885
51.39316498162266,34.990656584840984,0.9765732568013215
45.47325300165443,30.59870587223707,1.4501282260681947
33.54378434179448,22.15718682346597,1.8121185627123375
17.222697038012488,10.821414819948732,2.025943354115687
1.2496054384156967,1.831511453659782,2.083726339057716
19.327484475855496,14.03669704143799,2.007676728190576
34.51212993198309,24.109412836456393,1.8323615023653521
44.71146525307277,30.688435440609158,1.6064088730061077
48.54568190694604,32.90762892065423,1.3879500282499957
45.534542767776244,30.502358070594717,1.2359311905144685
36.16228781506619,23.84706522994874,1.2082289281325287
21.807652665175915,13.895719891334023,1.3406725928386758
4.545613764297739,2.0505658753136013,1.6259970049993
13.146516980761458,10.014878438041888,2.0108927590628594
28.743025820353786,20.585977907089063,2.412947687415878
40.02472051773113,28.15847251764382,2.7535608931333506
45.384660276854035,31.656047663162997,2.9673900568417824
44.046518287203305,30.583669578874737,2.9971942416751616
36.16934510061065,25.096783528390016,2.8001102191143175
22.8326363931903,15.97607451651558,2.353411352509967
5.893701381983404,4.516233758253341,1.6825021504464968
12.276184464119542,7.658992444523092,0.8760974391064582
29.12713176100881,18.834550687648882,0.04367018209225073
42.281408846776316,27.450863768163256,0.7128569975349576
49.87189866780785,32.31987692435905,1.3050335825228576
50.81507470233289,32.78202356644736,1.6741960274180885
44.955828587301454,28.786726915359875,1.7994870447833553
33.08477797864919,20.90117037036237,1.7023412501524733
16.833759890386634,10.235367373478162,1.4375078125561553
1.557056081459507,1.7140259113849021,1.0736851252443635
19.5566769475162,13.265917743203046,0.6839441965612837
34.6954878087962,22.790317596426938,0.3372424217566227
44.91082896214509,28.94325832160521,0.07998138109030876
48.8298532120571,30.856281431043296,0.06919027404898548
45.95302665522673,28.264358358364802,0.08901494723331516
36.720315791280214,21.544331970880506,0.04426850959196601
22.45625077854447,11.656712078767528,0.32616513203476577
5.189602432374029,0.01417914184382753,0.7209738130462213
12.63625008084002,11.714766135253653,1.1592158906028687
28.50276185002529,21.85227166651254,1.5705261666915562
40.16228228632174,28.954340608875512,1.925951845486618
45.95588543435911,32.00394372562874,2.2045658761473805
45.054994818235976,30.553091961288636,2.374343442308132
37.57953188521463,24.788023768679,2.422987832799212
24.57932827247754,15.495124871220884,2.358198961874345
7.898262664888138,3.9591539590248153,2.1815504788323103
10.087041461709099,8.213551957883098,1.8886051323890658
26.820694879944817,19.331372255905244,1.4818219213714616
39.93420777296225,27.849237841334,0.9658621164172295
47.57991744988374,32.58358358261224,0.35349682354746736
48.68490642730199,32.88503185463036,0.32262776636247226
43.089570247181896,28.728718998281813,1.0114826105146615
31.562668244009703,20.71425691460019,1.6510308099944562
15.700095122184283,9.976611642609425,2.1854812552215046
2.2898198876551263,1.9702742533559732,2.576877525125364
19.896087038641298,13.441138497020763,2.8010662562491713
34.648315828246474,22.821301116505825,2.8404200419760506
44.46419454232399,28.79956673404863,2.6862186639647545
47.96072070902303,30.552488793513973,2.3508298677737858
44.65080431543616,27.85396828093989,1.8769227104038726
35.01522972414693,21.10304326320199,1.3283944710075366
20.44290201064435,11.267661123308079,0.7688984015193077
3.022435313073249,0.2520062408877495,0.2673482471368051
14.76397484522225,11.820140776028982,0.10327934746309478
30.395907804879585,21.79709056553857,0.30782517057679376
41.67095764272549,28.762454754664383,0.35601272056058225
47.000888279988445,31.70328792485293,0.2823823882410506
45.61997741021377,30.159334387839554,0.14579328741255845
37.68780872486117,24.293231454443482,0.01582946883736161
24.27758650754492,14.878380791167064,0.04924100218075182
7.2416055477431085,3.205322958073341,0.017163711259879963
11.041727038134848,9.095680711563967,0.11608847600963416
28.00150417560497,20.29214042114113,0.3315055898456976
41.23861360303661,28.80891673926278,0.5825584008865307
48.87131853208528,33.452551209542484,0.8153238898688008
49.813056326945535,33.5707537244,1.001447988275573
43.92161849213168,29.139455930142233,1.1218613881633996
32.00778740433941,20.761180248189856,1.1463338111330394
15.726624281423469,9.58309305307812,1.0603032539490642
2.6564741702392927,2.8543816305087035,0.8883824647975264
20.589625568371996,14.830499130954228,0.6966713715334852
35.58692163674976,24.686340239001577,0.5752306632371919
45.579391147842784,31.05131925598435,0.5816601234564618
49.202826021637954,33.032317133308176,0.7023154096373309
45.97339943318152,30.347130606578975,0.8764836197852639
36.35873216568753,23.36901744662898,1.0347365991183246
21.722263025749267,13.083039676366,1.1150908301626528
4.131617229044268,0.953957403715879,1.0625392244622125
13.929002284474414,11.294542118913187,0.8341852662455981
29.909815733025503,21.933843719967065,0.4262468906557534
41.555824380043966,29.470740407873958,0.13048177690307278
47.22375508932956,32.849782384577765,0.788881648413021
46.11746302841788,31.596170189503386,1.4561600570470161
38.39822981551659,25.887106658607827,2.021705809397894
25.160724040791486,16.527292070376713,2.4256102006840887
8.281210261324372,4.831961517606535,2.644019655236115
9.852067820595112,7.5573864883710655,2.6603050578525984
26.68230632962496,18.90568918039178,2.4593909276580637
39.84614370850259,27.628147952290757,2.046622847696156
47.506279294725175,32.51115206584955,1.490647920711123
48.93504259787962,33.10451853636942,0.9064167825779115
44.56671782747159,29.756792171086463,0.387244198139328
35.5371748840592,23.29592301592786,0.022850580774924325
23.478582572944173,14.872892660793806,0.310721508575907
10.247149058720264,5.774039260167962,0.4814941830278746
2.357452000581093,2.772807958199094,0.5535937177291513
12.835319410230987,9.771401472392586,0.5546704192801566
20.17584804861857,14.572326670046497,0.5160650517250451
10.651153785817796,7.017965866962829,2.906377302853537
6.855410062161419,4.4401045033629325,2.66240879366669
0.488001931762495,0.17813616017852338,2.065921733372768
8.030289522680517,5.484042579433414,1.1318485462857129
17.79595766300909,11.951035785909253,0.08023611558794214
27.51398665059114,18.36361852839397,1.4812115830860872
35.67018134726954,23.713492618833282,2.955312765593749
40.73948314325599,26.98894642834858,4.3628155070835986
41.437923400612156,27.34014085175112,5.556794233847464
36.94889481099986,24.23059262434842,6.394574295440154
27.10172824604033,17.56207743050162,6.758461902012529
12.5477095651801,7.791300657584513,6.5947447717914445
5.105714211340962,3.97935358396998,5.954834650000647
23.54640644334849,16.178667969803314,4.96364214381011
40.310307113343455,27.156447918988206,3.7315621658521207
53.10679760081222,35.40535222806999,2.3551761132586186
60.103528860998594,39.74431769270242,0.9333259851194476
60.26666896802453,39.53464963414446,0.45000112363332867
53.47593643278851,34.73927853636821,1.693669097706112
40.55276446904005,25.93467279857525,2.702012570118923
23.172451600751195,14.2516000980614,3.433923105352102
3.610177617631776,1.2097300545436342,3.8795522480179367
15.564600099052305,11.475683047768168,4.047390879757915
31.857634682928758,22.146232707329176,3.9738524458448103
43.18938307593476,29.432809801402,3.7250132464589734
48.17004693191595,32.43339868655644,3.3780685705025686
46.29016120716907,30.843543170302418,2.9953878718077633
37.97840218837826,24.9939526302201,2.6292264207328597
24.54758111507461,15.80558504998361,2.324177278023629
8.008843582488188,4.660024854503058,2.106772677611818
9.205746911584807,6.795548922718252,1.9820748286444434
24.57469656184048,16.887916338438817,1.9395117809323423
35.844872711307346,24.165641875245484,1.9594373457116567
41.35256872315184,27.59013765200629,2.0025299380001953
40.27005801552076,26.674225950903164,2.0121228093173764
32.721729492198804,21.552893591507548,1.93245430015558
19.76215924899952,12.958500815115228,1.7204713717010574
3.22828370527887,2.1204882078742533,1.361664334486252
14.53102584036033,9.40593660257165,0.873169607442687
30.990731186385766,19.962120715085497,0.2940255439556914
43.80285324537758,28.024817805874765,0.32806350996234135
51.125540157867974,32.424845544348635,0.9486500027551702
51.87556768858516,32.50333957880428,1.5222242355380653
45.87087950081578,28.20575157770568,1.9994318247115404
33.85726871583702,20.09989044034771,2.328481972427161
17.422931276037154,9.296893575454398,2.463071482483429
1.2146490543082986,2.7024517633664074,2.3789015262273003
19.521304959751962,14.221262728061756,2.085662198515048
34.99250481939587,23.654121997642434,1.632411763160103
45.5083885312693,29.69990763653213,1.0906734358155374
49.652312795574076,31.538141254244668,0.5419057236417544
46.91432942369786,28.935627976239097,0.0685491386389253
37.757577024778705,22.281571228275542,0.2707879537435717
23.550917265155928,12.527991118482712,0.4427018237296138
6.3650304067348555,1.053602983171992,0.44180657657610267
11.330578087502762,10.517846842294784,0.2977180188840133
27.01391313843993,20.542212388576406,0.052766974143668044
38.45923519333606,27.586683021180075,0.2636972766134438
44.04817984191531,30.630804573146413,0.6311133677975612
42.99182443428988,29.211942682941928,1.0040384949933816
35.43611399290415,23.492858635418752,1.3224702600418379
22.450159568687017,14.250467261798724,1.5560935791188264
5.884357445536143,2.778313090743537,1.6950414124508897
11.888535186691007,9.297945427531463,1.7229702594504175
28.309711997357365,20.265613955157328,1.6282793107153233
41.002181974776335,28.57880931573325,1.427610032278988
48.1138740747694,33.07250934463144,1.1598195538769933
48.591941473789255,33.11885989133795,0.8632067072030597
42.33258406106667,28.705481716079355,0.5701512970744839
30.181219393123612,20.430793145589696,0.3067551536995489
13.807782442356633,9.420235415380544,0.09261789477248736
4.530780908741626,2.829130290793358,0.05785018583915146
22.30901078450465,14.643060621420458,0.14610581115982982
37.07721173420559,24.394461465484653,0.18931454739430745
46.79379734293958,30.73746474444641,0.20168897853412587
50.109137985681485,32.795419421569434,0.19584260849286741
46.554282752374874,30.280368021589773,0.1992938922309711
36.608960732067445,23.54439830035119,0.24375130214535093
21.6470751734952,13.54098971206821,0.34658650045212874
3.749382815465651,1.68997958308172,0.5190374197482258
14.592722022191397,10.327189539903962,0.7731277343047169
30.82369785486663,20.81691569712583,1.09892033634456
42.68307674279342,28.319668795271152,1.4396577439783655
48.527958027325475,31.80412522962534,1.7201914602749122
47.56448378076958,30.802400196179274,1.8943259022074856
39.9536806806603,25.47060345461678,1.942766070656973
26.778830394964032,16.557021644430346,1.858791508771694
9.895850203107058,5.300062521112786,1.6396951679610106
8.325345624980699,6.732505508933168,1.2801786101873505
25.336653762388227,17.860231310478845,0.7958077301822952
38.76367140636295,26.52206734309007,0.2315406280966947
46.73833564789664,31.49379871930129,0.3561045940141117
48.15657309627099,32.069685087907025,0.8952348533323541
42.826406290310196,28.16514721868721,1.3096976942048986
31.49989187257879,20.331500101314557,1.5440296280149088
15.776494357138137,9.689865931759966,1.555391209626595
2.113664105023829,2.2307785673759413,1.3208978814917611
19.62471027431144,13.724652919050346,0.8678345826915467
34.25669426108205,23.158888680608843,0.2715611257968978
43.91562492774048,29.2099211254542,0.3694524794913736
47.22052242281793,31.042807970008475,0.9608627759548112
43.69917907198618,28.418948794948296,1.434127155926214
33.8567525688087,21.72720145965283,1.7446809505391698
19.10130337815307,11.918933559985343,1.8536449970502362
1.5329263500945924,0.37845963257439524,1.7271186044875184
16.357162880699683,11.257327768287446,1.3592752722135033
32.03748380694872,21.33638108216321,0.788440559385045
43.2873615651728,28.42742464576231,0.0985782328329793
48.505568661497186,31.51356202747173,0.6039268002359426
46.93411883040313,30.140088251017357,1.2252842125109649
38.757335780774085,24.48446339042667,1.6933574108766276
25.082333499545822,15.327851148749197,1.9757554517564917
7.79625848805427,3.947770769282718,2.0781988648964664
10.699426023673787,8.057322279637082,2.002872596412863
27.82856666969776,19.005725642983496,1.7651467176887399
41.20437036689425,27.377201765323598,1.4175052167482616
48.96624531725385,32.0171987696011,1.0142238535111538
50.04198037459463,32.29291313581861,0.5952519774971299
44.29252320543176,28.175385866105362,0.20211336068581437
32.52290079587643,20.23567152386483,0.1120050886178636
16.371237500824076,9.566398247614021,0.2982864449795145
1.9231864920498831,2.3607102741304553,0.33706616255593647
19.831647582348843,13.890931954810732,0.2332016290680054
34.877435801750515,23.42334275033891,0.012881712415187473
44.97901147137769,29.636416352830828,0.2685637624702916
48.74630846806732,31.667522049118737,0.5363013291819607
45.676758941785074,29.241614386912634,0.6957689523640352
36.22088217462243,22.710391317392105,0.6441520656808046
21.72442892661781,12.9986702284249,0.32786527837704543
4.242126337190311,1.4839766196832205,0.2202220374115881
13.756171033897449,10.19502808863423,0.9056285521931322
29.726153273542398,20.381446450230083,1.6201005191038507
41.40818835801786,27.641319425497247,2.2567885770980007
47.14797255072787,30.956146220256283,2.7082302307292614
46.12587778254164,29.856301555741886,2.8869090744180768
38.4770307165213,24.49104380737396,2.7314080452671003
25.273002087359266,15.606829347138037,2.2162987134654673
8.374713218677982,4.443445736132904,1.3930193167151437
9.827129757678488,7.428539377633001,0.3817689287994749
26.753970615228813,18.328641985292403,0.6804103150880881
40.00336828988705,26.710727338229088,1.6629577749688187
47.6951840965282,31.379244939923595,2.4468403893223116
49.08236510729621,31.885754794608534,2.937833331767621
44.610137509194374,28.57195969903393,3.086997766225312
35.43646750812333,22.243712622473048,2.901763835658753
23.213017661908257,14.014230683935903,2.4575979940818713
9.815395931435466,5.127857888225666,1.8901258041760547
2.942065089782428,3.2228878043273075,1.3273698424353446
13.55117249009236,10.067107517863134,0.8345555691469742
20.98824596149585,14.771322513547414,0.42678653257393845
10.385595875907605,7.102684230236613,3.0069894072487555
6.527844781166488,4.383667568111518,2.8903781041957513
0.13631584108991046,0.0358913119023559,2.400346925983523
8.351929646075476,5.84744832350745,1.512364435723346
18.025678061271915,12.431035254492523,0.2739075376222358
27.594765636000645,18.909333584037817,1.196706007734609
35.56035605722015,24.26212043853863,2.75570602856412
40.4189571977954,27.467487790674205,4.255551075456666
40.90968355936135,27.674817381519702,5.549198783521292
36.2348891817344,24.35384593110398,6.502389615322581
26.236442807739092,17.418272885863026,6.995932336296409
11.576719189599372,7.357988342269469,6.960387342003606
6.119886603355209,4.673236509444362,6.430073334672162
24.521220371878613,17.04809553992366,5.508116390015119
41.14952289849833,28.07008986605286,4.296324830034624
53.71158442076339,36.215806540792904,2.904995577816538
60.385250204338966,40.31816409245879,1.4466236736669675
60.15938607100882,39.76964090716404,0.010752139674549922
52.95086308442364,34.577659423879155,1.2962286363245865
39.63111083126364,25.367208013661013,2.366265807271812
21.9205284574992,13.312452050116692,3.147151772890937
2.120657329588969,0.02306404149066772,3.6385719852390874
17.189582939885923,12.884034083382458,3.8767290994593955
33.51474466835146,23.584373088000866,3.90560115487611
44.77342913586711,30.740143880338916,3.7572015929660134
49.57248657583433,33.45625850678564,3.4844938536359247
47.40256122441529,31.455936862274125,3.1697575286487334
38.703125903089976,25.10907131126214,2.898680928590073
24.813490571763605,15.389754448208302,2.741481167187281
7.790207524452414,3.7401171449448603,2.72757449904007
9.874906103237464,8.142123354479548,2.8318954492775075
25.606675608669992,18.54266619904807,2.9914939693885194
37.121178124734755,25.977003615781502,3.139506581686336
42.74824892885079,29.39980017214642,3.219708297695862
41.67206984576271,28.342016035262372,3.1852498213526217
34.04365031949312,22.96557603657368,3.0052092811504423
20.953093345808057,14.036832557637199,2.6469128669155735
4.266640935656317,2.82151111043375,2.0897432730025836
13.651004006464342,9.0874839269193,1.3697740512637557
30.265634678009096,19.994993947570933,0.5592391804502597
43.22063711759249,28.351671171937507,0.2658026456653677
50.66554524514026,32.967448604315074,1.041172006068043
51.512640831147515,33.172658924547086,1.7223801235308598
45.58404697221027,28.919932799215907,2.267166586623803
33.63956002002436,20.79440028957648,2.6429114682245443
17.286738463679747,9.93500429830039,2.840085511689542
1.240838003937755,2.123271757708581,2.867375463650825
19.396977800007235,13.676561219489283,2.7537453012769597
34.67469601627048,23.105406436698125,2.541659953162103
44.96854118046756,29.10685527419283,2.2729201583554364
48.882482842851054,30.873108706479577,1.9804212977475681
45.92878836751247,28.19750166095735,1.6979031794830417
36.59110172807639,21.491619424424645,1.4654684140691454
22.250153706543227,11.718930563996697,1.3167860746734568
4.986182353235165,0.2687782998674129,1.2739176516336246
12.724325246556848,11.227302184387195,1.325376807379067
28.36169822569286,21.125629418691222,1.4276745341431043
39.70958097243982,28.004145733020092,1.5443587830171128
45.15777097837583,30.86207458669609,1.64066577724963
43.923920102796664,29.26274003505021,1.6743030388573965
36.15989554889724,23.399436159366804,1.607708285309485
22.934294057161235,14.071306498059151,1.4091182247672691
6.099045038972951,2.5724733734501197,1.0634213388493254
11.965352091387327,9.490917276836054,0.5837156376632044
28.69152115326225,20.43256745221423,0.0100932013257103
41.68974521388169,28.732512225447625,0.6028151428435489
49.0931669218852,33.246439219461365,1.1950860429734373
49.8298859145299,33.34821006796064,1.703117942677107
43.77374629819881,29.014407016701355,2.0723849619582704
31.75685500669443,20.831028470430127,2.261734007219429
15.44236966571131,9.907228875244721,2.245844240603902
2.9151178668565434,2.2669209477552843,2.031671167801837
20.78347642233212,14.01216559975601,1.6537827215209906
35.70669798092313,23.704547255454198,1.1570425952895453
45.64311688366745,30.01022083205422,0.5948504204090921
49.24002631020501,32.06433713062677,0.03161709679009011
46.019744550540366,29.592303823199575,0.4562464126954583
36.450887539084135,22.953092489062954,0.7945667968424165
21.887157964381238,13.09244779523367,0.9424213182360528
4.3784770075637836,1.413449801596045,0.8971067243117934
13.61659462776647,10.424167900484925,0.6811862913557531
29.57458713984195,20.744537438058156,0.34076555781112144
41.261703901516256,28.0966721508567,0.07044721464634636
47.04903435988024,31.45466177383063,0.49738962668693815
46.13980670687314,30.347041377931504,0.8695461472347312
38.67421511439177,24.916939947859454,1.1182579493545823
25.709487281059747,15.909928341974672,1.2033023785867287
9.077651817152386,4.57327414064894,1.1179400967191415
8.879127617499165,7.514570820751323,0.8848912620720498
25.638793666855243,18.65581002544288,0.5466165933013735
38.84400367654485,27.277381900893598,0.15344030375613402
46.639393443005,32.15681859487433,0.24111262631558572
47.931869122052646,32.587252489532545,0.5806495534818386
42.53466601300947,28.48721592607348,0.8196807570621735
31.19465541705395,20.418292083634615,0.9316162646711982
15.487471763056046,9.501380193921646,0.9084916503744506
2.399607811588467,2.7307632260126615,0.7606668603467786
19.964952461501113,14.552798663392178,0.5006800373891473
34.73685298201784,24.30582399829509,0.15604485117325584
44.62050580567281,30.63186129096079,0.2161719749002856
48.20248798097498,32.66117948726724,0.5560308188352331
44.95917422672379,30.12675792636436,0.8033011365266326
35.33864423961034,23.3928589065614,0.9129108699824151
20.699897792235397,13.408167944646621,0.882911679036443
3.1187976959463874,1.5797628688323333,0.7346817664497607
14.909030578873438,10.428090196168444,0.5091215420291102
30.838087494168356,20.930722953287137,0.2507654994637983
42.43403320260185,28.458150614343303,0.02315884629220629
48.076622143790836,31.960658281468515,0.29528365101570986
46.98492547172681,30.95121750513514,0.5323984949148568
39.31169486539567,25.578271052464064,0.6984706866313347
26.118766455551594,16.612995715053852,0.7643125647494157
9.243764147626377,5.333817491829907,0.7231655607260155
8.953694235806603,6.652588724278143,0.585112802077866
25.914773633914972,17.63804408878938,0.37366204955506155
39.23492686378782,26.07047988056305,0.14401567672211182
47.01946438208753,30.77086102565473,0.03511765700320956
48.1656914789094,31.087941711714915,0.13644610946147032
42.515569124272965,26.986455778377522,0.1705286749769873
30.877257406816206,19.04252357556429,0.1497616288420842
14.908630984531595,8.367231158054015,0.10793201411560283
3.135809304030524,3.5338744949644854,0.0966148352992889
20.729921032264166,14.978124623397404,0.1417531572470525
35.41928470314033,24.34871284148384,0.22302875214324
45.16062102165183,30.31337058422593,0.2727608747618283
48.598176714279425,32.01262423252362,0.22815274422038817
45.240906922154096,29.1859362491097,0.08038874707791058
35.53588303763056,22.21250381835873,0.14574617897455416
20.819321533372534,12.0693292201354,0.41940602659275444
3.143183604422231,0.1939661106666632,0.7186594641490694
15.012714743040462,11.728630666790053,1.01766356037992
31.094223475707867,22.01171618803132,1.2712457196115958
42.83099830398253,29.20876801351598,1.442520063539419
48.569096106275474,32.313299401330944,1.5069225538048128
47.51771070394711,30.89591633414874,1.4391894986896145
39.85020910283458,25.160910286534484,1.2323532705022338
26.66455313839522,15.910917252289538,0.9078071995237667
9.83362173570071,4.43738754043853,0.4955753412344022
8.258447099013297,7.649110681814954,0.026257681746509626
25.063644935932505,18.645737938817014,0.44917746988360246
38.22025739962298,27.002589534582544,0.8615373656418632
45.87704297244038,31.53337214861344,1.1576153281222414
47.295861639689264,31.81496663887297,1.3286936735782227
42.917289475259146,28.2261112710187,1.4048318676790732
33.89063861006703,21.611431068965786,1.422872085273658
21.86040337114516,13.129044587338132,1.410959362747242
8.696413751544132,4.063353995155669,1.3776574360931224
3.7949789711092228,4.373584873534645,1.316434524750139
14.12228020594178,11.209442415044872,1.2317133465240422
21.28631389741003,15.821458056838305,1.1271850635451397
10.430363641206231,7.104190251353726,2.9155578952417636
6.547032357100977,4.355882758234042,2.779379139232683
0.12271197378552626,0.09660153574439549,2.313804806300446
8.39821258801943,5.942005302730833,1.5056445889801864
18.093692993822653,12.554734740065166,0.37439091042988343
27.661983204515902,19.052022560912214,1.0024983124305045
35.59701926179974,24.41384895474045,2.4964191104118094
40.398228406693995,27.622482390593028,3.9584997104823505
40.82195064288786,27.828424283163233,5.237474009726828
36.0950619827449,24.50097928559391,6.185422272165405
26.080939889440323,17.554172735192683,6.678989957318184
11.457228602413034,7.475553978794903,6.66556448071655
6.148837708000206,4.579507915997367,6.192760234609527
24.42191134345077,16.985289826897528,5.354548274539838
40.913707650507575,28.059826442745177,4.228614318154094
53.35858968841303,36.289007597052986,2.911229577177605
59.954945573684846,40.50272939490402,1.5349092086057912
59.70615905723377,40.08719834517104,0.21915147632652027
52.53304854087241,35.04223787142258,0.9379420095628589
39.29848086051963,25.984798612878837,1.8560895837230733
21.71046572507846,14.072679704928055,2.5036505436474976
2.0594629896494947,0.8397272686876811,2.9003073483238238
17.08898037657596,11.984260686107234,3.0823702922065035
33.259216142308354,22.725512490618076,3.1042046278539255
44.393463533658164,30.003369405435645,3.044651184286434
49.120803701078266,32.91274725238929,2.9595154086393567
46.94762081961545,31.158700178877062,2.882838021425313
38.31269253284996,25.093794317252957,2.8645001223314543
24.538739977153952,15.674147781512234,2.942081688839241
7.656829621463557,4.324578991049918,3.1160592111748016
9.869364024355594,7.275200744152416,3.3675199042115023
25.482057602530038,17.434831329114438,3.6602163992192853
36.9043239875272,24.69244698316046,3.9162992394447738
42.473239783484715,28.013441751784196,4.037186887445275
41.38037454084559,26.930288654567956,3.9587743912242135
33.780779054995016,21.60204059647526,3.655317185725472
20.760359223479313,12.784768037545197,3.1244158939745903
4.173108586895829,1.7235685155698044,2.3916206867307306
13.626659982545194,10.01691307489606,1.5133644156282966
30.113551844497053,20.763969762383315,0.5460095311495082
42.94425889942155,28.972496720727776,0.46254039069559383
50.28260465080418,33.44634955631357,1.4258885567846198
51.05098772864228,33.506628991732214,2.2514364296569442
45.079958197192035,29.0923069157855,2.8898536402073445
33.14126790889965,20.775309389878316,3.297005493751934
16.85116845384632,9.683345844220044,3.4413337763153757
1.5589940606706458,2.6525143711906414,3.347062995136052
19.555626341046274,14.521153395850344,3.0774861503020263
34.653838066171986,24.28937600294275,2.698124465890653
44.780061076208774,30.628684949898144,2.267444354067707
48.57356906373432,32.69474504623279,1.8439054712948457
45.564993509111886,30.242468518427483,1.4719001161579885
36.23331296335762,23.648240948480428,1.1803101357387182
21.939880056620773,13.851511445840258,0.9938044643713625
4.736973004176976,2.2348987235536675,0.9069726686694178
12.918995167329467,9.554915556799283,0.877140950960073
28.510346013038447,19.840763619396686,0.8626935907978373
39.81289366078653,27.15755389185576,0.8417299589357252
45.21193678044334,30.456103612037918,0.7859793064538589
43.92763505760771,29.256356607875354,0.6632935423078038
36.12106145005928,23.721698664726794,0.47206581429534694
22.87813548525294,14.636283604543694,0.22557342520969673
6.063097260211107,3.295106624115716,0.060022668269085776
11.94879490873661,8.68431664710259,0.35143000643136735
28.60865258445412,19.59882922703171,0.608993731846957
41.547771369830116,27.903295514752084,0.797230899352916
48.91172400606878,32.42308320887256,0.8904914066183123
49.62716534175037,32.51081371232053,0.8702763554180473
43.5545482304938,28.135825395449174,0.7231892295069005
31.511849434638023,19.887893990262654,0.45226759495648083
15.16328991703895,8.892101839640317,0.06987663755037464
3.218568713183438,3.3429139131079277,0.3916394167522909
21.07601250037787,15.12812345192841,0.8594206185391596
35.928376703573996,24.83416394426167,1.2593999108778915
45.72489987394662,31.122506270621493,1.547856331902482
49.12722247811943,33.125857972051804,1.6845420505273399
45.68370062746415,30.56572792961606,1.6266454886822883
35.89131024835124,23.792524194786882,1.3595394641240568
21.13122828171258,13.743008828418432,0.903539607988122
3.4736887989535927,1.8221501728005292,0.2978134989077993
14.605151854185916,10.292355026884053,0.397248918562768
30.56073732714957,20.896234109268285,1.098865061965002
42.14203404394585,28.502174172761546,1.7361226273588193
47.71173612640804,32.05046348045587,2.263735877174715
46.47952407470206,31.060427454137336,2.6298939474874192
38.61936619177671,25.692149114937965,2.786585660764607
25.245782322281382,16.714597492114432,2.7307963447222985
8.25455389577786,5.393482005703372,2.49263107748458
9.952158630222364,6.682590153686236,2.1086072346789506
26.811483909683957,17.81922326029936,1.618651531571159
39.96111430004728,26.453173708123543,1.065772775275524
47.566829624329394,31.367989653674655,0.4926546242146181
48.569407186422914,31.85933131130185,0.05527832227648837
42.82442145582488,27.839035843984927,0.5229360928420458
31.125088360082277,19.85750234546995,0.8639141454434416
15.104105981830987,9.039337946064583,1.058932760709875
2.9920963013748008,3.066152242406787,1.1157352282042197
20.617756838768734,14.72084716026197,1.061120613472635
35.27829756298659,24.2654985408364,0.9121112301852646
44.89603799712164,30.357110488772168,0.6776584937502701
48.11400307236592,32.15461848861368,0.38382981394358395
44.47994286803613,29.42635048765522,0.08177101552528435
34.514867917311584,22.567877782673083,0.15972187203365526
19.64131913979191,12.541799293442608,0.302599173311375
1.9713455206107977,0.7476297224500119,0.3431554351169417
15.99883820907511,11.16761949917808,0.27203920018166006
31.741466877956913,21.538104540732355,0.09522787183947481
43.05279082334659,28.910758213646893,0.15747170195261137
48.35708271855723,32.246970815838836,0.4426376761575661
46.91128747644844,31.07028669374329,0.7065332143439866
38.898965642864056,25.537666712138076,0.9179207843988019
25.413194869489725,16.426162636273467,1.0643620329962489
8.31562126918963,5.028282556605363,1.1349938834948488
10.020419513618048,7.038326386608118,1.1286511041783291
27.03799155293406,18.072862325911757,1.0467710139301052
40.34819467885248,26.53660521996077,0.8874872076063387
48.075474371667774,31.258089778473888,0.6570206480532177
49.13526395670519,31.585964684176947,0.3798088140494217
43.37922160730572,27.478327908737654,0.06324055590177598
31.62072008514822,19.508553016995403,0.3156408139012537
15.529847841101368,8.789099096919074,0.7454358039595762
2.6212136163865036,3.1792923579251937,1.1616474049088243
20.287841645085525,14.71634694531422,1.4840250923371858
35.00408139879823,24.201254908545355,1.6350257133115906
44.72602900791927,30.304413164444302,1.5628984996356725
48.11060726643817,32.1685702851359,1.2595609960846954
44.69297283157746,29.5258915318047,0.7460494485463043
34.947363637418974,22.739740511625612,0.07275466517978912
20.23224809954846,12.753846855671389,0.657272581891087
2.6155042777887525,0.9629165082403958,1.3113457651049705
15.413826553857737,10.980219060389956,1.7933090155648657
31.30041208480054,21.402707600509597,2.060388962136078
42.78538213813773,28.850277711069673,2.093898613438097
48.2307498753594,32.28890679457621,1.9018001991287015
46.86188364499705,31.248230765586694,1.513725355444001
38.87275211376017,25.885239915526068,0.9600940280155402
25.387539460354613,16.956140027006963,0.2985048735481453
8.30577258668919,5.709089177182349,0.3651162903503388
9.974910683060095,6.285521220431649,0.9016024353492212
26.904259866599904,17.353302553961175,1.21951440577446
40.12346649972366,25.94986128406638,1.3120058985815954
47.79657933038721,30.874346343788453,1.2231798970525947
49.19944757165679,31.662007888683767,1.0145069690193351
44.773755011858164,28.623287533046604,0.7501665939905667
35.66810115487916,22.531943923409774,0.4692178570021169
23.525514619621504,14.485444234900037,0.20721961260470323
10.21477863648955,5.7243628449376605,0.005113818816799403
2.451149043012365,2.557709793329675,0.13508552385145423
12.968845466373049,9.381523958340368,0.23910679391252518
20.330127168902067,14.10357756017569,0.3111661104606211
10.313276957028807,6.84788593529996,2.919014292790195
6.521816943582436,4.157562134226932,2.7605125444001986
0.21697669001491252,0.18579348247159372,2.2688879534032425
8.178713790521515,5.869975210108479,1.4469025008555811
17.770018436009735,12.278912119647629,0.32651277806400014
27.27881566900397,18.548321114920654,1.0203326340351917
35.20963241188032,23.686359838557596,2.4815839219268825
40.056657854186206,26.708762555729226,3.9253586096474953
40.56025994764677,26.80031005953555,5.198407488786632
35.92911769314512,23.466294541812783,6.138440210752027
26.01122388482,16.647163177501803,6.634654494434861
11.472018703774744,6.831225610483224,6.643149010198796
6.069328607945714,4.855789573655307,6.191177866273454
24.299415172577273,16.8317844043059,5.367503961187983
