File Name: not saved
Channel 2: 'Channel 2', 30670 values, raw ADC, no filters.
Channel 3: 'Channel 3', 30670 values, raw ADC, no filters.
Channel 4: 'Channel 4', 30670 values, raw ADC, no filters.

74	-263	-133
-75	-326	-89
-250	-342	-43
-417	-317	-8
-529	-260	5
-555	-174	3
-497	-67	4
-383	44	33
-255	141	79
-153	205	137
-92	233	166
-61	232	144
-36	228	60
9	233	-59
78	244	-137
151	248	-172
194	218	-137
180	142	-36
103	24	55
-21	-116	79
-143	-259	37
-223	-372	-49
-226	-444	-141
-155	-460	-175
-40	-418	-176
81	-311	-142
171	-153	-114
215	28	-68
222	186	-30
210	279	-34
197	283	-40
178	209	-30
144	92	6
79	-21	10
-17	-99	26
-121	-124	22
-197	-111	-1
-214	-86	-3
-165	-65	-14
-72	-60	-4
19	-62	12
81	-67	26
101	-64	29
93	-53	21
87	-31	-7
101	6	-13
130	52	19
151	105	47
139	149	66
85	168	41
5	153	3
-71	116	-28
-113	82	-67
-106	71	-88
-61	100	-71
-3	156	-23
49	211	14
93	236	8
128	211	15
170	151	-9
219	78	-92
269	23	-117
292	-1	-80
262	-1	-37
159	-2	-51
-15	-39	-90
-236	-127	-52
-452	-264	16
-603	-420	68
-642	-550	95
-555	-603	101
-363	-551	81
-132	-395	37
66	-179	3
170	41	-69
155	208	-164
46	282	-222
-91	275	-218
-193	228	-128
-218	191	-48
-165	194	-6
-60	223	5
49	235	14
129	189	21
165	80	-6
162	-50	-26
139	-141	-30
110	-144	-28
81	-66	-44
53	31	-56
35	70	-46
33	15	-32
59	-111	12
113	-229	41
183	-249	19
245	-147	3
278	34	12
269	194	21
228	241	8
172	156	1
124	-5	6
89	-137	0
49	-160	-29
-18	-62	-66
-126	91	-85
-268	210	-95
-400	229	-69
-472	150	-15
-445	36	36
-320	-39	45
-142	-33	26
25	38	6
122	126	-35
131	174	-66
69	161	-68
-6	100	-47
-49	27	-13
-35	-29	45
20	-61	103
77	-78	117
94	-82	94
60	-78	68
-6	-53	18
-65	-18	-66
-78	14	-114
-30	12	-125
63	-37	-122
160	-120	-101
216	-196	-97
208	-218	-86
137	-170	-85
37	-77	-89
-46	3	-40
-77	11	-38
-40	-72	-84
38	-211	-104
113	-334	-98
128	-379	-88
58	-314	-80
-82	-173	-50
-233	-8	-2
-325	126	46
-310	208	104
-188	248	178
-15	268	234
136	275	216
206	259	152
188	197	77
126	85	-42
84	-44	-151
94	-142	-252
138	-170	-297
158	-114	-262
86	-11	-226
-91	88	-173
-321	138	-76
-508	135	71
-564	104	141
-458	81	91
-235	80	14
15	84	-9
198	64	-6
276	6	-1
274	-72	-18
242	-124	-15
229	-113	7
222	-28	1
194	88	9
99	168	29
-55	171	49
-226	94	42
-336	-12	16
-335	-88	-3
-227	-100	-21
-66	-68	-38
68	-48	-32
128	-83	-11
111	-174	0
59	-263	-12
30	-277	-24
46	-171	-36
102	24	-56
151	214	-44
162	290	-36
131	190	-39
84	-51	-44
57	-322	-54
74	-487	-40
121	-451	-21
164	-224	-15
169	105	20
122	401	69
42	559	86
-30	548	78
-61	408	38
-45	210	-57
-5	24	-158
18	-121	-202
-17	-227	-197
-116	-300	-144
-257	-338	-97
-378	-322	-28
-421	-243	50
-352	-108	70
-175	45	63
63	168	57
292	227	27
444	224	-38
470	193	-70
366	171	-55
165	174	-30
-69	186	-14
-268	173	3
-382	110	15
-386	-1	4
-300	-123	-27
-173	-213	-87
-64	-238	-149
-20	-206	-149
-44	-149	-69
-108	-98	17
-158	-77	28
-153	-74	-21
-83	-67	-27
27	-40	-25
124	9	-32
175	56	0
180	75	31
172	47	80
196	-19	116
258	-97	123
328	-158	83
335	-179	1
229	-160	-96
14	-114	-168
-237	-65	-183
-431	-29	-171
-481	-8	-108
-383	3	-36
-191	22	30
-7	57	94
91	117	94
97	190	83
51	265	66
27	335	-5
56	386	-48
125	412	-79
179	399	-109
167	328	-102
85	180	-47
-23	-42	30
-89	-305	34
-69	-536	14
23	-646	-1
133	-583	-36
194	-353	-47
166	-41	-39
63	229	-7
-56	358	26
-134	321	19
-130	178	-42
-50	32	-135
72	-33	-202
187	-13	-214
244	22	-149
221	-11	-65
116	-151	-8
-41	-340	6
-206	-471	24
-319	-445	78
-332	-254	116
-228	8	130
-34	200	77
172	225	3
314	96	-68
341	-74	-162
259	-142	-203
120	-49	-121
-3	158	11
-76	349	84
-106	400	65
-151	283	13
-253	75	-17
-415	-94	-35
-576	-133	-24
-651	-55	-10
-577	51	22
-357	81	66
-65	1	109
195	-136	120
350	-226	76
387	-196	7
345	-56	-58
287	117	-131
250	231	-219
226	244	-251
187	190	-190
109	131	-89
2	104	-28
-100	88	34
-159	27	63
-162	-117	38
-128	-300	30
-84	-427	-5
-52	-399	-39
-28	-194	-29
6	98	3
59	332	5
123	385	0
175	244	40
195	8	71
181	-168	20
157	-181	-22
147	-41	14
155	149	32
162	253	-18
139	199	-97
69	10	-105
-31	-212	-118
-128	-371	-144
-190	-421	-133
-211	-384	-95
-222	-317	-44
-250	-256	-24
-310	-196	11
-371	-107	34
-377	27	31
-282	182	61
-87	305	109
167	345	113
406	301	42
561	200	-35
592	101	-104
490	34	-165
283	-6	-187
10	-49	-124
-279	-112	-19
-526	-176	18
-669	-198	15
-668	-143	38
-524	-18	46
-285	122	17
-40	211	-29
125	206	-80
182	130	-103
151	38	-101
102	0	-76
93	34	-49
140	102	2
212	140	48
249	104	85
214	-1	110
125	-120	108
34	-184	51
-5	-159	-44
27	-68	-95
102	34	-106
169	99	-83
184	115	-30
145	113	4
87	138	-28
49	202	-66
54	268	-62
86	278	-41
115	182	-9
117	-9	6
86	-234	0
33	-393	-16
-22	-433	-13
-76	-346	-16
-134	-195	-40
-201	-72	-60
-263	-31	-38
-289	-69	47
-241	-127	64
-104	-130	37
102	-43	45
320	117	48
481	280	39
531	372	-3
439	351	-61
228	228	-153
-71	53	-249
-392	-109	-280
-659	-217	-239
-812	-264	-113
-810	-264	13
-658	-237	72
-407	-185	105
-137	-113	77
65	-30	30
165	43	6
175	84	-28
162	74	-42
183	25	-34
266	-25	6
373	-38	26
433	2	12
373	77	-32
179	131	-51
-89	121	-25
-331	27	-23
-452	-112	-11
-411	-224	-6
-242	-240	-2
-26	-129	1
144	71	11
225	279	16
216	404	22
172	393	54
138	251	89
132	36	87
140	-162	48
137	-282	-7
94	-301	-112
16	-243	-189
-75	-155	-198
-139	-86	-162
-158	-57	-118
-127	-54	-128
-66	-44	-110
5	4	-36
68	95	35
118	199	44
144	268	30
144	268	44
110	190	39
49	62	25
-20	-57	59
-63	-127	108
-56	-138	133
6	-105	108
97	-72	61
170	-69	-10
190	-98	-104
152	-125	-194
82	-118	-243
21	-64	-124
-8	19	59
-20	93	155
-59	123	104
-158	112	-28
-314	87	-190
-473	91	-339
-555	142	-356
-496	224	-244
-300	278	-54
-38	252	57
186	122	101
280	-72	113
226	-263	77
55	-379	58
-137	-378	41
-271	-281	0
-299	-144	-54
-232	-29	-88
-112	36	-79
18	67	-34
130	94	12
224	150	79
301	227	135
363	282	140
399	262	103
387	140	51
311	-66	-12
172	-298	-118
3	-466	-192
-159	-512	-157
-260	-418	-78
-273	-219	-43
-194	10	-46
-59	193	-71
74	276	-116
155	251	-99
153	139	-40
80	0	0
-26	-116	42
-106	-164	93
-120	-133	125
-61	-41	124
50	70	96
175	157	45
275	189	-24
317	161	-87
291	93	-104
200	18	-84
64	-41	-67
-88	-70	-93
-212	-77	-116
-277	-63	-80
-253	-38	-22
-153	8	26
-20	80	53
90	164	37
123	244	0
75	286	-47
-34	274	-79
-150	206	-85
-235	113	-15
-273	22	120
-282	-46	207
-285	-91	178
-281	-131	22
-263	-185	-137
-205	-254	-287
-96	-319	-357
38	-348	-266
154	-322	-113
205	-235	19
184	-108	57
122	27	49
71	141	45
68	213	45
120	239	48
191	215	66
231	155	54
212	57	32
148	-56	-1
83	-163	-49
61	-232	-70
106	-237	-93
196	-173	-76
276	-50	-46
291	91	-16
207	212	21
36	274	-15
-177	257	-74
-374	164	-77
-505	15	-80
-550	-142	-61
-518	-269	13
-433	-326	117
-330	-305	176
-231	-213	152
-142	-89	58
-60	23	-90
20	93	-223
98	104	-262
166	77	-184
212	40	-102
234	22	-63
230	32	-69
219	53	-95
207	65	-131
195	50	-103
169	13	-2
114	-24	78
27	-31	111
-79	4	106
-167	67	107
-205	124	93
-176	140	83
-90	100	56
16	19	16
98	-63	-1
128	-107	-4
112	-92	-17
78	-21	-31
63	80	-45
93	177	-51
162	251	-36
245	287	-17
301	289	-11
302	249	-13
239	168	27
127	52	65
-5	-68	49
-121	-157	-25
-195	-179	-86
-221	-129	-112
-201	-45	-158
-156	16	-160
-96	0	-119
-30	-100	-40
42	-242	6
117	-348	19
172	-356	-7
172	-263	-44
84	-120	-40
-97	-16	-46
-330	-11	-28
-530	-100	-19
-603	-218	8
-497	-276	43
-235	-222	41
82	-66	22
318	108	7
373	219	-28
238	221	-84
6	135	-108
-190	35	-96
-244	-14	-36
-134	13	21
54	88	55
190	155	36
174	174	13
-3	142	-15
-253	103	-54
-448	89	-15
-487	110	101
-358	134	217
-131	117	191
81	28	40
197	-114	-165
203	-249	-403
154	-320	-576
122	-296	-509
155	-194	-210
245	-65	34
336	41	133
371	105	151
314	131	107
193	147	57
49	162	33
-63	169	43
-119	150	79
-118	97	86
-82	18	50
-36	-55	16
4	-96	-1
34	-94	-9
59	-66	4
82	-33	26
102	-7	25
121	14	-3
133	45	-40
133	88	-63
111	126	-67
52	128	-42
-38	76	18
-145	-19	30
-237	-112	-18
-277	-160	-19
-241	-149	-13
-132	-102	-28
15	-78	-31
150	-106	-15
231	-173	5
238	-216	28
180	-163	37
85	9	-2
-12	247	-68
-84	444	-104
-119	488	-136
-120	351	-124
-104	89	-48
-89	-177	21
-96	-338	49
-134	-346	14
-195	-247	-12
-245	-126	-32
-239	-51	-39
-144	-33	-12
43	-29	10
280	12	-9
494	109	-114
596	224	-185
528	284	-166
297	255	-137
-38	138	-108
-380	-2	-68
-645	-105	-18
-777	-145	19
-765	-156	50
-636	-192	55
-433	-287	42
-206	-419	41
11	-511	42
188	-490	39
310	-325	15
363	-63	-12
351	194	-48
288	360	-85
202	395	-111
124	327	-97
78	225	-21
72	153	68
109	125	115
172	122	134
240	114	176
283	83	185
270	47	143
187	34	91
38	53	-34
-147	91	-226
-312	104	-394
-402	66	-435
-385	-18	-306
-262	-111	-129
-79	-166	11
102	-151	85
228	-69	112
273	35	87
245	132	69
170	196	54
74	224	28
-15	215	28
-88	181	26
-132	110	42
-144	6	51
-117	-110	80
-54	-202	47
23	-233	-40
94	-186	-93
128	-87	-115
114	14	-162
60	65	-208
-4	50	-194
-54	-18	-163
-69	-94	-144
-44	-136	-87
-2	-134	-2
35	-103	22
36	-70	22
0	-54	27
-61	-53	51
-111	-52	53
-115	-48	52
-52	-45	60
56	-64	31
165	-115	-38
209	-173	-86
156	-205	-67
16	-174	-33
-156	-80	21
-281	43	77
-310	131	89
-222	138	47
-59	67	-20
113	-34	-77
242	-88	-98
295	-47	-124
271	84	-115
184	243	-25
39	342	57
-153	325	130
-366	183	202
-551	-25	186
-652	-215	79
-619	-316	-43
-459	-296	-192
-215	-182	-351
26	-29	-394
190	97	-265
248	155	-88
228	133	41
181	56	133
155	-32	188
163	-87	137
179	-81	82
179	-18	19
154	70	-79
126	134	-122
129	145	-106
175	99	-81
245	26	-121
291	-25	-109
273	-26	-35
179	26	24
41	93	74
-84	129	98
-150	110	111
-144	41	89
-98	-35	49
-48	-87	-9
-30	-99	-85
-44	-89	-134
-72	-87	-157
-85	-103	-126
-66	-124	-57
-25	-113	-10
23	-48	-5
58	63	-3
76	177	12
78	240	9
75	227	0
75	157	-9
82	90	-7
97	74	5
121	117	-1
154	171	6
180	169	19
175	60	24
111	-133	45
-18	-330	64
-191	-432	37
-350	-379	-13
-421	-198	-32
-363	17	-36
-186	166	-58
36	182	-65
206	92	-94
245	-19	-168
141	-55	-214
-46	16	-207
-229	148	-163
-333	237	-88
-347	183	-20
-303	-24	51
-261	-326	142
-260	-590	191
-289	-701	221
-305	-627	186
-264	-416	96
-160	-182	-31
-17	-23	-189
116	28	-311
211	18	-310
280	28	-151
359	113	-27
468	267	-1
583	417	-21
650	480	-9
596	413	11
383	241	24
50	38	104
-302	-105	140
-561	-147	124
-647	-100	74
-567	-21	3
-374	33	-84
-160	38	-176
0	10	-160
76	-12	-124
85	6	-134
66	63	-126
52	133	-77
60	179	-7
83	174	38
110	121	45
134	41	45
151	-32	24
156	-80	37
141	-96	78
107	-95	99
57	-90	112
5	-89	52
-29	-87	-30
-28	-69	-100
5	-27	-140
48	43	-115
79	128	-76
80	205	-30
63	253	29
58	264	59
106	252	32
223	235	-11
389	233	-47
541	248	-27
600	272	-19
498	283	-8
225	257	14
-181	181	-21
-611	38	-69
-937	-171	-131
-1067	-437	-168
-986	-721	-179
-743	-954	-182
-448	-1059	-116
-199	-965	-7
-54	-660	52
-12	-229	53
-18	193	72
-8	457	60
54	481	46
162	300	80
270	45	89
336	-125	56
339	-117	-14
280	43	-109
198	243	-211
115	345	-224
50	284	-129
4	100	24
-20	-92	181
-15	-173	260
30	-104	190
118	60	56
234	209	-28
336	252	-107
388	177	-167
370	41	-158
281	-61	-82
153	-84	-69
5	-35	-131
-145	24	-170
-291	35	-123
-431	-14	-48
-539	-89	6
-582	-127	32
-530	-97	41
-372	-8	57
-147	93	63
76	155	60
225	161	41
266	123	17
224	81	24
155	51	47
118	33	49
134	7	57
182	-44	31
203	-104	-30
169	-140	-45
77	-124	-52
-28	-58	-79
-94	23	-99
-90	77	-136
-34	74	-161
32	30	-168
66	-12	-163
57	-5	-72
37	64	30
48	162	68
116	237	20
216	237	-25
291	145	-1
274	-20	6
136	-222	12
-86	-421	11
-312	-590	13
-451	-709	-6
-458	-743	-21
-352	-653	-4
-211	-436	6
-123	-124	20
-141	204	16
-244	445	10
-352	533	14
-382	458	-4
-277	296	-18
-61	143	-37
188	81	-80
373	116	-99
419	189	-121
328	222	-116
155	163	-89
-16	31	-68
-124	-114	-30
-144	-201	47
-101	-198	164
-35	-130	178
17	-51	84
48	-15	-17
62	-33	-120
77	-78	-259
105	-101	-334
150	-78	-232
209	-9	-66
275	72	27
335	130	79
363	150	117
332	131	105
212	106	58
9	89	65
-236	89	112
-451	98	137
-555	105	100
-506	106	29
-330	104	-30
-100	99	-135
90	85	-260
175	43	-294
154	-38	-232
68	-165	-144
-8	-308	-79
-25	-422	18
15	-456	86
75	-389	70
107	-238	67
93	-56	53
46	92	22
17	169	13
48	177	5
151	162	9
305	181	17
451	267	14
528	408	-9
490	544	-13
322	599	49
42	526	81
-291	324	47
-610	45	9
-821	-230	-14
-863	-432	-36
-714	-536	-80
-417	-543	-125
-52	-490	-154
249	-405	-170
394	-299	-149
346	-175	-89
150	-30	-47
-96	110	-32
-285	221	-52
-347	256	-74
-280	209	-58
-137	101	-13
10	-25	28
113	-109	37
155	-125	49
158	-80	61
143	-20	37
120	-1	8
78	-56	-5
3	-181	7
-100	-326	41
-197	-432	63
-236	-434	60
-172	-326	42
0	-130	12
242	91	14
472	274	95
613	379	147
606	398	167
461	359	127
221	305	-43
-34	270	-268
-234	264	-478
-336	268	-518
-333	265	-410
-260	233	-275
-168	171	-102
-101	96	41
-84	17	91
-103	-57	94
-123	-134	96
-110	-211	69
-45	-280	41
52	-309	28
148	-270	20
197	-154	15
190	15	-20
140	174	-48
87	252	-48
61	197	-21
65	20	31
71	-222	107
41	-432	170
-42	-533	160
-162	-489	99
-264	-322	20
-303	-99	-80
-248	110	-182
-118	252	-232
35	313	-178
161	308	-113
233	256	-57
249	183	25
223	100	97
157	20	126
40	-42	80
-130	-72	21
-332	-67	-35
-502	-40	-92
-566	-17	-120
-483	-30	-74
-262	-81	-4
12	-143	12
244	-171	13
357	-121	-4
342	13	-8
260	196	45
180	357	111
149	434	94
151	404	4
144	291	-81
87	160	-204
-22	56	-289
-134	3	-236
-191	-20	-106
-164	-51	28
-66	-108	61
51	-181	39
136	-227	45
166	-219	43
155	-158	8
130	-86	-46
115	-59	-85
107	-112	-125
91	-224	-131
57	-331	-114
17	-368	-70
-14	-297	-16
-24	-148	8
-31	16	66
-62	125	111
-137	149	204
-245	115	247
-331	82	163
-333	104	65
-214	193	-52
-5	312	-210
216	394	-341
368	387	-306
390	282	-144
301	114	-24
163	-48	24
52	-162	27
-3	-201	10
-25	-190	13
-76	-167	-6
-195	-162	-53
-378	-181	-25
-552	-205	38
-626	-206	76
-538	-161	85
-296	-76	57
20	17	34
302	90	4
472	122	-83
501	123	-139
425	117	-113
299	121	-12
163	129	82
28	112	42
-111	35	-7
-257	-114	-67
-383	-296	-132
-435	-443	-131
-377	-481	-58
-197	-381	38
52	-180	56
288	43	62
429	206	29
429	274	-34
306	267	-105
111	244	-170
-86	253	-169
-240	292	-141
-324	317	-59
-336	262	52
-280	114	147
-174	-87	182
-28	-252	109
125	-301	6
248	-222	-78
302	-67	-128
270	59	-137
171	84	-71
49	0	3
-42	-123	9
-71	-192	-28
-36	-144	-61
32	11	-56
99	195	-21
137	313	2
140	310	-12
120	194	-2
88	32	24
44	-98	82
-8	-151	178
-71	-130	249
-134	-72	225
-167	-16	104
-151	28	-27
-85	70	-144
9	127	-313
89	206	-424
123	285	-312
107	338	-178
61	341	-162
24	298	-139
29	228	-70
79	160	41
151	101	83
206	30	43
200	-79	63
110	-250	99
-58	-473	133
-269	-699	116
-465	-857	22
-582	-887	-46
-584	-745	-132
-468	-470	-179
-268	-127	-153
-52	171	-127
118	342	-85
205	338	-25
222	183	0
212	-34	5
229	-210	10
296	-267	47
389	-192	66
455	-37	22
439	113	-2
328	190	-20
143	178	-15
-49	124	4
-198	101	50
-281	147	108
-314	253	96
-329	354	50
-350	380	10
-369	295	-34
-353	134	-90
-286	-24	-104
-180	-111	-55
-74	-96	-33
-21	-16	-2
-40	53	4
-112	56	-31
-175	-14	-11
-172	-114	-22
-80	-178	-36
68	-165	-31
208	-80	-29
284	35	-53
277	129	-96
211	171	-96
140	169	-82
106	137	-80
111	97	-70
131	46	1
129	-17	89
91	-95	122
27	-164	44
-29	-200	-77
-48	-190	-167
-26	-136	-240
21	-68	-189
64	-11	-33
96	24	112
117	57	150
151	114	103
203	209	63
260	331	-17
291	435	-133
263	485	-195
170	453	-141
29	341	-50
-117	171	11
-232	-28	94
-289	-233	188
-294	-421	222
-262	-562	158
-217	-618	41
-168	-563	-114
-120	-403	-259
-76	-190	-337
-38	2	-290
-4	98	-131
41	77	-29
122	-23	41
253	-117	142
411	-140	242
541	-74	260
553	32	179
380	95	55
18	54	-105
-448	-90	-251
-871	-272	-303
-1101	-403	-252
-1064	-421	-104
-770	-330	-4
-335	-182	15
99	-36	18
405	68	14
526	148	31
478	233	29
328	339	22
141	455	37
-28	527	93
-155	507	122
-223	395	98
-222	215	49
-160	35	-58
-54	-93	-187
54	-149	-268
128	-151	-244
139	-131	-164
89	-115	-115
8	-103	-53
-55	-81	22
-68	-40	17
-25	13	18
50	57	28
123	78	8
164	67	7
166	43	19
142	28	26
122	31	22
124	47	47
151	60	81
188	57	104
211	38	89
198	16	22
139	1	-60
42	-2	-124
-75	4	-111
-180	16	-75
-249	41	-52
-262	93	-32
-218	183	-61
-127	305	-88
-8	420	-60
114	474	22
214	410	112
276	218	101
290	-74	119
253	-390	134
171	-631	12
62	-718	-150
-54	-637	-226
-154	-439	-190
-221	-227	-180
-245	-104	-203
-240	-129	-141
-214	-277	-29
-179	-457	49
-123	-540	109
-32	-446	142
102	-181	190
262	162	255
401	438	216
455	543	32
372	450	-139
144	243	-278
-173	41	-382
-485	-43	-332
-690	4	-190
-726	114	-10
-603	186	79
-391	145	82
-173	3	61
-15	-163	6
74	-252	-12
121	-215	-60
167	-82	-90
239	75	-80
318	169	-63
366	171	-11
340	112	20
233	52	35
58	37	20
-121	66	31
-258	105	30
-311	104	17
-279	56	48
-189	-13	63
-71	-50	77
39	-24	45
123	63	-35
172	171	-135
188	252	-222
175	274	-200
151	244	-85
121	190	30
97	135	94
82	81	57
72	17	-14
71	-77	-43
69	-189	-87
68	-292	-110
64	-344	-65
53	-312	19
32	-203	53
-8	-51	39
-61	88	61
-120	174	62
-162	194	45
-172	158	8
-141	96	-52
-81	38	-61
-16	-4	-27
27	-39	25
34	-84	81
10	-152	93
-24	-233	47
-36	-305	-30
-6	-334	-112
67	-296	-171
172	-203	-208
279	-90	-200
354	0	-119
366	43	-35
294	43	-6
130	34	40
-105	55	139
-366	112	189
-582	182	101
-686	211	-44
-633	158	-144
-436	24	-229
-169	-149	-238
69	-289	-131
199	-349	7
195	-315	46
93	-218	-11
-33	-103	-53
-107	3	-89
-97	95	-111
-19	185	-90
82	274	-62
170	344	-26
231	362	1
277	312	53
321	210	125
346	95	194
330	14	225
228	-22	192
37	-31	126
-204	-52	-14
-417	-109	-121
-535	-183	-203
-513	-233	-219
-375	-211	-138
-182	-116	-70
-7	17	-13
108	130	24
170	182	6
206	173	-45
250	135	-116
301	110	-173
331	115	-124
300	129	0
190	122	94
31	68	72
-115	-13	24
-174	-87	-3
-114	-116	-45
44	-98	-46
225	-54	-7
331	-26	60
302	-33	128
143	-61	172
-89	-80	159
-307	-58	120
-439	-3	79
-456	56	-57
-383	83	-238
-271	58	-295
-172	3	-226
-101	-56	-168
-58	-91	-126
-23	-101	-54
16	-104	-46
55	-111	-82
84	-115	-59
100	-86	-16
117	-11	51
166	89	96
257	151	87
373	115	16
468	-39	-82
462	-257	-157
321	-427	-196
46	-448	-168
-281	-282	-115
-556	-1	-30
-683	261	39
-623	386	53
-412	320	52
-151	123	76
56	-89	142
148	-210	221
123	-210	225
42	-130	142
-24	-43	13
-29	1	-135
25	13	-273
101	41	-328
156	126	-242
172	252	-67
182	358	48
224	366	60
322	251	71
459	56	57
566	-121	72
558	-183	128
373	-98	159
28	90	87
-389	282	-23
-750	372	-62
-937	316	-78
-900	122	-96
-667	-134	-108
-344	-371	-100
-49	-510	-123
132	-530	-147
188	-429	-147
156	-251	-128
96	-49	-88
57	117	-12
54	203	112
69	194	180
77	110	185
66	5	166
52	-56	64
61	-41	-113
111	47	-248
204	162	-221
319	236	-124
414	225	-45
454	126	-12
414	-12	-21
288	-130	-43
97	-179	-59
-126	-154	-51
-333	-87	-48
-470	-28	22
-504	-22	53
-442	-74	24
-320	-160	29
-199	-227	17
-127	-237	-31
-117	-178	-89
-143	-66	-61
-158	55	-43
-122	153	-92
-30	208	-80
86	231	40
188	241	191
241	261	213
253	298	98
257	322	-12
276	300	-136
311	200	-223
322	20	-227
265	-204	-151
117	-410	-50
-87	-531	-49
-280	-531	-36
-377	-411	14
-336	-218	59
-180	-19	87
10	128	66
144	194	32
171	189	26
101	150	4
-4	121	-37
-74	119	-59
-66	141	-84
1	158	-77
77	132	-55
112	51	-17
94	-78	29
51	-222	72
24	-334	103
44	-381	49
94	-345	-54
126	-245	-137
96	-101	-198
-10	50	-211
-154	185	-104
-272	283	57
-314	341	145
-267	353	139
-174	320	118
-94	250	60
-70	150	-42
-105	35	-131
-161	-81	-194
-189	-188	-132
-166	-278	-30
-103	-344	28
-40	-371	17
-4	-344	-77
-1	-256	-113
-3	-114	-111
18	50	-55
76	193	49
154	272	109
216	272	144
232	211	103
198	135	53
140	88	-9
96	86	-109
84	112	-195
104	125	-211
144	97	-185
194	26	-151
248	-46	-40
314	-78	48
378	-38	65
411	47	56
366	126	20
212	141	-43
-37	68	-55
-311	-53	-23
-511	-167	12
-566	-210	25
-473	-175	9
-300	-103	2
-147	-63	-8
-89	-102	-7
-129	-203	17
-205	-306	91
-222	-326	178
-128	-222	215
52	-13	151
239	227	-20
337	410	-186
302	485	-322
160	461	-376
-10	372	-251
-128	269	-64
-158	168	55
-117	62	99
-63	-52	97
-45	-160	97
-76	-226	54
-130	-215	-58
-171	-141	-132
-167	-55	-163
-113	-23	-171
-30	-82	-107
59	-199	-27
128	-304	84
162	-322	117
144	-243	50
83	-131	-9
-14	-80	-72
-111	-139	-78
-176	-277	-4
-183	-388	184
-126	-355	352
-23	-152	296
105	145	77
237	393	-178
360	465	-449
462	341	-598
522	116	-500
484	-64	-202
318	-101	35
17	-4	104
-354	130	112
-680	183	83
-837	110	72
-762	-43	76
-497	-168	70
-158	-175	84
120	-60	84
239	100	57
192	203	23
54	188	6
-67	78	-25
-104	-41	-47
-46	-88	-9
61	-36	79
159	74	111
211	168	36
211	197	-48
190	162	-140
170	109	-219
162	92	-200
160	122	-87
152	174	41
131	191	34
101	142	-7
59	35	6
9	-89	-18
-47	-178	-17
-105	-211	-20
-144	-192	-8
-148	-140	16
-106	-71	44
-28	11	95
59	113	80
121	228	32
142	327	-42
132	379	-90
111	359	-151
105	278	-237
115	162	-226
132	41	-121
133	-69	-33
115	-189	-23
82	-332	-21
50	-503	-34
29	-660	-42
5	-745	-14
-48	-713	53
-147	-556	129
-269	-322	145
-366	-97	108
-373	57	43
-263	115	-63
-80	110	-200
97	95	-241
165	113	-206
78	171	-89
-126	237	183
-329	261	435
-412	215	464
-316	102	272
-91	-40	-27
137	-160	-364
241	-213	-615
158	-179	-566
-54	-70	-261
-272	80	-29
-366	231	45
-291	340	79
-109	390	64
72	370	51
153	294	30
113	177	2
13	43	20
-49	-95	13
-15	-223	10
101	-321	47
228	-372	81
280	-352	65
231	-258	50
107	-113	53
-14	35	14
-64	129	-37
-24	135	-83
74	61	-100
172	-38	-110
229	-97	-113
230	-65	-40
191	50	26
132	189	28
67	268	-2
-10	235	-17
-96	93	-15
-182	-92	-8
-241	-231	46
-248	-263	99
-198	-188	126
-113	-55	78
-28	58	-15
27	110	-92
46	100	-172
44	66	-219
50	59	-205
76	97	-116
114	163	-52
144	213	-9
149	219	12
122	179	56
83	125	118
52	90	147
48	85	107
69	93	18
97	75	-26
111	10	-105
91	-92	-155
40	-180	-142
-34	-211	-112
-111	-165	-136
-173	-63	-215
-202	33	-269
-184	78	-236
-106	59	-101
32	16	6
207	4	123
383	53	217
502	149	256
518	224	206
400	210	120
161	85	94
-150	-114	59
-459	-309	10
-708	-424	-34
-844	-432	-50
-856	-371	-176
-743	-311	-282
-538	-304	-241
-273	-344	-95
-2	-374	29
223	-326	40
346	-174	22
339	45	-46
206	244	-41
5	335	-40
-187	277	-62
-277	101	-19
-231	-109	24
-66	-257	65
140	-286	64
300	-191	27
351	-18	-20
287	168	-56
155	308	-93
22	369	-107
-55	342	-72
-65	247	-18
-36	124	38
-3	14	79
4	-41	86
-10	-31	103
-24	25	109
-14	86	57
28	105	6
82	66	-35
120	-11	-64
123	-74	-115
90	-75	-158
41	1	-149
10	123	-122
14	231	-91
56	268	-23
117	218	83
172	112	87
203	11	1
198	-36	-51
162	-14	-75
99	44	-74
21	92	-77
-62	88	-99
-136	28	-49
-186	-52	70
-190	-116	272
-141	-126	398
-40	-84	278
102	-8	60
263	61	-178
421	96	-435
541	86	-542
602	35	-363
569	-29	-94
439	-86	87
204	-110	140
-93	-98	94
-390	-70	62
-626	-60	-14
-753	-101	-155
-766	-192	-209
-695	-309	-142
-584	-383	-51
-477	-351	7
-389	-196	54
-319	29	124
-253	225	164
-185	283	164
-116	164	106
-59	-90	35
-16	-354	-24
16	-497	-92
45	-439	-145
78	-215	-205
107	63	-151
131	262	-101
141	307	-125
151	205	-125
178	41	-67
234	-85	44
320	-117	60
409	-62	37
468	26	-2
468	101	-48
397	142	-36
266	168	2
99	204	37
-75	257	48
-222	305	49
-319	309	38
-350	244	7
-308	128	7
-209	-5	40
-84	-109	41
30	-160	-4
101	-165	-46
115	-150	-84
90	-125	-116
54	-85	-136
33	-11	-107
36	103	-7
58	219	96
87	287	240
115	253	332
140	106	300
163	-108	151
169	-308	-54
133	-412	-225
42	-387	-384
-93	-254	-410
-234	-81	-204
-316	65	-16
-300	153	-33
-191	182	-53
-51	183	-79
46	174	-155
52	158	-132
-23	110	-42
-120	28	74
-168	-79	107
-119	-173	118
12	-210	142
172	-182	133
311	-98	64
394	3	-77
419	80	-116
396	119	-85
314	128	-30
147	135	-35
-108	154	-72
-410	181	-115
-654	187	-181
-750	138	-170
-626	22	-116
-325	-151	-50
3	-325	-15
212	-441	-3
216	-444	-37
42	-326	-42
-182	-133	-5
-315	57	19
-285	153	32
-129	106	48
46	-64	83
141	-263	97
138	-380	87
105	-322	67
147	-95	56
310	207	21
558	448	-4
766	507	22
791	382	100
569	135	139
151	-94	83
-338	-200	-16
-742	-159	-144
-944	-34	-227
-920	66	-237
-714	74	-197
-420	-7	-132
-124	-108	-96
120	-141	-100
297	-71	-93
414	69	-57
484	203	4
506	261	80
486	225	164
395	138	263
234	70	285
17	59	230
-205	102	107
-383	140	-59
-458	126	-215
-415	38	-278
-267	-93	-328
-68	-206	-375
121	-250	-257
257	-207	-57
313	-106	74
295	5	90
214	80	36
87	100	-54
-62	74	-150
-203	28	-179
-300	-10	-91
-319	-29	79
-253	-29	230
-129	-26	312
1	-39	245
82	-77	145
91	-142	62
41	-212	-90
-15	-260	-294
-28	-251	-347
26	-162	-215
132	-2	-128
251	202	-98
340	400	-107
373	543	-55
363	604	76
306	578	110
219	475	77
99	301	61
-56	68	55
-232	-226	51
-392	-541	37
-491	-822	44
-486	-970	50
-372	-915	1
-176	-640	-77
46	-210	-157
242	231	-178
368	536	-176
402	610	-118
343	455	9
216	180	109
62	-69	136
-74	-183	61
-150	-138	-16
-152	6	-77
-101	143	-89
-50	198	-72
-55	161	-54
-149	77	-18
-300	4	13
-444	-29	43
-503	-41	16
-445	-74	-10
-291	-149	-29
-119	-238	-3
-17	-283	74
-17	-230	119
-91	-77	109
-156	120	46
-141	269	-47
-21	305	-141
161	228	-222
318	90	-185
373	-21	-12
314	-58	130
190	-26	179
77	21	104
39	30	-9
91	-13	-129
195	-76	-255
294	-97	-306
339	-47	-282
322	62	-213
258	174	-133
178	223	-19
92	182	141
5	78	299
-84	-32	419
-160	-95	482
-201	-96	393
-188	-65	167
-126	-47	-121
-46	-63	-413
9	-107	-577
11	-133	-536
-40	-109	-378
-112	-27	-203
-157	81	-8
-142	163	177
-72	181	259
26	122	218
116	16	71
166	-101	-98
170	-191	-202
143	-240	-259
111	-248	-235
107	-229	-75
140	-200	75
203	-177	113
259	-176	67
258	-199	16
157	-234	-12
-57	-241	-31
-341	-177	-17
-610	-21	38
-762	210	113
-740	438	129
-556	568	83
-291	535	4
-55	318	-66
67	-2	-84
62	-309	-80
-12	-490	-39
-76	-509	-4
-68	-400	13
10	-246	14
114	-129	35
192	-70	109
225	-46	112
234	3	48
253	106	-9
299	251	-71
338	385	-172
317	450	-248
199	422	-150
5	327	-11
-189	215	16
-295	125	1
-266	77	-48
-132	51	-150
20	26	-211
102	-11	-195
76	-49	-102
-27	-72	31
-122	-71	142
-134	-49	256
-42	-27	359
107	-16	395
245	-16	275
314	-13	108
294	10	-42
209	47	-211
104	88	-338
4	103	-320
-86	85	-188
-172	46	-120
-253	8	-109
-313	-13	-109
-321	-16	-75
-259	-18	-131
-137	-38	-192
21	-78	-102
179	-119	-46
314	-140	-33
417	-123	-52
478	-70	-58
483	-3	-50
396	54	-23
198	86	4
-91	96	43
-407	85	112
-659	57	102
-768	3	85
-707	-78	65
-515	-177	29
-273	-258	-22
-66	-273	-57
69	-200	-40
150	-48	-15
216	121	7
294	227	2
369	211	-15
397	70	-19
333	-132	-9
175	-309	-2
-24	-376	-19
-194	-322	-30
-277	-190	-11
-257	-62	0
-172	-11	0
-70	-44	6
1	-119	-7
36	-157	-2
57	-105	41
77	27	96
92	183	134
80	284	118
24	286	43
-71	198	-34
-164	92	-93
-201	43	-149
-153	92	-154
-36	215	-112
101	345	-103
201	410	-177
236	364	-231
216	227	-189
191	48	-92
184	-109	-14
202	-213	-9
202	-270	-32
141	-296	-29
2	-311	11
-189	-312	63
-366	-287	74
-456	-227	59
-426	-136	12
-299	-41	-60
-127	39	-101
26	96	-121
124	138	-55
167	182	54
178	231	160
179	267	238
184	261	225
187	204	217
172	101	174
138	-1	51
94	-62	-141
62	-58	-262
72	-5	-300
139	48	-332
245	61	-282
358	17	-149
419	-49	26
381	-86	79
223	-45	70
-36	69	26
-332	210	-23
-582	308	-17
-724	298	-40
-727	174	-67
-627	-22	-127
-478	-222	-140
-328	-359	-98
-209	-403	-45
-116	-363	47
-26	-275	174
69	-176	281
158	-95	271
203	-50	152
183	-48	22
100	-101	-137
-8	-192	-292
-80	-300	-324
-68	-373	-243
32	-364	-148
192	-257	-77
346	-72	11
435	120	140
422	252	243
301	278	225
100	215	127
-128	124	21
-328	68	-120
-451	81	-251
-468	137	-276
-378	183	-141
-213	161	-19
-23	72	38
132	-39	79
222	-103	42
237	-74	-4
198	35	29
140	166	22
91	243	-9
60	224	-9
44	123	-26
36	2	-52
27	-77	-107
18	-90	-102
18	-49	-85
25	-3	-74
41	16	-66
57	7	-57
66	-6	41
69	12	236
71	64	486
77	127	625
89	162	516
104	139	189
117	72	-210
121	-4	-598
111	-41	-817
81	-23	-752
33	43	-501
-14	117	-251
-38	166	-69
-4	179	61
107	171	112
280	174	141
454	201	108
531	241	74
420	262	36
90	237	-10
-398	143	-15
-904	-18	6
-1250	-233	63
-1235	-482	49
-1095	-727	-23
-675	-938	-50
-209	-1055	-42
138	-1037	10
301	-857	81
306	-535	79
245	-127	57
210	265	65
228	551	74
258	655	63
238	578	23
132	358	-42
-24	90	-122
-160	-137	-209
-193	-252	-168
-100	-231	-46
81	-99	-2
263	80	43
373	228	87
383	296	38
314	274	-11
222	205	-47
151	147	-96
111	145	-79
85	201	-45
44	266	15
-14	270	90
-83	170	147
-135	-13	170
-157	-208	110
-153	-320	9
-139	-292	-100
-138	-153	-189
-155	18	-267
-177	120	-231
-181	101	-33
-147	-16	120
-61	-141	145
66	-181	123
214	-94	27
341	89	-193
407	274	-296
386	372	-244
268	345	-161
81	215	-200
-129	54	-298
-296	-75	-193
-374	-137	-75
-338	-152	-27
-215	-151	46
-60	-163	196
66	-191	281
126	-209	230
114	-198	129
56	-153	-55
1	-90	-171
-16	-33	-118
16	5	-28
72	31	28
110	65	44
90	121	29
-1	195	25
-136	256	56
-267	274	109
-335	230	144
-319	131	142
-231	7	102
-117	-104	32
-29	-171	-109
7	-184	-254
-1	-147	-241
-14	-76	-176
6	7	-136
76	80	-48
178	125	16
273	137	-9
324	110	-19
320	51	-37
276	-38	-55
224	-155	-38
186	-290	-21
170	-432	-3
162	-540	24
143	-567	60
105	-478	47
46	-263	38
-20	23	35
-88	296	-8
-159	452	-39
-236	437	-32
-321	268	-20
-402	34	8
-451	-163	79
-443	-245	155
-375	-205	184
-259	-97	120
-134	7	-12
-40	60	-202
4	67	-328
8	58	-303
2	69	-204
17	107	-82
65	144	-16
133	157	-3
195	135	-20
226	111	-33
227	117	18
216	160	55
222	215	18
254	231	-55
295	171	-100
299	47	-123
225	-88	-84
68	-160	-41
-129	-135	-69
-299	-30	-103
-371	84	-69
-321	134	67
-186	91	186
-38	-15	219
44	-119	171
32	-161	92
-48	-121	-9
-126	-39	-158
-138	28	-196
-51	41	-168
107	11	-168
274	-21	-154
381	-10	-111
394	59	26
313	153	142
169	210	155
-2	183	77
-175	64	-4
-321	-105	-62
-419	-263	-189
-436	-356	-248
-358	-358	-183
-195	-280	-40
12	-149	65
202	-1	95
321	140	92
341	252	87
280	316	109
184	307	91
96	222	57
30	70	41
-23	-118	24
-88	-298	-3
-181	-434	-58
-282	-501	-96
-358	-498	-148
-372	-427	-210
-300	-299	-162
-163	-126	-44
3	58	0
147	211	-16
234	287	-11
250	255	-33
207	134	-58
130	-16	-57
52	-118	-18
0	-115	34
-17	-13	59
-5	130	98
11	226	137
10	222	152
-27	121	160
-87	-6	147
-139	-78	87
-143	-46	-6
-68	77	-99
74	215	-147
245	305	-181
366	301	-239
373	231	-266
251	152	-236
33	110	-170
-195	112	-107
-343	110	-11
-350	51	65
-225	-84	74
-34	-256	52
117	-389	13
156	-413	4
65	-311	6
-106	-131	9
-269	40	4
-341	136	-19
-285	139	-54
-130	93	-66
49	57	-54
182	74	-34
229	128	36
199	174	86
139	165	70
99	90	36
107	-9	-17
155	-77	-58
216	-76	-32
262	-20	66
275	35	233
255	32	331
200	-54	195
107	-184	-17
-32	-280	-248
-214	-278	-479
-409	-159	-439
-565	25	-222
-627	183	-119
-564	236	-151
-385	159	-280
-143	-6	-280
79	-173	-141
216	-268	-37
245	-256	60
183	-166	100
75	-60	100
-26	4	94
-88	5	91
-98	-33	93
-65	-69	74
-5	-69	57
68	-26	63
148	35	56
223	89	29
280	113	36
306	112	72
291	95	122
225	66	124
111	23	82
-25	-48	56
-156	-141	34
-244	-230	-46
-263	-264	-106
-222	-211	-67
-132	-62	-53
-41	137	-108
14	313	-149
20	398	-185
-4	364	-243
-20	238	-249
10	76	-163
97	-60	-5
209	-141	84
288	-170	85
283	-166	70
180	-148	12
7	-118	-23
-167	-77	-20
-276	-24	30
-288	22	89
-210	38	85
-87	19	43
40	-27	-7
141	-55	-41
222	-40	-81
280	32	-90
324	131	-55
320	210	-11
239	233	-11
65	191	-37
-174	118	-53
-415	50	-72
-577	13	-77
-610	3	-106
-507	-8	-100
-321	-37	-51
-128	-88	-18
0	-125	22
42	-124	81
28	-68	149
10	25	177
41	122	135
140	199	124
280	250	123
406	290	51
454	331	-45
381	362	-108
197	345	-168
-48	233	-371
-279	12	-526
-421	-277	-382
-426	-549	-139
-307	-709	63
-113	-701	237
70	-533	347
180	-269	348
202	-1	294
172	201	186
155	301	-52
189	301	-276
263	230	-345
320	101	-349
275	-62	-358
96	-227	-261
-182	-358	-112
-459	-418	-11
-631	-400	39
-619	-330	35
-443	-263	68
-178	-246	152
68	-275	196
229	-306	155
290	-263	85
280	-103	44
250	147	-26
211	401	-111
159	552	-95
75	548	0
-40	405	24
-159	218	-21
-240	83	-45
-255	40	-108
-208	68	-156
-134	93	-124
-72	57	-47
-44	-37	-4
-39	-135	24
-30	-174	63
4	-121	63
61	-7	38
126	100	-18
170	150	-60
184	134	-105
180	98	-77
171	89	17
170	130	97
172	198	77
162	238	-16
121	211	-49
59	124	-70
-7	24	-64
-53	-40	-70
-68	-45	-59
-53	-13	-29
-27	11	16
1	-5	151
23	-56	281
46	-105	322
82	-112	224
120	-67	64
147	3	-143
140	58	-417
99	67	-560
30	38	-406
-36	8	-176
-78	10	-83
-86	45	0
-77	85	4
-75	80	-27
-102	11	-7
-157	-103	3
-213	-205	18
-234	-238	-17
-179	-178	-39
-32	-52	-33
184	74	35
421	137	162
599	102	304
644	-17	377
506	-168	268
200	-282	77
-222	-313	-143
-639	-242	-336
-936	-93	-419
-1036	74	-333
-936	188	-163
-697	189	-68
-419	60	-4
-194	-161	66
-72	-393	151
-42	-531	246
-43	-501	230
-14	-292	79
89	21	-57
262	325	-179
476	507	-275
671	525	-253
776	393	-121
749	193	-13
566	8	8
253	-119	30
-130	-202	13
-494	-274	-1
-743	-362	-34
-810	-444	-69
-686	-470	-57
-428	-393	-33
-129	-210	9
118	23	20
262	231	23
302	344	17
287	350	33
266	287	53
271	227	54
302	210	43
328	237	0
319	268	-62
262	256	-90
175	181	-84
85	68	-75
16	-31	-12
-18	-76	85
-26	-56	155
-23	1	104
-20	58	11
-14	88	-44
-4	90	-147
14	87	-233
35	95	-217
50	115	-86
52	126	47
39	105	84
19	44	44
-2	-39	-67
-16	-112	-151
-24	-145	-154
-28	-141	-106
-26	-114	-90
-12	-95	-8
19	-93	117
67	-99	87
119	-86	8
148	-29	-21
131	64	43
56	171	69
-62	252	-5
-191	277	-43
-295	251	-40
-343	195	-74
-342	144	-160
-306	108	-151
-262	78	-53
-229	20	11
-204	-79	24
-174	-221	2
-116	-371	-44
-22	-489	-53
109	-546	-38
270	-527	-24
439	-445	48
599	-316	122
706	-144	130
728	47	52
639	249	-41
438	410	-112
143	477	-131
-191	402	-59
-509	174	58
-756	-154	111
-898	-482	21
-937	-700	-64
-895	-727	-111
-778	-565	-111
-601	-273	-55
-371	40	-14
-115	279	21
126	400	-3
302	410	-68
387	354	-63
386	282	-67
336	217	-87
283	158	-71
261	85	1
260	0	65
254	-77	31
207	-114	-2
114	-88	-54
-4	-10	-77
-105	77	-74
-151	119	-71
-127	85	-22
-56	-13	24
26	-129	52
90	-196	47
115	-173	33
107	-64	5
78	80	-1
33	188	-13
-17	213	-14
-64	143	3
-98	22	21
-104	-92	59
-75	-138	52
-17	-107	47
48	-23	58
101	66	15
127	118	-53
135	118	-60
135	82	-65
142	48	-165
155	48	-263
162	84	-232
150	136	-187
111	171	-182
61	161	-63
20	100	74
1	14	108
1	-66	115
1	-119	96
-23	-133	60
-79	-120	30
-153	-96	-9
-221	-70	-24
-243	-44	-46
-210	-9	-81
-129	39	-32
-29	101	-18
63	161	-74
136	205	-85
198	222	-46
269	208	48
359	169	80
455	106	48
519	34	-45
496	-48	-136
363	-124	-145
121	-175	-140
-175	-181	-54
-434	-137	-3
-577	-66	8
-574	-1	18
-463	10	-27
-333	-51	-44
-277	-174	-25
-336	-301	-56
-478	-376	-98
-611	-364	-91
-635	-282	-31
-496	-190	31
-231	-157	68
71	-202	123
300	-291	101
391	-344	34
351	-280	-8
251	-81	-1
172	195	50
172	434	59
249	539	70
343	475	65
397	305	-8
359	131	-132
234	48	-191
62	70	-135
-88	138	-94
-166	150	-101
-147	43	-89
-50	-165	-23
66	-378	60
139	-471	70
118	-381	5
-10	-128	-41
-205	171	-88
-393	382	-78
-509	412	-1
-508	260	59
-392	13	60
-208	-207	-31
-6	-304	-117
171	-249	-200
306	-91	-233
403	88	-141
453	205	-7
438	229	91
331	164	125
131	60	104
-120	-30	98
-337	-78	138
-428	-71	199
-344	-35	248
-114	16	168
164	65	42
371	115	-114
421	166	-332
306	213	-443
94	244	-358
-105	239	-162
-213	183	-26
-207	80	28
-125	-44	19
-34	-153	-8
18	-218	-30
21	-227	-57
0	-200	-58
-11	-160	-37
8	-135	28
44	-122	115
78	-109	178
87	-67	210
81	17	189
81	137	147
106	262	37
162	356	-136
218	387	-235
242	345	-249
209	249	-221
125	112	-168
23	-41	-93
-52	-188	-28
-83	-305	9
-74	-362	-4
-64	-340	-11
-94	-231	23
-164	-58	53
-249	110	68
-295	210	78
-259	193	99
-142	71	105
6	-89	63
111	-202	-7
119	-214	-147
22	-144	-248
-129	-74	-260
-262	-101	-259
-308	-264	-172
-256	-517	-92
-143	-721	-13
-32	-741	9
33	-521	-12
59	-129	19
89	278	53
167	534	121
300	557	175
429	397	225
466	199	225
331	108	152
31	182	32
-351	350	-108
-675	471	-231
-812	418	-252
-720	168	-165
-469	-186	-74
-180	-487	-10
21	-596	12
80	-484	26
35	-222	-5
-20	57	-43
-8	231	-74
94	261	-83
238	183	-64
344	88	-56
363	43	-55
306	76	-46
222	153	4
175	221	49
189	238	86
242	197	72
275	120	32
248	43	14
161	-13	-36
48	-41	-82
-39	-55	-42
-76	-64	107
-53	-74	154
6	-77	49
83	-66	-60
159	-36	-202
228	10	-298
262	65	-268
237	122	-103
116	169	30
-96	197	42
-345	194	37
-545	153	29
-602	72	109
-489	-35	130
-251	-142	123
23	-227	122
229	-263	46
306	-249	-26
267	-191	-140
170	-98	-229
81	16	-313
34	135	-323
20	233	-185
9	278	-24
-26	235	58
-87	93	51
-152	-116	35
-203	-330	4
-234	-464	-37
-253	-471	-71
-267	-352	-53
-259	-176	-18
-201	-33	4
-75	11	105
95	-41	279
252	-131	413
312	-180	365
233	-138	155
30	-28	-60
-208	80	-282
-372	112	-489
-382	44	-518
-237	-78	-325
-21	-174	-94
158	-178	3
218	-86	49
157	45	77
32	140	110
-69	150	167
-88	90	192
-16	23	150
95	14	24
181	77	-102
204	171	-189
170	237	-223
115	223	-208
77	143	-118
71	55	12
90	20	84
106	63	71
104	150	41
86	219	87
74	215	104
89	140	60
143	40	-2
229	-21	-45
319	-7	-141
383	57	-217
396	116	-123
344	110	-8
230	22	52
71	-110	66
-101	-217	72
-253	-245	19
-365	-182	-98
-434	-62	-194
-474	49	-202
-497	113	-158
-497	122	-86
-452	97	-2
-343	59	32
-180	16	77
-7	-51	102
104	-161	98
100	-297	95
-24	-418	98
-208	-457	94
-358	-374	69
-393	-182	9
-300	49	-109
-130	229	-154
16	286	-162
71	213	-157
29	63	-137
-53	-77	-98
-94	-140	-21
-40	-102	7
97	5	60
251	127	138
346	215	178
353	250	140
285	238	57
202	194	-40
154	131	-182
157	43	-279
191	-58	-264
214	-159	-119
200	-224	-64
144	-224	-83
74	-160	-79
13	-67	-58
-23	-4	36
-43	-11	140
-60	-85	181
-80	-181	119
-95	-235	31
-88	-203	-40
-50	-95	-112
15	33	-103
89	114	-3
149	107	69
184	35	40
192	-41	2
178	-56	11
139	17	46
81	150	90
-5	275	52
-105	328	-22
-198	286	-112
-252	179	-165
-248	57	-154
-186	-28	-157
-87	-70	-84
9	-85	-18
69	-93	-35
79	-98	-56
37	-84	-48
-29	-26	16
-96	76	111
-138	192	249
-142	269	362
-104	268	348
-31	189	174
64	63	-72
163	-51	-298
245	-109	-521
310	-107	-560
346	-69	-365
354	-45	-211
319	-52	-154
216	-87	-77
27	-120	38
-248	-121	112
-561	-87	145
-820	-34	158
-923	-1	118
-814	-12	48
-509	-58	-30
-100	-115	-72
267	-138	-97
465	-105	-80
446	-21	-20
267	80	34
44	142	5
-106	131	-63
-134	36	-31
-62	-108	43
33	-249	81
84	-322	58
59	-300	-3
-5	-188	-69
-54	-33	-132
-50	96	-123
18	155	-84
124	128	-36
242	50	21
351	-29	40
439	-64	52
503	-39	52
496	24	29
386	96	-2
151	136	-10
-170	135	26
-481	87	76
-664	3	95
-644	-103	68
-447	-217	34
-174	-304	9
33	-326	-54
81	-245	-113
-35	-59	-118
-223	180	-119
-358	386	-118
-355	465	-115
-214	372	-100
-7	138	-76
170	-126	-26
251	-311	57
232	-337	100
153	-210	93
70	-15	55
17	143	-13
-1	199	-68
-1	156	-119
14	72	-140
46	22	-104
101	41	-6
171	110	103
229	171	160
244	183	171
202	131	151
123	51	94
43	-11	50
-1	-24	38
4	3	-27
40	39	-131
77	49	-238
82	29	-308
64	1	-422
39	-11	-483
30	15	-323
42	64	-114
58	106	17
51	116	68
12	93	92
-46	55	74
-88	30	56
-78	30	77
-9	40	95
97	32	121
190	-22	105
222	-122	74
166	-241	42
36	-341	4
-132	-391	-23
-282	-383	-29
-372	-318	28
-372	-213	72
-284	-83	65
-139	60	45
8	193	-9
102	279	-51
104	284	-109
10	197	-151
-147	32	-107
-306	-145	-95
-399	-268	-98
-378	-289	-86
-245	-208	-44
-37	-80	13
189	25	42
375	58	80
494	16	81
517	-60	34
435	-117	-9
254	-119	-62
-7	-75	-160
-304	-17	-198
-561	18	-153
-699	25	-87
-669	23	-55
-480	36	-32
-201	76	22
53	115	37
197	119	20
199	65	-2
107	-33	-33
10	-134	-51
-17	-186	-21
46	-161	35
163	-79	103
255	16	151
271	79	94
210	94	1
120	82	-68
57	81	-132
57	117	-134
103	181	-27
148	237	103
151	240	130
104	174	36
38	67	-69
0	-39	-157
24	-95	-208
107	-84	-164
221	-22	-51
314	50	34
346	99	90
302	115	115
181	106	71
5	102	26
-197	106	-30
-382	118	-60
-507	116	-48
-537	83	-34
-463	21	-14
-325	-56	28
-173	-121	80
-59	-156	42
-11	-149	-48
-10	-113	-102
-13	-63	-122
13	-14	-178
76	22	-177
144	39	-60
175	29	36
150	-2	55
77	-46	-22
5	-84	-97
-12	-86	-91
46	-43	-45
161	37	19
275	126	75
337	183	104
321	183	112
237	130	42
116	49	-103
-6	-30	-203
-112	-93	-233
-194	-158	-157
-260	-251	-39
-307	-379	108
-328	-510	260
-314	-565	320
-260	-473	243
-177	-211	81
-79	155	-84
20	497	-272
107	678	-402
172	613	-349
201	341	-149
175	-26	-39
82	-332	-36
-68	-475	-33
-241	-441	-48
-375	-297	-70
-417	-148	-17
-332	-58	64
-134	-38	94
124	-42	79
372	-24	9
533	31	-52
568	100	-112
478	133	-157
302	115	-137
93	51	-49
-100	-15	24
-240	-51	78
-312	-42	97
-316	-11	79
-266	20	89
-183	45	80
-92	81	121
-17	143	139
19	229	108
9	301	56
-45	311	-18
-119	224	-51
-175	67	-79
-184	-98	-114
-140	-198	-140
-60	-199	-160
17	-127	-186
59	-45	-105
54	-19	108
26	-59	255
12	-124	240
44	-149	71
124	-94	-131
214	23	-327
269	137	-443
253	182	-365
172	136	-158
71	35	46
-2	-47	104
-14	-54	115
31	17	97
96	118	37
139	174	26
139	147	-2
105	48	-19
64	-59	-19
41	-115	8
37	-88	44
38	2	39
27	99	31
2	158	9
-22	161	-44
-18	127	-85
21	85	-64
77	55	-25
106	31	31
77	-7	41
-22	-64	29
-159	-126	24
-285	-155	-18
-343	-125	-7
-315	-37	-5
-214	67	-59
-88	133	-109
14	121	-108
59	30	-86
44	-93	-74
-12	-186	-53
-84	-208	-30
-144	-160	-35
-178	-85	-66
-176	-43	-70
-137	-82	-55
-63	-200	-48
41	-356	-34
162	-487	2
275	-530	24
351	-455	26
363	-279	-6
300	-54	-74
161	150	-130
-27	272	-114
-222	288	7
-375	215	124
-452	106	164
-438	31	173
-350	29	155
-214	106	94
-67	215	-17
56	292	-120
140	291	-131
171	207	-160
147	84	-171
70	-19	-113
-27	-55	-54
-118	-27	30
-162	25	35
-136	51	23
-43	20	28
84	-48	-19
191	-109	-141
239	-108	-320
215	-35	-302
152	80	-185
96	178	-92
87	206	-3
132	158	72
202	63	122
248	-21	100
237	-58	85
159	-49	75
41	-18	47
-72	-5	24
-152	-23	32
-182	-59	60
-167	-81	65
-121	-57	31
-55	9	-13
22	100	-48
102	179	-59
163	225	-48
182	233	-41
138	221	16
40	201	69
-81	177	87
-178	141	82
-210	80	31
-169	-11	-24
-71	-116	-69
33	-211	-109
105	-274	-109
113	-297	-68
59	-279	-78
-33	-238	-125
-133	-188	-170
-207	-140	-162
-236	-103	-90
-213	-87	18
-152	-105	182
-67	-163	267
18	-257	215
89	-355	57
147	-416	-143
196	-395	-312
245	-286	-409
280	-101	-335
279	113	-120
199	294	32
31	391	79
-197	391	76
-410	317	41
-518	211	23
-465	123	23
-259	80	48
16	79	79
234	98	81
300	106	52
190	88	28
-28	38	17
-241	-23	-3
-343	-64	-14
-300	-69	-25
-156	-36	-63
4	15	-89
93	51	-117
86	50	-126
13	1	-79
-58	-75	-40
-78	-140	6
-26	-160	42
76	-116	55
183	-26	51
262	72	48
295	135	29
283	142	-37
238	97	-76
163	31	-102
66	-23	-139
-35	-43	-177
-113	-32	-185
-139	-9	-132
-95	10	-53
4	24	57
124	48	173
212	98	250
234	174	330
180	252	343
76	283	224
-37	237	43
-121	100	-160
-165	-90	-348
-169	-276	-412
-157	-390	-364
-141	-403	-262
-132	-326	-115
-126	-199	-9
-116	-77	-15
-94	10	-16
-61	54	-4
-25	71	-15
9	81	-9
36	84	-38
57	82	-59
70	62	-27
81	30	18
86	-2	66
85	-16	86
75	-2	98
59	33	137
41	76	142
28	103	108
31	103	44
60	76	-34
111	29	-119
170	-27	-189
205	-95	-178
190	-162	-125
107	-219	-57
-22	-246	-15
-161	-222	24
-251	-141	94
-258	-22	112
-189	92	85
-89	158	21
-19	147	-40
-20	66	-85
-83	-49	-102
-153	-151	-62
-167	-196	4
-94	-181	31
35	-112	-58
140	-24	-108
147	57	-145
20	117	-236
-187	157	-236
-374	180	-150
-442	190	-35
-357	183	41
-172	154	100
20	103	126
135	35	108
148	-36	83
104	-102	47
79	-153	9
116	-180	-30
204	-184	-43
276	-163	-26
268	-116	-7
159	-55	-58
-7	5	-86
-145	51	-55
-190	80	-13
-128	90	56
-12	101	97
85	121	119
117	148	52
91	168	-84
50	157	-202
44	110	-233
87	35	-165
148	-34	-86
178	-68	-5
142	-53	16
46	-2	-10
-66	50	-8
-149	71	15
-169	41	26
-133	-18	26
-68	-79	-7
-2	-102	-16
66	-67	29
151	14	39
260	120	26
374	215	-5
452	275	-36
428	270	-38
269	201	-55
0	71	-76
-321	-99	-49
-603	-278	-5
-773	-432	38
-792	-523	60
-676	-536	25
-478	-474	-32
-250	-348	-99
-34	-182	-135
156	1	-108
328	170	-12
488	294	145
633	341	215
723	296	149
709	169	57
553	0	-25
245	-151	-113
-167	-227	-247
-581	-202	-303
-879	-97	-206
-964	36	-89
-804	139	13
-465	174	24
-66	142	-38
262	70	-103
439	6	-169
450	-24	-137
333	-13	-30
161	20	81
-4	47	107
-131	47	79
-216	12	57
-256	-48	-10
-249	-113	-67
-187	-157	-84
-75	-157	-37
60	-116	31
179	-44	54
252	29	70
280	82	91
296	99	113
334	92	71
404	85	2
476	106	-49
494	161	-116
406	231	-135
203	279	-89
-68	270	-37
-329	185	19
-507	41	115
-565	-121	174
-513	-249	162
-394	-306	62
-262	-282	-95
-142	-203	-267
-43	-106	-400
33	-32	-320
95	-2	-160
136	-10	-67
156	-29	-2
154	-24	7
136	21	-19
107	105	1
68	200	31
19	265	25
-37	272	33
-77	213	52
-69	102	69
0	-30	66
115	-152	48
222	-241	9
252	-288	-23
169	-291	-25
-17	-253	-9
-236	-183	8
-389	-93	4
-412	-4	-40
-299	61	-110
-110	93	-145
65	96	-139
165	90	-89
180	100	-2
151	138	112
133	195	205
172	244	213
263	266	127
370	241	-1
432	169	-155
411	59	-276
289	-78	-282
83	-238	-162
-166	-401	-27
-392	-531	16
-534	-566	48
-546	-460	60
-422	-215	16
-210	121	-22
16	444	-25
179	644	-30
226	660	-44
159	513	-55
26	275	-77
-110	32	-67
-212	-171	-57
-269	-346	-32
-291	-516	4
-288	-687	49
-245	-805	126
-150	-787	203
0	-582	240
164	-218	182
275	181	43
271	471	-138
135	551	-309
-90	434	-436
-307	233	-405
-424	90	-192
-400	81	-20
-254	168	125
-59	244	249
113	202	276
223	30	190
275	-187	19
285	-314	-109
276	-261	-200
245	-46	-257
188	215	-201
104	390	-72
14	396	13
-47	259	2
-59	75	-44
-30	-54	-14
8	-92	16
24	-67	-1
4	-55	-45
-33	-97	-68
-49	-179	-42
-23	-241	-13
39	-224	2
103	-119	33
132	25	119
113	138	149
68	180	149
39	150	110
50	100	-2
101	79	-95
159	100	-174
184	138	-184
158	150	-125
93	106	-52
24	22	-8
-23	-60	25
-34	-98	53
-22	-75	18
9	-9	-6
67	61	-44
167	114	-98
314	149	-126
472	181	-150
565	225	-116
506	261	-40
254	253	36
-160	158	81
-611	-37	83
-959	-298	38
-1079	-557	-22
-968	-732	-35
-697	-771	-34
-397	-669	-9
-182	-467	81
-91	-240	173
-96	-43	185
-118	85	98
-94	153	-68
-2	182	-273
132	204	-368
262	228	-283
346	244	-87
359	230	29
306	166	50
199	65	68
59	-44	37
-86	-115	44
-201	-122	32
-256	-72	37
-234	-8	14
-142	16	-63
-28	-27	-89
68	-129	-107
119	-223	-90
125	-243	-79
119	-151	-25
128	36	17
164	243	12
207	386	26
226	409	17
204	323	54
155	183	104
106	65	129
90	14	102
107	20	26
140	47	-38
157	55	-60
139	39	-16
101	26	52
66	51	101
56	123	41
60	203	-100
46	230	-292
-20	145	-463
-143	-43	-473
-289	-280	-318
-394	-460	-131
-415	-517	-8
-333	-425	52
-190	-240	42
-48	-57	46
42	43	46
63	38	38
34	-34	68
-2	-100	109
-16	-107	133
10	-37	137
75	68	126
169	161	98
284	207	19
397	211	-56
472	213	-116
462	250	-187
336	327	-160
96	406	-55
-201	435	57
-465	372	93
-601	211	103
-565	-5	74
-392	-224	-32
-169	-393	-53
7	-494	-64
81	-519	-86
56	-479	-97
-19	-376	-107
-90	-218	-98
-129	-31	-77
-143	138	-14
-156	231	72
-172	205	130
-174	62	123
-140	-140	70
-59	-322	-6
42	-416	-118
122	-386	-198
140	-270	-219
101	-131	-138
46	-31	-42
31	9	15
86	11	64
194	10	22
302	41	13
365	114	53
359	205	91
310	283	98
254	321	30
206	309	-30
144	252	-79
20	168	-138
-185	72	-156
-431	-9	-61
-626	-64	28
-672	-88	27
-534	-75	-18
-262	-40	-80
23	1	-105
210	35	-76
237	59	-8
150	80	30
44	101	61
13	129	54
83	153	-11
206	158	-100
300	128	-136
306	68	-43
221	-5	36
92	-72	2
-20	-113	-55
-94	-125	-86
-147	-113	-85
-210	-97	-76
-292	-82	-60
-363	-75	7
-361	-66	46
-248	-46	44
-40	-9	22
194	43	9
373	99	24
452	142	32
436	164	39
381	159	20
328	139	-17
284	117	-60
210	103	-54
54	88	-43
-183	58	-21
-448	-11	22
-627	-123	13
-638	-259	-8
-452	-375	-45
-147	-418	-75
147	-361	-81
318	-217	-74
317	-40	-48
195	93	-10
44	130	6
-46	51	12
-52	-100	22
-10	-263	-1
15	-364	-33
-18	-374	-33
-101	-301	-8
-185	-185	24
-217	-79	51
-179	-9	14
-97	20	-67
-24	37	-140
4	68	-235
-13	138	-255
-42	239	-131
-39	342	79
12	417	182
102	431	133
188	382	46
238	279	-54
241	150	-127
211	22	-141
172	-86	-64
140	-163	-12
106	-204	-47
52	-206	-93
-26	-162	-112
-121	-76	-86
-205	35	17
-248	138	145
-234	197	143
-173	188	74
-89	117	-3
-8	15	-60
51	-78	-97
89	-125	-114
104	-124	-74
101	-91	-3
79	-61	33
40	-57	13
-10	-75	26
-52	-95	67
-68	-88	90
-48	-39	86
-1	40	55
57	123	5
110	177	-80
141	190	-138
162	170	-158
175	145	-136
184	137	-69
185	157	-9
163	182	81
117	181	176
61	127	176
26	8	150
32	-150	116
76	-305	-7
116	-407	-190
95	-427	-309
-23	-372	-316
-232	-261	-291
-463	-137	-230
-627	-31	-99
-652	43	-25
-526	86	21
-308	104	111
-101	100	160
5	72	158
-11	17	72
-108	-57	-30
-202	-131	-120
-218	-177	-184
-133	-171	-159
13	-117	-61
151	-34	28
223	34	19
216	65	11
171	50	26
135	13	57
153	-10	145
216	9	228
296	76	238
328	161	160
283	221	42
170	221	-120
19	155	-283
-118	56	-330
-202	-28	-249
-218	-52	-136
-178	-8	-61
-110	79	-5
-37	153	-34
22	166	-105
65	101	-135
97	-21	-101
117	-148	-21
125	-232	27
121	-238	62
100	-181	69
64	-91	82
23	-10	47
-8	32	3
-14	35	-11
18	9	-27
90	-21	24
182	-44	42
266	-47	31
302	-33	45
261	-4	32
129	37	22
-77	84	30
-300	122	20
-481	141	-5
-550	137	-38
-485	110	-78
-300	79	-70
-59	56	-60
161	51	-56
291	61	-13
300	70	2
201	65	-53
41	41	-92
-116	4	-96
-228	-35	-114
-274	-68	-104
-259	-97	-59
-201	-127	-33
-124	-163	-18
-47	-194	-1
25	-205	22
92	-176	52
162	-108	32
245	-12	-8
350	82	-60
450	149	-121
501	183	-97
462	194	15
301	202	130
28	209	162
-291	197	130
-571	130	69
-727	-7	-54
-725	-205	-163
-589	-411	-226
-404	-553	-182
-241	-582	-66
-143	-494	-17
-100	-340	-61
-64	-190	-125
7	-92	-156
123	-55	-156
255	-39	-101
358	-1	-1
396	77	103
371	169	135
302	226	138
229	207	112
158	116	25
91	10	-67
24	-51	-126
-38	-27	-128
-78	74	-100
-77	196	-46
-27	280	22
42	298	61
100	261	98
106	210	110
58	183	67
-17	189	28
-80	196	-21
-102	174	-52
-84	110	-74
-42	16	-72
-8	-74	-37
7	-123	-4
11	-125	19
24	-92	37
58	-48	39
104	-15	1
136	10	-51
125	30	-133
71	54	-195
-5	75	-163
-66	75	-48
-84	43	39
-50	-15	32
12	-77	33
63	-118	53
77	-122	70
41	-94	119
-24	-56	147
-88	-27	85
-115	-11	-17
-96	9	-112
-41	48	-221
23	115	-292
63	186	-302
62	221	-218
20	185	-52
-38	67	81
-81	-101	168
-85	-276	203
-49	-407	150
-1	-471	57
20	-475	-75
-16	-446	-176
-108	-409	-190
-221	-371	-120
-289	-320	-68
-267	-242	-76
-141	-125	-4
46	13	28
216	155	27
285	273	36
210	356	16
14	398	-20
-222	404	-63
-392	379	-74
-443	323	-82
-361	241	-51
-205	141	-14
-54	40	41
32	-53	108
48	-130	120
30	-195	112
32	-250	126
83	-286	109
169	-289	42
245	-231	-3
273	-107	-62
238	63	-147
170	230	-186
110	336	-112
99	349	-5
132	272	-6
179	153	-47
196	47	-117
157	-4	-201
69	-1	-182
-32	21	-89
-111	25	-44
-142	-7	-68
-125	-56	-84
-75	-85	-86
-9	-60	-35
53	11	27
103	94	34
128	140	44
119	120	24
71	41	-11
-8	-58	-16
-97	-129	2
-159	-147	34
-166	-122	104
-104	-83	142
11	-61	95
139	-65	28
236	-80	-23
257	-72	-68
184	-32	-100
32	34	-81
-163	100	-58
-338	128	-36
-436	109	-10
-420	53	0
-291	-5	0
-96	-33	-17
104	-13	-34
245	52	-67
291	138	-60
253	215	-28
169	253	17
75	226	51
1	125	53
-50	-44	38
-85	-249	-30
-101	-449	-104
-91	-582	-158
-44	-606	-131
28	-504	-67
91	-309	-35
104	-84	-8
42	102	2
-78	197	19
-188	205	37
-209	158	48
-99	110	57
113	99	34
332	126	-16
438	161	-55
350	160	-80
71	106	-89
-304	15	-47
-634	-68	-51
-804	-99	-71
-762	-62	-66
-555	21	-116
-277	96	-103
-26	110	-42
136	40	57
201	-86	134
206	-215	129
196	-288	115
201	-270	118
222	-175	103
245	-50	-9
258	54	-79
254	106	-142
245	111	-273
230	94	-306
211	91	-199
169	114	-28
95	157	55
-10	188	42
-122	182	22
-203	132	-22
-213	52	-42
-137	-27	-56
-2	-82	-28
144	-96	5
237	-76	-1
231	-39	6
120	-5	2
-56	12	12
-236	11	-6
-350	-6	-24
-361	-23	-23
-280	-26	-35
-144	-7	-77
-7	36	-93
92	90	-65
136	137	-49
148	152	-16
150	127	19
167	67	48
200	-4	80
218	-59	119
198	-82	110
120	-63	24
0	-28	-23
-120	8	-42
-191	30	-83
-188	35	-127
-119	39	-106
-28	48	-48
32	60	-63
30	55	-60
-34	14	-26
-120	-66	15
-177	-164	21
-170	-233	13
-104	-232	53
-11	-147	79
80	-4	80
151	138	11
223	227	-86
314	228	-154
423	154	-214
506	38	-183
502	-78	-63
335	-171	32
5	-230	82
-410	-259	112
-765	-253	104
-927	-206	71
-840	-125	40
-554	-31	-11
-201	31	-70
75	31	-111
198	-33	-112
175	-121	-82
101	-161	-67
62	-105	-49
104	51	-30
195	244	-57
265	388	-89
259	414	-70
172	310	-20
46	124	37
-56	-70	67
-108	-218	40
-123	-305	-11
-136	-338	-58
-172	-340	-85
-212	-321	-64
-217	-263	-36
-149	-166	-13
-15	-38	35
132	75	39
221	138	1
209	137	6
113	95	31
-10	62	69
-84	71	152
-69	129	222
22	202	176
135	251	33
207	253	-169
210	222	-359
155	193	-472
74	190	-441
2	209	-211
-46	210	6
-77	155	84
-100	24	33
-121	-157	-43
-130	-331	-68
-110	-434	-85
-57	-430	-62
17	-326	7
86	-173	57
127	-17	94
134	92	107
119	144	81
100	144	78
93	120	100
98	90	123
101	70	116
90	61	58
55	58	-24
7	52	-102
-37	36	-158
-60	9	-140
-54	-26	-44
-24	-54	39
14	-65	19
36	-57	-59
26	-31	-114
-26	-2	-144
-111	22	-99
-200	33	-24
-258	40	70
-249	50	156
-162	74	161
-18	109	116
124	139	22
202	153	-95
174	135	-194
46	90	-215
-126	30	-168
-264	-28	-106
-304	-71	-71
-232	-106	-25
-101	-137	16
10	-178	-2
38	-216	-30
-27	-237	-40
-132	-209	-30
-193	-117	-29
-145	28	-10
16	185	-2
230	288	12
405	287	57
462	164	77
386	-48	74
207	-272	66
1	-426	53
-163	-451	14
-247	-348	-37
-251	-177	-59
-204	-19	-65
-136	54	-81
-66	26	-88
-3	-68	-92
52	-158	-83
97	-178	-80
131	-106	-70
154	27	-68
175	157	-74
200	218	-31
231	185	40
251	82	87
234	-33	86
159	-102	72
22	-91	23
-151	-17	-75
-314	80	-111
-418	147	-39
-436	166	-1
-371	145	-23
-252	120	-39
-121	123	-30
-10	165	-34
68	228	-46
119	276	-57
155	277	-107
186	215	-128
212	104	-99
231	-29	-60
230	-155	-63
204	-246	-43
151	-292	38
68	-288	77
-40	-231	84
-162	-124	81
-273	19	37
-344	168	4
-344	278	-23
-269	308	-43
-136	241	-16
7	94	13
110	-82	28
147	-215	37
118	-260	24
58	-200	6
9	-76	-42
1	51	-91
33	123	-92
86	109	-86
133	32	-32
158	-56	60
160	-103	113
151	-80	120
136	4	99
107	105	33
54	174	-60
-30	185	-176
-129	131	-267
-213	37	-235
-248	-72	-153
-217	-179	-123
-139	-273	-98
-48	-338	-52
22	-358	0
61	-312	43
91	-189	77
148	-13	87
259	166	37
409	279	-30
549	282	-116
598	174	-171
496	7	-150
228	-142	-39
-156	-212	91
-561	-179	129
-869	-78	72
-996	30	15
-920	100	0
-690	110	-18
-392	90	29
-123	71	89
68	85	112
175	121	37
226	151	-93
249	141	-157
258	67	-150
241	-57	-96
179	-209	-77
74	-336	-35
-48	-401	9
-137	-381	1
-153	-275	-13
-88	-124	-11
21	22	16
123	104	53
166	94	60
144	6	32
84	-104	-1
32	-162	-71
25	-121	-161
74	15	-207
155	192	-186
229	328	-108
269	372	-17
257	317	38
198	211	90
104	120	107
-4	85	62
-105	92	65
-178	99	81
-211	67	22
-200	-17	-61
-155	-116	-83
-96	-181	-81
-44	-174	-133
-16	-101	-164
-6	-2	-105
-3	74	-56
6	97	-4
24	82	83
43	57	124
61	56	129
71	85	104
82	120	56
102	137	-5
125	124	-64
138	97	-125
117	81	-159
55	90	-147
-36	106	-117
-117	97	-65
-143	28	-22
-84	-101	-13
52	-243	-1
228	-330	28
374	-305	43
444	-166	47
392	31	39
212	200	18
-58	259	2
-361	183	-21
-611	9	-57
-743	-187	-58
-720	-326	-6
-564	-359	27
-335	-296	26
-126	-177	28
-13	-61	1
-10	5	-43
-75	11	-84
-124	-22	-120
-99	-66	-137
8	-86	-128
148	-66	-104
242	-15	-74
240	40	-40
154	69	-15
46	48	42
-8	-22	130
19	-114	152
105	-186	98
183	-194	-4
201	-129	-111
143	-6	-181
58	130	-160
4	233	-42
19	279	96
92	268	152
181	223	119
242	169	16
262	121	-142
258	80	-173
254	31	-148
253	-23	-145
216	-79	-153
110	-117	-140
-85	-133	-38
-329	-131	-21
-537	-127	-20
-623	-139	-16
-561	-165	-13
-392	-189	30
-208	-184	22
-84	-141	13
-46	-62	2
-60	26	-12
-57	96	-21
14	132	-19
144	137	-3
275	132	-2
331	131	31
275	143	101
123	158	139
-52	157	100
-177	133	31
-202	92	-26
-133	47	-96
-24	13	-129
74	-2	-66
124	-2	43
128	3	69
113	8	43
107	10	-12
125	22	-92
158	45	-149
183	84	-160
175	121	-132
131	138	-75
50	128	-10
-44	88	-24
-128	31	-54
-178	-27	-53
-182	-74	-30
-139	-110	-14
-55	-144	-16
44	-179	12
141	-216	59
208	-243	109
223	-249	112
171	-219	95
59	-162	69
-94	-83	38
-253	4	-30
-375	86	-143
-421	156	-195
-370	204	-186
-232	221	-120
-48	197	-12
124	131	84
240	47	98
276	-31	52
245	-75	-1
175	-77	-62
93	-51	-102
19	-33	-119
-48	-51	-131
-109	-107	-103
-154	-169	-36
-158	-190	18
-92	-149	70
49	-61	126
229	15	171
368	19	141
383	-68	42
231	-211	-113
-60	-322	-246
-399	-326	-315
-654	-196	-316
-726	17	-202
-581	210	-74
-275	290	61
72	227	122
344	71	80
468	-68	49
429	-105	26
271	-15	22
68	142	29
-119	268	22
-248	279	22
-304	165	29
-288	-22	13
-217	-189	-14
-108	-265	-37
10	-242	-90
107	-147	-136
162	-40	-130
174	41	-75
162	95	-32
155	137	-8
172	190	13
216	244	12
260	279	14
273	269	17
234	213	17
145	129	41
33	53	64
-69	12	63
-141	0	66
-178	-3	83
-183	-23	60
-170	-59	14
-139	-98	-5
-85	-102	8
-1	-51	24
104	45	-40
206	153	-107
269	226	-124
268	233	-215
187	174	-313
46	75	-247
-105	-24	-91
-225	-103	-44
-274	-157	-18
-258	-207	27
-202	-263	23
-150	-330	31
-135	-373	31
-161	-355	30
-204	-263	45
-223	-111	2
-185	43	-37
-93	131	-41
25	117	-52
123	8	-28
170	-124	-11
158	-198	-18
115	-157	3
77	-8	22
62	178	25
72	309	53
86	316	85
88	197	91
83	8	65
96	-163	29
150	-257	-32
240	-260	-132
326	-206	-187
346	-142	-172
253	-94	-136
44	-57	-101
-211	-5	-47
-417	75	5
-481	170	17
-383	240	1
-173	244	-33
46	178	-47
171	71	-54
149	-18	-46
-3	-51	-42
-195	-23	-56
-336	28	-30
-360	51	-23
-267	18	-11
-110	-59	-5
41	-129	4
132	-140	32
150	-66	41
119	68	38
86	203	19
84	276	36
117	253	52
165	152	72
197	17	84
190	-90	66
138	-134	15
62	-112	-64
-17	-45	-127
-77	30	-133
-110	86	-81
-120	101	-57
-117	72	-59
-107	7	-50
-95	-87	-43
-79	-181	7
-55	-251	91
-26	-263	131
10	-215	127
46	-109	47
78	16	-114
97	112	-241
101	149	-294
89	120	-245
77	58	-92
78	9	-23
115	7	-14
198	54	-8
314	114	-85
415	138	-182
447	91	-160
357	-15	-43
131	-129	13
-188	-182	32
-516	-129	54
-758	10	56
-837	165	72
-740	240	76
-509	182	47
-232	6	6
12	-196	-32
181	-318	-36
272	-286	-13
314	-127	3
328	57	3
324	142	11
283	58	-7
190	-152	-28
41	-359	5
-132	-429	63
-282	-294	80
-366	-20	60
-357	241	71
-267	342	47
-147	232	-30
-43	-15	-109
8	-233	-148
4	-275	-125
-28	-114	-104
-52	158	-78
-36	372	-40
23	404	19
107	240	36
183	-13	-13
221	-196	-38
212	-211	-90
170	-64	-132
119	136	-68
81	261	46
58	244	104
52	112	79
45	-45	17
33	-130	-34
18	-110	-39
4	-21	-15
4	62	-13
20	86	-2
44	45	18
68	-13	37
88	-38	52
101	-7	11
113	62	-55
120	124	-143
116	139	-199
89	97	-187
32	17	-109
-42	-66	-3
-116	-130	63
-160	-166	91
-158	-175	53
-111	-159	-3
-46	-117	-15
4	-52	-40
16	22	-51
-5	83	-24
-38	110	-41
-47	96	-71
-14	63	-107
52	41	-103
123	56	-19
157	99	46
131	139	78
51	140	53
-50	83	8
-130	-18	-38
-166	-120	-115
-151	-182	-163
-98	-185	-194
-32	-140	-125
19	-83	6
44	-47	48
33	-49	52
-17	-83	42
-98	-128	50
-191	-166	85
-259	-179	109
-256	-162	64
-163	-115	-26
-1	-44	-88
170	35	-173
278	103	-215
268	131	-118
145	106	38
-35	32	101
-189	-66	77
-257	-150	46
-236	-188	-18
-174	-166	-61
-133	-94	-60
-148	-2	-45
-201	83	-39
-240	137	-42
-209	160	-8
-100	151	2
55	127	-11
200	100	-17
292	83	-20
331	80	-31
336	81	-23
340	80	28
334	53	44
288	6	19
170	-52	-1
-23	-93	-2
-236	-84	-9
-386	-21	-12
-402	71	-17
-272	143	-83
-57	156	-160
147	95	-187
255	-6	-127
245	-88	-3
160	-97	70
67	-21	109
27	99	84
49	196	-20
105	209	-113
147	127	-155
148	-11	-139
115	-137	-137
77	-192	-85
52	-171	35
45	-98	86
39	-31	79
11	-7	53
-44	-28	4
-115	-64	-58
-176	-75	-90
-213	-46	-66
-226	8	51
-229	57	175
-231	78	216
-229	64	180
-210	34	75
-160	11	-21
-72	-8	-153
42	-30	-273
172	-72	-281
305	-131	-214
423	-182	-131
506	-189	-69
520	-135	3
423	-43	22
198	42	23
-130	74	36
-488	36	34
-764	-43	7
-853	-111	-45
-725	-122	-69
-433	-70	-114
-88	12	-136
196	77	-74
346	96	32
366	81	95
302	67	95
221	96	65
154	174	19
103	272	-2
44	340	29
-27	332	77
-101	236	50
-145	62	-16
-140	-143	-61
-90	-341	-120
-20	-482	-154
35	-541	-140
65	-501	-97
74	-376	-32
79	-196	17
82	-27	91
74	86	210
33	118	317
-32	85	343
-98	37	263
-115	31	123
-47	85	-137
94	179	-432
253	253	-590
346	264	-568
314	199	-397
157	93	-204
-68	6	-10
-277	-32	129
-392	-23	130
-399	-8	142
-315	-29	142
-194	-93	79
-84	-165	7
4	-186	-48
79	-118	-103
156	30	-122
234	201	-63
295	323	20
306	349	87
260	278	69
172	157	43
90	33	26
50	-54	0
74	-102	-21
138	-121	-47
189	-122	-52
169	-107	-51
51	-61	-11
-142	10	15
-347	88	27
-480	137	36
-489	132	19
-377	72	19
-195	-12	7
-23	-71	-33
84	-76	-33
117	-19	-28
111	70	-51
111	151	-18
137	192	42
162	179	56
132	120	15
14	16	-65
-180	-125	-127
-370	-305	-143
-458	-497	-154
-388	-655	-124
-176	-726	-92
83	-648	-76
275	-434	-55
322	-130	-48
229	159	-12
69	336	26
-52	357	46
-75	244	78
-4	85	129
93	-27	151
143	-36	103
110	43	38
6	145	-7
-110	196	-71
-184	158	-127
-193	57	-95
-152	-40	-40
-92	-67	-74
-41	-4	-103
-3	116	-86
37	224	-78
97	259	-68
171	211	-59
237	110	-16
259	18	43
226	-27	87
138	-23	119
30	-4	112
-65	-17	32
-122	-74	-139
-136	-157	-267
-120	-215	-323
-88	-214	-316
-49	-140	-171
-4	-23	69
42	95	261
89	182	281
118	228	201
117	241	63
77	236	-109
13	210	-235
-50	150	-282
-91	52	-255
-91	-69	-125
-60	-183	34
-23	-246	110
-2	-237	138
-4	-163	121
-20	-64	74
-23	16	24
3	57	-18
57	60	-38
122	45	-47
164	30	-25
162	15	9
118	-11	21
59	-56	35
13	-113	41
-2	-160	47
10	-168	22
30	-137	-21
42	-86	-47
46	-38	-78
60	-14	-75
107	-4	-60
190	11	-49
269	45	-29
285	86	8
184	97	40
-42	49	42
-341	-54	10
-611	-161	-35
-751	-204	-70
-714	-139	-100
-530	14	-86
-288	171	-26
-98	232	36
-20	134	24
-55	-89	-23
-147	-338	-46
-215	-481	-66
-212	-447	-63
-129	-252	-2
4	17	78
144	247	91
254	372	-1
320	398	-118
337	372	-193
311	350	-264
244	345	-236
154	330	-95
58	253	32
-9	98	60
-36	-106	61
-29	-297	90
-14	-416	89
-22	-441	117
-67	-389	127
-133	-303	90
-175	-213	47
-154	-127	-63
-57	-28	-215
85	92	-318
225	219	-295
312	323	-244
323	362	-172
267	327	-57
175	224	15
86	93	86
13	-32	117
-36	-129	111
-61	-190	108
-70	-216	74
-61	-207	49
-36	-167	40
-3	-98	37
24	-20	31
41	40	7
44	68	-29
46	58	-48
56	34	-38
75	20	-12
88	31	40
85	62	98
59	86	124
25	85	64
5	57	-27
14	23	-90
41	8	-175
53	24	-271
12	56	-298
-95	74	-203
-235	53	-56
-342	-2	20
-350	-54	29
-236	-60	64
-31	7	128
175	130	171
299	259	179
277	343	128
136	345	23
-56	282	-123
-210	185	-242
-271	90	-261
-229	1	-209
-122	-109	-93
-7	-268	-38
79	-477	-17
124	-687	7
138	-819	-26
126	-790	-12
89	-586	21
18	-258	59
-80	92	75
-170	353	60
-204	468	22
-143	445	-12
7	349	-36
191	257	-86
318	193	-84
311	141	-51
148	50	6
-119	-109	37
-392	-313	34
-572	-482	36
-607	-541	-1
-515	-445	-55
-354	-224	-101
-194	28	-109
-72	211	-90
9	268	-42
76	213	16
150	117	75
223	58	93
273	75	48
279	144	-19
241	211	-92
184	215	-96
148	150	-80
149	43	-69
176	-50	-43
198	-81	-32
172	-43	-21
96	34	37
-11	108	149
-99	150	256
-128	158	291
-88	149	190
-5	136	53
74	126	-115
114	106	-331
104	60	-435
60	-15	-353
11	-101	-236
-19	-169	-186
-28	-192	-107
-25	-167	-16
-23	-101	53
-22	-21	84
-6	43	84
36	84	63
107	90	4
193	75	-49
258	45	-98
275	20	-121
228	14	-77
126	33	-12
-3	81	16
-126	137	24
-221	175	46
-272	163	55
-285	77	80
-274	-81	128
-244	-278	171
-199	-460	183
-138	-577	105
-61	-581	-21
32	-460	-134
133	-241	-241
237	36	-282
328	300	-183
390	495	-42
402	582	35
345	560	69
203	454	47
-16	299	-17
-276	117	-80
-523	-86	-105
-686	-317	-79
-724	-569	-39
-632	-794	-15
-451	-931	-21
-249	-910	-27
-95	-721	16
-20	-416	45
-10	-89	61
-22	153	62
-12	261	24
32	264	9
92	244	12
131	279	-5
122	382	-43
78	497	-32
31	536	-44
28	434	-61
86	201	-6
182	-63	38
267	-246	10
291	-272	-99
236	-145	-196
124	51	-209
11	215	-133
-58	277	-107
-59	233	-126
-11	134	-97
56	43	-69
106	5	-18
123	14	32
115	41	79
98	56	109
91	47	94
93	23	45
98	2	1
96	-5	-23
84	-2	-18
61	5	15
32	8	84
0	15	159
-34	27	130
-67	48	59
-92	68	-13
-94	74	-130
-66	56	-204
-6	19	-176
72	-21	-84
150	-46	-3
198	-51	19
202	-42	-12
154	-33	-35
55	-29	-69
-67	-27	-121
-190	-9	-105
-282	36	-55
-329	106	-14
-321	183	21
-272	238	30
-205	249	34
-139	206	26
-90	122	20
-53	15	14
-21	-105	1
20	-223	-16
72	-326	-32
121	-405	-38
150	-427	-55
145	-382	-47
116	-264	-28
86	-112	29
84	26	64
121	93	13
178	65	-24
205	-48	-80
159	-194	-144
23	-308	-109
-170	-338	-4
-344	-260	30
-423	-97	1
-375	98	-14
-229	255	-18
-67	311	-15
29	236	-9
17	43	-10
-67	-196	7
-145	-390	7
-136	-441	-11
-23	-315	-39
145	-50	-88
271	250	-157
283	458	-192
170	497	-115
-2	366	-7
-130	161	57
-152	-7	57
-69	-52	21
39	29	-27
91	161	-55
42	247	-27
-77	222	7
-184	95	64
-198	-66	105
-98	-175	103
68	-178	93
221	-89	-2
283	41	-105
245	149	-142
147	191	-184
49	171	-178
-4	113	-78
-13	43	100
-7	-29	172
-16	-96	142
-42	-156	102
-70	-187	-39
-74	-174	-200
-46	-111	-282
-3	-17	-225
31	70	-151
42	119	-108
42	115	-30
51	81	-2
81	47	12
113	32	5
115	37	9
59	32	44
-46	-3	57
-160	-69	77
-224	-143	106
-201	-189	106
-106	-189	57
10	-151	-3
84	-108	-65
85	-87	-125
30	-98	-115
-26	-114	-28
-38	-105	21
7	-52	8
82	35	-6
134	119	-34
133	162	-39
85	147	-17
28	92	-18
11	33	-26
56	3	-40
156	14	-49
269	43	-49
355	65	-48
380	56	-25
330	16	-12
198	-36	21
-13	-80	87
-282	-97	105
-572	-94	71
-804	-81	7
-889	-72	-52
-793	-68	-135
-535	-63	-177
-213	-51	-141
51	-29	-75
172	-11	-3
141	-3	-8
24	-16	-24
-65	-39	-71
-60	-57	-130
48	-53	-133
190	-23	-80
276	20	18
270	58	90
191	72	121
104	64	91
75	47	46
116	50	3
187	91	-22
224	164	-32
188	244	-65
96	296	-64
-1	284	-70
-47	205	-69
-26	77	-5
32	-60	69
71	-173	149
55	-234	149
-6	-249	62
-77	-230	-16
-109	-201	-111
-84	-178	-197
-27	-158	-262
24	-135	-241
36	-97	-159
16	-41	-64
-5	25	43
6	91	113
60	147	200
129	188	159
166	209	44
130	213	-27
29	191	-151
-102	138	-172
-209	62	-102
-258	-28	-100
-245	-100	-118
-201	-134	-80
-161	-113	-26
-134	-56	14
-110	4	54
-60	33	36
27	13	32
138	-37	68
229	-83	72
257	-84	47
203	-29	-13
94	54	-76
-19	122	-94
-84	129	-89
-85	66	-76
-41	-45	-37
2	-154	-6
6	-223	16
-28	-232	22
-66	-192	-13
-55	-127	-37
36	-51	-40
191	24	-19
351	99	24
439	156	75
400	165	135
234	101	111
-8	-40	21
-248	-219	-81
-425	-368	-203
-515	-411	-289
-539	-325	-260
-523	-145	-121
-491	52	10
-436	188	56
-336	228	53
-178	195	19
20	165	-15
209	191	26
337	274	87
373	357	151
336	357	172
267	233	125
216	3	20
204	-232	-131
201	-362	-233
166	-334	-234
66	-176	-167
-84	8	-97
-229	106	-51
-307	64	-24
-281	-84	-1
-176	-238	11
-46	-297	-1
44	-212	-20
69	-22	-23
44	180	6
22	301	35
37	313	9
99	241	-27
172	153	-19
216	108	-2
209	121	-28
157	158	-58
97	166	-41
62	114	-39
65	12	-20
90	-99	35
111	-171	94
107	-189	90
82	-159	-9
37	-117	-96
-10	-90	-157
-61	-84	-185
-119	-92	-111
-174	-94	37
-211	-79	125
-209	-48	98
-165	-12	45
-96	32	-42
-39	82	-128
-24	135	-176
-53	186	-130
-92	211	-19
-89	195	18
-17	126	37
111	17	3
238	-102	-60
299	-200	-84
258	-253	-59
132	-255	1
-19	-211	62
-133	-137	123
-181	-43	155
-177	50	164
-164	120	104
-178	139	-24
-221	91	-151
-258	-15	-234
-250	-140	-251
-175	-228	-211
-47	-233	-138
103	-153	-89
248	-19	-52
373	106	-23
476	171	-19
547	161	24
558	105	64
462	46	93
242	19	150
-72	27	159
-394	40	140
-616	37	82
-652	4	-17
-523	-34	-92
-318	-48	-124
-163	-28	-132
-139	8	-111
-240	13	-76
-375	-48	-70
-421	-179	-71
-316	-332	-61
-84	-429	-50
181	-413	-40
370	-264	-42
423	-38	-35
363	185	-34
258	333	-42
184	369	-27
166	312	-24
178	214	-14
167	130	8
111	80	29
25	60	64
-39	44	80
-43	17	87
18	-16	91
105	-37	60
156	-23	21
138	24	-1
60	89	-5
-31	148	-3
-79	174	-33
-54	171	-45
31	153	-56
133	131	-84
203	115	-69
207	97	-68
145	66	-36
42	17	-10
-70	-44	-36
-166	-109	-90
-226	-159	-192
-246	-190	-282
-229	-201	-294
-185	-189	-178
-130	-155	-64
-85	-93	-4
-55	-11	82
-50	67	106
-63	110	69
-77	92	28
-78	9	-33
-56	-109	-41
-15	-206	32
36	-238	152
90	-184	225
132	-68	205
160	64	147
170	168	39
170	221	-123
161	227	-265
148	196	-287
133	131	-182
114	21	-83
72	-141	-2
6	-333	15
-85	-492	-7
-167	-541	5
-200	-432	-8
-152	-184	10
-25	105	28
123	312	20
207	343	-58
148	195	-109
-69	-43	-54
-372	-246	-1
-626	-309	14
-698	-223	13
-534	-48	21
-182	109	12
204	180	22
454	166	40
462	120	49
253	109	24
-61	153	-13
-330	215	-32
-439	235	-67
-372	165	-77
-189	20	-71
5	-134	-62
139	-218	-44
200	-190	-28
221	-69	-40
245	82	-44
295	192	-53
346	233	-74
363	213	-55
310	183	-38
186	169	-11
27	174	13
-117	162	47
-209	95	72
-229	-32	26
-188	-185	-27
-112	-301	-99
-34	-334	-157
26	-271	-144
58	-153	-58
67	-37	32
62	28	37
57	34	15
62	16	13
81	12	25
107	55	40
125	138	41
131	227	46
118	282	26
91	282	-15
58	236	-28
24	168	-56
-15	106	-87
-63	61	-104
-119	13	-89
-168	-65	-53
-183	-198	-27
-143	-364	0
-44	-527	-5
83	-615	10
186	-590	41
214	-454	33
141	-245	-30
-5	-41	-97
-166	92	-116
-269	124	-110
-264	84	-67
-158	28	1
4	11	111
151	56	142
230	136	86
228	202	55
166	208	16
75	153	-24
-28	68	-6
-150	7	78
-291	5	26
-448	51	-171
-576	109	-339
-611	131	-341
-518	99	-179
-299	28	-43
-17	-38	33
229	-59	32
366	-25	-17
381	47	-82
318	119	-112
242	158	-46
199	161	21
182	138	16
153	114	-7
69	90	-4
-60	58	4
-191	0	43
-256	-92	69
-214	-196	63
-86	-288	43
69	-326	17
182	-307	-15
211	-237	-46
175	-152	-38
127	-89	-7
107	-57	28
128	-52	47
163	-44	32
167	-19	-12
120	30	-70
33	82	-97
-56	110	-113
-119	104	-109
-143	68	-36
-143	31	43
-143	15	71
-154	32	70
-163	70	32
-150	104	-28
-103	113	-34
-32	91	-64
35	52	-107
74	22	-104
77	16	-96
56	28	-64
40	39	-27
49	29	42
88	-8	102
140	-57	104
188	-90	74
216	-80	32
226	-27	-6
214	46	-62
182	113	-104
125	145	-103
34	147	-74
-90	127	-55
-232	112	-3
-357	106	41
-433	97	61
-428	64	29
-336	-2	-57
-167	-96	-122
42	-187	-195
242	-243	-198
380	-246	-119
409	-201	-26
313	-133	24
104	-67	37
-156	-16	95
-385	20	150
-507	50	190
-491	74	189
-361	78	117
-180	53	51
-27	-3	-74
48	-69	-261
42	-122	-373
3	-134	-359
-17	-112	-256
16	-81	-145
94	-70	-31
176	-90	48
226	-118	58
216	-115	69
170	-51	66
107	62	79
58	171	52
23	214	28
-10	150	45
-51	6	22
-96	-151	-7
-117	-233	-35
-92	-196	-55
-20	-62	-115
75	99	-177
148	208	-185
170	228	-122
136	178	-1
79	122	82
35	116	150
35	171	120
74	250	29
122	283	5
149	228	-36
135	82	-91
89	-102	-120
26	-259	-63
-30	-341	-4
-81	-343	-2
-127	-291	9
-177	-226	3
-222	-173	4
-248	-130	15
-237	-90	39
-185	-38	57
-105	22	44
-25	80	24
34	125	-21
63	154	-76
71	174	-70
78	197	14
91	215	111
114	224	99
135	206	36
137	168	5
115	123	-68
74	103	-110
26	130	-121
-11	205	-130
-23	301	-130
4	365	-128
74	345	-120
182	210	-120
300	-42	-53
379	-362	-37
363	-677	-49
221	-887	-25
-42	-929	-19
-350	-784	32
-581	-497	87
-644	-168	115
-509	98	86
-248	218	7
0	187	-88
101	56	-164
2	-77	-155
-236	-137	-91
-459	-97	-17
-526	15	39
-378	131	32
-83	203	-4
210	206	-19
360	166	-12
320	116	-30
151	83	-41
-12	67	5
-67	51	49
-1	25	68
111	-11	24
169	-33	-24
113	-24	-43
-20	11	-35
-141	53	57
-156	76	169
-42	65	170
132	33	66
276	11	-34
316	13	-168
248	39	-321
133	61	-308
48	53	-167
30	9	-119
59	-53	-143
86	-94	-55
65	-91	45
0	-45	58
-76	13	66
-113	43	17
-95	36	-17
-38	2	-26
17	-21	-22
41	0	13
34	66	36
16	154	59
11	218	40
22	233	17
34	193	-4
28	128	-48
4	66	-79
-18	23	-76
-2	-6	-38
64	-43	-6
163	-89	11
241	-136	12
244	-160	16
147	-140	22
-30	-82	34
-221	-11	65
-350	31	87
-377	17	78
-299	-51	64
-160	-139	31
-16	-204	-32
84	-212	-88
123	-155	-137
118	-55	-135
93	48	-128
68	119	-109
42	141	-98
13	115	-137
-34	57	-138
-101	-8	-103
-176	-69	-41
-236	-116	13
-262	-150	64
-240	-165	81
-165	-150	69
-49	-88	39
85	31	-59
202	191	-104
273	345	-52
279	421	65
226	350	145
143	122	111
69	-200	28
32	-494	-101
27	-632	-204
23	-539	-205
-22	-257	-100
-120	77	-3
-251	305	-6
-351	321	-21
-360	145	-54
-256	-102	-55
-74	-261	-49
98	-242	-61
176	-63	-53
128	154	-55
-16	270	-48
-178	215	-14
-276	24	13
-264	-182	13
-162	-286	8
-22	-237	1
98	-82	12
172	75	37
208	149	42
223	123	31
226	57	13
212	29	2
167	82	-2
96	191	-11
18	283	4
-29	298	38
-19	215	71
39	92	60
118	-6	19
170	-24	-47
169	26	-112
121	93	-129
56	117	-127
7	69	-76
-13	-23	-48
-10	-107	-48
-2	-134	-23
0	-92	-1
-3	-6	30
1	83	59
12	138	91
15	152	42
-6	130	-55
-62	85	-127
-138	23	-197
-197	-62	-257
-204	-171	-197
-142	-292	-47
-35	-394	12
78	-451	79
147	-427	175
161	-320	208
128	-142	185
81	77	98
40	300	-38
9	483	-119
-25	591	-159
-74	586	-186
-123	454	-57
-145	208	79
-107	-94	125
-3	-390	78
128	-590	-105
221	-645	-248
211	-548	-303
72	-343	-249
-156	-113	-96
-403	60	54
-584	121	114
-632	74	64
-542	-41	-27
-354	-155	-117
-136	-200	-153
54	-156	-115
179	-33	-54
234	114	22
232	233	106
195	282	151
149	256	127
107	185	79
85	108	48
80	57	-1
92	38	-43
114	32	-45
140	17	-2
171	-19	27
206	-57	32
250	-75	13
295	-38	-25
326	49	-58
317	157	-40
245	228	-9
109	215	-58
-69	114	-102
-248	-46	-102
-379	-196	-56
-429	-280	-35
-397	-269	-32
-308	-185	-30
-200	-82	-47
-106	-10	-23
-43	7	-8
-7	-16	-4
9	-39	-6
20	-22	-7
32	41	6
43	131	17
55	206	19
70	236	-2
91	213	-20
111	151	-17
116	80	-16
96	20	-38
42	-23	-48
-22	-48	-38
-67	-66	-16
-59	-71	-16
16	-56	-48
137	-8	-44
253	74	-46
306	174	-43
262	270	2
132	335	15
-35	349	39
-180	300	124
-253	185	191
-246	11	196
-186	-206	123
-113	-432	-32
-61	-617	-213
-39	-703	-368
-40	-655	-410
-45	-475	-325
-44	-209	-178
-31	59	-44
-6	252	-2
32	325	8
86	290	37
147	200	49
201	110	54
221	47	37
180	6	-4
76	-48	-44
-68	-130	-34
-218	-223	13
-329	-282	38
-377	-265	70
-357	-181	126
-288	-80	149
-197	-32	110
-109	-79	2
-38	-192	-99
6	-291	-160
23	-282	-210
17	-130	-131
2	117	46
-6	356	139
15	477	89
70	453	-16
150	324	-117
219	192	-195
248	133	-206
214	156	-150
121	198	-21
4	174	83
-97	47	102
-144	-148	82
-129	-318	-12
-69	-368	-82
4	-272	-114
60	-78	-93
84	115	-23
75	221	7
52	211	35
33	129	60
33	48	112
54	22	117
92	53	59
137	101	-26
178	113	-107
207	69	-181
214	-6	-185
195	-66	-90
148	-71	-2
76	-20	24
-8	58	0
-89	118	-12
-151	131	-32
-181	106	-26
-181	68	-13
-165	41	-6
-148	30	7
-140	13	-13
-138	-31	4
-125	-102	24
-85	-174	15
-8	-206	-7
82	-175	-11
151	-96	-5
159	-17	-4
98	15	11
-13	-18	-45
-124	-85	-82
-178	-117	-92
-144	-69	-129
-34	60	-159
110	213	-137
231	301	5
285	269	109
269	115	142
195	-95	130
94	-272	79
-10	-351	34
-106	-333	-60
-191	-264	-149
-262	-219	-169
-304	-232	-143
-303	-282	-107
-255	-325	-71
-177	-301	26
-103	-198	149
-67	-38	173
-89	126	69
-159	249	-70
-237	310	-162
-278	309	-207
-251	259	-228
-150	170	-137
-3	54	1
144	-68	56
259	-165	95
321	-188	126
333	-117	95
306	32	42
259	195	-32
190	298	-112
103	288	-145
2	171	-112
-93	13	-37
-158	-112	20
-166	-142	86
-115	-82	125
-25	20	93
64	95	7
118	99	-70
124	43	-110
95	-30	-127
57	-71	-81
38	-62	13
41	-17	76
54	28	52
57	49	18
44	43	-1
25	33	-27
22	48	-18
48	93	-25
98	149	-34
144	186	-55
154	180	-115
106	135	-192
14	67	-225
-86	9	-158
-151	-30	-32
-158	-51	82
-113	-67	116
-42	-90	109
24	-107	101
66	-105	68
88	-60	-13
98	23	-100
104	132	-140
93	237	-123
50	301	-75
-35	305	-47
-145	244	-16
-245	132	-13
-281	-15	-27
-237	-175	-12
-122	-326	-1
14	-452	68
111	-530	140
126	-550	110
61	-504	22
-35	-398	-52
-102	-244	-139
-92	-64	-200
0	109	-170
121	243	-67
206	309	31
198	298	7
85	211	-26
-95	84	-14
-260	-48	-3
-342	-155	12
-307	-213	9
-176	-228	18
-20	-207	11
88	-168	-8
97	-121	-23
12	-61	-25
-118	7	-38
-222	84	-47
-245	154	-32
-174	205	-31
-29	233	21
141	237	84
290	244	104
378	265	78
390	300	21
324	320	-2
198	287	-31
42	177	-49
-102	-10	-67
-198	-225	-48
-218	-403	-33
-172	-488	-53
-95	-460	-46
-37	-354	-14
-35	-225	-3
-87	-123	-70
-161	-62	-137
-208	-26	-214
-199	21	-287
-135	93	-265
-48	169	-154
28	208	-58
75	174	-6
100	76	50
123	-44	78
157	-122	89
186	-118	103
191	-41	129
151	59	150
78	122	140
5	123	101
-28	78	24
-2	39	-62
70	48	-157
154	112	-179
203	197	-102
209	248	-10
182	233	51
148	157	59
121	58	40
101	-17	3
58	-46	-44
-21	-39	-64
-133	-28	-59
-243	-33	-26
-304	-64	56
-291	-96	113
-211	-102	60
-98	-66	-42
2	1	-145
58	67	-208
78	106	-206
93	104	-117
132	74	24
202	36	70
266	18	31
275	26	31
182	49	30
-12	71	-6
-259	65	-15
-481	26	-8
-595	-52	-4
-571	-159	-9
-418	-273	-2
-194	-365	6
27	-401	-6
196	-351	-55
295	-209	-129
337	-2	-149
351	203	-122
355	327	-52
346	305	12
314	131	41
234	-140	60
107	-405	35
-61	-556	-18
-247	-534	-62
-418	-356	-84
-548	-116	-65
-610	81	-23
-581	163	23
-475	129	3
-312	43	-66
-140	-6	-90
-4	37	-84
69	168	-51
83	324	-56
71	421	-78
78	408	-76
125	275	-42
209	77	26
292	-123	113
334	-270	199
313	-332	196
242	-316	105
166	-238	-33
118	-125	-135
119	1	-186
143	110	-211
151	182	-157
105	201	-60
2	168	-20
-132	112	-11
-245	65	4
-287	52	15
-243	75	50
-136	106	84
-11	118	109
81	92	134
115	36	75
98	-21	-21
58	-51	-87
27	-46	-156
24	-21	-158
44	3	-55
71	7	56
84	-1	37
75	-1	-27
53	23	-48
36	77	-63
34	128	-60
48	147	-39
66	105	-5
69	16	15
52	-89	4
13	-165	-22
-35	-182	-72
-82	-147	-128
-114	-81	-131
-129	-22	-116
-130	15	-66
-116	34	-6
-87	56	21
-41	103	35
14	171	32
68	237	48
105	261	83
106	222	90
71	113	65
8	-33	1
-57	-168	-59
-101	-241	-79
-106	-227	-86
-68	-140	-65
-4	-34	-36
65	27	-30
121	-4	-21
158	-131	-20
172	-309	-16
174	-445	-14
161	-466	-13
121	-343	-27
43	-117	-64
-71	109	-96
-211	233	-130
-339	192	-126
-412	22	-139
-412	-185	-120
-338	-307	5
-221	-274	126
-96	-104	225
7	116	225
81	273	175
136	298	101
182	192	-35
214	32	-168
205	-91	-227
133	-121	-179
-3	-54	-130
-162	57	-85
-280	159	-59
-297	213	-81
-197	223	-113
-26	207	-72
138	180	13
208	149	76
144	103	106
-23	45	78
-209	-13	36
-325	-52	3
-321	-70	-19
-204	-80	-43
-35	-102	-57
116	-151	-74
201	-201	-91
216	-215	-88
196	-154	-68
180	-24	-1
184	120	87
203	206	140
216	181	125
208	59	66
175	-92	-10
127	-180	-88
82	-157	-147
40	-40	-134
1	96	-60
-39	168	-19
-74	147	-25
-90	67	-31
-77	3	-9
-32	11	16
24	99	7
68	213	-23
83	279	-31
68	261	-40
42	169	-31
33	59	-16
56	-9	-14
107	-23	-9
170	-4	-12
212	-1	-26
216	-33	-37
175	-90	-57
97	-122	-119
-4	-95	-151
-109	-11	-89
-200	78	-18
-273	101	34
-321	21	98
-352	-148	123
-366	-334	138
-371	-460	104
-361	-481	52
-331	-405	-19
-267	-301	-144
-158	-230	-182
-15	-219	-157
138	-240	-117
261	-230	-60
325	-134	15
314	48	62
252	262	38
172	424	-18
115	461	-59
93	362	-37
83	182	5
48	9	29
-42	-84	36
-185	-77	18
-339	-3	-36
-436	67	-97
-431	83	-133
-320	32	-130
-144	-50	-84
26	-115	-10
141	-127	39
183	-88	16
177	-21	1
162	38	22
162	81	23
167	114	2
153	162	-18
106	229	14
40	299	64
2	327	65
28	282	44
123	160	-4
240	-8	-59
311	-167	-83
283	-265	-72
154	-280	-89
-26	-219	-157
-178	-122	-195
-249	-25	-184
-236	43	-137
-180	83	-67
-138	95	21
-136	91	112
-159	74	196
-167	43	175
-123	1	59
-30	-52	-41
78	-98	-164
149	-123	-241
151	-118	-207
90	-90	-37
-1	-53	115
-81	-24	140
-121	-17	94
-116	-21	7
-78	-18	-84
-17	12	-165
52	72	-130
123	144	7
184	192	109
216	171	91
208	74	31
157	-83	-19
85	-236	-67
20	-325	-78
-13	-309	-47
-16	-195	5
-4	-37	17
-9	91	10
-40	139	-15
-81	104	-74
-98	24	-101
-54	-43	-69
51	-55	-11
186	-19	9
285	29	8
289	44	-3
171	14	0
-40	-36	1
-271	-58	-3
-437	-9	16
-484	109	26
-409	252	22
-256	359	4
-97	379	-20
7	301	-44
35	158	-52
10	-11	-39
-15	-171	-23
1	-299	-10
77	-379	-30
190	-398	-76
284	-341	-98
302	-209	-107
212	-39	-102
26	102	-65
-200	148	-5
-388	66	56
-463	-104	80
-392	-279	76
-195	-368	78
69	-329	63
317	-196	-1
475	-50	-70
506	31	-147
416	32	-189
239	-2	-182
22	8	-134
-183	106	-51
-339	267	-32
-417	406	-33
-405	438	-18
-305	340	4
-149	155	22
22	-16	24
156	-96	4
210	-68	-11
175	8	19
81	56	60
-24	32	99
-92	-47	104
-99	-117	71
-52	-112	-2
16	-21	-66
74	111	-126
101	210	-147
107	229	-46
101	170	52
99	81	42
100	21	-53
97	13	-99
81	35	-136
49	45	-184
16	9	-150
-11	-62	-57
-20	-133	69
-19	-154	128
-19	-112	168
-31	-29	186
-56	43	79
-89	68	-37
-113	33	-116
-117	-33	-202
-95	-87	-242
-51	-99	-135
5	-61	39
61	1	109
109	59	74
133	90	46
135	83	-2
114	44	-54
82	-17	-89
49	-87	-117
29	-151	-84
20	-190	-60
14	-186	-47
9	-141	-25
2	-72	-11
10	-15	19
41	8	53
96	-8	42
151	-36	-8
178	-35	-57
150	13	-56
72	87	-39
-22	129	-56
-88	83	-49
-107	-67	-23
-104	-270	-9
-132	-427	-11
-252	-451	0
-463	-305	5
-708	-48	21
-869	209	60
-850	353	71
-636	326	32
-281	158	-50
82	-59	-110
340	-225	-164
432	-274	-201
383	-208	-139
280	-76	-3
205	60	84
196	160	96
231	206	112
262	211	81
259	188	2
219	149	-64
179	98	-128
165	45	-145
180	8	-105
194	-2	-50
167	21	10
85	68	35
-30	114	47
-130	137	65
-173	125	78
-150	85	78
-85	29	41
-26	-23	5
-7	-62	-43
-26	-89	-94
-54	-101	-121
-56	-98	-149
-12	-76	-121
69	-35	-62
157	17	13
214	63	95
222	96	106
175	110	65
92	114	2
-10	119	-82
-102	116	-157
-169	97	-182
-189	33	-126
-156	-76	-34
-78	-212	24
17	-322	72
88	-358	89
100	-283	42
43	-115	-58
-53	91	-153
-148	262	-141
-183	352	-132
-142	342	-108
-35	265	-14
98	164	15
207	75	39
260	2	105
245	-65	169
182	-143	196
84	-230	123
-31	-294	5
-156	-308	-125
-271	-249	-264
-357	-136	-300
-386	-12	-180
-337	72	-51
-222	81	34
-74	21	40
65	-74	2
162	-140	-8
211	-145	-24
234	-72	-35
253	42	-35
267	144	-33
245	187	-36
150	143	21
-40	34	57
-295	-94	92
-526	-179	141
-643	-186	116
-589	-118	67
-388	-13	-6
-126	72	-114
90	91	-211
193	26	-192
184	-92	-121
124	-210	-66
86	-272	-31
103	-243	-37
158	-133	-46
202	17	-59
190	148	-55
127	214	-8
44	202	52
-6	131	57
-7	47	32
21	-8	10
37	-13	-33
10	26	-62
-46	80	-30
-96	114	38
-93	110	46
-27	81	0
69	50	-19
140	51	-28
148	94	-36
96	168	-27
24	235	-25
-14	255	-20
4	208	-18
61	98	-44
113	-38	-65
117	-165	-76
66	-239	-111
-9	-248	-96
-67	-200	-40
-85	-122	1
-57	-47	37
-19	4	59
3	26	82
2	29	126
-2	31	164
14	46	145
61	86	48
128	138	-66
183	191	-167
200	221	-263
171	213	-242
123	166	-65
87	86	132
85	-2	184
111	-84	105
130	-135	8
100	-158	-113
-10	-153	-213
-184	-138	-218
-383	-130	-129
-537	-136	-80
-594	-165	-66
-530	-202	-59
-366	-233	-89
-161	-244	-87
22	-222	-54
132	-170	-24
159	-107	8
123	-54	12
76	-30	-2
55	-36	-5
79	-55	-21
133	-60	-21
184	-34	0
200	28	32
162	103	46
75	157	49
-36	164	60
-141	121	56
-224	49	31
-269	-16	13
-281	-44	6
-271	-34	-20
-241	-2	-51
-199	21	-50
-145	17	-19
-83	-12	-16
-11	-50	-17
64	-66	-12
133	-51	-6
191	-2	3
228	61	-18
244	119	-30
241	158	-48
225	170	-54
201	165	-33
170	148	-32
132	125	-33
90	100	-21
46	75	2
8	51	18
-12	33	28
-8	19	57
20	8	14
61	1	-114
96	1	-157
107	8	-137
87	31	-124
36	66	-132
-33	110	-108
-101	141	-13
-156	148	44
-182	110	54
-181	30	16
-159	-80	-3
-123	-196	-16
-85	-292	-41
-45	-351	-39
-6	-356	-33
36	-314	-24
81	-234	-32
118	-135	-12
139	-36	26
138	49	79
115	113	83
89	154	33
84	177	1
114	188	-62
175	197	-121
237	202	-109
253	200	-29
188	177	17
46	129	38
-132	56	49
-291	-28	13
-386	-103	-35
-409	-162	-29
-394	-208	43
-401	-260	24
-439	-330	-43
-491	-410	-88
-494	-460	-158
-392	-443	-207
-182	-318	-151
77	-110	-7
285	116	26
366	279	3
306	322	-14
172	251	-42
63	137	-44
55	71	-24
160	113	5
314	250	32
419	406	63
411	495	65
283	465	47
89	331	-27
-91	150	-94
-197	-7	-119
-212	-119	-125
-161	-203	-80
-95	-296	10
-48	-411	99
-37	-516	103
-51	-556	31
-72	-492	-39
-80	-337	-66
-54	-155	-70
8	-25	-18
101	7	59
203	-36	70
280	-91	-10
306	-83	-93
253	15	-147
131	168	-156
-24	301	-81
-169	354	4
-259	311	30
-282	206	13
-256	110	9
-202	68	12
-147	85	9
-97	128	-9
-47	145	-38
7	116	-6
62	43	36
103	-31	24
113	-79	-4
86	-85	-77
44	-60	-135
12	-32	-131
16	-10	-82
54	7	-20
101	34	42
117	81	91
79	135	86
-2	178	59
-92	181	-4
-145	135	-96
-136	52	-145
-76	-38	-140
7	-111	-95
75	-153	-48
109	-165	-14
119	-162	52
124	-144	69
135	-115	36
139	-61	30
117	17	9
52	109	-3
-47	193	-37
-149	243	-65
-211	241	-85
-215	183	-82
-169	85	-28
-109	-40	29
-65	-173	103
-52	-286	118
-46	-352	40
-14	-340	-50
62	-235	-127
171	-46	-211
267	179	-238
302	365	-125
254	445	12
136	382	51
-10	187	46
-133	-78	19
-212	-326	-10
-248	-492	1
-255	-547	-21
-251	-501	-68
-236	-403	-76
-197	-291	-19
-126	-195	9
-32	-122	-36
56	-72	-64
109	-46	-75
111	-38	-60
74	-43	-46
27	-41	-6
6	-13	36
28	61	43
89	177	39
167	300	22
237	385	-4
278	392	-17
287	319	-16
263	190	-14
209	59	7
119	-31	-2
-8	-62	-9
-159	-47	-2
-314	-14	4
-434	9	7
-489	13	-24
-459	10	-40
-351	20	-38
-191	51	-36
-22	102	-19
110	147	26
175	168	62
169	155	79
105	116	74
21	66	53
-47	21	-31
-80	-11	-138
-77	-27	-198
-52	-29	-219
-24	-21	-186
4	-5	-112
42	11	22
101	26	111
175	35	123
241	38	63
263	44	-49
216	55	-119
107	66	-193
-33	60	-221
-141	19	-151
-177	-65	-15
-130	-178	61
-31	-277	13
65	-317	-11
121	-273	-4
120	-163	-5
84	-42	6
44	29	38
28	13	72
31	-71	75
32	-167	65
13	-201	84
-35	-136	121
-93	4	55
-134	155	-58
-139	236	-140
-108	203	-234
-53	67	-272
9	-102	-242
69	-229	-143
136	-267	-57
212	-222	-19
285	-137	15
328	-71	34
306	-51	40
205	-62	28
44	-59	24
-127	-4	48
-256	117	76
-307	272	71
-297	405	25
-273	457	0
-282	400	9
-342	244	22
-417	40	45
-444	-157	46
-378	-291	23
-217	-334	-16
-22	-292	-39
130	-195	-46
180	-89	-63
131	-14	-46
50	11	26
27	-5	84
118	-26	68
314	-17	7
531	43	-47
662	140	-108
626	229	-187
419	267	-202
101	229	-160
-226	135	-127
-465	34	-100
-562	-28	-62
-522	-34	-51
-392	-9	-35
-237	-3	3
-102	-55	60
-2	-163	91
65	-278	93
115	-331	117
159	-275	87
193	-119	-2
207	79	-86
188	239	-143
136	298	-168
67	252	-104
8	145	-13
-14	47	69
10	4	63
65	19	-29
111	51	-57
110	56	-56
42	4	-30
-75	-89	11
-194	-173	13
-253	-201	-18
-221	-152	-75
-103	-51	-110
44	51	-108
163	109	-97
204	99	-81
163	42	-19
78	-21	40
0	-51	39
-25	-39	57
3	2	87
60	39	87
107	52	65
116	40	31
85	21	-2
31	19	-26
-12	41	-44
-25	77	-9
-11	101	29
16	93	-5
38	51	-21
44	-5	-51
35	-47	-75
15	-49	-76
-8	-2	-74
-31	74	-60
-57	143	-78
-91	166	-108
-135	106	-123
-189	-34	-76
-249	-232	-9
-299	-424	24
-321	-543	24
-300	-541	5
-234	-408	0
-133	-192	12
-24	21	12
66	152	16
123	161	76
151	70	118
169	-51	93
190	-123	57
207	-108	25
195	-22	-74
114	68	-194
-45	106	-230
-253	69	-170
-432	-10	-106
-497	-68	-109
-409	-60	-89
-186	23	-50
79	135	-84
286	224	-113
365	254	-72
317	236	-3
198	209	53
97	206	83
64	233	128
96	241	152
148	191	116
164	62	72
125	-116	-12
56	-275	-126
9	-353	-201
24	-317	-192
107	-192	-116
226	-38	-10
323	80	115
354	133	212
300	138	195
172	127	47
-3	129	-63
-185	147	-133
-339	160	-256
-426	143	-248
-431	81	-90
-344	-7	30
-195	-94	55
-37	-147	33
65	-158	10
72	-138	-30
-10	-109	-43
-126	-89	-40
-207	-67	-40
-190	-32	-36
-65	39	-28
128	144	-16
323	262	-8
446	353	-2
467	370	-1
381	285	3
215	99	30
4	-155	42
-222	-426	5
-426	-645	-15
-572	-758	-18
-621	-732	-49
-555	-582	-59
-388	-354	-33
-162	-117	13
56	63	91
214	158	181
294	190	239
317	210	208
322	274	37
332	394	-160
337	521	-307
294	574	-412
170	487	-389
-35	253	-228
-263	-54	-79
-432	-309	-45
-470	-404	-43
-369	-316	-41
-180	-118	-42
1	51	7
101	78	63
97	-62	101
22	-282	85
-51	-443	41
-64	-416	52
-5	-182	56
97	165	38
188	474	22
231	607	0
212	523	-21
151	275	-32
76	-16	-16
14	-248	-1
-18	-370	-4
-18	-384	-17
13	-332	-16
64	-244	-21
118	-133	-53
147	-1	-69
128	140	-54
61	265	-28
-14	343	-2
-47	362	19
5	341	11
142	311	-9
306	289	-37
392	253	-48
317	158	-24
64	-26	8
-287	-283	16
-605	-531	-2
-761	-666	-18
-702	-615	-30
-473	-393	-55
-193	-106	-110
16	126	-157
98	210	-200
79	150	-164
41	27	-56
56	-48	16
139	-11	26
245	120	0
295	262	1
245	323	14
111	257	25
-40	99	59
-141	-64	127
-158	-150	192
-109	-124	154
-45	-16	32
-10	106	-76
-10	189	-218
-18	201	-312
-4	161	-238
37	101	-114
80	45	4
91	0	49
49	-42	72
-25	-83	104
-91	-119	63
-105	-141	1
-58	-153	-104
24	-166	-179
101	-192	-144
143	-238	-86
154	-279	3
154	-289	83
174	-237	76
216	-129	37
257	2	11
257	116	-9
194	174	-43
68	185	-51
-88	169	-20
-229	162	24
-319	179	45
-351	205	29
-336	213	11
-292	174	7
-242	89	9
-189	-15	0
-138	-92	-32
-92	-113	-77
-45	-78	-65
0	-13	-46
46	35	-32
104	33	-19
172	-31	-32
241	-129	-27
282	-223	-18
266	-264	12
167	-243	30
-10	-167	30
-232	-78	20
-436	-18	-45
-556	-12	-116
-546	-50	-167
-404	-98	-164
-174	-106	-74
69	-55	37
254	45	106
339	154	54
316	223	-44
224	230	-103
116	183	-139
44	122	-116
32	80	-47
71	68	17
139	67	19
198	45	-7
225	-11	-25
210	-84	-18
162	-129	9
93	-111	17
23	-23	38
-33	97	46
-69	183	21
-84	193	-20
-79	116	-53
-61	-1	-61
-43	-103	-47
-29	-142	-38
-23	-117	-27
-16	-61	-13
2	-18	18
32	-14	40
74	-44	35
108	-83	-9
110	-102	-78
62	-92	-112
-29	-64	-119
-140	-33	-113
-228	-7	-82
-252	24	-32
-203	69	-11
-97	131	-6
25	198	34
121	244	104
171	260	115
187	240	55
201	200	11
241	155	-8
301	108	-43
345	46	-48
318	-50	-15
174	-184	-49
-76	-339	-119
-375	-473	-143
-627	-548	-165
-754	-546	-127
-714	-471	-53
-540	-352	8
-297	-213	80
-67	-74	85
91	67	87
169	204	108
188	327	102
184	414	75
189	435	28
204	391	-55
224	295	-133
229	186	-168
214	103	-176
175	70	-143
117	81	-99
41	102	-80
-42	98	-63
-123	39	-51
-181	-71	-28
-194	-215	3
-158	-345	19
-85	-420	43
-5	-409	30
48	-304	-7
51	-134	-30
12	45	-59
-50	177	-81
-102	215	-65
-117	150	-28
-97	16	13
-54	-126	46
-7	-216	63
32	-218	61
64	-137	37
94	-16	15
124	97	-6
148	164	-34
159	180	-45
154	166	-61
137	151	-60
127	153	-47
136	169	-11
160	182	27
175	171	42
151	140	51
64	95	-14
-76	53	-66
-232	22	-89
-347	-9	-92
-383	-63	-6
-332	-158	27
-231	-278	22
-130	-388	76
-76	-427	137
-71	-361	126
-91	-188	52
-90	37	-50
-46	231	-152
34	323	-238
117	281	-295
167	148	-243
171	-12	-161
148	-123	-79
127	-152	-44
130	-114	-21
153	-57	26
164	-23	59
135	-19	93
60	-17	131
-38	19	152
-119	102	100
-148	205	74
-119	279	69
-56	283	23
3	214	-46
28	108	-84
18	20	-88
-14	-16	-144
-42	-11	-197
-50	1	-116
-35	-28	-1
-1	-106	-10
44	-206	-44
93	-281	-30
133	-292	-36
160	-240	-74
159	-147	-98
130	-52	-96
81	23	-71
32	83	-72
1	135	-62
-11	178	-30
-19	187	3
-50	138	24
-122	25	29
-225	-111	52
-325	-210	84
-386	-214	126
-371	-114	155
-291	37	141
-176	158	56
-66	179	-25
5	90	-93
39	-59	-168
57	-188	-176
91	-237	-112
163	-196	-25
273	-112	40
394	-38	86
481	-8	82
486	-13	34
383	-21	-35
166	-1	-105
-118	47	-164
-390	106	-170
-565	142	-112
-589	150	-42
-456	136	-24
-226	120	-62
15	105	-56
188	77	-66
260	22	-60
245	-59	-31
198	-131	-42
155	-152	10
126	-92	43
83	33	70
-1	158	119
-136	211	113
-280	155	68
-375	13	8
-369	-141	-48
-253	-223	-100
-69	-186	-92
122	-54	-65
267	98	-33
337	192	-23
334	185	-32
277	93	1
188	-28	38
77	-117	60
-42	-149	49
-152	-131	-2
-218	-99	-68
-224	-76	-98
-159	-66	-124
-54	-55	-113
50	-24	-37
124	30	14
154	93	48
159	137	21
164	150	-58
184	129	-139
213	89	-181
225	47	-117
198	7	-21
129	-32	21
36	-71	21
-60	-102	40
-149	-104	38
-230	-64	28
-298	20	5
-339	129	-43
-321	233	-47
-227	290	-32
-60	283	-4
119	202	21
237	56	6
229	-124	-24
91	-307	-23
-105	-441	2
-262	-489	45
-297	-426	108
-204	-264	124
-42	-59	76
97	122	-37
147	215	-170
104	199	-239
25	99	-238
-23	-19	-170
-18	-94	-51
11	-105	28
9	-79	32
-62	-69	20
-184	-113	-13
-289	-202	-48
-304	-281	-68
-201	-277	-84
-15	-159	-55
184	48	-28
334	254	-4
415	366	24
439	339	31
436	198	61
396	29	79
287	-78	91
79	-77	117
-210	7	124
-503	103	87
-684	145	30
-665	114	-16
-448	45	-97
-129	0	-178
147	26	-215
277	114	-198
245	221	-95
132	278	-9
36	256	-13
30	163	-23
102	38	-19
175	-68	-13
184	-138	-13
103	-171	-13
-14	-187	-4
-91	-199	-3
-69	-208	-6
38	-206	-14
160	-182	-41
219	-141	-82
175	-90	-79
60	-37	-28
-63	17	35
-130	76	44
-120	134	26
-58	180	20
3	189	-4
30	154	4
20	84	21
-6	15	-1
-13	-16	-48
2	7	-126
26	72	-173
34	136	-131
15	162	-48
-24	134	2
-57	76	-43
-57	24	-39
-22	7	31
39	15	90
106	12	137
159	-44	95
192	-167	70
202	-329	26
179	-460	-85
116	-515	-176
7	-453	-224
-140	-308	-209
-288	-131	-142
-392	16	-42
-415	104	83
-350	137	155
-222	135	95
-84	129	27
13	126	-59
41	121	-163
10	109	-179
-60	86	-79
-133	71	44
-187	71	43
-211	89	12
-201	103	-9
-159	88	-59
-86	28	-87
12	-71	-38
109	-181	76
180	-257	150
204	-268	142
183	-209	53
137	-101	-51
103	19	-100
103	114	-131
136	168	-125
175	178	-95
182	159	-69
130	122	-67
28	77	-54
-86	26	-17
-168	-29	46
-185	-78	125
-134	-108	137
-51	-107	99
28	-70	25
76	-8	-44
86	64	-127
74	127	-181
63	168	-129
66	178	-47
82	158	0
100	110	24
107	45	61
107	-24	93
111	-84	76
136	-111	26
184	-95	-28
237	-38	-105
260	35	-157
216	96	-138
90	113	-81
-101	77	-42
-302	4	-35
-445	-78	-34
-472	-131	-18
-366	-138	-4
-166	-95	-16
46	-14	-10
187	80	5
203	168	6
101	223	3
-60	230	19
-201	170	36
-259	48	61
-217	-114	89
-112	-273	49
-2	-371	-9
64	-370	-50
77	-264	-90
64	-102	-107
75	66	-96
142	183	-60
262	229	-32
383	215	-28
446	178	-25
401	145	-20
244	120	-18
11	88	-30
-237	26	-61
-442	-72	-80
-565	-184	-68
-605	-275	-67
-577	-319	-71
-496	-301	-64
-370	-233	-66
-200	-138	-77
0	-41	-74
198	41	-51
341	92	-27
381	93	19
302	32	53
143	-74	70
-32	-194	108
-153	-273	160
-180	-263	173
-115	-156	152
-6	7	138
89	145	53
127	193	-103
111	130	-218
65	-1	-265
25	-110	-257
16	-124	-202
39	-22	-136
81	145	-99
124	294	-61
162	350	31
189	299	110
200	183	133
184	76	114
136	26	39
51	35	-82
-57	68	-161
-160	75	-187
-222	34	-176
-225	-33	-99
-173	-92	-19
-93	-103	39
-14	-64	65
39	-6	82
56	45	85
48	64	62
30	59	37
9	45	-1
-3	40	-30
-8	40	-43
-8	32	-25
0	7	15
12	-37	35
25	-80	18
28	-100	5
16	-89	14
-8	-59	3
-37	-35	-10
-56	-26	-16
-51	-33	-14
-18	-30	-20
36	8	-31
101	91	0
167	202	52
226	305	109
275	368	77
302	368	-19
301	313	-109
262	214	-193
192	89	-236
99	-60	-224
1	-230	-140
-96	-403	-94
-195	-550	-101
-312	-627	-86
-443	-602	-66
-572	-474	-27
-654	-282	28
-647	-97	83
-532	29	97
-318	67	76
-66	40	59
153	-6	21
284	-19	-22
314	17	-43
265	80	-54
175	121	-51
86	103	-50
14	29	-50
-25	-62	3
-22	-107	117
29	-63	190
117	56	160
210	198	52
254	284	-72
206	273	-182
68	174	-257
-116	63	-282
-262	13	-181
-308	54	-51
-228	155	7
-76	218	49
63	158	49
123	-50	32
94	-340	-4
19	-580	-45
-36	-651	-58
-28	-510	-71
27	-222	-76
85	82	-72
100	268	-24
69	284	11
30	174	8
27	45	14
81	2	37
159	70	51
209	207	30
186	321	18
94	341	4
-17	259	-8
-83	125	4
-72	10	-8
-4	-47	-13
61	-46	-1
63	-32	-20
-16	-36	-14
-148	-65	7
-264	-96	31
-321	-88	93
-297	-28	170
-212	61	203
-108	132	89
-16	147	-76
52	90	-226
106	-9	-395
149	-103	-478
172	-157	-313
172	-157	-72
138	-117	-10
83	-65	-16
26	-26	1
-10	-8	21
-25	-10	48
-23	-28	61
-19	-49	57
-8	-65	46
25	-61	10
104	-22	-12
234	43	-7
371	118	-6
453	159	-1
413	138	-13
230	48	-27
-65	-76	-10
-375	-179	-4
-588	-215	1
-632	-168	18
-509	-70	48
-300	20	87
-101	62	80
7	53	56
13	31	29
-25	48	-3
-24	131	-51
63	258	-63
215	372	-36
346	408	-16
361	339	-52
207	191	-148
-79	17	-215
-378	-136	-245
-556	-260	-161
-535	-372	-28
-330	-494	87
-43	-611	152
204	-666	123
326	-586	-4
313	-353	-141
216	-15	-209
115	312	-197
48	497	-70
16	479	46
-12	295	119
-56	58	124
-105	-93	65
-123	-103	16
-81	-7	-68
13	88	-144
116	86	-131
172	-31	-35
162	-194	32
100	-287	8
39	-236	-14
25	-55	-17
62	157	-20
110	279	-21
109	253	-26
30	115	-24
-109	-28	-25
-240	-78	-9
-298	-1	12
-255	142	11
-136	247	1
-12	236	-16
63	98	-48
69	-89	-74
35	-225	-65
10	-246	-41
25	-161	-4
74	-37	13
115	52	6
113	74	-9
60	45	-30
-13	21	-30
-58	45	-37
-40	115	-35
34	189	-13
124	215	10
178	171	34
162	71	42
85	-40	32
-11	-115	29
-80	-139	50
-95	-122	57
-55	-89	67
14	-61	77
86	-39	58
138	-8	-1
158	43	-83
140	115	-179
83	183	-268
-8	221	-279
-114	206	-181
-198	139	-53
-226	34	-11
-180	-87	26
-82	-202	22
18	-296	-51
71	-351	-99
57	-361	-147
1	-334	-140
-42	-288	-94
-21	-241	-9
63	-206	95
156	-187	160
179	-160	201
72	-100	184
-144	12	104
-390	160	26
-540	301	-44
-516	383	-117
-325	368	-158
-61	265	-116
140	121	-34
195	3	-29
96	-46	11
-74	-20	81
-198	41	107
-199	79	72
-84	47	-40
70	-58	-111
175	-192	-177
182	-296	-208
111	-306	-172
39	-210	-89
36	-42	-17
121	131	13
249	248	24
338	268	33
325	208	54
199	115	29
18	48	-4
-142	41	-63
-217	93	-71
-191	159	-58
-102	189	-49
-1	148	-2
63	43	19
78	-87	30
52	-188	24
10	-213	44
-26	-162	28
-47	-63	-25
-52	28	-63
-42	68	-99
-19	40	-94
12	-35	-86
46	-118	-54
85	-160	1
124	-139	32
175	-68	29
242	20	3
312	85	-7
346	105	-20
318	89	-21
184	65	-16
-41	65	-15
-303	89	-14
-518	108	-21
-610	80	-18
-554	-25	-29
-385	-186	-31
-174	-346	-11
-1	-426	27
92	-381	91
107	-229	155
90	-35	140
74	110	32
79	154	-61
88	103	-154
78	18	-228
32	-31	-226
-34	-9	-113
-95	64	12
-118	138	11
-89	168	-27
-15	139	-54
87	92	-90
195	64	-106
285	76	-82
337	106	-22
317	106	26
202	49	43
0	-54	70
-248	-155	110
-459	-192	136
-565	-139	123
-512	-20	28
-325	104	-77
-86	182	-181
110	197	-259
207	175	-267
207	163	-152
171	175	1
158	201	54
190	185	76
229	96	61
211	-67	42
98	-253	52
-84	-389	85
-253	-416	74
-325	-326	-17
-267	-173	-116
-109	-21	-178
52	64	-175
131	64	-139
104	4	-67
13	-69	0
-54	-108	10
-41	-96	24
52	-38	30
172	28	0
245	68	-53
236	68	-53
163	31	24
93	-13	69
70	-32	104
105	-5	89
159	64	-4
172	150	-100
118	211	-151
1	215	-159
-129	154	-104
-232	40	17
-282	-81	80
-300	-175	104
-304	-214	93
-310	-195	64
-303	-137	74
-260	-68	43
-172	-10	-26
-53	27	-52
58	39	-70
131	33	-95
158	18	-85
160	2	-72
172	-4	-99
216	5	-120
278	33	-111
311	74	-83
269	114	-35
137	131	11
-59	118	31
-258	80	39
-388	30	16
-406	-8	-16
-320	-24	-19
-172	-24	-43
-17	-35	-54
97	-83	-29
154	-166	-13
158	-258	-54
127	-308	-93
82	-275	-99
35	-155	-83
-6	14	-35
-32	162	20
-38	231	58
-16	199	46
29	103	31
82	2	10
123	-46	-5
139	-28	12
133	23	36
129	57	24
155	37	-28
229	-24	-53
339	-83	-78
429	-84	-52
430	-7	-4
280	116	26
-20	228	24
-406	265	-10
-757	213	-34
-944	103	-59
-887	-14	-43
-605	-86	-11
-217	-104	28
128	-91	51
311	-87	30
292	-111	-32
136	-157	-96
-53	-190	-131
-169	-186	-156
-174	-134	-64
-99	-55	86
-10	19	137
40	68	52
42	93	-60
30	112	-134
46	148	-181
111	200	-151
201	248	-56
275	259	55
302	210	49
272	98	6
207	-50	1
136	-196	-7
72	-304	11
14	-348	20
-49	-333	46
-115	-268	62
-160	-175	42
-151	-72	-20
-68	24	-83
64	99	-138
197	142	-203
254	143	-237
192	103	-235
16	29	-116
-210	-57	-22
-402	-126	7
-484	-158	47
-431	-134	67
-271	-68	91
-75	19	103
84	92	127
158	124	132
150	112	126
91	70	87
34	35	-9
12	39	-94
36	101	-182
91	202	-243
149	301	-198
186	353	-82
193	318	16
170	195	80
128	13	135
78	-171	147
23	-313	71
-27	-386	-36
-70	-389	-126
-100	-343	-196
-120	-274	-210
-128	-202	-133
-133	-127	-17
-133	-51	12
-124	26	-23
-96	99	-18
-47	153	1
15	179	6
77	174	-4
116	150	-11
121	122	-18
92	104	-18
40	102	-10
-12	105	15
-50	105	68
-59	88	111
-33	51	116
42	-2	79
161	-63	11
300	-113	-58
411	-137	-109
428	-122	-132
299	-67	-127
23	16	-81
-321	103	-8
-619	161	9
-756	166	-4
-667	109	8
-400	11	-3
-83	-100	-36
147	-192	-40
205	-254	-19
111	-286	9
-32	-296	17
-111	-288	-19
-52	-250	-74
120	-158	-114
314	-6	-99
421	187	-54
385	369	-22
226	477	-2
15	475	-5
-159	365	0
-252	189	-13
-258	12	-70
-221	-124	-117
-169	-211	-125
-130	-269	-86
-96	-330	-20
-50	-398	29
6	-451	76
67	-443	152
111	-348	199
126	-176	164
113	32	65
86	213	-46
59	325	-134
36	353	-203
15	317	-201
-16	251	-97
-54	180	48
-94	117	111
-114	56	101
-108	-5	37
-77	-66	-72
-29	-117	-177
20	-139	-262
63	-125	-268
107	-65	-161
159	30	-26
222	150	24
285	265	44
325	335	51
306	331	24
216	233	8
62	64	-23
-116	-120	-36
-257	-253	-19
-299	-283	3
-209	-209	16
-6	-75	17
242	39	11
432	68	3
461	-3	3
270	-140	-3
-99	-269	24
-532	-321	40
-869	-263	21
-985	-122	6
-837	53	14
-496	205	11
-105	301	-6
184	334	-10
287	319	-9
229	275	-25
105	210	-66
23	126	-56
35	17	-42
121	-109	-41
209	-242	-34
234	-355	-40
184	-424	-66
112	-429	-113
90	-362	-121
155	-236	-94
288	-71	-35
420	93	31
468	218	57
388	280	40
194	272	9
-50	213	-8
-272	136	-13
-420	68	2
-477	19	61
-455	-19	176
-380	-59	248
-273	-112	202
-159	-165	32
-54	-191	-206
28	-164	-382
79	-78	-435
103	41	-345
111	158	-141
121	222	32
137	215	58
158	149	7
165	62	-30
150	-1	-27
109	-13	27
54	24	63
0	81	33
-44	119	2
-74	110	-15
-89	51	-58
-84	-39	-105
-51	-133	-105
16	-202	-79
111	-234	-41
211	-227	52
278	-188	158
279	-126	192
206	-47	134
82	38	45
-53	116	-48
-162	164	-134
-222	165	-151
-234	115	-107
-221	35	-44
-201	-46	6
-185	-98	32
-162	-104	45
-114	-75	49
-33	-28	36
74	13	12
182	46	-14
254	81	-38
257	131	-75
170	199	-92
5	256	-68
-199	264	-89
-389	190	-106
-505	29	-99
-511	-181	-67
-407	-379	-42
-227	-498	-26
-37	-507	-2
99	-411	-4
148	-260	6
111	-109	0
27	4	-1
-54	67	18
-87	103	22
-53	137	13
33	187	8
139	243	12
229	275	12
269	256	52
255	174	100
198	62	66
127	-42	34
72	-94	3
52	-80	-61
67	-22	-138
97	30	-155
111	28	-124
94	-35	-155
41	-130	-186
-25	-194	-144
-74	-174	-30
-80	-55	26
-40	119	12
31	278	6
107	356	-21
164	325	-42
195	215	6
199	80	84
183	-27	86
143	-89	24
80	-126	-54
-16	-170	-113
-133	-242	-129
-252	-322	-143
-333	-376	-72
-357	-357	49
-318	-261	104
-235	-115	129
-145	33	93
-78	142	32
-45	203	-41
-36	229	-129
-29	244	-147
-6	254	-112
39	247	-40
97	198	5
144	96	3
170	-36	-16
164	-151	-19
132	-199	-4
86	-162	9
39	-63	24
2	41	10
-23	100	-4
-31	93	-6
-30	40	-20
-25	-8	-51
-24	-17	-77
-32	19	-52
-45	68	-3
-55	83	33
-43	35	79
2	-59	124
75	-162	130
149	-219	76
183	-217	-23
140	-176	-112
10	-138	-211
-182	-139	-278
-373	-177	-239
-487	-208	-103
-478	-181	8
-335	-66	13
-103	115	-11
148	301	-29
346	420	-42
461	429	-34
476	331	-25
418	177	-2
306	24	3
154	-83	-5
-22	-134	19
-195	-142	31
-328	-126	20
-375	-94	37
-321	-43	62
-195	23	35
-56	92	-2
29	138	-22
26	143	-33
-41	100	-54
-102	23	-70
-87	-58	-35
28	-124	13
198	-167	43
336	-200	70
357	-233	41
232	-263	-35
7	-272	-84
-221	-233	-112
-354	-138	-124
-351	-5	-124
-232	125	-106
-63	211	-63
85	236	-36
175	207	-11
202	168	31
192	150	70
175	170	98
162	213	48
143	243	-24
110	228	-81
52	152	-149
-21	34	-214
-99	-98	-187
-165	-203	-87
-207	-263	-23
-222	-271	39
-203	-238	93
-156	-187	116
-82	-131	108
7	-86	97
91	-47	84
157	-12	45
194	29	-11
206	81	-86
200	139	-150
182	193	-172
145	224	-133
85	215	-66
-7	162	-14
-116	79	45
-212	-9	85
-259	-71	91
-232	-87	85
-136	-58	76
-5	-13	67
111	7	22
170	-25	-58
159	-115	-132
99	-227	-170
33	-305	-164
-2	-309	-89
6	-227	-5
41	-101	-14
69	6	-76
55	34	-114
-17	-26	-134
-134	-131	-138
-259	-215	-111
-353	-211	-74
-378	-111	-15
-324	41	21
-202	179	71
-40	243	145
122	228	162
260	174	164
355	141	133
407	168	103
417	244	69
389	332	18
324	372	-19
214	335	-71
64	233	-117
-120	100	-165
-312	-23	-176
-480	-111	-127
-589	-167	-47
-616	-199	-15
-552	-216	-82
-407	-222	-126
-212	-210	-135
-8	-185	-112
166	-156	-44
280	-135	-6
314	-131	1
277	-135	-2
188	-126	-10
82	-90	-23
-3	-23	-20
-39	54	-7
-19	123	-3
46	158	-17
132	161	0
211	145	33
253	134	32
245	144	18
189	171	-25
99	202	-47
1	210	-46
-81	178	-10
-129	98	95
-139	-19	225
-121	-145	314
-93	-253	273
-72	-315	95
-70	-325	-113
-81	-296	-306
-92	-254	-468
-88	-225	-439
-60	-216	-237
-11	-218	-51
52	-200	61
113	-136	106
161	-27	101
186	100	87
191	204	47
175	250	-6
142	236	-24
88	193	-41
14	160	-85
-75	166	-107
-166	197	-72
-239	207	-72
-272	150	-28
-252	11	5
-178	-171	-6
-74	-322	19
26	-362	1
89	-269	-4
98	-76	9
58	132	17
1	270	0
-43	298	-11
-48	227	9
-10	123	19
48	47	7
98	23	-5
115	25	21
94	7	68
50	-57	124
14	-157	137
11	-233	101
51	-231	-21
124	-127	-174
206	40	-255
256	195	-262
251	265	-213
175	222	-116
36	103	-13
-135	-24	0
-300	-94	-21
-418	-90	-49
-456	-44	-86
-416	-12	-102
-315	-34	-103
-193	-104	-63
-87	-178	0
-21	-201	61
8	-153	113
18	-51	159
42	57	127
101	123	26
196	134	-66
308	116	-133
409	112	-171
470	150	-175
473	215	-95
411	272	8
290	261	16
122	162	-2
-79	-16	10
-289	-213	25
-481	-368	53
-621	-436	78
-676	-403	96
-634	-294	91
-509	-150	43
-338	-7	21
-170	103	-17
-37	162	-83
50	163	-140
111	110	-183
175	16	-138
260	-84	-59
353	-152	-23
422	-157	-17
422	-95	-12
330	3	-1
158	90	15
-45	119	22
-214	78	25
-296	-18	49
-270	-112	46
-166	-160	27
-25	-136	6
97	-51	-25
175	56	-67
203	149	-84
197	199	-52
175	205	-1
157	185	35
143	161	19
136	150	-39
143	151	-109
163	155	-135
198	131	-130
232	58	-85
234	-77	12
172	-259	97
31	-435	104
-174	-540	26
-390	-510	-68
-546	-336	-168
-581	-64	-233
-481	205	-194
-285	379	-53
-76	406	61
65	312	82
91	177	76
24	85	79
-72	70	108
-116	96	99
-60	89	26
80	2	-31
234	-153	-76
318	-292	-154
283	-332	-185
139	-228	-91
-43	-22	7
-182	180	65
-208	279	123
-126	237	132
13	100	98
132	-44	27
171	-123	-62
117	-118	-112
-4	-75	-118
-137	-48	-86
-236	-70	-43
-276	-116	-69
-261	-139	-92
-209	-108	-94
-138	-29	-75
-60	45	-56
18	74	-77
89	45	-68
144	-7	-89
175	-32	-67
180	0	-21
169	77	17
154	152	57
144	180	53
140	152	28
140	98	-20
136	67	-13
127	80	3
115	123	6
105	148	22
93	114	31
72	19	27
35	-87	17
-20	-141	21
-78	-108	-5
-120	-1	-26
-131	112	-32
-113	155	24
-80	84	80
-57	-84	93
-63	-279	59
-95	-421	-37
-137	-456	-113
-170	-387	-209
-178	-258	-276
-164	-138	-267
-134	-70	-147
-93	-62	-21
-35	-87	0
46	-101	7
154	-78	21
263	-17	35
340	59	17
340	128	-15
245	171	-20
80	189	26
-109	193	70
-255	192	87
-313	186	74
-274	159	70
-180	106	50
-77	28	-27
-12	-51	-90
1	-100	-108
-23	-100	-126
-52	-46	-154
-56	30	-141
-25	98	-112
41	129	-72
123	122	-33
211	97	-3
288	77	36
346	80	79
368	103	87
332	126	77
224	132	41
44	110	-40
-180	66	-102
-402	9	-102
-565	-49	-65
-624	-111	-34
-556	-174	-16
-388	-232	9
-172	-263	32
24	-246	28
144	-169	13
169	-48	4
111	72	-12
22	145	-41
-46	139	-37
-53	67	-23
1	-23	-11
90	-79	12
169	-61	24
196	11	8
167	93	-38
100	129	-64
31	98	-105
-6	27	-150
6	-35	-119
56	-38	-23
127	19	75
193	97	130
236	132	152
245	86	194
213	-29	150
149	-161	-7
57	-238	-120
-40	-229	-208
-118	-157	-265
-151	-82	-217
-128	-66	-99
-68	-126	-23
-5	-224	-39
19	-285	-77
-15	-254	-110
-100	-126	-97
-193	51	-37
-250	197	-13
-240	253	-18
-164	206	-9
-59	102	19
30	3	51
75	-39	78
68	-11	96
36	59	97
10	130	78
11	161	29
39	145	-25
77	92	-54
96	22	-91
85	-42	-134
46	-92	-141
3	-117	-150
-21	-116	-131
-15	-87	-23
18	-31	118
49	35	236
48	96	235
-4	127	124
-106	121	-7
-228	83	-172
-319	33	-333
-343	-8	-371
-279	-27	-252
-154	-27	-104
-17	-22	-10
85	-24	37
124	-38	41
118	-52	59
104	-48	90
115	-19	128
166	34	129
226	89	68
245	127	45
199	132	0
91	108	-38
-31	68	-46
-105	32	-62
-92	9	-57
5	-6	-43
138	-17	-16
245	-29	18
280	-35	65
237	-24	87
139	10	74
27	63	45
-71	120	3
-148	160	-85
-202	162	-170
-244	125	-230
-262	49	-273
-257	-58	-235
-217	-190	-102
-154	-331	34
-90	-452	70
-47	-516	69
-40	-490	69
-55	-368	50
-76	-184	57
-70	0	26
-30	112	-7
41	120	-10
119	38	-32
175	-72	-50
190	-143	-65
165	-129	-60
117	-35	-69
75	91	-82
58	193	-31
78	239	11
120	236	32
156	214	55
155	204	58
93	215	11
-27	224	-60
-180	195	-81
-321	105	-110
-410	-36	-131
-412	-188	-106
-330	-297	-47
-191	-315	-2
-42	-232	16
75	-75	47
131	97	75
132	215	56
97	248	15
52	181	-21
25	57	-74
22	-63	-111
36	-129	-117
53	-120	-71
63	-52	-18
63	28	-12
60	77	-9
62	83	7
75	53	41
92	26	80
106	24	110
114	54	110
115	93	59
115	114	-17
118	108	-93
123	88	-143
117	80	-174
85	100	-143
18	147	-40
-80	188	15
-184	189	-4
-264	128	-36
-298	13	-35
-262	-120	7
-170	-235	44
-34	-305	90
117	-322	121
256	-305	86
351	-261	10
382	-203	-100
328	-130	-208
190	-51	-237
-5	20	-187
-201	66	-103
-330	71	15
-340	40	94
-214	-12	119
4	-59	106
225	-94	16
345	-110	-156
291	-113	-268
64	-105	-214
-268	-74	-138
-588	-11	-106
-777	81	-47
-762	171	-10
-542	213	14
-194	162	53
162	10	70
411	-192	95
484	-371	96
374	-438	89
154	-370	69
-95	-196	38
-273	8	2
-328	161	-47
-261	223	-61
-120	208	-33
30	174	12
138	171	40
186	218	46
188	287	22
170	333	-5
157	319	-24
148	235	-30
131	110	-66
93	-13	-68
37	-106	-30
-17	-155	-13
-44	-168	-6
-23	-154	-14
34	-124	-16
105	-77	-35
158	-15	-38
175	47	-37
163	97	-46
139	114	-77
119	97	-138
104	51	-163
82	-3	-125
36	-53	-24
-35	-92	24
-116	-113	-18
-184	-125	-43
-221	-121	-43
-217	-109	-24
-191	-92	-4
-157	-81	-7
-123	-92	-33
-91	-121	-60
-47	-158	-42
7	-171	-11
62	-137	14
101	-49	22
105	71	34
79	183	46
38	248	33
12	249	39
16	201	38
44	138	18
75	95	-11
84	80	-23
57	77	-18
3	62	-27
-51	22	-7
-84	-39	33
-76	-94	48
-28	-106	8
44	-53	-56
131	58	-121
212	207	-154
275	345	-140
306	432	-118
292	430	-97
226	324	-72
104	122	-51
-54	-129	-46
-227	-362	-15
-378	-506	0
-474	-519	-1
-497	-411	-2
-447	-244	-7
-338	-111	-2
-202	-78	0
-67	-152	26
42	-272	31
122	-344	26
175	-297	23
210	-128	15
228	90	6
211	244	-4
142	262	-19
20	127	-42
-126	-87	-53
-245	-277	-86
-271	-353	-68
-191	-296	4
-45	-157	37
86	-8	49
121	80	44
32	97	36
-136	72	56
-280	62	3
-305	95	-71
-181	165	-95
33	243	-168
228	289	-205
306	291	-154
245	262	-67
95	227	-1
-44	198	22
-94	175	24
-47	142	-1
44	77	9
106	-17	46
95	-118	28
28	-188	-17
-38	-198	-43
-48	-148	-54
11	-53	-51
107	41	-43
182	110	5
201	137	71
165	130	62
106	106	18
64	83	-12
52	62	-38
57	37	-63
48	2	-95
15	-46	-90
-31	-97	-81
-55	-131	-87
-31	-136	-80
44	-101	-51
148	-40	-3
232	30	7
262	86	-10
230	113	-9
147	110	7
41	83	52
-59	41	103
-142	-2	137
-208	-43	151
-258	-74	110
-299	-85	-2
-331	-66	-100
-347	-27	-200
-339	23	-301
-291	57	-268
-195	57	-192
-55	16	-144
111	-49	-103
263	-112	-35
346	-148	-1
326	-148	8
187	-135	46
-32	-140	57
-269	-177	65
-439	-241	49
-489	-297	45
-412	-315	38
-248	-279	13
-61	-207	1
89	-127	-13
170	-74	-22
184	-45	-4
155	-17	31
109	40	60
65	139	90
33	253	68
18	333	-2
32	337	-60
85	260	-124
172	145	-183
278	57	-135
359	51	12
380	131	125
321	250	158
206	327	189
87	301	183
10	166	70
-3	-44	-75
13	-242	-193
0	-356	-275
-101	-352	-317
-291	-250	-277
-509	-116	-141
-663	-12	-31
-663	22	26
-488	-1	51
-197	-46	22
104	-64	-27
312	-34	-63
386	32	-66
346	99	-66
263	124	-53
195	95	-31
165	17	1
147	-70	17
106	-131	19
24	-142	19
-78	-106	11
-158	-41	6
-178	31	-19
-136	92	-20
-68	138	9
-20	170	21
-18	182	19
-52	174	17
-87	145	2
-78	97	-12
-12	40	-15
85	-5	-13
169	-30	-1
198	-29	11
167	-8	26
102	19	71
49	44	96
40	64	45
81	86	-22
141	109	-118
183	128	-221
171	131	-229
96	99	-142
-27	26	-14
-167	-86	68
-291	-213	93
-377	-328	56
-409	-403	-42
-385	-421	-116
-314	-386	-151
-209	-309	-168
-92	-218	-117
12	-130	3
86	-58	118
124	-7	130
134	35	101
133	79	53
140	134	-15
157	202	-71
178	270	-129
189	320	-127
180	324	-79
157	275	-60
139	179	-52
154	63	-3
199	-44	53
261	-116	8
288	-147	-57
234	-156	-86
67	-160	-124
-187	-182	-96
-468	-215	-26
-682	-244	39
-754	-239	115
-659	-190	167
-437	-100	162
-170	7	84
63	103	-15
219	170	-99
302	202	-162
346	210	-177
381	210	-122
399	208	-38
360	203	20
232	192	53
10	170	55
-249	137	19
-458	99	-25
-530	55	-57
-435	2	-91
-218	-65	-109
27	-155	-109
210	-253	-83
289	-341	-30
283	-389	4
245	-376	-1
212	-303	-3
188	-190	-4
136	-78	-3
26	1	3
-142	30	9
-320	20	34
-429	-1	74
-418	-3	126
-280	34	122
-74	105	42
119	188	-36
238	259	-114
268	299	-202
242	299	-236
201	266	-155
175	213	-51
167	150	-23
151	85	-33
103	24	-9
25	-29	22
-57	-70	43
-114	-102	43
-121	-123	22
-80	-141	9
-5	-150	16
69	-137	40
125	-90	39
150	6	12
140	140	-36
107	283	-89
60	383	-96
15	391	-86
-17	279	-65
-33	72	2
-47	-175	87
-72	-389	138
-124	-502	138
-195	-498	66
-256	-399	-61
-268	-260	-228
-205	-138	-347
-72	-62	-323
81	-25	-172
191	4	-27
212	49	22
143	128	31
29	221	17
-65	294	47
-94	323	75
-46	300	76
29	236	69
79	141	57
65	27	103
-2	-108	91
-79	-257	-24
-116	-393	-138
-89	-481	-176
-23	-478	-171
35	-374	-111
32	-195	14
-43	-4	97
-167	129	60
-281	169	-18
-331	126	-51
-285	53	-106
-157	13	-107
7	34	-83
159	104	-79
260	171	-34
300	196	37
291	160	130
255	90	147
205	34	93
140	29	12
49	69	-65
-77	117	-168
-224	129	-223
-354	83	-135
-419	-4	-23
-385	-86	21
-248	-124	34
-53	-111	47
123	-76	34
225	-57	12
222	-82	-16
148	-134	-40
57	-173	-60
14	-150	-74
40	-52	-46
118	84	-10
201	203	-16
244	244	-38
236	199	-30
187	85	2
129	-35	30
79	-111	29
32	-118	19
-20	-68	-15
-89	-3	-38
-160	41	-33
-208	43	-26
-202	9	-10
-140	-46	-10
-38	-98	-17
65	-127	-30
137	-131	-34
156	-106	-42
125	-64	-59
62	-9	-57
-13	49	-35
-84	102	6
-137	148	44
-158	183	71
-136	212	68
-76	233	56
6	240	30
80	225	-27
116	182	-75
101	110	-65
49	18	-56
-12	-81	-88
-59	-177	-98
-84	-261	-101
-95	-322	-123
-111	-355	-111
-134	-341	-15
-152	-281	30
-138	-181	-35
-77	-68	-85
22	24	-106
123	76	-72
188	80	-28
197	62	-18
160	56	-13
111	85	-11
84	149	0
84	215	9
101	248	49
105	224	100
84	139	95
42	20	68
0	-99	14
-32	-193	-64
-58	-248	-106
-104	-260	-122
-180	-238	-96
-277	-189	-56
-352	-124	-62
-350	-57	-69
-247	-11	-36
-68	4	3
117	-5	42
229	-21	76
221	-11	77
111	40	93
-24	135	83
-109	244	19
-94	339	-70
8	388	-116
136	382	-112
216	327	-107
203	222	-62
104	70	-12
-36	-124	20
-162	-340	28
-236	-519	-12
-253	-600	-51
-229	-533	-57
-182	-332	-23
-119	-64	49
-30	166	140
101	272	161
274	236	13
461	106	-158
602	-24	-284
626	-85	-341
484	-52	-236
175	32	-37
-224	104	94
-595	119	54
-814	81	-13
-804	28	-6
-575	-2	4
-230	1	27
92	13	26
269	1	-10
263	-45	-31
133	-104	-57
-20	-127	-54
-101	-89	-67
-75	0	-64
24	94	-9
123	139	62
166	117	112
147	49	96
104	-10	74
87	-21	36
118	22	-34
172	78	-69
208	94	-68
186	42	-71
111	-56	-56
25	-149	3
-28	-178	60
-30	-121	55
-2	-1	26
17	120	-4
-5	194	-33
-65	198	-90
-127	158	-136
-145	108	-135
-97	89	-104
0	101	-82
105	117	-61
172	99	4
178	23	46
124	-101	72
35	-232	34
-66	-312	-44
-167	-311	-86
-252	-230	-90
-304	-114	-58
-303	-22	-26
-229	-2	16
-91	-59	65
79	-149	107
221	-201	77
279	-157	36
234	-7	29
101	198	-21
-60	372	-88
-193	438	-114
-248	370	-90
-217	190	-129
-116	-21	-194
17	-183	-179
148	-263	-80
248	-272	32
296	-251	31
274	-233	55
183	-217	97
40	-173	87
-112	-65	61
-222	99	14
-253	272	5
-208	379	-31
-125	368	-95
-67	250	-127
-79	88	-151
-161	-30	-132
-266	-55	-64
-325	-7	-9
-289	41	24
-163	5	18
2	-148	-20
133	-371	-43
181	-559	-53
145	-618	-33
75	-504	5
35	-263	43
55	4	60
131	198	75
215	268	90
258	241	58
241	182	3
175	153	-69
104	171	-104
58	208	-64
48	221	-19
55	175	24
52	92	14
27	6	-63
-17	-36	-116
-58	-22	-115
-77	26	-64
-65	72	26
-34	85	84
0	68	93
27	41	70
46	39	36
68	68	14
97	112	-78
125	139	-144
139	127	-120
121	74	-147
59	0	-194
-37	-61	-160
-154	-91	-44
-257	-92	16
-321	-80	-13
-333	-78	-20
-289	-86	-12
-203	-97	12
-90	-93	28
24	-64	40
119	-19	63
179	31	60
202	66	40
193	81	21
170	80	-13
141	69	-52
117	57	-52
89	32	-47
44	-8	-51
-26	-70	-33
-110	-137	-7
-175	-182	31
-182	-179	26
-98	-119	-4
74	-19	-40
284	93	-30
452	181	24
486	224	37
344	211	22
48	158	-18
-311	76	-20
-616	-40	-56
-773	-185	-156
-753	-354	-170
-598	-519	-97
-392	-640	-75
-223	-671	-100
-112	-578	-72
-47	-384	-28
15	-133	-15
103	97	-20
204	251	-12
280	307	5
292	290	26
239	250	51
159	228	84
107	243	87
121	274	82
186	284	53
253	247	-18
262	166	-80
189	71	-128
49	1	-164
-94	-13	-140
-193	26	-30
-223	96	112
-201	158	194
-163	186	164
-130	169	46
-107	110	-87
-63	30	-250
10	-56	-338
107	-129	-244
194	-174	-99
234	-177	-9
206	-143	11
133	-92	39
56	-49	68
10	-49	42
8	-92	-5
