File Name: not saved
Channel 2: 'Channel 2', 31630 values, raw ADC, no filters.
Channel 3: 'Channel 3', 31630 values, raw ADC, no filters.
Channel 4: 'Channel 4', 31630 values, raw ADC, no filters.

55	32	-23
39	19	-44
48	33	-34
85	64	-18
131	97	-16
166	103	-19
171	75	4
147	24	34
107	-25	33
68	-52	5
37	-53	0
10	-35	-10
-24	-17	-113
-69	-4	-230
-115	5	-129
-145	15	12
-145	30	19
-114	45	59
-62	53	40
-13	43	26
21	24	39
37	2	1
42	-11	-39
46	-11	-58
49	-10	-65
51	-15	-51
44	-33	-1
26	-58	12
-1	-76	-23
-30	-74	-43
-52	-50	-13
-63	-16	-70
-65	16	-149
-65	36	-136
-60	46	-36
-51	53	23
-34	61	-25
-6	68	-48
28	59	-70
64	24	-12
97	-37	-12
121	-110	-46
133	-164	29
128	-176	30
91	-141	15
15	-83	2
-97	-29	-5
-222	-15	-34
-320	-45	-91
-350	-97	-62
-287	-137	-50
-150	-134	-77
18	-87	-106
158	-11	-49
226	59	19
209	100	-8
132	110	10
37	103	5
-36	106	0
-71	126	32
-81	163	16
-80	183	6
-89	164	-19
-108	86	-31
-123	-37	-22
-117	-169	-20
-80	-270	-3
-16	-301	14
64	-249	18
141	-131	7
203	15	-6
234	141	-14
223	213	3
166	213	4
67	160	6
-54	81	45
-174	17	57
-259	-11	23
-290	-9	-38
-262	0	-109
-194	-16	-153
-111	-64	-161
-39	-139	-139
14	-204	-77
56	-224	-35
99	-181	-8
151	-83	17
203	38	13
239	147	-1
236	215	-14
184	240	7
93	231	-1
-15	202	6
-106	161	6
-158	102	3
-154	21	19
-105	-77	-4
-27	-169	-19
57	-222	-14
130	-213	-18
181	-144	-42
200	-48	-35
184	30	-9
131	54	10
42	23	7
-70	-29	-24
-182	-55	-83
-267	-22	-63
-299	59	-17
-267	147	-6
-186	179	44
-80	122	12
13	-2	18
70	-136	36
86	-209	-9
75	-184	-88
52	-80	-145
40	43	-97
39	118	-124
40	111	-110
31	43	-49
11	-25	-62
-10	-41	-71
-18	17	-96
1	117	-7
43	193	2
95	195	-35
138	108	24
158	-31	23
151	-170	17
123	-256	-52
80	-273	-50
20	-240	-31
-54	-184	-60
-141	-127	24
-217	-69	43
-255	0	1
-231	89	24
-139	183	19
-11	247	32
111	244	27
182	157	-49
172	6	-76
98	-158	-16
-4	-275	-19
-93	-304	-77
-143	-238	-74
-153	-110	-32
-137	30	28
-113	135	31
-85	179	18
-45	169	8
14	129	-8
86	85	-5
155	57	-16
188	47	-43
172	52	-70
102	59	-67
4	64	-40
-88	61	-14
-143	47	-3
-152	25	-7
-118	-9	-7
-61	-44	-5
-7	-74	2
33	-84	6
42	-71	12
31	-48	21
0	-27	5
-37	-31	-12
-65	-62	-47
-74	-113	-84
-52	-150	-75
-12	-149	-107
38	-98	-111
78	-9	-70
94	90	-59
83	168	-41
54	203	-10
28	194	45
18	154	63
34	99	39
68	44	-2
107	-8	-12
132	-49	-25
132	-81	-50
109	-92	-76
77	-80	-77
58	-54	-52
67	-30	-44
107	-29	-24
151	-55	-12
160	-107	-9
97	-159	5
-48	-191	37
-247	-188	44
-431	-157	5
-535	-111	-67
-516	-70	-54
-392	-41	26
-222	-17	0
-78	16	-32
-11	62	-64
-20	118	-70
-57	166	-11
-62	193	-28
5	194	-35
135	177	-38
284	153	-12
392	124	21
417	90	-28
353	40	-87
229	-23	-28
78	-88	39
-68	-129	24
-191	-127	-1
-277	-84	-61
-315	-19	-37
-300	32	-22
-228	47	6
-121	23	52
-16	-11	54
58	-16	69
87	21	66
84	94	36
74	161	-112
82	179	-226
110	129	-200
139	29	-137
147	-76	-103
115	-138	-45
58	-135	-19
2	-89	-11
-27	-36	16
-20	-21	2
7	-54	-48
27	-116	-59
24	-162	-9
2	-155	-8
-19	-86	15
-18	15	19
12	104	24
54	134	9
85	100	-2
84	14	10
47	-77	-23
-6	-135	-61
-54	-139	-98
-82	-95	-41
-87	-29	13
-80	35	53
-67	84	74
-53	114	72
-28	130	86
16	137	38
78	131	-48
143	106	-135
195	56	-141
214	-11	-81
206	-77	-31
172	-124	-23
124	-138	-18
65	-121	-28
-13	-89	-32
-114	-56	-32
-231	-42	-63
-340	-41	-67
-410	-51	-61
-419	-56	-30
-356	-49	11
-240	-26	24
-91	15	4
60	67	-18
191	126	5
280	177	23
311	203	6
269	190	1
158	124	2
2	19	-39
-148	-104	-131
-228	-208	-124
-200	-263	-42
-76	-254	-65
78	-190	-24
170	-96	19
140	0	34
-10	79	60
-212	129	55
-363	156	43
-385	162	-53
-264	147	-120
-74	103	-72
93	33	10
161	-51	26
118	-123	26
16	-158	-33
-63	-138	-51
-68	-77	-53
4	-2	-97
105	42	-93
178	32	-74
195	-31	2
163	-115	20
127	-166	18
121	-150	50
155	-58	28
201	80	-13
221	209	4
190	285	-55
111	281	-34
11	210	49
-74	107	24
-119	7	28
-122	-64	-50
-95	-108	-135
-54	-129	-103
-11	-140	-56
24	-140	-165
42	-119	-165
36	-71	-23
-1	4	-8
-53	89	21
-97	164	18
-102	206	9
-58	209	20
21	171	-10
102	100	-1
135	9	-5
102	-89	20
12	-174	34
-93	-227	9
-169	-232	-18
-190	-187	-54
-163	-114	-89
-120	-38	-89
-95	8	-16
-101	23	5
-120	15	-3
-125	18	-7
-89	55	-7
-7	124	13
98	203	-21
191	244	-28
245	225	-18
250	140	-30
203	21	-26
123	-92	-3
19	-167	20
-93	-200	13
-201	-213	1
-277	-226	5
-304	-246	-30
-263	-261	-80
-170	-244	-82
-48	-181	-35
66	-81	-40
147	22	-97
186	94	-16
199	113	44
206	88	7
221	53	-8
234	38	-13
223	60	-5
171	104	-16
75	149	-38
-50	169	-39
-167	152	-31
-247	110	-46
-269	60	-35
-239	21	-27
-175	-5	6
-98	-11	-7
-29	-5	-92
18	9	-83
36	25	21
20	27	32
-21	8	-56
-74	-39	-20
-116	-105	7
-128	-163	-6
-100	-183	-2
-44	-147	-23
18	-66	-22
60	28	-27
72	96	-29
60	110	-43
44	77	-35
47	20	-26
77	-20	-19
125	-30	9
172	-13	17
206	8	-12
210	10	-50
188	-11	-47
141	-40	-55
84	-51	-90
21	-32	-76
-34	16	-38
-67	68	-55
-68	100	-18
-33	103	52
25	83	46
86	74	5
118	92	-69
98	136	-63
22	183	28
-97	197	48
-231	149	4
-350	38	-66
-426	-106	-100
-448	-243	-63
-405	-325	-53
-304	-344	-50
-168	-307	-16
-26	-247	13
87	-191	9
154	-149	-3
164	-107	11
139	-43	-1
107	48	-31
92	154	-16
102	237	-3
128	257	-11
148	209	-27
140	106	-13
109	-5	14
62	-84	17
20	-108	42
-7	-97	-8
-17	-87	-32
-21	-103	-25
-27	-153	-48
-35	-204	-62
-36	-218	-128
-23	-167	-95
10	-57	-13
59	69	-15
113	178	-13
162	235	-8
203	244	26
229	233	43
234	218	31
202	214	1
123	206	-116
-1	174	-141
-142	108	-27
-262	14	3
-319	-87	-18
-285	-166	-8
-182	-207	-39
-57	-210	-13
28	-178	1
36	-121	-30
-25	-44	-27
-113	49	-45
-169	145	-41
-154	221	-23
-71	250	-26
35	221	-38
117	132	-34
138	16	-40
104	-99	-15
49	-185	14
20	-232	11
40	-248	9
105	-241	-4
184	-216	-7
240	-173	-21
237	-102	-40
170	-9	-60
54	93	-48
-82	177	-7
-207	225	34
-289	224	47
-308	183	57
-263	120	7
-185	53	-54
-101	-3	-63
-48	-45	-75
-44	-69	-54
-77	-70	-48
-114	-49	-14
-121	-6	3
-87	41	-4
-23	81	-38
29	92	-63
41	69	-66
8	16	-95
-46	-50	-89
-79	-114	-70
-57	-164	-39
15	-190	-40
104	-196	-71
167	-179	-50
171	-149	39
122	-111	41
48	-84	13
-10	-78	24
-30	-97	30
-19	-126	64
7	-141	44
27	-121	7
36	-52	-39
44	43	-50
65	133	-63
102	183	-97
143	178	-55
172	128	-3
178	62	11
166	18	-19
148	8	-50
139	23	-12
140	47	-8
128	51	-43
74	38	-51
-34	12	-46
-182	-3	10
-325	0	11
-409	26	-4
-400	65	-32
-288	102	-43
-112	127	16
81	132	-5
242	119	-37
344	87	19
373	40	36
320	-11	-9
190	-55	-33
-4	-80	-70
-231	-78	-64
-435	-55	-53
-554	-29	-30
-545	-13	-3
-405	-15	-4
-178	-27	4
53	-31	-35
226	-14	-68
301	25	-97
292	68	-182
239	90	-121
175	72	-2
114	19	16
44	-43	108
-41	-92	53
-136	-105	40
-209	-92	42
-230	-72	-16
-187	-71	-54
-107	-96	-97
-30	-127	17
8	-140	31
4	-104	-7
-6	-15	-36
19	106	-75
102	228	-72
223	313	-42
332	341	-48
373	305	-52
318	219	-7
182	92	0
16	-63	48
-134	-219	54
-237	-351	41
-285	-420	12
-294	-407	-20
-272	-311	-17
-223	-166	-35
-143	-24	-40
-40	70	-25
70	97	-14
162	78	-39
209	49	-44
204	54	-67
158	97	-44
97	150	1
42	178	-66
16	150	-59
14	68	-93
30	-33	-143
51	-116	-90
67	-155	-106
71	-155	-70
61	-133	-12
33	-112	10
-4	-90	13
-43	-55	-4
-74	9	11
-94	98	31
-105	183	58
-118	228	42
-132	204	35
-142	119	22
-140	10	-56
-117	-78	-71
-76	-114	-17
-32	-99	22
-10	-55	51
-16	-12	36
-46	16	13
-69	26	0
-53	30	-57
17	34	-116
132	33	-67
259	25	-50
350	8	-67
369	-5	-12
306	-3	-5
171	22	-30
2	61	-42
-167	85	5
-296	68	-8
-358	7	-22
-341	-76	-9
-253	-150	14
-130	-182	26
-14	-167	-13
58	-121	-21
74	-68	-46
50	-30	-48
27	-3	-42
41	22	-30
102	53	-20
183	89	-15
229	112	-4
196	110	21
77	82	56
-92	41	21
-244	14	-77
-311	8	-97
-275	8	-21
-166	-11	-19
-42	-62	-1
36	-150	13
50	-227	24
17	-254	48
-18	-204	-12
-21	-89	-61
21	47	-114
84	153	-211
133	193	-189
144	174	-56
114	136	-55
65	109	-43
21	112	2
-2	127	37
-4	124	22
1	78	9
11	-3	12
26	-83	-65
62	-119	-38
128	-89	-60
219	-9	-52
306	81	-41
346	131	-49
300	115	3
148	39	-20
-88	-62	39
-355	-149	91
-572	-189	113
-672	-171	112
-619	-106	112
-443	-11	-14
-208	92	-193
0	170	-207
118	199	-123
130	161	-16
72	55	19
6	-98	-7
-14	-250	-38
32	-351	-104
121	-362	-141
211	-282	-55
269	-145	-66
290	-1	-24
288	106	101
279	158	78
269	155	75
234	121	45
148	71	30
9	13	25
-147	-51	-22
-257	-121	-56
-262	-174	-20
-150	-189	-25
27	-149	-80
175	-58	-4
203	51	-7
76	144	-42
-168	186	-61
-420	173	-57
-572	127	-27
-556	77	-15
-392	40	18
-157	17	18
46	-6	-16
150	-46	-33
147	-94	-45
83	-130	-79
27	-130	-57
24	-82	-86
75	-1	-54
140	81	0
175	133	-15
156	147	-2
84	132	-34
2	116	-48
-49	115	-46
-36	126	-14
42	127	5
167	96	-20
300	26	-16
396	-59	-18
415	-126	-35
332	-144	-17
149	-106	-4
-95	-30	18
-336	45	30
-503	97	31
-547	110	65
-459	100	36
-287	84	-17
-96	76	-16
49	81	-3
114	84	-36
111	71	-85
79	31	-144
51	-43	-118
46	-144	-75
57	-259	-97
58	-355	-43
44	-404	-34
20	-376	-13
8	-254	37
22	-62	5
60	157	-7
104	340	18
124	438	19
110	430	1
66	329	-23
17	178	-67
-19	17	-107
-29	-127	-88
-22	-251	15
-12	-353	91
-12	-426	87
-22	-449	34
-31	-393	-38
-33	-262	-33
-20	-77	-78
4	99	-131
32	203	-28
54	205	-18
64	117	-58
53	0	-17
22	-82	-39
-25	-86	-41
-71	-19	-27
-93	77	-27
-66	149	-53
7	158	-14
98	110	29
156	32	-71
132	-36	-67
13	-76	-22
-165	-78	10
-330	-52	21
-390	-13	24
-300	40	69
-74	103	39
212	171	-10
458	229	-17
575	257	10
529	240	-11
335	180	-33
49	98	-22
-252	20	-46
-504	-32	-46
-658	-59	-54
-691	-71	-43
-607	-88	-19
-433	-117	-46
-227	-150	-43
-47	-173	-38
59	-166	-9
85	-125	-7
59	-60	-11
33	4	-4
49	49	-26
120	66	-61
216	62	-116
289	52	-92
306	45	-24
254	45	-20
165	41	12
78	27	28
24	2	5
9	-23	0
15	-24	-3
23	6	18
19	68	4
10	141	-12
7	190	-23
16	187	-32
36	118	-43
50	1	-62
50	-139	-35
34	-261	-19
18	-340	-59
14	-366	-90
29	-345	-5
49	-298	74
61	-246	29
48	-206	13
20	-175	29
-10	-148	7
-21	-108	-27
-7	-42	-20
15	45	-4
28	139	37
12	218	67
-28	261	36
-77	265	-38
-104	239	-144
-96	203	-151
-61	171	-124
-18	150	-151
16	121	-131
37	75	-21
65	9	74
124	-62	40
213	-111	-40
300	-119	-127
330	-80	-194
245	-15	-133
32	46	-57
-263	86	-19
-545	97	68
-702	98	106
-676	101	4
-474	114	-21
-183	123	65
99	116	-11
285	79	-57
346	22	-10
312	-28	24
237	-53	70
162	-44	71
104	-17	28
46	3	36
-30	-1	-36
-121	-31	-122
-200	-65	-104
-234	-89	-110
-209	-92	-60
-142	-83	-54
-66	-80	-63
-15	-88	-28
10	-96	-26
18	-81	-13
38	-29	-3
82	50	6
140	122	15
194	149	24
226	113	32
234	35	52
229	-37	28
222	-69	-4
204	-52	-28
155	-26	-72
51	-49	-102
-101	-153	-96
-269	-320	-17
-392	-475	34
-431	-539	28
-362	-456	20
-226	-249	-9
-76	-5	-51
31	181	-25
78	241	4
78	186	-23
72	76	-21
90	-5	-6
141	-6	-9
205	65	-30
254	164	-32
258	229	-5
209	235	-14
113	190	-30
-10	131	-26
-130	94	-48
-221	84	-66
-255	88	-68
-231	87	-57
-162	69	-33
-94	41	-11
-63	20	23
-99	12	38
-183	12	3
-267	10	-15
-286	-8	-12
-211	-34	-40
-62	-59	-57
97	-65	-37
193	-50	-15
188	-22	-80
103	4	-167
8	18	-87
-25	26	4
32	32	17
145	43	41
244	51	52
269	43	66
208	4	4
97	-58	-94
-1	-119	-213
-38	-145	-207
-17	-117	-81
29	-38	-23
59	59	36
52	139	42
26	168	24
11	139	22
29	74	59
67	2	33
97	-50	2
86	-75	-76
28	-76	-72
-48	-64	37
-107	-49	29
-117	-33	37
-84	-11	3
-35	19	9
-4	44	-90
-5	58	-223
-28	41	-151
-49	-3	-38
-45	-69	1
-15	-130	28
29	-165	62
63	-163	61
82	-129	49
85	-87	1
86	-58	0
90	-60	9
89	-84	-46
72	-106	-84
26	-101	-67
-42	-46	-49
-112	41	4
-152	134	-13
-134	190	-50
-55	181	-25
64	115	-3
181	24	36
251	-40	-7
241	-49	1
148	0	34
2	72	-4
-143	117	5
-237	96	5
-253	4	-32
-214	-120	-46
-178	-224	-93
-201	-253	-107
-310	-198	-90
-470	-87	-82
-610	28	-64
-621	96	-67
-473	97	-24
-188	48	22
135	-1	46
383	-9	57
481	40	62
428	130	55
285	215	13
153	253	-57
92	215	-91
107	115	-62
155	-23	-41
175	-155	-17
135	-249	19
53	-284	78
-28	-260	43
-61	-186	-23
-34	-83	-28
34	23	-62
104	112	-110
142	162	-169
142	166	-171
114	136	-25
79	90	53
48	52	-3
20	34	-3
-16	35	-4
-62	41	-50
-109	39	-105
-136	20	-42
-128	-8	52
-82	-28	3
-12	-25	-24
56	3	-53
104	46	-91
124	82	-102
127	88	-82
127	60	-18
128	9	6
131	-45	-31
124	-74	1
103	-68	60
60	-43	42
13	-20	12
-27	-29	-16
-47	-79	-8
-52	-154	-23
-62	-217	-12
-98	-230	-27
-170	-177	-36
-262	-74	-18
-338	33	-27
-351	96	-12
-278	92	16
-132	31	48
33	-35	29
143	-56	-2
156	-4	16
75	105	22
-45	218	-114
-126	274	-70
-115	241	19
-22	127	3
86	-19	25
123	-138	-137
44	-192	-140
-122	-179	-62
-290	-125	-17
-357	-68	33
-273	-34	-27
-67	-26	-37
162	-26	9
310	-21	17
328	0	-16
234	30	-19
106	56	-46
14	72	-30
-6	67	-32
20	44	-35
44	2	-11
37	-53	-37
1	-110	-41
-23	-155	-32
-5	-163	-16
59	-129	-16
135	-60	25
180	17	86
172	74	53
133	90	-87
107	74	-85
128	53	-7
191	55	-58
248	96	-37
241	157	-8
130	199	16
-60	189	-30
-270	109	-88
-417	-17	-93
-455	-148	-109
-383	-232	-93
-236	-248	-46
-77	-196	-37
52	-113	-22
128	-35	69
154	13	96
140	21	80
95	5	70
26	-15	37
-54	-19	-57
-122	-1	-114
-158	30	-93
-148	61	-67
-101	79	-50
-43	74	-35
-1	52	7
11	28	7
-1	10	-8
-21	3	1
-29	6	21
-18	10	40
6	13	33
33	15	43
63	25	78
104	48	14
156	83	-169
212	113	-289
245	118	-222
224	89	-113
128	30	-11
-23	-30	49
-194	-65	1
-325	-64	5
-378	-36	-37
-350	-15	-93
-263	-31	-84
-160	-93	-42
-58	-174	8
32	-229	25
116	-216	58
194	-130	26
245	-6	-13
245	103	53
175	144	80
49	110	59
-88	31	52
-182	-43	21
-198	-67	-12
-135	-34	-68
-34	35	-91
56	102	-75
103	138	-41
105	145	-13
91	142	-62
85	153	-107
96	171	-78
106	177	-39
86	125	22
24	-4	49
-62	-195	7
-138	-393	-21
-168	-524	-8
-136	-523	-25
-66	-379	-78
3	-144	-124
40	93	-80
37	244	-7
16	261	-42
4	161	9
20	1	44
57	-133	29
91	-183	16
93	-140	-16
56	-41	-1
-5	56	-38
-60	108	-56
-88	103	-86
-74	64	-62
-26	27	16
40	12	-10
107	18	42
164	31	58
195	37	-54
188	30	-79
124	27	-82
0	43	-75
-167	80	-34
-332	126	8
-442	158	18
-452	158	37
-357	125	38
-188	72	28
-2	16	32
147	-37	24
226	-89	-11
237	-142	-89
206	-188	-98
158	-212	-113
107	-190	-80
50	-116	-2
-10	-6	-30
-64	105	-42
-91	180	-78
-62	198	-49
22	165	-43
141	113	-48
247	66	15
288	42	-15
234	34	56
93	20	84
-91	-12	37
-253	-63	-11
-343	-117	-47
-336	-151	-124
-245	-157	-203
-105	-129	-1
36	-83	17
143	-30	-81
200	22	-10
209	71	-24
184	120	25
141	158	13
87	181	14
24	175	11
-47	139	-26
-119	69	-22
-180	-23	-68
-212	-126	-72
-206	-222	-65
-165	-286	0
-106	-300	43
-50	-249	61
-12	-140	51
6	-1	-3
20	120	-44
50	171	-62
106	131	-9
182	0	-4
253	-166	-6
291	-300	55
272	-334	30
199	-249	-132
85	-71	-226
-38	129	-205
-147	274	-67
-222	313	54
-259	239	65
-259	98	82
-226	-47	51
-165	-138	52
-82	-153	15
11	-103	-41
96	-23	-60
160	54	-81
192	109	-67
191	138	-31
159	153	-25
101	150	-34
20	131	-17
-77	89	-15
-175	23	4
-253	-52	3
-287	-115	-6
-257	-145	-20
-166	-131	-40
-42	-85	-52
80	-24	-36
167	30	-26
209	70	-35
214	96	1
198	111	28
169	121	7
122	119	-89
52	101	-123
-43	59	-43
-142	4	9
-218	-53	-16
-245	-103	-41
-222	-135	-14
-173	-157	-12
-133	-167	-6
-120	-170	34
-119	-157	16
-93	-114	-38
-2	-41	-63
160	56	-81
350	154	-52
490	229	-92
506	266	-79
387	266	47
158	247	59
-98	218	50
-287	185	-18
-352	130	-80
-285	38	-62
-136	-100	-95
26	-268	-2
147	-421	79
201	-506	29
191	-482	-28
141	-351	-6
78	-138	51
17	89	-5
-36	266	-38
-81	349	-23
-111	323	-30
-121	211	-118
-98	58	-96
-38	-78	10
46	-159	-22
124	-167	-30
154	-117	-9
97	-47	-28
-53	3	-63
-270	2	-36
-487	-43	-48
-619	-111	-39
-610	-165	-12
-445	-174	-26
-189	-142	-44
68	-90	-84
242	-45	-28
288	-23	-7
229	-15	19
121	2	49
41	48	60
23	113	53
68	170	-22
138	183	-19
200	138	3
232	49	16
236	-42	20
222	-86	11
196	-63	29
150	16	39
76	110	-4
-16	182	-59
-105	210	-27
-153	205	-20
-144	188	-59
-84	170	-76
-4	149	-163
50	104	-202
60	20	-124
28	-90	-97
-19	-198	-31
-50	-260	45
-48	-258	6
-21	-191	-1
12	-98	58
32	-18	43
29	24	-7
18	34	-5
6	36	-14
-1	52	-22
-5	88	-50
-10	122	-27
-11	131	-12
-5	106	-22
14	49	-44
40	-12	-15
66	-51	42
77	-55	37
65	-28	30
43	20	-112
24	77	-180
18	127	-119
24	171	-53
24	195	-25
-2	180	12
-54	111	24
-120	-7	-24
-170	-158	-30
-181	-303	-24
-143	-407	-7
-74	-452	1
10	-449	9
91	-420	-44
161	-386	-35
210	-349	22
225	-297	43
175	-203	37
44	-71	-26
-157	82	-56
-383	218	-72
-554	301	-27
-589	319	-19
-470	277	-27
-232	212	-50
32	154	-120
229	119	-104
302	105	-26
261	92	13
158	61	31
56	4	45
-12	-69	28
-53	-139	6
-95	-181	-40
-153	-179	-13
-207	-131	-51
-218	-49	-104
-148	43	-42
7	129	-3
205	193	81
386	228	63
492	240	5
498	239	22
419	233	2
280	225	8
117	211	-24
-41	183	-30
-180	135	19
-274	59	10
-306	-38	-14
-262	-147	-7
-156	-245	-5
-20	-306	-41
97	-312	-88
156	-253	-79
147	-141	-84
87	-8	-94
12	106	-35
-50	169	-93
-87	170	-121
-93	123	-34
-70	68	21
-21	33	68
51	31	69
130	48	91
183	54	143
178	27	155
105	-39	77
-14	-119	-132
-120	-181	-273
-159	-201	-347
-104	-182	-294
18	-148	-107
138	-125	-57
192	-129	14
139	-145	56
-3	-149	53
-180	-113	61
-324	-38	13
-393	49	-82
-389	112	-69
-330	120	33
-244	81	-30
-148	20	-36
-51	-24	-63
42	-23	-24
123	12	119
176	54	101
191	70	33
163	45	-37
111	-1	-76
65	-34	-103
47	-21	-119
60	46	-63
89	140	-18
109	208	10
104	204	-20
60	118	-53
-8	-24	-2
-82	-163	28
-133	-243	27
-141	-232	56
-99	-138	44
-16	-8	-30
81	111	-32
164	179	-5
209	183	-15
214	131	22
195	47	-5
174	-51	-76
167	-143	-34
164	-214	-35
133	-250	-50
44	-238	-9
-110	-180	-9
-295	-90	-21
-443	-1	-25
-497	56	-17
-435	67	-28
-278	43	-79
-93	19	-63
48	28	-11
107	88	-19
97	183	-3
65	282	-11
65	345	-10
122	354	8
218	319	-19
311	257	-31
351	186	-28
317	102	-30
212	-14	-33
77	-174	-30
-55	-365	-39
-152	-541	-61
-198	-640	-60
-203	-620	-22
-181	-473	-9
-153	-243	-32
-141	-7	-30
-155	169	2
-186	257	10
-212	266	-13
-208	240	-31
-154	211	-18
-57	195	-14
52	173	-50
137	120	-41
169	30	-13
140	-81	23
77	-171	55
9	-210	53
-36	-178	60
-47	-92	60
-35	13	34
-11	105	1
16	166	35
42	194	-22
67	199	-104
85	185	-71
84	149	-143
54	80	-160
8	-22	-128
-34	-145	-104
-45	-256	15
-14	-325	74
44	-325	29
89	-257	-80
80	-147	-43
7	-28	31
-105	63	-66
-195	113	-164
-216	120	-227
-150	106	-110
-23	93	64
101	93	68
170	110	100
162	129	53
102	132	-82
36	111	-196
4	66	-159
12	10	-131
41	-42	-153
58	-76	38
48	-87	118
19	-77	104
1	-50	101
18	-14	44
74	37	56
148	97	63
205	165	87
214	227	77
163	268	11
64	277	-76
-60	244	-80
-179	177	-85
-264	85	-128
-305	-14	-82
-285	-113	-46
-215	-203	-8
-112	-286	-40
1	-356	-44
105	-407	20
196	-417	49
275	-368	28
346	-261	-5
394	-104	31
393	65	51
306	202	10
132	268	-56
-107	247	-48
-345	154	-57
-511	23	-74
-563	-101	-65
-508	-189	-84
-405	-234	-23
-315	-246	21
-272	-245	28
-260	-240	21
-229	-228	10
-138	-192	-8
9	-125	-59
158	-28	-48
245	82	-49
232	181	-84
139	251	-22
28	279	-9
-25	275	-14
15	243	-9
139	183	-38
285	104	-60
390	11	-81
407	-80	-86
331	-144	-104
180	-158	-58
-14	-105	19
-213	-3	107
-378	117	142
-459	210	108
-433	243	110
-291	209	64
-77	130	-35
133	45	-159
258	-13	-197
251	-30	-90
129	-18	-65
-28	-4	-21
-132	-12	-40
-133	-47	-147
-46	-99	-98
70	-138	-20
147	-140	8
149	-99	17
98	-24	39
54	56	43
63	117	81
131	150	107
216	154	-8
269	150	-114
245	140	-107
147	133	-118
17	117	-147
-91	80	-38
-151	16	97
-164	-66	-16
-158	-149	-109
-159	-214	-68
-172	-243	-103
-181	-234	-43
-163	-187	-3
-97	-112	-1
15	-32	35
152	33	-33
285	61	-102
383	41	-93
411	-21	-20
354	-101	11
211	-163	65
3	-177	51
-226	-136	26
-422	-66	28
-538	-7	-4
-552	4	48
-480	-37	47
-358	-106	86
-232	-160	72
-129	-155	-1
-52	-86	-3
11	24	-15
74	132	-86
136	203	-197
188	225	-89
215	211	-18
225	191	-98
229	179	-90
242	174	-60
262	155	-27
268	110	-53
223	36	-17
110	-46	8
-56	-110	38
-231	-138	112
-345	-129	141
-360	-100	84
-269	-67	-50
-111	-40	-78
54	-14	-115
183	24	-178
253	79	-161
280	139	-87
286	185	-8
280	196	-16
250	169	-7
172	121	16
38	83	-10
-133	77	-60
-296	101	-77
-392	134	-51
-390	140	-26
-300	96	-6
-167	-7	-30
-50	-138	-39
10	-264	-29
14	-348	-53
-9	-371	-61
-22	-338	-22
-5	-268	26
32	-189	78
58	-119	85
52	-72	74
11	-51	91
-42	-56	35
-80	-86	-86
-79	-131	-100
-47	-185	-30
-4	-224	0
35	-227	-6
72	-178	-13
121	-74	-14
190	65	-15
257	207	-11
280	305	-48
214	337	-69
45	295	-66
-182	208	-100
-375	116	-110
-439	52	-28
-339	28	29
-120	24	35
109	14	62
236	-22	16
199	-72	-83
30	-106	-138
-169	-92	-101
-286	-20	-64
-262	77	0
-117	158	42
66	180	5
203	138	-11
245	68	7
203	12	62
125	3	25
63	33	85
34	68	152
21	66	-3
0	13	-89
-40	-72	-106
-81	-144	-143
-95	-160	-132
-65	-113	-87
-6	-31	-12
51	40	69
82	74	45
76	65	-20
57	40	-63
51	35	-28
74	62	-47
110	106	-189
131	138	-206
113	131	-34
59	84	-4
-3	14	-54
-39	-47	-23
-28	-83	-40
13	-86	10
48	-70	36
40	-48	20
-22	-23	-16
-112	10	-21
-188	56	-1
-202	104	-13
-136	134	24
-7	128	52
141	85	58
261	17	9
313	-48	-45
288	-89	11
200	-106	34
76	-117	-49
-48	-150	-55
-144	-216	-14
-194	-307	0
-191	-387	-3
-147	-416	39
-79	-376	34
-14	-265	-48
22	-118	-100
9	34	-117
-46	160	-101
-126	239	-82
-199	266	-99
-234	241	-115
-217	165	-46
-161	51	-2
-99	-79	13
-64	-192	41
-81	-253	43
-136	-235	37
-202	-140	51
-237	8	45
-222	162	-71
-160	277	-98
-82	324	-80
-20	299	-111
18	219	-52
37	120	-9
66	32	52
114	-27	105
172	-49	54
216	-45	29
212	-32	25
156	-21	-40
69	-27	-62
1	-47	-89
-16	-75	-155
31	-93	2
114	-89	39
194	-57	-58
237	-4	-28
234	54	-39
199	102	-84
159	126	-78
129	123	32
105	103	42
74	70	46
31	32	74
-13	-9	67
-39	-54	-64
-30	-100	-136
10	-136	-26
54	-150	-57
67	-137	-82
19	-98	-81
-81	-47	-66
-195	5	-16
-279	48	24
-288	80	67
-222	105	-9
-105	127	-111
16	148	-143
98	159	-154
126	155	-72
111	135	-31
82	104	-30
59	74	4
52	51	34
50	40	48
36	31	18
4	12	37
-37	-25	24
-66	-79	-7
-61	-129	-46
-17	-154	-59
46	-135	-70
98	-66	-63
96	28	-12
28	112	0
-88	137	12
-210	77	28
-288	-67	68
-290	-256	49
-210	-426	14
-81	-508	-8
46	-474	-17
122	-331	-21
132	-129	-24
88	63	-9
29	197	-46
-1	252	-93
21	247	-89
93	218	-45
178	191	16
236	171	9
229	139	7
155	79	48
33	-15	-41
-101	-120	-52
-215	-199	-18
-291	-226	1
-331	-194	-11
-340	-134	-76
-325	-81	-20
-285	-60	-31
-210	-71	-80
-103	-85	-79
23	-69	-96
133	-9	-126
195	86	-116
192	183	-85
142	248	-42
86	261	15
59	231	18
82	170	4
136	105	26
184	41	62
186	-13	16
130	-61	54
39	-96	134
-50	-108	69
-99	-95	1
-95	-54	-19
-47	-3	-85
17	48	-109
81	93	-44
141	135	-69
201	177	-86
259	218	-107
296	249	-106
280	243	-59
186	186	-46
18	81	-26
-190	-48	3
-383	-168	60
-509	-246	62
-542	-265	58
-481	-245	56
-360	-199	33
-206	-157	-23
-48	-123	-66
99	-98	-16
229	-71	-56
326	-33	-164
379	10	-95
366	56	14
290	93	28
167	107	52
32	97	80
-79	54	101
-145	-9	26
-166	-84	-48
-155	-147	-75
-130	-179	-133
-108	-171	-155
-85	-133	-150
-55	-86	-62
-11	-51	30
50	-40	48
130	-35	40
216	-13	-13
302	48	-49
366	142	-66
389	230	-80
346	264	-57
228	215	-44
39	97	-8
-178	-48	1
-370	-159	-26
-487	-202	-27
-505	-181	4
-448	-134	1
-362	-107	-21
-300	-107	-16
-264	-114	-66
-237	-90	-119
-155	-6	-94
10	119	12
242	240	24
458	298	-12
560	269	28
476	174	65
222	68	39
-119	2	16
-417	-16	-29
-558	-2	-80
-508	-4	-53
-318	-43	17
-88	-111	49
94	-164	-13
188	-156	-30
215	-72	-46
231	58	-68
263	182	-72
310	244	-59
326	224	-44
273	130	-23
140	5	24
-26	-115	22
-174	-196	30
-248	-232	13
-240	-214	22
-179	-151	87
-111	-50	9
-63	63	-102
-31	155	-44
4	189	-52
60	149	-45
124	55	-3
163	-47	-23
147	-104	-5
69	-80	11
-33	11	18
-111	118	-89
-124	174	-147
-69	138	-63
19	13	-39
90	-157	-76
114	-304	-59
89	-386	-35
48	-381	-27
24	-308	-38
33	-196	-40
71	-75	-20
107	30	22
124	110	53
114	155	16
87	161	3
54	130	2
21	83	12
-20	39	-35
-76	16	-63
-135	17	-14
-181	24	-8
-181	19	33
-120	-11	46
-14	-53	46
97	-80	-2
163	-64	-52
144	-1	-3
41	88	-23
-110	165	30
-251	198	29
-321	187	-157
-299	149	-232
-188	116	-221
-36	105	-211
98	104	-157
167	95	-64
156	50	57
86	-24	84
1	-106	38
-53	-160	24
-53	-166	16
1	-125	42
76	-62	48
135	-6	61
155	31	57
129	54	1
85	77	-113
49	106	-120
46	130	-40
74	131	-63
100	90	-46
91	15	22
28	-67	56
-77	-129	61
-175	-148	36
-208	-127	-4
-138	-91	-32
22	-63	-68
204	-49	-82
314	-33	-94
277	4	-38
83	79	-3
-210	171	-24
-493	244	7
-654	244	12
-644	150	36
-481	-37	10
-255	-268	-49
-52	-473	-85
69	-590	-104
107	-590	-40
99	-488	-29
86	-319	-13
89	-138	11
93	6	-15
77	101	-18
29	150	-32
-30	174	-37
-63	189	-62
-40	197	-74
48	185	-43
172	138	-14
288	59	6
352	-35	16
340	-109	9
251	-130	12
111	-86	24
-50	7	21
-189	106	13
-277	173	-15
-290	183	-7
-228	149	21
-110	90	28
19	44	14
121	30	-21
170	41	-32
172	67	-84
160	88	-119
163	97	-77
189	96	-40
221	93	-8
216	88	20
159	76	34
44	49	33
-80	4	-13
-161	-48	-88
-162	-93	-127
-88	-113	-38
23	-103	65
114	-70	167
140	-28	267
102	10	188
24	39	34
-48	62	-231
-89	80	-441
-93	91	-600
-79	85	-371
-74	57	64
-92	6	28
-129	-56	40
-163	-113	-5
-166	-145	-27
-118	-145	6
-18	-119	-18
115	-80	14
251	-43	135
342	-15	205
355	11	57
270	43	-139
101	89	-215
-114	140	-74
-314	188	-43
-439	209	29
-465	194	31
-398	139	-6
-281	61	7
-167	-17	-30
-85	-76	8
-35	-94	2
11	-81	64
85	-43	102
193	-6	84
302	11	18
373	-1	-42
361	-44	-43
262	-108	-83
113	-178	-92
-35	-238	-82
-144	-278	-77
-210	-292	-38
-257	-283	20
-318	-259	59
-398	-223	48
-468	-184	19
-475	-148	-16
-387	-111	-37
-202	-77	-53
24	-42	-51
210	-12	-37
302	12	-35
297	29	-23
231	47	-27
167	75	-33
151	119	-36
186	179	-47
240	233	-58
262	257	-49
234	227	-10
161	145	8
86	37	-9
44	-53	-5
49	-89	-3
84	-60	-20
111	10	-29
99	82	-50
39	119	-35
-56	113	16
-158	79	37
-239	48	12
-280	45	-22
-278	72	-47
-232	105	-94
-150	118	-90
-43	96	-60
62	41	-51
138	-18	3
162	-64	30
122	-85	21
39	-84	-4
-51	-75	-35
-104	-65	-54
-98	-55	-32
-39	-33	61
42	3	97
111	53	7
140	98	-67
135	127	-27
124	132	-13
133	117	-35
172	98	-40
219	80	-136
234	70	-129
172	58	-54
33	36	-75
-157	0	26
-336	-50	92
-439	-100	50
-436	-138	-21
-333	-158	-116
-173	-154	-90
-16	-127	-24
90	-80	-65
129	-21	-53
123	42	-74
97	94	-27
78	125	38
71	124	29
74	98	9
77	52	-103
82	0	-12
101	-47	-62
150	-92	-86
221	-127	52
288	-161	70
311	-187	12
242	-205	-86
69	-214	-24
-174	-210	38
-422	-192	14
-599	-160	-19
-651	-106	-25
-574	-36	-53
-403	38	-92
-191	88	-71
3	88	-38
150	22	-75
242	-89	-94
280	-206	-51
275	-272	4
216	-252	61
119	-150	69
-4	-2	78
-115	131	62
-174	209	26
-167	218	-17
-108	189	-63
-40	161	-113
-5	160	-108
-22	190	-62
-77	224	-11
-130	232	36
-143	193	24
-108	114	-3
-40	20	-4
22	-61	3
55	-108	-30
58	-119	-57
49	-97	-48
54	-53	-36
80	-5	-41
116	36	-45
136	53	-36
130	41	-26
103	0	-24
78	-51	-8
74	-85	14
97	-72	23
128	-8	32
142	90	15
123	179	-4
77	211	-12
24	166	-17
-7	55	-27
-6	-72	-10
27	-161	-12
74	-167	-27
115	-87	-31
139	37	-61
140	143	-39
117	180	-39
63	124	-76
-14	4	-46
-105	-127	-64
-184	-210	-116
-225	-216	-2
-210	-153	77
-152	-63	51
-76	-1	49
-14	9	34
16	-31	54
27	-79	-5
44	-94	-33
87	-53	51
140	27	-42
165	101	-63
114	126	-21
-22	85	-65
-205	-1	25
-358	-80	-25
-409	-105	-205
-331	-63	-364
-163	14	-283
17	72	-155
129	67	-190
143	-6	-39
86	-111	51
21	-189	115
-4	-192	119
17	-120	79
49	-6	79
54	93	28
10	142	37
-56	135	36
-94	106	36
-75	89	53
-4	105	5
71	150	-52
101	191	-14
66	200	-15
1	162	-82
-42	93	-78
-23	17	-52
54	-45	-69
133	-84	-33
158	-106	20
92	-123	60
-33	-145	87
-156	-166	70
-206	-173	-23
-172	-160	-122
-85	-119	-158
-11	-63	-132
0	-2	-27
-54	53	26
-130	100	33
-162	135	21
-115	151	14
2	139	20
134	85	-2
224	-16	-32
234	-155	-76
161	-295	-92
50	-393	-82
-51	-418	-50
-113	-351	-12
-120	-218	-28
-82	-60	-38
-7	74	-29
88	156	-19
184	180	-3
258	166	-11
296	141	-13
283	121	2
236	108	18
175	89	17
125	56	41
82	13	105
17	-26	101
-100	-39	47
-277	-21	21
-470	25	-77
-603	77	-99
-602	110	-51
-443	118	-89
-170	98	-76
105	67	-93
272	40	-55
280	26	-78
162	23	-87
4	21	-17
-96	13	-56
-89	-8	-57
6	-36	-65
127	-64	-48
216	-78	-64
253	-70	-94
254	-37	-57
249	23	8
245	98	65
216	171	68
134	225	108
-8	241	114
-177	208	75
-311	127	21
-355	15	-8
-307	-109	-64
-205	-214	-171
-122	-283	-190
-105	-301	-136
-151	-268	-119
-209	-192	-43
-222	-94	8
-152	6	-9
-18	88	38
131	137	46
242	152	57
286	138	45
275	109	44
241	77	48
204	48	80
169	23	57
119	-8	-113
40	-49	-196
-57	-101	-140
-142	-157	-117
-180	-201	-92
-154	-229	26
-75	-232	67
20	-213	71
93	-178	22
119	-126	-27
95	-66	13
40	-1	-43
-26	57	-169
-85	96	-129
-126	96	4
-143	60	19
-133	6	12
-94	-39	-23
-31	-45	-38
40	-9	-24
103	53	-40
138	106	-9
139	117	51
111	83	98
63	24	133
11	-15	102
-35	-8	16
-67	49	-53
-82	127	-132
-72	183	-253
-43	190	-243
3	148	-85
50	88	-129
81	43	-69
85	33	57
61	48	63
29	59	96
7	38	65
10	-19	60
30	-94	-100
42	-157	-215
11	-176	-68
-85	-153	-37
-234	-99	-52
-388	-34	-22
-481	19	-19
-459	55	45
-321	75	0
-106	82	-24
109	72	-13
245	48	74
269	9	136
198	-34	32
89	-62	2
10	-70	-56
-4	-54	-59
39	-27	-46
97	-5	-36
125	7	-63
107	14	-88
56	32	-31
11	68	-16
-4	116	-3
18	143	34
51	124	89
71	41	-4
61	-89	-130
30	-215	-93
7	-291	-22
11	-280	35
51	-200	41
108	-97	38
155	-27	38
165	-25	-14
132	-78	-16
69	-142	-31
-2	-163	-64
-66	-116	-122
-112	-17	-152
-132	89	-93
-134	154	-75
-124	159	-9
-107	119	13
-91	71	-12
-80	43	6
-72	43	-13
-64	51	-7
-52	39	-12
-30	2	-17
-5	-48	-39
15	-75	-55
26	-54	-24
34	13	1
48	100	91
84	165	119
133	180	32
170	143	-35
156	86	-124
72	38	-183
-68	22	-133
-222	36	-69
-313	60	-22
-296	67	2
-165	37	20
23	-25	13
190	-107	11
269	-178	-23
242	-218	50
139	-214	123
30	-167	21
-29	-98	40
-18	-28	14
37	17	-106
89	22	-206
93	-2	-291
36	-41	-233
-57	-64	-141
-152	-53	-61
-213	-8	42
-233	48	51
-226	92	68
-215	105	64
-209	87	37
-200	60	4
-166	45	-42
-86	56	-11
31	87	-5
163	119	-25
262	135	-19
299	135	15
260	126	5
171	114	21
72	101	55
5	68	15
-16	2	9
3	-100	4
33	-211	-3
50	-282	9
46	-282	3
27	-202	-8
9	-77	-45
-3	30	-69
-12	68	-66
-23	28	-46
-38	-48	-28
-42	-106	-21
-18	-97	-8
48	-21	-16
136	75	-30
205	131	-43
205	113	-15
109	34	-1
-69	-58	-11
-275	-101	10
-433	-66	15
-481	27	-16
-392	133	-74
-200	198	-63
37	192	-27
253	110	-55
393	-19	-51
430	-162	-66
369	-289	-94
229	-371	-70
56	-387	-38
-101	-326	-9
-201	-207	-15
-229	-61	-16
-201	54	-9
-162	100	-2
-164	69	15
-227	-11	62
-325	-77	66
-402	-85	49
-389	-21	38
-261	83	-54
-48	171	-138
178	209	-105
343	192	10
409	157	52
388	142	19
330	166	69
280	208	76
248	225	20
203	188	6
119	96	-84
-14	-9	-341
-154	-85	-493
-243	-102	-172
-236	-72	79
-145	-36	72
-24	-27	124
60	-57	6
68	-97	-155
13	-110	-95
-54	-70	-49
-76	12	-138
-31	98	30
53	145	98
127	131	6
150	71	128
114	6	150
49	-31	79
0	-24	37
-12	13	-21
10	52	-44
40	71	-43
59	70	-38
60	63	-50
54	71	-45
52	100	-43
57	130	-96
51	139	-84
20	100	-35
-34	11	-18
-88	-115	-11
-102	-246	-11
-51	-348	-19
54	-402	-65
178	-393	-79
257	-326	1
248	-214	43
144	-80	24
-24	48	-9
-214	139	-43
-375	173	5
-476	143	66
-509	61	47
-480	-38	22
-392	-122	-18
-262	-170	-50
-110	-179	-53
41	-168	-53
150	-157	-39
188	-157	-43
150	-156	-16
56	-136	16
-47	-83	4
-120	4	-10
-133	98	-16
-78	168	-56
37	186	-44
200	154	-36
389	99	-66
568	55	-46
681	59	-53
665	112	-14
469	194	5
101	267	17
-356	301	32
-757	283	-26
-962	225	-14
-904	145	56
-627	58	78
-262	-23	100
36	-108	116
161	-188	34
113	-256	-63
-8	-291	-159
-77	-277	-252
-16	-210	-247
164	-104	-247
381	11	-168
532	108	11
558	171	12
472	199	26
334	205	10
206	201	-40
114	192	-48
44	170	-84
-27	128	-56
-106	58	-10
-165	-33	26
-164	-127	4
-88	-206	15
34	-246	47
134	-241	103
154	-192	105
65	-112	13
-89	-22	-31
-233	57	33
-296	105	71
-250	110	-56
-132	68	-153
-16	-5	-94
36	-91	-17
2	-166	-61
-92	-206	-21
-187	-207	-8
-227	-173	-56
-188	-119	-52
-89	-57	-40
27	5	-34
119	64	-43
162	119	-23
156	163	-41
120	183	-41
79	166	-14
49	109	22
36	28	31
40	-46	34
51	-82	57
63	-65	44
69	-8	-25
60	59	-60
33	100	-30
-11	91	-15
-65	38	6
-120	-30	-40
-157	-82	-94
-168	-93	-60
-142	-68	-67
-79	-26	-34
23	14	-41
156	37	-63
306	46	-44
438	43	-34
505	36	54
458	18	16
269	-9	34
-33	-43	66
-369	-71	36
-627	-74	11
-713	-46	-68
-599	4	-103
-333	53	-112
-38	83	-89
160	82	-74
196	65	-14
93	60	28
-58	77	31
-159	115	-20
-150	145	-103
-51	143	-83
61	93	-22
115	9	-19
89	-72	-34
17	-129	-7
-33	-147	6
-15	-139	24
65	-131	13
158	-136	-24
193	-152	-42
140	-157	-52
21	-140	-35
-103	-103	-25
-177	-67	-33
-176	-57	-12
-117	-82	29
-47	-128	36
-2	-163	-13
8	-164	-44
2	-123	-24
5	-58	-29
27	5	-52
62	53	-43
94	87	24
111	118	69
111	155	42
113	192	-3
119	208	-44
131	190	-45
132	140	-67
107	82	-74
58	43	-79
-1	34	-70
-45	47	-2
-62	48	16
-51	13	37
-32	-62	51
-29	-154	101
-55	-215	127
-99	-218	-35
-131	-152	-194
-118	-46	-185
-39	60	-161
93	137	-140
242	174	-63
355	188	14
385	197	14
306	213	-15
140	228	12
-68	215	-3
-267	162	-19
-407	60	22
-465	-67	65
-448	-192	66
-377	-277	31
-276	-305	61
-165	-277	95
-47	-203	-27
70	-111	-125
176	-18	-120
257	58	-142
282	116	-108
245	154	-68
160	169	-91
58	168	-94
-18	145	-122
-42	110	-112
-12	65	17
40	20	-13
75	-18	-27
56	-45	45
-16	-61	6
-117	-75	43
-202	-85	44
-236	-95	-37
-205	-101	-27
-125	-96	-10
-32	-80	-107
44	-51	-77
90	-24	-17
116	0	13
144	19	57
193	40	0
260	71	-11
322	101	-43
336	112	-8
269	69	24
111	-42	14
-111	-216	-5
-339	-400	-48
-509	-523	-51
-565	-524	-17
-492	-390	16
-318	-169	-9
-103	55	0
79	204	13
181	247	14
190	211	1
132	161	-7
54	150	3
-4	182	-38
-15	215	-84
12	197	-63
62	95	-6
114	-55	10
154	-183	-16
180	-212	-53
187	-125	-17
172	32	13
131	171	13
65	225	3
-15	177	-17
-91	74	-29
-144	-6	-56
-167	-13	-78
-166	49	-106
-152	124	-79
-137	151	-28
-125	98	-9
-107	-12	6
-78	-121	20
-37	-181	22
0	-167	-26
23	-107	-65
26	-37	-6
24	10	32
41	32	-18
101	49	-87
196	75	-58
291	106	11
336	126	19
284	119	16
131	88	-11
-78	58	10
-263	63	35
-355	109	-21
-314	169	-130
-163	190	-139
29	137	-38
175	9	-11
221	-150	-13
163	-270	-15
53	-304	-46
-34	-240	-20
-52	-119	83
8	-4	117
109	65	66
191	78	-15
210	56	-153
158	20	-277
57	-28	-167
-54	-113	56
-150	-249	84
-222	-420	120
-277	-567	92
-321	-611	-75
-347	-497	-221
-330	-242	-214
-260	72	-99
-140	325	-116
-2	424	-56
119	353	34
195	180	-16
223	10	3
229	-66	44
237	-29	11
259	80	67
276	185	85
258	224	25
175	183	33
29	95	-43
-148	10	-95
-307	-41	-20
-407	-50	19
-431	-35	-49
-386	-16	-108
-296	0	-62
-188	19	-48
-85	50	-34
2	88	-27
63	118	-32
97	124	-21
104	100	-37
93	59	-24
76	18	-19
69	-5	42
77	-15	87
87	-24	65
90	-43	48
72	-77	-6
41	-105	-39
14	-112	-66
13	-85	-67
51	-27	-62
121	37	-72
196	89	-56
244	113	-12
238	120	18
172	119	16
63	122	50
-57	128	46
-161	126	-52
-210	106	-109
-199	63	-51
-131	9	-20
-31	-43	-30
69	-81	-12
139	-105	-23
154	-122	10
116	-142	27
45	-166	16
-16	-173	-6
-28	-148	-25
29	-76	-40
150	33	-54
287	148	-22
371	230	-8
336	244	-1
156	192	-24
-140	84	-58
-468	-41	-97
-720	-159	-104
-813	-261	-40
-713	-351	-5
-469	-434	52
-175	-498	122
65	-510	111
198	-437	-30
228	-264	-194
203	-25	-173
184	221	-70
199	392	-58
238	445	-94
261	385	-86
238	261	-51
171	143	-7
85	70	62
7	42	98
-49	20	130
-95	-31	100
-143	-114	0
-195	-192	-19
-225	-211	-33
-191	-142	-95
-84	1	-256
75	164	-275
216	282	-23
270	313	24
194	271	100
14	192	164
-194	118	104
-351	64	49
-399	18	-92
-344	-43	-113
-224	-127	-76
-92	-206	-79
17	-240	-162
98	-196	-140
158	-89	-40
199	40	24
212	135	72
188	164	29
128	134	-31
64	80	-97
30	35	-182
48	12	-93
107	-13	10
162	-61	-2
170	-148	96
102	-237	101
-14	-286	84
-123	-263	44
-169	-169	-48
-126	-41	-23
-18	65	-12
105	118	-38
191	131	-67
214	139	-43
184	181	-14
133	261	-2
87	344	13
53	379	12
17	329	43
-39	199	35
-121	26	29
-216	-148	45
-291	-289	24
-320	-405	20
-285	-492	0
-191	-546	-110
-54	-531	-145
111	-421	-105
292	-218	-113
469	28	-92
600	228	-69
648	305	-15
569	241	-34
346	99	-67
2	-19	-16
-388	-27	-17
-727	87	-15
-920	253	-18
-909	362	-17
-724	337	-54
-435	180	-30
-147	-32	64
60	-198	70
150	-252	30
137	-202	-17
75	-108	20
16	-35	8
-11	-10	-80
-8	-13	-17
2	-7	28
4	20	-19
-8	45	-22
-18	35	-1
-10	-29	-62
25	-118	-123
78	-171	-58
129	-144	-11
154	-36	52
147	88	20
112	150	8
74	109	137
54	-11	-3
69	-127	-148
118	-159	-135
184	-70	-231
242	92	-226
262	237	-67
225	290	-31
130	233	-12
2	112	26
-125	5	6
-209	-34	3
-224	-10	-4
-173	34	-5
-81	48	94
14	15	135
78	-35	28
97	-56	-34
85	-20	-52
60	53	-25
39	117	-15
26	122	40
13	57	-38
-4	-40	-169
-24	-110	-162
-32	-109	-123
-18	-43	11
18	40	-51
60	80	7
85	39	55
71	-62	14
20	-174	16
-45	-232	-68
-95	-212	-45
-98	-132	-56
-51	-43	-70
25	9	4
96	12	24
125	-15	24
93	-29	86
5	-8	21
-108	41	-1
-209	85	6
-259	79	6
-245	13	-4
-165	-90	-63
-36	-177	-13
108	-199	40
241	-139	-9
336	-20	-113
373	103	-111
338	183	-66
231	193	-54
56	136	-9
-157	43	-9
-371	-47	-5
-540	-108	1
-627	-126	-25
-619	-104	-48
-516	-55	-61
-354	8	-35
-173	57	5
-14	80	24
88	59	16
122	-1	-7
96	-80	-19
33	-147	-20
-26	-171	-40
-46	-149	-52
-4	-90	-39
95	-21	-19
212	31	-7
306	60	-6
339	74	4
302	86	28
226	103	36
150	119	41
114	120	65
122	91	59
150	39	-20
158	-18	-173
121	-51	-198
48	-49	-81
-31	-15	-88
-81	35	-100
-85	74	-68
-54	92	13
-22	89	28
-17	82	-31
-39	75	12
-72	69	-19
-88	56	-91
-68	23	-110
-22	-24	-28
20	-76	4
35	-110	-85
16	-113	-92
-23	-93	-30
-55	-57	31
-57	-28	42
-26	-6	59
24	11	24
75	44	42
115	104	71
144	183	20
165	261	-27
175	309	-30
165	305	13
113	243	-71
23	137	-160
-93	10	-165
-199	-118	-102
-259	-232	17
-252	-320	-30
-184	-375	-32
-81	-390	10
19	-362	-9
86	-294	14
111	-200	11
98	-98	19
61	-6	24
12	66	34
-36	115	-8
-76	147	-37
-83	161	-16
-37	157	-18
74	130	6
241	70	-16
411	-21	-40
506	-137	-17
454	-251	-9
200	-334	-12
-217	-355	-46
-691	-292	-63
-1067	-158	-60
-1216	17	-39
-1115	169	-13
-781	244	-34
-339	218	-19
63	109	26
318	-20	12
398	-99	-17
361	-87	-35
299	3	14
275	113	80
306	171	26
345	141	-24
333	45	-63
239	-57	-100
90	-95	-91
-53	-45	-61
-125	64	-35
-98	171	-30
8	215	-32
132	188	-41
211	114	-34
214	50	-13
154	24	20
65	27	-40
-7	22	-141
-44	-21	-94
-47	-102	1
-36	-180	13
-29	-209	16
-32	-170	47
-36	-80	75
-30	11	51
-10	56	-13
22	53	-16
52	27	-31
72	24	-54
77	64	-33
74	131	-42
67	183	-20
67	182	18
77	121	20
91	30	40
107	-41	23
109	-68	-91
92	-55	-158
44	-31	14
-31	-28	-9
-123	-56	-106
-212	-92	79
-272	-103	-28
-281	-67	-211
-237	4	-190
-158	78	-85
-62	118	77
18	113	130
72	77	70
104	39	-121
120	20	-157
136	22	-160
151	23	-171
157	1	-88
135	-44	-24
77	-97	89
-18	-123	95
-129	-106	99
-232	-47	48
-287	25	7
-272	74	-52
-180	79	-177
-22	36	-108
166	-29	-15
334	-94	24
428	-134	57
407	-149	64
268	-145	70
46	-137	65
-194	-139	45
-383	-150	17
-474	-168	-27
-459	-185	-56
-375	-190	-45
-269	-176	-38
-184	-135	-40
-134	-69	-25
-105	15	-50
-66	105	-63
-2	179	-69
84	221	-65
167	218	-16
216	179	14
222	110	25
195	38	34
167	-21	36
162	-51	-10
180	-52	-36
192	-34	-25
163	-9	-74
67	8	-108
-83	17	-81
-237	23	-51
-338	38	-23
-343	66	8
-248	103	53
-91	135	25
62	147	4
166	130	22
201	94	-1
186	55	-13
154	28	-40
129	14	-39
113	6	-41
86	-19	-42
32	-64	-25
-48	-123	-14
-133	-172	-27
-189	-182	-55
-190	-142	-32
-137	-64	-57
-53	19	-95
25	80	-60
80	100	-54
103	90	-23
111	71	13
121	62	15
142	71	8
165	83	-12
167	81	-55
141	51	-100
92	0	-31
42	-48	-48
20	-77	-7
31	-68	70
66	-34	35
94	13	133
81	56	147
16	85	63
-83	103	-61
-176	112	-85
-221	114	-56
-194	100	-135
-118	64	-70
-31	5	-3
17	-68	-53
0	-137	-132
-75	-190	-141
-164	-217	-65
-222	-230	-4
-217	-234	-72
-154	-238	-185
-55	-237	-154
40	-218	-51
107	-169	-1
151	-87	36
169	16	72
175	123	66
172	215	97
151	277	49
120	299	-15
90	268	-25
85	192	-52
106	70	-33
136	-66	-46
131	-192	-28
48	-273	1
-121	-283	37
-336	-233	45
-512	-136	16
-577	-33	22
-503	46	-15
-325	89	-83
-124	96	-112
22	85	-56
77	72	-18
56	69	9
16	75	28
5	80	21
31	70	28
71	35	76
86	-24	49
60	-102	-41
12	-174	-89
-17	-215	-91
1	-199	-58
62	-119	-41
141	4	-13
204	137	-35
234	237	-12
241	275	7
245	253	-55
252	197	-47
242	144	-51
182	108	-32
52	88	18
-125	50	4
-299	-26	-27
-397	-139	-78
-381	-256	-108
-262	-326	-69
-98	-312	-15
44	-206	-35
126	-49	-45
147	97	-36
140	183	-38
139	196	-13
156	158	-8
166	106	-15
140	81	-39
66	79	-30
-38	85	-7
-130	67	-9
-169	18	2
-136	-51	48
-59	-112	90
18	-134	54
56	-115	-34
42	-62	-66
-4	-9	-80
-47	29	-84
-52	51	-39
-12	66	-27
64	90	-12
139	121	-3
184	145	22
175	139	-10
111	93	-71
2	10	2
-127	-83	57
-237	-154	39
-296	-189	57
-281	-183	59
-206	-157	38
-97	-130	-54
2	-116	-139
64	-112	-76
85	-105	-114
91	-88	-160
116	-47	-81
175	7	-52
245	61	8
279	104	-14
225	120	-20
68	103	-27
-139	51	-79
-316	-27	-112
-383	-117	-127
-312	-190	-33
-149	-216	-15
19	-177	-12
107	-70	11
77	74	50
-40	215	33
-166	311	-11
-226	329	-2
-191	270	1
-89	157	15
24	17	1
101	-113	11
124	-207	29
124	-246	18
136	-226	-9
175	-145	-75
229	-33	-135
245	79	-110
194	143	-97
62	135	-62
-109	48	24
-260	-89	66
-339	-222	74
-325	-303	59
-235	-300	68
-109	-218	3
11	-90	-34
105	41	-52
172	135	-125
216	174	-102
248	156	-33
250	103	24
208	36	24
113	-15	16
-26	-36	22
-175	-25	-13
-284	16	-44
-321	66	-48
-270	109	-43
-151	130	-36
-4	132	-13
128	127	4
207	125	14
225	135	17
184	147	-12
118	147	-34
53	118	-22
13	62	-28
2	-7	-60
11	-68	-107
22	-99	-128
14	-96	-118
-21	-67	-24
-78	-36	37
-133	-22	19
-163	-30	95
-149	-52	58
-88	-65	-37
-5	-56	-97
68	-16	-71
105	41	-19
99	97	-81
60	125	-43
17	114	-77
-8	68	-68
-8	2	22
7	-60	-9
21	-103	15
24	-116	-20
22	-106	-60
37	-88	-12
89	-69	-4
176	-56	31
275	-43	18
336	-16	-15
314	31	-12
184	84	29
-26	118	72
-268	104	47
-465	23	-30
-562	-105	-134
-532	-241	-160
-394	-326	-122
-211	-328	-76
-31	-249	-26
97	-124	39
163	-15	105
175	38	130
152	27	96
115	-15	-12
71	-44	-101
25	-29	-186
-16	30	-236
-47	104	-151
-59	156	-60
-47	162	-15
-19	125	9
6	64	0
8	0	-8
-23	-57	-16
-82	-111	1
-143	-160	16
-182	-192	-9
-173	-186	0
-109	-122	32
-8	-8	20
100	131	14
178	249	22
199	313	34
158	312	8
64	264	-18
-48	203	23
-145	148	10
-193	102	-1
-180	48	24
-109	-24	-13
-5	-114	-75
104	-199	-128
192	-243	-96
245	-231	18
273	-162	34
285	-67	-15
301	22	-31
320	83	-124
329	110	-123
299	118	-50
204	120	-80
38	123	-63
-169	121	-60
-366	103	-38
-491	63	33
-503	6	-5
-405	-61	3
-239	-123	43
-67	-165	37
44	-181	83
78	-166	54
48	-126	-20
5	-68	-23
-10	-4	-112
22	48	-67
89	89	94
158	110	-55
200	125	-92
209	140	13
195	158	-20
172	170	-41
147	161	3
100	123	-39
21	57	-124
-93	-17	-74
-209	-77	36
-285	-107	70
-281	-103	56
-195	-82	16
-70	-56	-91
36	-43	-176
76	-38	-202
44	-32	-203
-18	-23	-183
-45	-13	-83
1	-27	15
110	-72	44
216	-154	51
245	-246	53
144	-314	43
-64	-334	47
-298	-298	76
-455	-225	90
-459	-134	87
-325	-53	58
-112	15	-2
81	76	-72
171	135	-88
139	188	-82
27	215	-102
-91	210	-80
-152	161	-46
-132	88	-49
-55	12	-42
31	-47	-27
83	-81	-19
82	-93	6
37	-85	-2
-24	-61	1
-75	-22	17
-97	28	1
-88	71	-4
-46	85	-4
17	54	2
94	-5	-2
169	-62	-5
225	-72	-4
248	-16	-10
239	89	-43
210	192	-71
175	236	-42
151	192	-7
126	77	-2
86	-49	31
10	-135	53
-101	-150	11
-225	-102	-18
-317	-34	-14
-339	16	-33
-274	37	-92
-142	45	-78
13	66	-20
149	113	-13
233	174	-48
260	215	-32
245	210	36
207	154	44
161	64	34
111	-21	26
66	-79	-22
25	-96	-100
2	-86	-147
2	-65	-168
27	-46	-197
66	-30	-153
102	-14	21
120	4	99
104	12	53
48	-1	40
-44	-40	61
-164	-98	135
-281	-160	99
-358	-201	-53
-369	-214	-150
-296	-196	-109
-170	-166	-122
-47	-127	-150
19	-92	-128
-5	-53	-97
-96	-9	-54
-188	38	-39
-202	85	16
-104	117	10
86	130	12
287	123	62
410	105	87
395	92	26
245	92	-28
33	106	-19
-159	128	-36
-262	139	-82
-260	125	-51
-172	78	38
-35	6	22
113	-72	1
248	-129	-42
344	-151	-82
374	-127	-41
314	-76	-36
151	-23	-35
-93	4	-72
-352	-12	-79
-538	-60	11
-585	-121	44
-484	-163	78
-277	-168	91
-52	-133	45
115	-75	15
182	-15	-48
147	33	-117
47	58	-159
-65	66	-110
-151	59	-35
-185	37	2
-166	6	28
-95	-29	14
10	-42	13
122	-9	5
211	83	1
251	221	-5
233	350	-20
169	405	-17
99	330	-28
61	122	-42
84	-168	-37
164	-434	-8
268	-580	-9
343	-552	-12
341	-376	-21
238	-135	-38
40	60	-44
-202	142	-52
-425	106	-30
-552	10	1
-542	-72	14
-397	-85	13
-172	-20	-36
59	77	-56
227	152	-38
292	170	-60
270	139	-13
204	90	19
140	60	24
98	62	29
65	81	-25
13	83	13
-79	51	43
-190	-8	29
-277	-65	-7
-288	-84	-111
-210	-49	-162
-65	25	-83
81	102	-25
172	147	13
184	140	98
131	97	102
60	47	-16
14	14	-204
9	8	-194
26	15	-133
35	14	-194
15	-13	-158
-30	-64	-39
-72	-118	104
-86	-150	87
-54	-136	-24
2	-84	-31
60	-3	-7
94	79	29
98	139	-21
81	174	-26
62	183	4
52	171	5
50	138	-1
46	93	-47
38	32	-21
28	-38	-3
24	-109	26
34	-171	57
50	-215	54
58	-240	-8
39	-238	-77
-7	-214	-59
-55	-168	-106
-75	-99	-108
-35	-20	-45
52	56	-14
144	113	52
175	138	90
103	132	28
-70	105	19
-285	75	-26
-443	54	-89
-469	45	-84
-329	40	-89
-71	29	-81
199	3	-79
373	-39	3
386	-89	29
226	-141	11
-43	-191	8
-329	-233	-26
-540	-254	-35
-623	-242	-13
-573	-189	22
-432	-97	49
-248	4	70
-71	82	15
68	103	-24
160	68	10
206	7	49
221	-40	34
209	-42	-11
183	-1	-38
148	56	-98
111	92	-80
86	83	-51
77	43	-79
89	10	-63
120	18	-63
158	72	-23
184	140	17
187	181	10
163	160	21
121	84	2
71	-14	-49
31	-85	-114
3	-103	-121
-14	-75	-136
-27	-31	-145
-38	-3	-52
-48	3	-19
-51	-1	-15
-40	12	-9
-21	49	-42
5	105	-24
31	150	16
49	160	47
59	131	50
64	82	43
66	35	31
65	4	22
53	-15	28
27	-35	5
-11	-71	-21
-55	-115	-13
-92	-147	33
-111	-144	71
-107	-103	48
-84	-35	-97
-51	29	-214
-19	66	-200
9	74	-158
31	61	-83
44	51	13
52	55	64
50	68	109
41	74	91
31	55	-13
33	15	-54
60	-36	-20
113	-75	-56
178	-85	-120
223	-60	-159
212	-4	-138
127	67	-51
-28	142	-11
-218	200	14
-392	221	22
-503	182	17
-518	81	-22
-438	-68	-20
-291	-231	-5
-125	-351	2
21	-390	21
117	-336	20
151	-216	7
128	-89	-1
69	-11	8
3	-16	-21
-35	-94	-52
-24	-210	-61
42	-304	-38
147	-331	2
251	-277	37
313	-151	68
299	8	107
206	157	103
68	258	41
-63	291	-36
-142	261	-130
-149	195	-195
-104	126	-179
-53	84	-56
-45	78	-43
-103	88	-50
-204	83	20
-305	39	41
-350	-42	48
-315	-129	-1
-206	-175	-45
-63	-143	-101
61	-36	-117
139	105	-39
164	218	5
155	253	-6
133	201	-11
117	92	-3
104	-16	0
86	-77	-2
60	-77	53
35	-37	124
22	3	74
26	17	-103
49	1	-215
79	-21	-157
95	-27	-67
92	-2	10
78	41	13
65	83	26
64	101	37
74	89	10
83	59	9
78	28	-43
49	5	-48
7	-14	-59
-36	-36	-27
-64	-67	15
-75	-104	6
-68	-125	-32
-56	-121	-122
-46	-87	-64
-33	-33	65
-18	21	91
4	60	-86
30	80	-261
50	88	-78
58	89	-53
47	87	-112
24	80	13
-4	61	70
-28	32	170
-42	3	143
-45	-13	33
-36	-12	-112
-12	1	-117
38	9	-53
117	-1	-81
222	-25	-82
326	-43	-82
397	-25	57
388	38	95
270	127	23
48	196	6
-245	188	13
-533	78	38
-727	-115	-54
-773	-326	-106
-654	-482	-66
-417	-527	-64
-150	-460	-100
50	-329	-136
126	-200	-110
72	-125	-68
-46	-105	-41
-148	-106	18
-157	-82	59
-51	-11	84
133	91	70
339	183	37
489	224	11
540	205	-12
476	150	-42
318	106	-64
86	103	-56
-181	132	-57
-443	162	-47
-639	145	-37
-708	66	-31
-619	-54	-7
-379	-163	9
-58	-206	3
244	-164	-5
436	-51	4
475	80	15
380	182	11
226	228	1
98	219	-17
49	175	-57
82	119	-76
151	57	-56
206	-13	-15
214	-87	-3
165	-153	-10
76	-183	-51
-23	-163	-57
-103	-95	-23
-141	-2	-31
-128	76	14
-68	108	17
23	90	14
107	48	11
151	14	35
131	13	70
61	47	5
-20	90	-36
-68	110	-58
-61	88	-63
-19	31	-45
16	-41	-70
-5	-98	-175
-92	-123	-168
-207	-118	-39
-285	-93	-19
-277	-66	-48
-176	-42	-69
-24	-16	13
106	19	119
167	66	74
151	116	77
97	157	-13
52	173	-171
46	161	-147
67	120	-64
78	58	-92
46	-9	-50
-22	-71	38
-91	-115	109
-111	-128	67
-58	-105	-27
44	-46	15
144	30	12
180	103	16
118	142	-56
-16	135	-59
-168	84	-33
-272	11	-81
-292	-64	-90
-232	-124	-139
-130	-170	-82
-32	-215	-22
33	-270	-16
61	-326	0
76	-362	28
97	-343	59
135	-246	47
188	-80	49
238	117	24
265	287	-1
260	382	-30
211	372	-63
119	275	-63
-11	122	-13
-166	-35	10
-313	-163	-38
-417	-233	-33
-447	-247	-28
-393	-214	0
-291	-157	30
-176	-94	30
-96	-41	34
-64	-8	-1
-72	10	-46
-84	24	-48
-63	50	-26
-4	94	-58
78	150	-156
151	202	-129
194	221	-25
205	193	-52
204	113	-35
207	1	-9
214	-114	-26
199	-199	1
136	-228	13
16	-199	-16
-130	-126	-43
-248	-43	-51
-282	22	-36
-217	52	-14
-84	48	-3
49	30	84
120	19	103
105	33	91
31	74	90
-39	125	5
-51	166	-95
11	178	-165
117	160	-132
212	117	-86
250	69	-69
216	29	-64
135	-1	-53
49	-23	38
-6	-44	78
-22	-61	97
-16	-70	46
-6	-61	-144
-2	-34	-226
2	3	-161
22	39	-88
59	55	9
104	52	-12
124	36	-53
103	24	97
31	30	142
-68	52	119
-163	85	96
-218	103	48
-223	93	74
-183	53	37
-129	-5	-35
-88	-63	-167
-71	-113	-128
-74	-151	-112
-72	-189	-165
-48	-236	-115
6	-288	-164
83	-319	-97
159	-297	-76
210	-203	-117
216	-43	-84
182	142	-96
113	294	-81
37	359	28
-28	321	63
-62	197	65
-68	35	108
-49	-107	95
-20	-196	112
4	-218	91
16	-188	98
16	-117	77
16	-21	28
38	85	-22
100	194	-75
202	275	-74
321	309	-115
405	265	-126
388	149	-89
225	-20	-44
-86	-192	-49
-473	-319	-36
-827	-362	-40
-1025	-320	-67
-1003	-222	-56
-768	-113	-24
-411	-43	32
-72	-36	24
135	-81	-13
171	-141	-31
82	-171	-21
-42	-137	-11
-110	-38	-14
-86	85	-24
9	182	-9
113	210	7
180	158	-8
201	61	-17
202	-25	-11
223	-52	13
277	-5	2
346	88	-12
389	183	-8
374	233	-11
310	218	6
216	161	29
129	91	-12
64	36	-67
22	2	-79
-12	-18	-60
-42	-37	-40
-57	-55	-45
-45	-63	-40
-2	-52	-44
46	-24	-6
64	0	43
24	3	36
-68	-28	-3
-172	-77	-25
-232	-115	-80
-217	-115	-142
-140	-65	-122
-46	14	-16
19	93	36
36	140	59
23	147	57
20	123	-61
55	92	-71
121	66	-54
183	47	-56
196	25	-43
140	-14	-82
38	-64	-45
-64	-118	2
-126	-154	39
-136	-158	52
-109	-131	49
-81	-86	133
-75	-32	81
-88	17	35
-98	58	14
-82	90	-84
-34	106	-282
27	109	-372
74	93	-164
90	61	-87
72	25	74
42	-4	173
23	-17	106
34	-14	36
82	-1	-63
156	11	-81
244	12	-176
318	1	-162
346	-20	-23
291	-41	37
134	-53	-17
-119	-51	-12
-410	-33	9
-654	-5	-32
-769	24	-44
-702	35	-9
-487	15	54
-209	-42	28
11	-127	19
103	-219	-3
56	-278	-5
-54	-273	-8
-139	-196	-33
-125	-75	-6
-10	51	-13
147	127	-11
258	127	-2
269	53	9
190	-51	10
78	-133	21
11	-149	12
33	-87	-23
134	21	-46
253	132	-54
318	203	-35
278	218	-4
143	197	19
-34	170	-2
-190	170	-21
-272	197	-48
-263	224	-60
-187	201	-61
-86	97	-61
0	-88	-37
46	-307	-13
52	-482	18
31	-549	17
-3	-473	-17
-34	-286	-54
-57	-68	-88
-70	97	-111
-68	149	-85
-46	95	-52
4	-16	-26
79	-103	5
170	-114	4
263	-38	17
344	83	-23
396	193	-37
410	252	20
380	251	34
296	215	43
159	179	10
-20	161	3
-210	157	16
-370	145	9
-453	115	-27
-446	64	-75
-355	14	86
-231	-25	172
-126	-47	-11
-82	-64	-194
-94	-97	-256
-130	-147	-80
-145	-198	-76
-108	-221	-155
-21	-189	-91
83	-100	-41
161	19	85
184	122	139
159	174	178
113	163	164
77	104	15
61	27	-297
62	-33	-356
53	-63	-88
19	-75	-36
-39	-79	-56
-103	-87	2
-142	-96	9
-139	-93	-53
-92	-61	-104
-13	-2	-6
79	69	131
167	135	72
234	171	-27
266	174	-32
250	153	-31
175	120	-9
54	88	59
-89	56	45
-209	19	-1
-263	-31	-23
-241	-95	-70
-157	-158	-81
-62	-194	-101
-10	-186	-69
-19	-128	-7
-75	-34	36
-125	63	18
-123	132	-30
-40	151	-56
110	121	-65
283	68	-54
428	22	-50
496	4	-4
466	9	26
332	14	32
115	-17	38
-149	-99	35
-402	-218	47
-584	-334	34
-639	-398	2
-545	-382	-32
-329	-283	-63
-72	-148	-81
127	-17	-69
207	70	-38
164	114	-21
52	135	-32
-48	158	-21
-78	187	-32
-28	201	-62
54	169	-77
109	75	-55
100	-65	-24
38	-203	-21
-34	-282	26
-69	-265	55
-59	-164	24
-35	-21	-39
-45	103	-43
-117	162	-16
-232	156	-7
-330	110	15
-344	71	39
-241	68	60
-43	101	-18
175	150	-103
334	186	-117
381	189	-76
318	156	-94
196	106	-125
83	55	46
25	15	113
34	-8	60
86	-22	-3
138	-28	-100
156	-33	-49
135	-31	-66
85	-22	-72
34	-7	-40
4	14	-7
8	31	45
39	44	68
80	46	104
107	34	-23
103	6	-167
63	-39	-115
-1	-87	15
-66	-125	70
-108	-145	13
-108	-142	-67
-72	-121	-28
-24	-89	-42
11	-57	-115
14	-30	-45
-18	-7	-99
-67	12	-193
-102	26	-97
-104	33	-28
-62	27	-6
9	12	61
95	-2	68
169	-5	15
209	12	-69
202	43	8
143	78	32
42	101	-50
-72	108	-39
-162	114	-26
-188	129	9
-134	162	-74
-20	193	-69
96	189	-2
151	115	16
104	-39	24
-41	-244	13
-229	-441	15
-388	-551	3
-459	-540	16
-431	-409	7
-335	-209	-15
-224	-16	-54
-136	113	-63
-82	154	-70
-39	123	-56
11	64	-27
83	22	-24
163	21	11
229	64	62
266	137	82
273	212	13
256	260	-31
221	252	-65
163	174	-72
77	33	-26
-36	-142	-30
-156	-294	-50
-249	-371	-58
-280	-338	-67
-242	-215	-82
-151	-57	-65
-46	66	-27
32	110	-18
63	85	-7
53	38	11
29	30	30
10	90	34
11	190	6
25	264	-7
49	253	-39
75	147	-67
102	-14	-37
128	-151	-13
140	-200	14
133	-153	40
95	-58	-6
36	9	-93
-20	7	-42
-42	-56	66
-18	-126	36
37	-141	1
90	-69	-25
103	63	-128
64	196	-177
-7	267	-112
-70	250	-149
-87	166	-95
-47	58	-13
22	-27	-18
77	-78	-1
83	-105	-1
35	-124	53
-39	-144	46
-98	-152	34
-111	-129	22
-81	-69	24
-29	12	-1
14	83	-63
30	119	-128
28	110	-77
29	81	56
54	52	68
102	49	91
154	68	134
180	83	137
156	76	-1
78	36	-121
-34	-16	-145
-145	-58	-150
-218	-69	-124
-217	-44	-66
-130	-4	-44
26	32	-75
214	48	-75
369	46	-105
419	39	-40
317	41	13
71	61	10
-251	88	-19
-540	109	-21
-695	106	13
-659	67	32
-452	-11	49
-163	-124	0
100	-249	-32
245	-358	-58
255	-416	-39
165	-393	13
44	-301	53
-46	-157	63
-82	-11	34
-69	93	15
-43	131	-42
-20	116	-43
-15	77	-39
-15	47	-62
-15	35	-53
-12	26	-25
-8	-3	-10
-4	-64	-48
8	-133	-23
35	-174	-12
79	-145	-119
118	-52	-165
131	69	-74
92	164	-11
-1	191	-9
-121	156	14
-222	102	-19
-259	81	-19
-213	114	-9
-97	174	-4
50	204	5
190	152	-1
280	17	20
310	-149	33
275	-264	30
189	-282	-11
68	-200	-25
-63	-72	-54
-174	25	-80
-237	49	-75
-229	10	-58
-153	-37	-37
-38	-31	-40
74	45	-26
144	164	-13
159	257	16
128	273	26
81	196	19
43	64	23
32	-66	1
34	-149	-26
39	-161	-40
31	-127	-42
9	-80	-43
-20	-45	-21
-42	-26	6
-50	-18	17
-43	-5	11
-23	16	-25
6	39	-45
41	60	-76
80	70	-78
111	76	-20
123	75	-22
103	65	32
54	41	59
-10	0	-28
-64	-53	-103
-95	-103	-168
-95	-127	-111
-71	-116	-26
-47	-76	34
-23	-21	64
5	26	36
57	57	-51
138	74	-135
241	95	-58
332	127	-8
363	162	-61
310	178	-80
170	150	-14
-20	64	-25
-210	-62	26
-353	-196	168
-431	-292	228
-448	-326	248
-433	-291	211
-410	-218	45
-388	-139	-384
-365	-83	-538
-325	-49	-263
-260	-20	-130
-166	28	-34
-51	118	18
72	243	-23
190	372	3
279	468	5
321	483	1
302	406	-26
231	237	-48
132	12	-51
51	-223	-18
25	-417	17
59	-541	11
126	-575	22
172	-532	29
152	-433	36
52	-308	10
-93	-183	-19
-221	-81	0
-262	-2	3
-203	55	-8
-63	104	-3
98	153	-9
228	211	11
292	265	21
288	305	-2
242	310	4
172	268	10
93	188	-12
-2	83	-20
-109	-14	-18
-217	-86	-27
-303	-116	-54
-331	-119	-48
-292	-108	-12
-197	-97	-21
-75	-93	-33
38	-85	-44
115	-66	-44
147	-28	-35
139	20	-45
109	61	-53
69	78	-45
29	58	-34
-4	15	-60
-28	-33	-42
-35	-63	34
-28	-64	46
-6	-38	-10
18	3	-11
39	43	-36
52	77	-169
56	98	-147
58	112	35
61	122	6
63	126	-40
59	119	13
45	96	0
20	56	14
-11	8	26
-40	-37	32
-61	-74	-4
-70	-96	-7
-70	-105	-18
-65	-103	-70
-56	-90	-66
-46	-68	-57
-30	-35	-55
-10	5	-23
13	43	28
32	75	12
42	90	-32
42	90	-84
34	75	-120
22	51	-147
9	21	-60
-1	-12	56
-16	-46	98
-26	-78	141
-30	-98	58
-17	-102	1
15	-81	28
64	-37	64
115	20	29
145	82	-99
139	137	-193
89	180	-235
17	204	-150
-48	209	-14
-68	188	-8
-30	137	-11
51	52	-1
132	-58	20
163	-174	14
105	-268	-15
-36	-314	-2
-206	-302	-2
-330	-249	-9
-344	-183	-23
-237	-143	-28
-59	-143	-41
99	-173	-67
144	-192	-62
41	-164	-11
-175	-74	2
-407	60	-7
-547	183	-4
-535	239	12
-387	190	9
-179	56	-42
-18	-104	-50
33	-222	17
-15	-239	53
-100	-163	1
-133	-38	-12
-67	61	9
90	91	-19
279	45	-77
417	-25	-129
461	-56	-175
411	-12	-171
316	104	-10
232	233	43
190	305	38
188	279	89
194	177	58
172	51	33
119	-24	-12
46	-15	-63
-9	59	-145
-22	138	-72
6	164	51
54	108	79
92	5	74
94	-89	-49
59	-114	-61
9	-66	-129
-32	20	-166
-48	83	-27
-33	79	-16
-3	10	109
20	-86	102
26	-152	68
8	-155	58
-28	-101	-111
-71	-31	-111
-121	9	-35
-177	4	34
-234	-37	87
-279	-74	50
-300	-76	-139
-277	-33	-179
-209	31	-149
-113	82	-155
-17	94	-76
43	61	-15
49	7	11
12	-44	-13
-36	-74	-2
-53	-77	-31
-13	-64	-20
81	-52	14
194	-48	49
277	-47	45
289	-43	-2
225	-28	-50
113	5	-92
7	48	-22
-46	98	39
-31	142	60
28	171	69
83	182	48
81	163	9
3	114	-20
-124	41	-112
-248	-42	-164
-316	-123	-143
-300	-181	-99
-218	-214	-38
-115	-224	-30
-37	-210	-12
1	-177	-16
21	-115	9
61	-16	32
148	116	22
268	261	12
373	379	-1
399	418	22
313	345	20
130	171	7
-81	-63	-14
-245	-288	-52
-307	-434	-68
-263	-460	-54
-169	-389	-25
-84	-261	-21
-59	-143	-58
-97	-79	-118
-157	-72	-101
-186	-96	-44
-145	-105	23
-40	-67	77
91	16	91
194	123	87
229	208	46
191	243	-40
107	215	-90
27	153	-96
-18	79	-35
-7	19	101
42	-7	20
100	-7	-63
127	7	-98
106	21	-169
38	24	-122
-53	14	-3
-136	-8	26
-178	-36	-21
-170	-56	-9
-125	-54	-56
-71	-19	1
-35	51	60
-26	138	53
-35	211	71
-35	236	-48
-5	188	-160
56	78	-113
124	-63	-35
163	-186	-19
145	-246	4
70	-231	26
-28	-152	68
-107	-49	42
-126	34	-80
-83	77	-97
-3	80	-64
71	64	-35
105	51	-58
97	54	-88
60	68	-71
30	80	-45
26	74	-5
46	49	-23
74	17	-17
80	-13	22
52	-29	-13
-4	-34	-58
-72	-36	-46
-126	-40	-21
-145	-48	-23
-122	-49	16
-59	-35	71
29	2	56
123	51	10
200	106	-7
236	153	-5
226	183	-15
178	200	-42
116	195	-25
65	162	-16
33	92	-50
7	-19	-58
-46	-156	-61
-151	-292	-59
-307	-391	-48
-465	-426	-42
-569	-389	-23
-563	-292	37
-434	-165	78
-223	-32	53
3	82	18
175	163	-14
269	192	-31
306	154	-62
332	37	-83
371	-135	-82
409	-316	-86
397	-436	-72
275	-437	-57
32	-313	-28
-281	-108	-12
-561	90	-14
-700	204	-7
-653	202	-13
-439	117	-10
-148	26	-45
113	-6	-55
262	47	20
290	152	14
231	240	-13
148	259	-56
77	203	-75
37	107	-17
16	24	-24
2	-8	-11
-6	3	13
4	25	51
38	29	79
93	7	100
143	-19	125
169	-17	41
164	28	-94
141	102	-157
128	171	-96
134	202	-66
144	182	-114
129	127	-47
58	65	28
-65	21	83
-206	-5	36
-304	-26	-115
-319	-56	-149
-253	-101	-200
-141	-142	-160
-44	-163	-16
3	-152	18
0	-108	-34
-20	-49	15
-12	11	152
39	56	117
121	90	77
189	112	-3
211	122	-29
172	114	-45
99	78	-265
24	15	-132
-21	-63	-17
-33	-131	-88
-29	-170	-4
-29	-164	-6
-42	-119	-10
-58	-55	-24
-61	6	-105
-41	43	-78
2	53	22
62	42	43
138	26	59
237	22	49
363	43	-15
498	90	-19
592	153	14
566	209	12
363	233	27
-15	201	4
-481	110	8
-889	-29	29
-1093	-187	23
-1019	-328	59
-699	-417	21
-273	-436	-38
89	-391	-91
269	-309	-142
253	-223	-120
117	-157	-64
-24	-120	-66
-86	-99	-57
-53	-72	-26
13	-23	-4
46	42	11
5	98	15
-94	109	17
-194	57	-9
-236	-42	-35
-193	-149	-63
-87	-200	-50
39	-158	-36
141	-25	-7
203	157	-36
228	321	-62
232	412	25
226	409	53
210	335	37
181	233	-14
141	137	-72
102	67	-89
72	18	-74
59	-21	-13
54	-57	9
44	-81	9
20	-76	14
-12	-39	-5
-32	16	-31
-22	65	-55
27	86	-75
102	70	-64
165	34	-39
184	-2	-11
143	-21	9
52	-15	1
-55	3	-48
-139	23	-58
-169	33	-45
-142	31	-47
-79	19	-43
-4	-8	-62
54	-47	-19
81	-97	16
74	-138	17
37	-152	26
-23	-113	38
-95	-20	-10
-159	103	-9
-191	214	24
-169	273	-21
-93	260	-4
14	181	-15
105	65	-78
131	-53	-117
67	-159	-64
-63	-238	-7
-206	-294	-8
-288	-319	24
-269	-311	65
-150	-259	12
17	-181	-82
165	-101	-69
234	-46	-34
211	-29	-12
128	-33	-24
37	-22	-13
-13	37	44
-10	149	85
26	274	82
58	350	69
46	324	101
-28	187	7
-150	-19	-77
-279	-216	-142
-366	-336	-272
-371	-351	-232
-277	-278	-175
-107	-174	-142
87	-83	-34
248	-25	-46
322	10	-102
299	50	-55
201	110	-56
85	182	40
1	238	72
-20	255	38
16	224	72
75	157	43
123	82	11
139	18	-58
132	-30	-25
111	-69	-54
89	-107	-71
53	-137	22
-4	-143	24
-95	-108	77
-199	-31	70
-283	71	47
-311	162	50
-259	210	-67
-144	205	-180
-13	156	-105
88	90	-40
130	28	-26
115	-17	33
74	-55	-2
31	-98	36
5	-155	8
-7	-214	-22
-17	-252	-34
-20	-249	-39
-2	-195	-3
59	-102	-10
169	4	-3
299	95	-41
397	150	-30
404	171	-32
290	168	-33
82	150	-36
-148	127	-31
-310	101	6
-339	67	0
-231	29	28
-40	-2	15
133	-19	-9
203	-12	31
126	14	14
-68	44	-67
-297	60	-26
-465	45	-55
-503	5	-85
-400	-48	-20
-209	-89	39
-10	-100	113
122	-77	94
167	-31	51
149	10	-72
118	22	-232
117	-21	-224
148	-118	-134
170	-253	-153
132	-387	-167
12	-475	-56
-164	-481	-1
-325	-387	-68
-400	-216	-4
-340	-18	63
-174	148	55
26	239	118
179	249	144
234	203	179
199	154	108
128	131	-37
81	149	-205
91	179	-307
151	190	-182
226	161	-62
279	94	40
292	25	80
267	-16	26
210	-8	-12
119	33	-40
-5	80	-81
-162	101	-134
-319	85	-116
-428	48	-55
-448	8	-7
-362	-9	24
-210	-6	29
-60	7	14
21	13	-48
14	-2	-96
-53	-30	-26
-110	-64	-6
-105	-89	-24
-25	-100	16
93	-93	7
188	-76	17
214	-43	87
175	6	129
111	67	102
68	135	40
75	192	-11
118	221	-56
166	213	-98
186	170	-89
166	109	-35
121	38	-32
67	-26	4
15	-86	20
-41	-140	-47
-111	-192	-96
-193	-242	-95
-262	-274	-67
-288	-283	-74
-253	-264	-52
-166	-225	-19
-57	-168	16
28	-103	6
78	-38	-51
93	25	-26
103	81	29
130	123	22
182	143	18
232	129	26
250	81	20
207	9	-1
106	-59	-40
-33	-104	-65
-170	-107	-90
-277	-77	-86
-333	-34	-20
-336	-3	32
-290	-1	35
-203	-17	34
-92	-33	-45
28	-18	-84
129	39	-26
193	125	-31
205	206	-34
169	244	-26
104	227	17
31	154	83
-28	59	52
-64	-18	11
-79	-61	-12
-69	-64	-100
-36	-51	-222
30	-35	-192
128	-29	-45
244	-21	8
330	0	74
339	41	55
238	96	15
41	138	44
-195	150	-67
-388	118	-88
-463	52	-12
-399	-27	21
-234	-94	39
-53	-136	-36
57	-159	-88
64	-171	-169
-9	-185	-211
-95	-200	-145
-126	-207	-144
-71	-189	-24
46	-135	70
179	-52	54
275	46	107
320	131	119
318	186	78
285	197	0
222	169	-76
112	119	-106
-50	62	-88
-245	17	-101
-408	-18	-49
-473	-37	52
-402	-46	82
-217	-45	82
-1	-29	85
151	7	84
184	64	18
122	132	-50
39	200	-61
22	244	-46
105	253	-44
250	222	-23
366	158	-27
365	74	-59
215	-16	-57
-40	-103	-30
-312	-183	-41
-507	-250	-117
-572	-298	-114
-511	-322	-61
-357	-326	-15
-158	-309	41
50	-275	43
251	-230	42
421	-168	22
534	-83	3
558	17	11
470	114	3
283	177	-30
42	180	-36
-186	123	-44
-345	34	-82
-406	-47	-56
-386	-96	-47
-321	-107	-40
-262	-113	-58
-228	-141	-66
-209	-192	-44
-179	-230	-17
-105	-191	48
16	-49	46
169	171	14
314	392	-40
413	507	-59
432	477	5
366	316	55
229	114	84
52	-27	96
-120	-58	130
-251	-11	44
-304	38	-265
-267	18	-372
-158	-80	-315
-14	-197	-289
114	-254	-157
188	-196	-6
192	-51	120
138	104	202
50	185	161
-38	160	-17
-106	68	-61
-145	-11	-23
-155	-18	9
-136	44	77
-97	117	79
-43	130	54
4	49	-10
24	-92	-47
8	-216	-128
-39	-254	-166
-86	-190	-153
-102	-69	-39
-67	35	34
11	72	-1
96	45	21
151	-4	-6
145	-17	18
94	23	-30
29	95	-59
-10	148	-4
-2	144	10
44	90	13
107	19	37
151	-16	43
162	3	20
140	58	54
106	106	46
70	109	16
42	61	-3
15	-9	-59
-14	-57	-96
-43	-58	-141
-65	-17	-119
-68	38	-51
-48	68	-32
-6	60	12
44	17	35
92	-37	41
123	-83	39
126	-114	-7
93	-135	-32
19	-155	-50
-86	-171	-86
-203	-177	-105
-288	-158	-58
-311	-118	-22
-253	-66	-17
-139	-24	23
-19	-12	22
51	-27	-19
39	-61	-84
-43	-91	-63
-149	-92	39
-206	-59	40
-178	0	35
-63	68	-34
93	121	-120
241	132	-66
346	93	-30
396	3	-13
396	-117	36
340	-229	-7
215	-289	-46
7	-264	-36
-274	-156	-115
-569	13	-108
-783	183	-63
-827	298	-32
-668	320	19
-357	252	60
-15	140	15
242	37	-100
346	-13	-61
320	-2	-41
229	43	37
155	81	64
131	78	-3
130	30	0
109	-38	-67
41	-85	-38
-47	-85	-48
-99	-37	1
-64	37	76
55	103	56
198	134	-17
288	126	-35
276	92	55
175	47	-54
48	4	-70
-37	-34	-16
-53	-74	-32
-21	-112	-2
8	-143	-63
-2	-153	-105
-43	-130	-132
-76	-79	-87
-52	-5	-1
33	65	38
144	118	37
222	147	21
221	160	-30
138	171	-121
21	187	-63
-75	206	-20
-116	211	-56
-104	187	-8
-72	114	23
-58	4	-9
-79	-129	-5
-116	-252	17
-152	-341	-9
-163	-380	13
-145	-368	-11
-109	-320	-55
-60	-250	-53
2	-174	-30
86	-99	3
196	-29	7
314	31	-4
404	79	-24
423	104	19
341	106	65
155	94	91
-92	79	108
-344	76	61
-533	85	-101
-610	100	-223
-555	93	-215
-392	41	-268
-177	-60	-154
27	-189	1
159	-292	-17
196	-326	38
149	-256	-56
63	-102	-105
-9	80	-41
-29	215	-42
4	257	-3
59	196	18
101	74	61
101	-42	78
65	-104	44
15	-90	55
-22	-28	63
-35	40	7
-37	81	-63
-50	87	-69
-87	79	-85
-133	76	-60
-159	92	-24
-123	115	-22
-13	123	-1
162	106	-3
352	74	8
505	45	14
575	40	1
544	59	-28
417	85	-21
216	84	1
-16	48	-2
-249	-14	9
-442	-67	62
-565	-85	68
-611	-55	-38
-572	2	-110
-473	51	-24
-336	63	-27
-194	28	-147
-71	-34	-202
19	-94	-172
72	-127	-61
91	-129	3
81	-112	24
47	-92	-3
7	-87	9
-25	-97	50
-26	-117	6
14	-138	-28
91	-153	-62
192	-157	-78
288	-137	-2
358	-93	60
385	-19	26
360	74	5
296	161	14
203	215	52
100	225	53
0	187	38
-82	120	44
-127	60	-16
-127	25	-79
-77	13	-87
8	11	-92
98	-5	-162
154	-42	-85
144	-92	-30
61	-121	-34
-72	-105	32
-206	-33	35
-281	72	19
-256	171	-9
-136	227	-15
29	212	-38
171	142	-25
223	47	-9
160	-36	-4
6	-89	4
-176	-121	-52
-313	-151	-78
-360	-198	-46
-312	-254	-12
-205	-289	-21
-90	-265	-17
-8	-168	-11
22	-16	-21
9	143	-8
-23	255	-15
-54	287	-35
-66	247	61
-52	171	122
-3	100	70
79	49	-49
183	7	-276
279	-62	-307
324	-174	-218
277	-311	-153
125	-421	-47
-95	-438	-4
-319	-339	80
-458	-144	103
-458	68	108
-318	219	67
-109	257	-7
79	187	-14
175	74	-18
169	-14	-22
93	-30	-60
22	16	-15
11	77	10
65	103	-12
148	67	-23
204	-5	-53
198	-70	-28
136	-85	-3
56	-38	-3
4	43	20
-5	122	-13
15	158	-46
36	150	-31
30	109	-51
-1	65	-12
-41	31	18
-62	9	7
-56	-9	-42
-28	-28	-44
14	-42	27
59	-43	-26
114	-27	-35
172	-2	-17
228	16	-89
237	16	-68
171	0	40
24	-14	85
-162	-8	10
-319	28	-99
-370	79	-127
-285	122	-63
-100	135	-49
99	109	-43
221	60	-6
211	7	19
86	-37	24
-86	-68	32
-232	-95	49
-300	-125	53
-285	-155	48
-218	-171	107
-138	-159	169
-75	-111	83
-24	-41	-37
23	33	-256
74	93	-306
124	128	-229
169	150	-280
194	165	-130
199	183	-70
193	202	-23
177	201	60
154	168	40
119	98	54
77	0	52
37	-107	97
12	-201	79
4	-268	85
-2	-298	34
-26	-287	-32
-85	-240	-34
-167	-158	-25
-236	-58	-44
-232	34	-108
-129	89	-109
60	86	-74
272	22	3
411	-82	39
399	-179	37
204	-229	28
-117	-203	32
-463	-116	22
-708	-9	-5
-773	70	-12
-639	88	-51
-366	45	-114
-58	-26	-182
187	-79	-190
302	-89	-147
295	-57	-62
205	-10	12
105	22	53
41	25	84
24	7	43
30	-4	-53
28	10	-106
-1	45	-90
-49	84	-106
-87	93	-66
-80	63	-22
-23	7	-4
64	-37	57
142	-40	74
178	6	74
163	85	64
118	157	50
78	198	23
68	195	0
92	166	-28
124	131	-53
140	105	-51
115	88	-65
58	63	-42
-6	23	-28
-50	-33	-50
-63	-87	-11
-47	-116	-45
-16	-114	-100
10	-83	26
24	-43	78
28	-8	-21
29	11	-113
28	23	-70
22	39	39
12	65	44
0	101	47
-4	131	21
16	139	24
57	117	2
107	63	-62
139	-9	-86
128	-84	-69
64	-131	-34
-40	-142	-53
-152	-104	-45
-243	-28	-47
-287	64	-50
-282	136	-33
-241	154	-32
-174	106	-45
-98	6	-59
-24	-108	-48
34	-194	-24
64	-218	45
55	-179	87
6	-105	39
-65	-38	37
-132	-13	14
-161	-39	-85
-139	-99	-69
-72	-158	-33
6	-189	-10
69	-182	9
100	-142	-12
107	-92	-30
121	-44	-70
171	-7	-143
263	24	-139
373	54	-56
446	82	-36
419	101	7
268	94	68
9	56	103
-296	-3	89
-547	-68	39
-668	-114	1
-626	-127	-76
-452	-108	-122
-227	-71	-76
-34	-37	-66
67	-17	-81
78	-1	3
37	23	2
12	71	-4
47	138	19
142	205	-1
258	244	7
341	233	37
354	181	34
292	108	-100
183	41	-116
68	4	-50
-23	-13	-111
-84	-21	-150
-120	-42	-46
-143	-72	22
-153	-94	-34
-141	-82	-126
-98	-23	-180
-30	62	-106
40	134	-56
89	154	-4
99	106	39
72	15	61
29	-78	112
-7	-127	124
-22	-123	80
-21	-81	-28
-13	-40	23
-12	-31	38
-12	-56	-20
-4	-92	1
29	-99	1
86	-61	48
150	15	5
188	98	6
172	150	2
94	156	-102
-29	126	-23
-159	84	-21
-250	48	-58
-273	26	-99
-231	2	-65
-145	-34	11
-52	-82	-85
15	-124	-67
53	-128	-16
70	-82	34
89	16	-3
120	136	-56
166	237	-18
212	291	-11
242	284	-108
241	228	-103
207	134	16
143	21	16
51	-107	5
-74	-248	-38
-232	-389	-104
-407	-501	-124
-564	-551	-51
-647	-512	34
-623	-390	87
-477	-210	106
-244	-24	55
10	131	1
222	233	-55
355	291	-84
409	323	-70
411	333	-24
385	313	-1
338	240	-2
260	110	-12
147	-55	-24
3	-205	-37
-134	-288	-40
-234	-280	-10
-277	-209	6
-274	-133	0
-252	-104	-24
-237	-142	-64
-234	-204	-86
-224	-230	-56
-185	-170	-32
-112	-28	-39
-21	139	-44
60	261	-65
120	284	-75
165	225	-8
216	136	41
285	85	48
355	99	70
386	147	63
340	173	47
215	126	13
51	8	-11
-88	-134	-51
-155	-222	-135
-138	-210	-160
-79	-106	-113
-23	38	-34
-8	150	-17
-25	190	48
-38	161	76
-17	105	23
42	65	16
111	62	39
144	83	-13
116	92	-68
39	66	66
-44	6	87
-92	-62	-63
-85	-111	-302
-38	-121	-306
16	-97	-113
51	-63	-33
62	-37	59
60	-24	98
62	-9	112
66	21	-3
64	69	-70
39	125	-16
-12	164	-17
-76	164	15
-130	118	-30
-161	41	-76
-169	-40	-25
-168	-110	-5
-172	-150	-22
-176	-165	-40
-167	-158	-46
-125	-138	-29
-49	-108	-28
42	-63	-23
125	-12	-17
175	48	17
190	106	78
172	153	72
144	183	81
106	199	31
57	201	-64
0	182	-132
-56	131	-125
-85	34	-50
-66	-116	-16
-1	-305	-31
82	-486	-49
126	-604	-52
83	-612	-72
-62	-492	-65
-262	-281	-56
-443	-43	-35
-509	150	16
-421	252	2
-199	261	-81
71	211	-95
277	148	-56
334	89	-33
222	38	19
-3	-23	30
-237	-105	7
-381	-192	12
-382	-248	40
-252	-238	48
-60	-157	26
107	-32	19
206	89	1
226	166	-2
205	195	3
184	194	16
188	200	18
204	226	-23
206	257	-71
169	262	-94
93	215	-86
12	121	-79
-41	11	-38
-44	-72	-56
-5	-102	-96
42	-84	-56
64	-47	-41
44	-29	-39
-3	-36	-12
-47	-58	9
-51	-62	31
-4	-34	65
85	28	62
178	96	78
236	138	78
229	139	75
155	105	3
37	59	-156
-84	23	-241
-170	6	-236
-193	-3	-132
-156	-21	42
-84	-53	188
-14	-94	225
18	-121	133
7	-119	19
-33	-81	-49
-74	-21	-203
-85	35	-387
-60	65	-247
-15	60	-180
24	30	-176
37	-9	35
20	-41	22
-12	-57	47
-34	-64	129
-32	-68	117
-10	-75	4
14	-79	-59
23	-66	-26
8	-30	3
-19	33	42
-34	115	32
-18	197	38
30	256	32
86	271	-24
120	233	-80
110	143	-64
59	11	-62
-7	-141	-82
-50	-282	-51
-39	-391	0
35	-439	-2
151	-418	10
258	-333	21
309	-200	-12
262	-50	1
107	91	-3
-130	197	9
-392	254	10
-603	256	5
-702	211	-28
-668	141	-79
-516	67	-88
-308	14	-85
-117	-15	-48
1	-24	-10
32	-35	30
13	-66	19
-2	-123	-3
27	-189	-23
101	-231	-41
180	-218	-14
208	-140	-13
154	-22	-36
37	94	-54
-82	162	-61
-132	154	-51
-82	78	-4
50	-31	38
199	-124	56
291	-171	40
290	-158	0
210	-101	-35
109	-30	-89
44	29	-111
38	59	-83
74	59	-30
103	38	11
90	11	15
30	-9	-7
-47	-11	-33
-102	12	-31
-103	52	-19
-52	102	-21
21	143	-34
87	170	-34
121	174	-7
127	165	3
111	147	-31
93	123	-49
70	97	-34
46	60	8
17	15	53
-10	-32	104
-24	-71	90
-18	-88	48
8	-74	103
40	-33	93
66	20	-84
72	68	-276
61	103	-211
42	111	-141
25	102	-107
17	77	10
21	45	-42
38	11	-81
61	-25	-101
87	-61	-102
98	-93	-6
74	-115	31
-6	-124	31
-141	-117	-11
-304	-94	-47
-439	-55	0
-485	-6	82
-405	49	79
-203	110	-32
58	166	-56
295	208	-111
423	219	-107
406	186	-3
256	98	-60
27	-43	-29
-211	-215	-17
-394	-384	-8
-494	-503	36
-507	-541	44
-455	-492	74
-363	-370	24
-253	-214	36
-136	-64	-32
-23	43	-227
79	110	-190
162	147	-16
216	169	-8
245	188	17
258	193	24
262	174	-11
275	120	-6
300	38	-24
318	-46	-5
309	-108	-14
245	-126	-20
113	-106	-13
-71	-61	-11
-262	-18	-23
-404	13	-38
-435	28	-39
-345	39	-32
-168	60	-20
35	91	-17
197	126	4
280	154	1
285	166	4
245	158	21
195	130	20
149	93	-2
98	42	-24
23	-8	-52
-80	-56	-76
-191	-94	-30
-272	-114	20
-285	-115	10
-221	-98	-18
-108	-68	-25
-1	-29	-36
59	16	-53
59	66	-65
15	114	-53
-36	148	-38
-63	153	-14
-55	121	37
-20	62	52
27	-9	49
81	-63	-5
140	-84	-87
214	-66	-101
291	-29	-61
346	5	25
355	21	32
285	10	9
139	-11	105
-53	-27	120
-243	-28	-72
-374	-11	-242
-412	12	-208
-351	29	-121
-228	27	-90
-95	9	-48
0	-24	56
28	-63	102
1	-98	80
-46	-120	17
-63	-116	-106
-19	-82	-188
89	-16	-175
216	75	-32
309	174	104
313	260	99
211	312	69
33	313	-55
-160	252	-93
-299	126	-23
-336	-51	-7
-267	-251	66
-122	-426	69
42	-531	-2
175	-536	-57
234	-448	-70
204	-309	-105
102	-182	-72
-32	-113	-120
-161	-104	-276
-243	-121	-147
-262	-111	-2
-228	-38	-10
-162	80	36
-99	196	87
-56	249	130
-33	218	107
0	131	53
66	56	8
175	41	-40
314	100	-65
422	183	-105
446	223	-148
346	174	-131
139	56	26
-124	-76	22
-366	-145	49
-506	-118	101
-506	-12	22
-377	112	21
-178	192	-37
11	198	-22
123	149	-35
141	84	-33
82	38	-18
1	16	-14
-48	1	-3
-33	-29	-11
42	-77	18
139	-117	-31
219	-125	-74
250	-92	-77
234	-31	-78
193	21	-83
160	43	-43
152	36	-17
167	25	1
175	36	32
153	79	16
75	133	-2
-51	161	-13
-197	134	11
-325	51	-10
-392	-52	-28
-392	-140	-7
-325	-181	-15
-227	-173	-21
-125	-135	-20
-48	-98	-13
-6	-78	-9
9	-71	3
17	-65	-18
36	-47	-40
79	-13	-18
143	29	5
216	68	-30
282	101	-90
322	129	-88
319	155	-46
266	179	-49
169	197	-56
32	202	4
-117	189	-5
-253	155	-31
-347	100	-55
-375	19	-47
-336	-100	16
-245	-251	24
-131	-416	19
-23	-538	-55
60	-567	-117
112	-464	-85
133	-241	9
132	35	22
111	268	33
75	366	79
25	301	38
-26	110	-19
-68	-111	-173
-88	-265	-127
-79	-298	-23
-50	-215	-60
-18	-85	6
-1	26	2
-7	70	9
-28	56	8
-42	26	-2
-24	22	-31
39	58	-89
139	114	-93
237	150	-76
286	141	-18
245	93	42
101	38	85
-112	11	75
-319	31	65
-431	78	-13
-389	112	-108
-191	97	-96
91	27	-62
357	-70	-22
503	-152	42
478	-171	27
302	-122	-64
63	-21	-149
-138	85	-101
-229	160	-101
-206	183	-177
-118	163	-80
-32	122	15
-2	81	47
-35	51	49
-101	27	62
-158	-4	56
-183	-46	-14
-182	-100	-74
-174	-142	0
-172	-160	47
-167	-135	39
-136	-72	78
-55	14	68
67	103	57
203	169	8
302	193	-30
329	168	-114
268	104	-185
150	23	-80
21	-47	36
-76	-84	30
-117	-84	24
-115	-59	-1
-93	-41	-62
-77	-48	-112
-80	-86	-100
-95	-128	-48
-109	-144	-29
-103	-111	-15
-69	-31	-43
-10	55	-90
58	106	-63
118	92	-17
150	24	-50
144	-53	9
109	-96	47
56	-72	12
9	-14	10
-21	32	-3
-28	12	0
-20	-81	-25
-8	-210	-26
0	-301	-45
1	-292	-65
4	-176	-44
12	5	14
33	170	74
60	259	69
89	258	70
107	201	62
117	150	20
116	142	-98
107	175	-102
91	208	-74
65	185	-93
26	85	-23
-26	-68	-47
-84	-216	16
-139	-303	47
-183	-300	-20
-208	-222	-76
-212	-122	-144
-195	-48	-164
-159	-25	-111
-104	-40	-16
-33	-62	-50
46	-59	-72
127	-23	-76
194	29	-59
229	70	-34
228	81	-32
188	62	51
123	34	77
55	23	91
0	39	64
-37	76	10
-68	110	2
-110	120	-72
-177	97	-130
-263	51	-92
-345	8	8
-383	-13	59
-350	-9	74
-248	7	70
-102	13	54
42	-6	-1
151	-52	-95
207	-102	-127
219	-129	-92
207	-110	-35
174	-45	-15
115	47	13
21	137	-18
-97	195	-84
-205	210	-52
-240	189	-17
-173	148	-14
-16	103	75
166	61	135
283	17	117
278	-43	112
145	-124	24
-42	-216	-46
-190	-304	-93
-226	-354	-205
-145	-351	-213
-8	-291	-99
110	-193	-62
155	-87	3
130	0	-7
81	52	-59
65	79	-108
109	97	-103
195	127	5
280	177	-48
324	236	-28
306	274	3
230	268	35
116	205	52
-22	96	1
-169	-26	38
-310	-131	25
-415	-192	5
-452	-208	-27
-401	-191	-23
-276	-160	5
-128	-129	20
-16	-98	4
23	-56	-17
-6	7	-32
-51	81	-70
-51	149	-70
34	183	-68
194	168	-67
363	106	-83
470	27	-54
462	-37	-3
324	-65	8
97	-55	3
-151	-25	-29
-355	-2	-63
-466	2	-78
-470	-8	-58
-383	-14	-17
-247	-2	14
-101	29	54
13	67	132
79	88	125
94	80	19
75	43	-37
44	-1	-81
21	-36	-118
13	-58	-209
16	-71	-149
28	-92	95
46	-123	24
69	-163	-61
96	-183	-70
108	-166	-67
96	-103	0
48	-7	14
-20	89	7
-84	155	-41
-105	171	-80
-66	139	-103
18	79	-60
113	12	-57
169	-43	-1
159	-81	104
85	-96	43
-15	-94	9
-99	-70	63
-132	-30	69
-109	21	46
-47	74	-23
26	109	-68
90	118	-76
133	93	-89
150	40	-44
136	-33	16
87	-112	64
12	-177	46
-59	-206	45
-94	-177	13
-53	-90	-81
60	37	-101
206	160	-144
311	221	-198
302	191	-103
159	72	19
-83	-76	67
-332	-183	35
-500	-190	-35
-529	-91	-129
-423	65	-178
-248	201	-47
-79	248	14
35	197	50
91	89	116
119	-7	98
150	-42	60
184	-13	54
192	38	38
135	58	-40
0	17	-69
-182	-70	-30
-340	-161	8
-405	-203	-38
-339	-183	-63
-165	-117	-57
46	-48	-97
221	-1	-35
302	20	7
302	38	-60
254	79	-103
211	138	-140
203	200	-84
223	225	-88
239	194	-48
213	118	38
131	34	5
5	-17	49
-129	-23	46
-241	2	62
-304	20	24
-321	3	-55
-303	-50	-55
-262	-118	-43
-208	-157	-15
-133	-144	29
-35	-83	26
82	-7	19
201	50	22
299	60	-27
346	30	-41
333	-17	-92
262	-55	-87
154	-63	-60
26	-56	-74
-99	-47	-9
-203	-64	52
-280	-116	78
-321	-189	65
-331	-263	39
-306	-313	-76
-250	-317	-226
-169	-270	-217
-63	-188	-90
62	-88	-18
202	6	26
340	77	24
454	120	-40
506	134	-19
466	134	7
322	128	-5
85	119	8
-182	110	89
-410	94	167
-532	74	158
-522	51	120
-404	40	99
-245	49	38
-115	78	-278
-56	118	-462
-65	150	-213
-95	160	-154
-90	134	-143
-21	85	-105
95	25	-34
208	-27	69
268	-58	17
249	-71	51
175	-72	-17
100	-72	6
69	-70	49
102	-65	6
169	-52	13
222	-22	-14
214	17	3
135	61	10
14	97	20
-96	120	19
-154	129	16
-147	123	-24
-95	109	-36
-36	82	24
-5	43	69
-15	-9	61
-50	-64	-22
-87	-110	-28
-102	-134	-20
-89	-127	-76
-52	-96	-64
-11	-52	-50
24	-13	-96
44	13	-138
49	24	-102
49	25	-18
44	27	-17
41	32	-6
42	45	-15
57	54	-3
89	57	-2
138	49	-25
188	38	-4
204	32	-14
158	38	-12
34	58	-28
-148	84	-13
-336	100	29
-455	92	49
-450	48	42
-311	-21	48
-82	-105	27
154	-176	-62
318	-216	-124
365	-216	-43
308	-189	-35
201	-152	-125
105	-125	-56
56	-117	-56
44	-115	-10
34	-108	-51
-17	-83	-117
-120	-47	-40
-245	-25	27
-332	-33	44
-333	-69	-13
-231	-107	-28
-59	-107	-47
109	-46	-40
208	61	-41
198	166	75
94	209	69
-34	154	-75
-100	20	-127
-42	-132	-100
128	-229	-16
337	-229	-46
459	-142	-38
383	-27	30
85	54	65
-351	76	45
-758	56	-16
-965	41	-50
-878	72	43
-537	147	69
-81	228	-28
296	264	-66
462	235	-49
406	155	80
229	74	104
68	32	32
16	41	-64
72	77	-116
162	90	-158
194	56	-278
126	-19	-208
2	-99	-90
-105	-138	-7
-127	-118	-46
-60	-51	-25
42	19	119
117	59	138
121	56	156
75	24	110
28	-7	-30
24	-21	-103
65	-13	-99
116	-3	-63
129	-5	-23
84	-30	2
4	-66	26
-60	-96	-17
-76	-105	-59
-37	-89	-76
18	-58	-93
50	-22	-42
37	8	-7
-8	32	-12
-45	49	-19
-46	62	-25
-11	67	2
37	59	32
64	39	8
54	11	28
17	-16	29
-18	-32	-4
-28	-35	-3
-10	-24	-22
20	-1	-3
35	33	1
26	79	1
-1	133	2
-27	195	-6
-35	248	-28
-20	274	-100
8	253	-143
32	179	-91
40	56	-65
25	-96	-81
-6	-248	-60
-47	-375	-64
-85	-453	-32
-105	-481	-15
-93	-454	-15
-45	-393	-3
33	-309	3
116	-214	40
161	-125	33
124	-50	-8
-10	5	-15
-221	39	9
-448	57	18
-616	64	19
-659	68	2
-565	68	-16
-353	67	-36
-98	59	-83
121	43	-26
251	24	54
279	6	19
241	0	-4
191	10	-36
175	42	-93
211	93	-71
263	150	-16
280	201	48
225	230	62
94	227	-99
-57	189	-165
-158	128	-84
-142	66	-48
-11	26	-105
175	22	-137
322	49	9
345	85	-15
228	97	8
20	60	29
-177	-27	-16
-276	-137	7
-246	-229	-56
-124	-263	-68
11	-223	-132
90	-127	-82
93	-17	-24
50	66	40
11	102	72
14	96	-5
56	68	81
106	54	113
133	58	119
128	71	99
107	70	49
94	43	-40
95	-12	-213
86	-72	-186
35	-113	-26
-78	-118	44
-228	-86	93
-354	-35	150
-401	8	105
-336	35	-53
-184	43	-171
-13	45	-129
108	47	-140
148	53	-163
123	56	-131
82	47	-94
76	25	-41
118	-7	-64
188	-32	-38
237	-41	-42
229	-28	-10
157	3	19
44	41	45
-70	79	39
-168	102	2
-248	105	0
-317	80	-32
-383	24	-11
-435	-58	-8
-443	-151	-50
-381	-223	-81
-240	-248	-16
-44	-209	29
151	-122	85
288	-19	119
336	56	63
299	68	12
216	20	-54
151	-65	-86
139	-138	-106
188	-163	-102
267	-124	-97
313	-40	-52
275	47	-31
137	103	-44
-66	106	-30
-269	74	-38
-378	26	1
-344	-8	14
-172	-23	25
67	-34	34
257	-60	34
299	-119	17
152	-195	-22
-132	-260	-14
-448	-271	-23
-654	-206	-23
-665	-74	-17
-474	88	-18
-163	221	-28
143	283	-77
344	261	-108
397	177	-116
326	77	-62
200	4	-16
83	-16	-3
3	8	2
-49	50	-15
-103	77	32
-173	76	37
-237	48	32
-264	11	61
-221	-15	65
-93	-20	15
87	-5	-66
266	19	22
402	43	74
467	67	-3
459	88	-150
396	106	-324
299	121	-282
184	124	-131
67	103	-34
-35	56	-69
-109	-8	-45
-135	-76	31
-113	-127	-11
-59	-153	16
-3	-148	29
27	-120	77
21	-80	123
-11	-31	77
-40	15	95
-45	62	127
-19	105	-16
23	136	-161
51	149	-83
40	133	-15
-10	95	-17
-80	36	-87
-133	-24	-87
-143	-76	-50
-100	-112	-87
-21	-133	-69
60	-142	12
107	-140	48
100	-125	9
35	-87	-12
-63	-22	-32
-169	62	-33
-249	150	-84
-281	211	-69
-268	225	29
-215	173	19
-150	71	5
-89	-54	24
-47	-158	24
-24	-212	-8
-12	-206	-56
4	-162	-40
30	-121	-26
66	-119	-4
102	-171	-32
126	-249	-104
136	-305	-60
133	-286	-56
124	-171	-27
110	11	-1
89	204	-28
57	339	-56
15	379	-51
-31	324	-10
-65	214	-27
-75	103	-5
-48	13	5
9	-46	18
78	-97	24
139	-151	-3
175	-203	3
170	-231	24
122	-210	22
36	-138	-23
-76	-39	-71
-187	46	-57
-269	95	-24
-290	99	-47
-239	88	13
-131	88	22
-18	114	-95
47	150	-123
20	165	-36
-91	137	24
-235	65	12
-333	-16	20
-331	-69	-23
-217	-74	-30
-32	-38	-52
148	0	-68
266	11	-44
302	-17	-5
284	-64	22
253	-94	-43
237	-83	-58
232	-27	-90
207	37	-56
143	77	41
46	71	99
-44	25	100
-87	-29	97
-59	-64	95
16	-63	28
89	-37	-111
115	-4	-181
74	17	-111
1	24	-55
-56	32	-5
-56	50	-6
5	84	-68
101	115	-192
184	128	-182
221	109	-85
196	56	-72
122	-7	8
18	-64	26
-102	-97	7
-228	-106	24
-342	-97	42
-417	-79	61
-430	-60	72
-366	-39	108
-237	-12	49
-85	26	-64
49	66	-139
135	101	-78
172	123	-61
172	126	-45
160	110	2
140	75	-49
113	24	-11
66	-36	-53
9	-94	-55
-40	-135	21
-59	-151	12
-39	-131	-6
5	-85	-23
41	-24	9
41	31	57
2	75	25
-56	100	-2
-99	105	-43
-104	85	-57
-76	28	-86
-35	-68	-144
-7	-200	-38
2	-332	-64
3	-422	-88
12	-432	21
29	-349	-53
31	-203	-87
-9	-49	-40
-101	63	-14
-215	112	24
-298	114	40
-291	110	53
-183	134	72
-10	188	54
156	247	10
245	268	-35
249	239	-71
203	173	-80
184	106	-88
242	77	-52
371	77	-12
498	81	-30
517	43	-32
363	-45	-27
44	-163	-38
-343	-253	-26
-670	-263	-9
-830	-188	6
-787	-60	26
-584	52	32
-312	104	18
-71	85	-23
91	30	-51
174	-7	-25
209	-1	-6
225	43	-7
229	84	-15
207	84	-26
151	28	-27
62	-56	-20
-29	-126	2
-84	-147	20
-80	-114	7
-19	-50	-26
66	10	-48
133	51	-8
161	77	-32
144	102	-114
111	137	-77
86	182	-6
85	208	32
99	197	39
114	138	63
115	50	57
99	-38	-26
74	-102	-157
44	-127	-148
11	-128	-23
-36	-121	-129
-102	-119	-198
-178	-121	-159
-236	-119	-90
-248	-103	-2
-194	-69	24
-89	-28	45
24	8	46
105	37	82
122	59	92
81	82	57
14	100	8
-33	101	-49
-34	68	-50
9	-2	-1
64	-93	13
99	-171	32
92	-189	57
44	-131	65
-13	-7	108
-58	138	77
-70	254	-62
-51	301	-183
-11	275	-185
36	201	-244
72	104	-261
91	7	-108
83	-90	-86
43	-192	12
-27	-300	53
-114	-384	2
-196	-410	-2
-248	-355	-22
-249	-229	6
-202	-77	-7
-124	38	15
-45	79	34
12	48	26
40	-6	-3
42	-32	-60
37	6	-76
29	89	-20
21	164	18
5	183	19
-20	131	24
-50	43	10
-68	-29	9
-57	-44	31
-7	-9	8
74	29	-33
161	20	-41
226	-52	-67
242	-147	-57
196	-194	-44
94	-138	-48
-37	22	-59
-166	218	-62
-248	358	-4
-259	372	28
-199	255	31
-89	70	9
31	-89	-22
124	-159	-41
166	-134	-53
159	-60	-66
123	-6	-36
77	-5	45
28	-53	42
-29	-105	11
-100	-118	-16
-177	-81	-30
-230	-7	-67
-227	62	-102
-147	100	-19
-7	101	-2
145	80	17
259	58	42
302	49	0
280	50	-40
225	50	-128
169	47	-124
120	34	-54
63	19	-27
-27	1	6
-149	-26	-11
-267	-62	-10
-328	-105	14
-289	-133	-40
-161	-133	-27
-3	-90	17
107	-21	41
123	47	37
58	89	-28
-20	89	-41
-40	59	-21
35	23	-34
174	0	-66
300	-7	-37
339	-15	-38
262	-41	-111
104	-93	1
-67	-148	90
-182	-181	51
-209	-164	36
-167	-99	-30
-93	-10	-46
-22	72	-115
27	120	-99
46	130	19
34	114	-101
-22	89	-84
-124	62	8
-251	28	-38
-360	-25	8
-402	-97	-33
-350	-171	-79
-216	-223	-43
-57	-228	32
65	-180	37
125	-98	13
131	-10	8
128	58	-54
148	100	-28
188	119	-12
207	127	-11
161	131	-21
36	125	-88
-121	104	-10
-236	62	-19
-248	16	-140
-141	-21	-6
33	-28	7
189	-5	-36
259	33	19
230	65	-32
144	72	-1
66	53	-18
39	15	-3
58	-28	8
87	-61	-6
85	-82	-7
38	-84	-18
-28	-69	-26
-77	-37	-79
-85	4	-58
-60	40	-36
-36	54	28
-38	31	89
-65	-24	79
-94	-93	47
-85	-140	-2
-29	-141	-47
54	-94	-107
124	-17	-140
142	53	-59
100	94	-12
23	100	-78
-43	85	-119
-68	78	-37
-50	85	-2
-12	108	-64
16	120	-45
18	106	-9
0	57	-7
-19	-8	-92
-19	-70	-41
14	-114	34
75	-127	-16
158	-117	25
251	-86	48
331	-37	46
363	29	29
302	111	24
130	193	8
-137	250	-123
-425	256	-116
-626	198	-38
-639	85	-9
-443	-54	43
-104	-185	43
234	-274	87
422	-301	49
386	-264	-28
147	-182	15
-173	-84	-11
-438	-5	-28
-545	23	-5
-489	-11	-59
-344	-88	-186
-197	-169	-204
-109	-200	-93
-79	-154	-35
-62	-39	-30
-15	98	-61
76	190	-36
190	195	-22
287	108	3
334	-24	29
328	-142	34
285	-195	61
229	-176	36
165	-111	18
98	-42	-1
29	8	-24
-31	48	-66
-72	100	-127
-88	174	-72
-90	261	43
-101	319	46
-134	301	50
-185	200	-2
-221	40	-77
-200	-122	-80
-117	-231	-86
11	-261	-74
130	-225	-70
199	-159	-37
196	-98	-40
148	-56	-38
98	-29	-11
82	4	39
98	49	45
121	96	-12
118	128	-1
71	130	29
8	109	12
-42	76	-71
-48	53	-71
-15	46	-36
32	48	-35
66	46	4
78	29	16
78	0	40
89	-32	38
110	-50	38
121	-48	68
93	-29	26
11	1	-28
-104	28	-40
-200	47	-2
-222	52	16
-154	41	-19
-32	18	-142
81	-16	-201
124	-47	-221
85	-65	-217
-10	-62	-63
-100	-43	-72
-140	-20	-50
-126	-9	38
-88	-21	-37
-65	-45	-66
-75	-68	-64
-95	-64	1
-84	-33	54
-8	20	32
131	72	14
299	103	29
431	114	34
484	116	6
438	123	4
302	139	-28
102	145	-36
-129	110	-21
-363	10	12
-565	-139	80
-700	-300	71
-735	-410	-21
-647	-424	-82
-458	-332	-35
-197	-167	14
70	13	33
288	153	35
420	225	15
451	240	-24
386	221	-71
242	193	-85
44	164	-65
-173	120	-36
-353	47	-44
-450	-65	-65
-428	-196	-83
-307	-320	-106
-129	-401	-106
32	-417	-68
123	-368	-15
136	-261	21
105	-119	55
89	39	74
123	190	90
202	301	84
282	350	48
314	317	15
272	209	-21
183	63	-23
96	-62	-17
54	-124	-21
67	-100	-6
103	-12	-18
111	88	-54
62	144	-81
-35	128	-64
-139	56	-69
-200	-32	-99
-188	-87	-61
-112	-78	-44
-8	-16	-64
87	64	-58
155	121	-47
194	131	-131
212	103	-108
209	57	-54
163	22	-118
62	3	-3
-96	2	40
-274	-2	49
-423	-13	87
-481	-30	102
-431	-43	150
-286	-43	37
-100	-32	-36
77	-15	41
206	-6	89
280	-3	-9
302	-1	-25
286	6	-12
234	21	-97
150	33	-147
46	30	-165
-45	4	-115
-98	-36	-109
-92	-72	-62
-41	-93	-35
12	-89	-91
28	-72	-27
-10	-59	-37
-81	-56	-32
-136	-50	-11
-127	-27	-45
-38	21	-30
98	84	-55
213	129	-22
245	127	20
162	72	34
-11	-11	45
-212	-82	35
-375	-106	57
-444	-78	-6
-417	-26	-63
-319	4	-4
-195	-19	30
-89	-85	41
-13	-161	54
35	-203	38
77	-187	-16
122	-119	-72
179	-26	-98
230	58	-94
257	121	-40
237	160	-30
167	179	-87
63	177	-77
-46	139	-8
-130	57	-23
-167	-59	-74
-151	-175	-25
-99	-243	36
-32	-229	34
26	-138	42
71	-13	-4
105	89	-52
139	127	-37
193	101	21
266	49	32
346	21	-10
399	50	-23
383	124	-32
273	208	-34
75	250	-31
-167	226	-12
-377	143	15
-481	30	29
-448	-78	14
-300	-164	-19
-114	-224	-59
26	-263	-101
56	-275	-117
-20	-248	-107
-141	-168	-80
-223	-37	-74
-193	111	-72
-49	235	-16
155	286	2
326	250	-5
374	148	46
271	20	87
46	-84	112
-215	-141	33
-415	-153	-46
-480	-142	-60
-388	-130	-64
-186	-120	-48
41	-108	-99
210	-79	-94
263	-26	2
206	40	77
82	106	84
-44	153	32
-115	171	-19
-112	166	-42
-56	143	-83
12	105	-197
50	59	-190
44	9	-12
12	-40	43
-23	-78	143
-38	-98	189
-24	-102	61
7	-99	-30
41	-99	-150
72	-103	-273
105	-101	-375
150	-72	-194
205	-9	49
262	83	102
291	178	102
265	241	107
170	244	87
24	192	9
-136	102	8
-264	5	0
-325	-66	-24
-302	-112	-72
-210	-135	-79
-97	-156	-40
-7	-181	-102
29	-202	-117
8	-205	-34
-44	-175	-21
-87	-113	-32
-83	-30	-16
-23	54	-34
68	120	-27
151	159	-26
184	169	8
152	154	40
74	121	44
-10	76	40
-55	24	17
-43	-25	18
15	-62	9
89	-86	-21
143	-92	-35
158	-89	5
132	-72	35
89	-47	20
42	-8	-5
6	44	-16
-17	96	-19
-28	131	-33
-26	130	-36
-8	86	-35
22	15	-30
44	-59	-35
39	-112	-42
-18	-137	-48
-123	-145	-46
-251	-161	-40
-356	-194	-70
-403	-238	-71
-377	-263	-10
-296	-233	42
-195	-140	46
-103	-6	34
-25	124	-8
54	203	-15
159	213	-42
285	171	-100
407	122	-69
472	98	-33
439	112	-72
302	141	-82
96	149	-35
-117	104	-34
-271	13	-1
-330	-84	48
-295	-142	84
-193	-130	17
-80	-54	-75
7	49	-44
44	138	-36
28	174	-61
-28	157	-119
-100	104	-109
-158	46	-79
-178	1	-55
-151	-33	-8
-83	-64	-11
-1	-103	55
60	-143	87
79	-174	77
53	-170	54
10	-127	-85
-16	-50	-217
0	37	-108
59	110	15
140	154	-40
211	161	-11
244	143	19
234	112	-4
197	79	18
154	45	-12
119	9	-66
93	-29	-63
74	-62	-39
62	-85	-11
69	-86	29
101	-67	33
151	-37	20
184	-11	12
169	0	-19
71	-15	-81
-101	-42	-68
-300	-70	28
-451	-78	94
-484	-52	69
-383	3	91
-189	78	134
20	147	-12
156	186	-233
172	179	-316
72	123	-124
-91	35	-51
-248	-69	-66
-344	-170	22
-364	-250	-38
-321	-303	3
-243	-330	0
-159	-326	-6
-81	-289	15
-6	-214	16
69	-105	32
151	19	-8
230	132	-23
294	202	-55
324	209	-56
310	153	-36
245	57	7
145	-36	4
30	-95	-28
-67	-97	-38
-120	-49	-47
-116	23	-37
-61	86	-22
15	117	12
81	115	57
107	100	87
92	99	49
49	126	-41
8	169	-92
-11	197	-116
-1	174	-137
27	91	-87
52	-37	-36
58	-157	10
42	-219	79
12	-202	37
-22	-122	-23
-46	-35	3
-61	11	-6
-66	-9	-70
-66	-70	-82
-65	-119	-77
-66	-106	-47
-70	-18	-10
-79	113	-7
-81	225	-9
-68	265	-16
-37	218	2
14	116	-27
68	13	-82
100	-45	-99
92	-52	-76
43	-27	-6
-21	-14	24
-68	-32	12
-65	-76	39
-7	-112	7
80	-105	-41
155	-45	7
180	49	9
151	134	37
84	169	85
18	134	3
-20	43	-186
-26	-62	-249
-20	-148	-131
-28	-185	-86
-62	-175	-14
-115	-137	-20
-162	-94	-21
-173	-60	53
-133	-39	87
-48	-23	49
63	3	-20
175	41	24
268	96	19
322	155	38
331	209	11
301	251	-48
244	262	-58
183	243	-72
123	183	-22
60	92	-20
-38	-25	-52
-199	-150	-35
-428	-263	-17
-675	-356	-12
-844	-413	-66
-863	-432	-68
-686	-408	-48
-360	-340	-24
8	-238	33
292	-109	10
407	30	23
360	162	14
233	268	-16
125	336	-16
93	354	-11
120	313	10
137	211	-3
83	59	-38
-51	-113	-51
-210	-264	-62
-305	-348	-93
-279	-331	-70
-135	-227	-56
61	-76	-43
229	59	-16
309	130	-14
297	129	10
232	85	12
162	55	31
120	68	51
111	127	91
124	186	111
150	201	-14
180	143	-59
201	37	-7
189	-70	-3
115	-125	-13
-35	-101	-81
-239	-25	-168
-434	57	-244
-542	97	-242
-503	81	-176
-319	34	-71
-52	-6	-19
196	-8	3
346	21	48
357	60	49
253	74	69
85	43	45
-74	-16	31
-180	-82	4
-216	-122	22
-191	-131	66
-126	-112	38
-42	-86	36
36	-59	18
93	-35	20
111	-8	-21
97	32	-127
64	76	-150
39	110	-151
36	123	-80
54	110	20
75	76	-3
72	35	-25
38	0	-66
-19	-24	-31
-69	-38	18
-88	-49	-26
-67	-54	-1
-22	-51	12
18	-39	-24
34	-20	-49
20	-1	-36
-3	9	-8
-15	5	-37
0	-3	-41
30	-5	-8
62	11	2
74	47	9
59	90	-8
29	121	1
2	121	1
-10	88	10
-8	26	11
-2	-49	-16
-7	-119	-7
-29	-174	-2
-60	-202	-63
-83	-201	-158
-74	-166	-85
-23	-104	-49
68	-34	-74
176	17	22
269	26	38
306	-18	33
258	-91	45
122	-149	49
-75	-142	22
-279	-53	32
-442	98	60
-518	244	33
-501	312	76
-410	249	22
-277	66	-71
-131	-167	-205
24	-361	-261
188	-437	-118
359	-371	-137
508	-192	-76
595	16	7
549	183	-26
351	268	-16
36	266	-19
-321	210	3
-615	138	-2
-758	77	14
-724	28	17
-552	-16	34
-325	-59	46
-135	-100	43
-26	-120	26
9	-111	0
18	-63	76
59	4	58
162	68	2
306	114	10
436	126	-71
496	116	-267
454	94	-468
326	70	-371
165	51	-127
29	29	-51
-38	3	15
-38	-33	69
-3	-66	116
22	-89	160
10	-90	184
-40	-67	142
-102	-31	41
-139	11	-2
-126	51	-41
-60	89	-125
49	120	-150
176	148	-122
299	165	-74
385	158	9
410	119	7
353	43	39
209	-52	47
-5	-143	25
-240	-194	16
-426	-187	-53
-515	-124	-51
-480	-27	-25
-344	59	13
-167	104	23
-18	90	5
63	37	-2
77	-22	11
58	-52	21
44	-39	1
58	3	-3
86	45	-25
100	52	-42
66	14	-50
-16	-61	-34
-120	-143	-16
-200	-200	-40
-218	-222	-56
-162	-205	-41
-40	-167	-22
104	-120	-22
229	-71	-23
306	-23	-16
318	28	-22
271	71	-49
183	97	-74
75	97	-55
-36	70	-16
-130	34	7
-199	4	-6
-239	-6	-26
-250	-6	-27
-238	-6	-25
-202	-28	14
-148	-69	38
-71	-119	30
16	-148	-4
103	-128	-26
167	-58	-11
192	41	-32
170	138	-144
100	201	-157
4	215	-34
-99	193	-50
-183	164	-37
-234	145	-21
-245	142	5
-223	135	51
-175	97	11
-117	12	20
-60	-106	4
-8	-219	40
35	-282	15
76	-263	-46
107	-167	-20
136	-31	3
154	93	-45
156	166	-88
140	178	-28
111	143	-19
80	100	-79
52	68	-150
40	59	-124
40	53	-37
47	31	11
51	-16	55
46	-84	-19
29	-144	-120
9	-177	-149
-6	-169	-190
-10	-124	-121
4	-66	10
30	-9	69
62	33	91
87	60	125
98	80	177
88	95	121
56	113	5
9	131	-56
-44	150	-173
-89	165	-225
-112	174	1
-106	168	65
-67	137	72
-2	85	145
74	11	98
137	-67	22
167	-142	-167
143	-201	-198
68	-253	-100
-37	-306	-82
-129	-355	-113
-167	-387	-63
-129	-365	-10
-31	-270	-16
74	-101	12
117	100	-15
52	261	-34
-100	319	-9
-263	244	22
-338	74	16
-243	-114	16
4	-233	2
302	-235	21
498	-134	33
462	8	27
172	115	23
-264	149	-31
-676	105	-13
-886	33	-27
-822	-23	-53
-540	-40	-46
-182	-30	-51
95	-25	-48
209	-46	-31
175	-93	-18
89	-131	-24
33	-135	-36
51	-87	-51
120	1	-40
178	95	-24
184	162	-30
140	191	-57
91	196	-44
81	195	-30
125	202	-28
197	215	-30
254	219	-16
261	197	1
216	138	4
155	59	36
98	-21	52
53	-83	51
6	-113	-23
-62	-118	-108
-156	-104	-57
-237	-84	-28
-262	-64	-75
-212	-51	-94
-94	-45	-56
40	-41	-11
135	-35	11
163	-17	24
129	13	-9
74	48	-25
33	74	-42
22	72	-43
22	36	-37
7	-24	-27
-38	-83	-13
-101	-117	-11
-148	-115	9
-145	-87	25
-87	-57	36
4	-49	24
92	-64	2
147	-84	-33
158	-79	-85
138	-32	-105
116	49	-29
106	132	68
114	181	143
133	170	154
150	113	-21
154	38	-211
135	-13	-289
91	-25	-158
17	-11	-19
-79	6	6
-178	-6	72
-252	-47	57
-267	-99	15
-221	-129	-34
-123	-115	-96
-26	-60	-185
23	7	-89
-3	51	191
-96	53	201
-213	16	155
-300	-41	87
-331	-93	-24
-310	-127	-345
-264	-144	-585
-237	-154	-312
-232	-161	-120
-227	-159	70
-182	-137	116
-71	-86	89
94	-7	110
275	80	32
411	155	21
461	202	28
421	215	81
326	203	4
221	171	5
139	127	-8
93	79	-21
74	29	12
74	-10	29
90	-33	-26
129	-34	-92
188	-21	10
245	-6	-35
261	1	-23
200	-1	9
54	2	-1
-141	23	42
-318	66	-7
-409	112	-71
-380	128	-195
-256	92	-136
-101	-1	-39
5	-116	-6
11	-203	37
-77	-224	46
-206	-166	66
-303	-65	14
-317	29	1
-237	74	-18
-93	67	-45
66	34	-68
197	17	-95
273	36	-100
287	82	-89
241	112	-45
148	84	-13
22	-9	10
-107	-137	-2
-203	-244	-14
-229	-278	4
-169	-227	18
-41	-117	20
107	-10	14
222	49	11
263	41	9
230	-6	10
143	-51	4
46	-57	-22
-30	-12	-46
-79	62	-65
-106	131	-81
-125	165	-61
-140	149	-22
-141	98	-19
-123	32	-21
-83	-24	-18
-37	-64	-26
-6	-87	-34
-3	-97	-34
-22	-99	-31
-47	-95	-33
-56	-84	-37
-34	-62	-53
15	-37	-74
79	-4	-64
141	32	-44
191	66	-38
221	98	11
226	116	67
206	122	85
153	108	105
70	80	80
-31	41	-66
-124	2	-235
-186	-32	-211
-199	-60	-106
-167	-84	-25
-109	-102	104
-49	-111	224
-7	-101	234
16	-61	145
28	6	32
38	89	-115
49	166	-166
57	211	-298
58	215	-347
44	174	-190
26	108	-60
9	38	-8
-1	-16	37
-10	-49	91
-19	-66	129
-36	-79	213
-56	-92	176
-68	-108	159
-66	-116	90
-40	-113	-209
4	-91	-410
52	-59	-376
95	-27	-194
124	1	54
136	22	94
132	45	74
104	72	41
49	106	-31
-25	132	-43
-101	135	-52
-137	99	-8
-92	21	-63
56	-72	-30
284	-159	87
512	-199	47
636	-182	9
558	-112	11
234	-11	-9
-279	85	-22
-829	152	-36
-1232	174	-35
-1224	162	-39
-1123	124	-51
-743	77	-43
-228	23	-42
205	-33	-48
439	-91	-57
476	-148	-19
389	-188	14
281	-207	7
228	-194	6
225	-147	-5
224	-72	2
175	19	11
65	110	-2
-61	189	-11
-139	228	-7
-129	218	-27
-36	148	-44
84	28	-43
172	-109	-40
194	-226	-12
161	-277	-13
113	-251	-25
87	-158	-15
91	-41	-27
104	47	-32
95	76	-23
54	34	-48
4	-47	-71
-22	-133	-59
3	-184	-52
68	-189	-52
136	-159	-22
164	-111	14
128	-69	30
38	-37	34
-60	-8	26
-130	26	24
-157	67	28
-154	103	0
-158	117	-22
-193	99	-23
-256	54	-37
-313	1	-52
-327	-38	-33
-275	-46	15
-165	-24	46
-35	24	39
76	80	93
143	132	55
167	174	-119
166	202	-243
162	215	-317
165	211	-166
172	187	21
175	141	63
162	85	43
134	24	67
97	-28	-36
49	-62	-189
-10	-76	-107
-80	-67	-86
-155	-44	-57
-210	-11	10
-223	25	-16
-176	51	-56
-78	59	-46
36	43	32
120	7	65
145	-42	71
111	-83	77
46	-101	-48
-12	-93	-167
-38	-69	-86
-31	-48	32
-10	-47	78
4	-68	18
-2	-97	5
-16	-112	103
-20	-96	1
2	-43	-85
42	26	-23
86	90	2
111	122	-106
113	119	-92
101	89	25
94	48	-4
107	18	-13
130	3	-24
141	2	-27
111	3	-26
33	3	-43
-75	3	9
-169	6	17
-208	18	-48
-174	37	-5
-89	58	10
-5	67	-90
16	63	-76
-57	40	-42
-205	2	-43
-366	-47	-25
-465	-106	-28
-450	-168	0
-319	-228	32
-126	-270	30
50	-281	14
152	-254	-12
169	-182	-27
132	-86	-46
96	15	-49
95	96	-43
123	148	-48
151	169	-68
137	170	-61
77	165	-21
0	160	-2
-47	152	-4
-25	131	-16
62	98	-8
179	48	-13
263	-16	-9
280	-87	-9
234	-166	8
151	-246	20
78	-316	-11
27	-354	-35
-17	-339	-42
-90	-254	-13
-209	-105	-10
-361	70	-28
-489	219	-28
-526	292	-25
-431	274	-31
-210	183	-51
72	75	-27
328	3	67
476	-5	59
484	40	3
374	98	-26
213	125	-112
55	102	-91
-60	40	-64
-126	-21	-63
-162	-54	-27
-191	-48	-58
-225	-21	-93
-245	3	-58
-231	4	-6
-165	-9	63
-48	-11	131
83	14	64
193	62	-51
244	106	-40
229	106	-4
163	45	1
79	-62	-66
-1	-168	-188
-63	-227	-131
-107	-205	-85
-137	-123	-26
-145	-18	52
-117	62	54
-38	97	45
82	92	-70
209	80	-105
297	85	-8
300	109	49
212	131	-42
74	125	-151
-59	77	-149
-133	2	-23
-130	-75	26
-78	-120	28
-23	-131	27
-7	-115	-27
-40	-96	29
-93	-87	86
-124	-85	40
-107	-75	-86
-45	-40	-117
33	20	-70
94	92	-55
117	155	-6
107	194	79
83	206	66
66	195	-56
61	171	-83
59	134	-40
43	72	-61
12	-18	-108
-29	-131	-56
-60	-238	-6
-69	-311	4
-52	-316	20
-17	-249	2
20	-133	11
40	-3	33
29	104	37
-15	170	45
-90	190	48
-178	180	49
-251	153	66
-278	114	46
-234	63	-2
-123	-1	-41
17	-79	-75
118	-158	-102
126	-215	-118
20	-243	-102
-162	-233	-114
-340	-194	-135
-434	-147	-103
-389	-109	-56
-212	-94	-22
36	-97	-13
276	-102	8
446	-84	29
523	-24	51
506	70	82
429	173	70
299	236	36
130	218	13
-55	116	-11
-232	-40	-41
-363	-184	-51
-422	-250	-59
-402	-204	-82
-325	-70	-117
-228	89	-100
-136	202	-25
-59	224	-16
16	166	-20
111	79	-5
227	19	-3
343	16	-27
430	56	-52
457	100	-36
422	105	-21
339	67	12
234	5	31
125	-40	103
23	-45	123
-70	-13	-7
-150	24	-135
-199	40	-149
-212	26	-86
-186	-3	-28
-139	-14	56
-92	8	61
-65	63	57
-63	121	62
-71	150	24
-71	137	37
-51	86	-17
-22	22	-200
3	-35	-302
5	-76	-225
-14	-102	-198
-46	-125	-100
-69	-142	119
-75	-150	119
-58	-131	37
-36	-88	-87
-20	-25	-209
-4	34	-133
16	71	-11
51	80	-19
107	64	7
171	43	77
219	26	107
236	16	57
201	11	9
121	-3	61
15	-20	47
-93	-36	24
-172	-39	3
-206	-29	-17
-188	-15	-10
-128	-6	-42
-49	-13	-70
24	-22	-52
66	-18	-40
64	22	-27
14	98	21
-64	188	30
-152	251	14
-222	252	-25
-252	178	-53
-236	40	-55
-173	-120	-68
-81	-263	-58
13	-353	-42
84	-384	-17
113	-368	5
100	-312	21
68	-242	16
47	-165	6
62	-96	-20
117	-42	-66
179	-7	-67
209	14	-74
175	34	-67
86	61	-11
-12	98	26
-62	125	56
-32	123	47
54	81	-2
132	6	-11
127	-64	-7
10	-98	-96
-182	-68	-193
-353	11	-127
-416	102	-21
-332	162	-48
-147	168	-35
41	134	4
151	94	5
156	80	43
102	96	34
58	120	-21
71	113	-63
122	50	-30
143	-56	-27
75	-168	-40
-86	-234	2
-269	-227	13
-378	-157	61
-333	-61	67
-142	13	2
110	51	-26
314	61	-88
397	71	-145
351	105	-74
234	155	-37
120	199	-32
50	202	39
29	154	61
25	67	74
18	-20	45
6	-76	-23
10	-89	-79
41	-77	-130
89	-63	-143
120	-66	-110
95	-83	-34
10	-87	-1
-104	-59	-8
-191	2	-34
-207	77	-25
-145	129	29
-43	136	4
42	91	0
59	18	-101
-3	-51	-112
-119	-93	-22
-241	-100	-83
-318	-85	-10
-325	-57	-4
-260	-33	-51
-140	-7	2
2	22	7
139	56	51
241	87	43
283	102	19
262	96	12
188	62	-4
88	9	1
-3	-60	10
-54	-132	50
-64	-196	79
-48	-234	109
-31	-229	115
-32	-173	60
-54	-72	-113
-82	40	-334
-90	123	-303
-66	151	-142
-15	116	-70
47	51	-38
102	4	8
136	9	43
157	65	8
170	139	-21
186	181	-34
202	150	-34
204	49	-22
180	-92	-27
124	-223	-24
35	-309	-5
-78	-340	43
-198	-330	64
-310	-299	24
-392	-254	2
-429	-192	-1
-392	-110	-82
-258	-9	-119
-35	92	-40
236	180	1
476	238	21
591	277	1
506	305	-34
229	329	-32
-170	331	-58
-552	284	-56
-781	178	-45
-773	13	-43
-550	-167	-38
-231	-307	-33
39	-361	3
159	-321	24
117	-218	5
-2	-97	-6
-83	-1	-7
-43	57	22
113	86	41
310	111	14
446	139	-14
466	170	-18
373	183	-51
231	168	-81
103	126	-34
24	75	7
-18	30	3
-60	0	41
-123	-29	64
-191	-64	-5
-225	-115	-80
-193	-160	-53
-102	-177	-77
12	-144	-133
97	-61	-42
127	40	-40
107	126	-41
78	161	-17
66	140	-103
82	84	-93
102	24	37
100	-13	52
61	-27	56
1	-25	103
-51	-31	76
-72	-51	-68
-57	-79	-264
-27	-94	-136
-6	-86	-19
-8	-54	-210
-23	-11	-205
-28	23	-58
-9	41	-9
32	44	6
72	43	30
90	51	66
74	65	83
30	81	85
-15	85	60
-46	74	31
-54	53	-58
-48	32	-99
-35	15	14
-26	-6	32
-16	-41	87
-3	-97	110
14	-160	120
30	-200	87
39	-180	-155
42	-81	-209
56	84	-198
96	266	-133
162	396	-65
238	422	-87
280	327	-23
248	139	-23
124	-76	-10
-75	-263	-28
-291	-379	-74
-458	-426	-36
-518	-425	3
-459	-406	54
-308	-380	111
-112	-337	129
69	-258	111
188	-130	45
202	29	-50
100	179	-147
-103	275	-189
-354	284	-92
-572	215	-56
-667	105	-25
-581	-2	30
-337	-74	27
-12	-107	76
262	-124	80
385	-150	35
324	-182	-28
150	-199	-48
-20	-167	-66
-78	-69	-157
11	74	-178
192	212	-142
363	291	-67
432	287	-2
373	215	3
234	125	10
97	64	17
19	55	54
24	75	59
72	84	20
116	53	-2
121	-9	-20
90	-69	-5
44	-86	-34
8	-41	-150
-13	41	-159
-28	119	-113
-45	155	33
-61	138	123
-63	95	85
-37	59	103
14	56	45
68	80	42
95	93	43
76	72	2
18	9	-23
-53	-72	-42
-109	-142	-55
-135	-169	-41
-133	-153	19
-116	-115	-25
-91	-76	-215
-57	-52	-251
-10	-35	-22
56	-9	-62
125	38	-91
182	102	-38
207	161	-49
198	193	-40
164	183	-95
118	140	-50
62	71	22
-8	-9	90
-104	-93	76
-211	-175	64
-296	-242	67
-312	-282	112
-225	-275	29
-46	-211	-101
163	-96	59
314	47	13
327	181	-133
179	278	-53
-87	315	-108
-375	286	-129
-574	194	-65
-611	53	0
-491	-110	34
-269	-265	3
-45	-373	-24
106	-401	-81
155	-341	-105
127	-224	-133
84	-92	-141
85	2	-102
150	30	-44
253	4	-4
334	-38	12
336	-47	8
237	-4	16
56	84	46
-144	179	39
-296	233	39
-361	213	34
-342	120	42
-273	-18	41
-195	-167	21
-129	-282	2
-60	-338	-13
42	-322	-24
200	-238	-70
392	-104	-57
558	45	-22
620	174	-12
527	256	-15
288	279	-36
-23	261	-34
-291	221	-25
-421	183	-26
-389	158	-56
-241	134	-57
-72	97	-37
29	38	-6
25	-37	41
-54	-102	56
-137	-134	85
-164	-119	100
-111	-74	-15
-11	-20	-111
86	18	-74
138	33	-86
141	33	-172
131	34	-195
147	48	-175
197	71	-113
261	94	-56
292	98	112
254	77	170
135	43	87
-35	5	97
-203	-23	50
-324	-43	-21
-371	-62	-71
-345	-84	-48
-264	-106	-99
-153	-114	-130
-29	-99	-68
79	-53	-33
157	10	-16
187	65	-19
166	94	42
113	84	82
50	41	54
6	-14	6
-12	-61	-63
-13	-93	-190
-22	-107	-209
-53	-109	-78
-105	-106	-27
-152	-96	7
-163	-80	50
-117	-50	57
-25	-14	97
79	21	140
153	53	119
170	80	26
126	106	14
46	140	1
-36	180	3
-102	211	-13
-136	215	-277
-143	179	-364
-130	96	-150
-103	-20	-47
-57	-148	-39
1	-256	-18
70	-326	-60
145	-345	-91
209	-305	-45
254	-216	16
267	-90	34
234	43	53
138	155	30
-15	215	5
-214	213	28
-410	150	-13
-542	50	-30
-562	-52	0
-459	-130	37
-269	-169	25
-63	-174	10
86	-163	-2
147	-144	8
127	-134	17
80	-125	-35
58	-112	-7
83	-89	-9
140	-48	-44
189	7	-36
196	78	-44
156	152	-39
105	218	-16
82	257	20
111	255	15
184	206	-47
260	123	-90
299	31	-78
266	-44	-64
170	-80	-3
30	-75	19
-121	-44	-30
-257	-9	-1
-354	9	4
-397	10	-71
-375	-2	-127
-280	-12	-121
-136	-10	-34
20	7	22
140	28	19
194	43	-8
175	49	-67
116	39	-29
60	21	56
45	-2	66
81	-22	45
141	-36	18
194	-41	-14
205	-28	-81
171	3	-172
104	50	-89
29	101	-19
-33	138	11
-77	147	74
-101	117	53
-121	59	34
-139	-17	-44
-162	-80	-65
-183	-120	-50
-197	-129	-53
-204	-111	21
-195	-81	69
-173	-47	-9
-132	-16	-62
-81	16	7
-22	49	20
40	86	-35
99	115	-83
155	117	-8
196	84	24
216	14	-52
203	-71	-114
152	-145	-205
67	-179	-140
-30	-164	-175
-114	-121	-97
-154	-79	7
-140	-74	-24
-80	-109	55
13	-165	65
116	-194	108
212	-161	23
284	-56	-20
302	88	2
244	214	52
86	272	-5
-151	241	-117
-412	148	-24
-610	40	-38
-663	-34	31
-545	-52	87
-291	-37	5
-12	-28	-116
184	-61	-249
233	-141	-172
154	-240	-21
28	-309	15
-45	-308	102
-15	-225	127
105	-79	66
245	85	49
323	215	21
302	283	-16
199	274	-92
74	210	-130
-20	112	-72
-54	21	-45
-40	-40	-48
-3	-60	-28
36	-44	-79
80	-12	-82
128	19	-15
175	32	13
190	31	9
131	25	0
-17	28	3
-225	47	21
-415	75	46
-500	95	44
-433	92	43
-229	65	26
36	33	-60
261	18	-134
363	40	-106
332	93	-19
197	156	9
30	191	-34
-119	177	-44
-232	106	-2
-311	-3	49
-363	-119	53
-380	-217	4
-336	-279	-57
-213	-305	-101
-20	-295	-84
198	-253	8
380	-182	32
461	-93	6
425	-1	-16
306	71	-99
167	100	-167
67	81	-195
40	27	-84
75	-32	34
133	-68	66
171	-69	82
159	-41	37
101	-5	42
18	21	21
-61	34	15
-120	41	61
-154	63	47
-170	102	-18
-174	153	-42
-170	194	-32
-159	211	-76
-135	195	-119
-102	144	-88
-63	71	-13
-24	-18	1
12	-118	-16
42	-225	-104
62	-316	-110
61	-370	-52
24	-361	-24
-49	-279	26
-151	-144	16
-245	8	11
-287	132	-30
-247	202	-74
-120	213	-102
50	183	-57
208	143	-26
292	104	-4
288	68	44
207	27	52
103	-25	87
20	-80	82
-16	-117	45
-16	-120	13
-8	-90	-10
-14	-38	-7
-35	8	-43
-54	35	-238
-49	47	-324
-10	51	-143
43	68	49
87	94	93
98	117	-52
72	115	-62
28	83	-23
-16	25	-11
-45	-32	-15
-65	-65	-77
-87	-69	-60
-112	-50	-81
-130	-32	-30
-121	-31	-3
-67	-47	16
24	-68	30
123	-69	38
186	-42	32
183	7	-89
111	53	-67
2	75	10
-98	59	17
-153	16	45
-148	-31	0
-96	-58	-51
-30	-59	-43
25	-44	-19
62	-33	32
91	-40	27
124	-67	6
165	-94	13
203	-96	-7
215	-56	-16
188	20	-15
117	106	-21
18	170	-7
-88	190	-9
-185	165	-26
-271	110	-23
-344	50	-22
-407	8	-21
-439	-14	-11
-424	-30	-3
-340	-53	10
-194	-90	26
-19	-137	16
140	-174	-28
244	-179	-59
273	-145	-65
253	-72	-127
215	17	-165
188	103	-64
172	162	-36
156	190	-37
111	185	-7
35	157	-9
-59	115	20
-143	64	-5
-189	10	-18
-195	-51	-38
-170	-116	-48
-130	-175	-40
-91	-222	-38
-48	-235	-19
8	-209	-34
78	-142	-41
154	-50	-37
214	39	-10
241	98	2
232	106	0
203	63	-9
183	-6	-18
191	-64	36
225	-83	90
253	-51	39
240	9	-14
154	62	-39
-7	80	-64
-199	48	-9
-364	-10	32
-435	-59	48
-389	-66	52
-242	-21	43
-58	58	36
85	137	-3
128	179	-31
64	177	-71
-62	132	-217
-184	71	-330
-245	5	-282
-231	-56	-173
-167	-110	-39
-105	-154	32
-78	-174	57
-79	-159	57
-78	-107	57
-37	-32	122
49	32	60
155	60	-38
233	43	-105
250	2	-129
212	-26	-38
164	-8	39
154	62	91
196	161	127
263	237	119
301	255	63
254	201	-121
114	92	-319
-75	-32	-221
-246	-137	-60
-344	-203	70
-352	-227	175
-302	-218	100
-234	-184	22
-180	-127	-74
-139	-52	-134
-94	32	-115
-29	106	-128
49	153	-112
113	161	-58
135	136	-38
106	92	20
46	44	64
-10	2	32
-27	-41	53
-5	-86	76
40	-131	-4
86	-163	-76
117	-170	-116
140	-142	-108
164	-88	-12
184	-25	20
178	30	1
111	74	7
-22	110	-64
-194	147	-78
-337	175	17
-383	185	19
-288	150	11
-84	66	8
153	-52	-10
325	-166	20
374	-235	21
316	-238	8
203	-183	-25
115	-101	-35
87	-24	-24
103	29	-9
95	66	4
4	101	-6
-187	145	8
-428	193	-8
-630	223	-43
-699	213	-67
-602	153	-38
-377	54	1
-110	-60	1
105	-162	-12
215	-233	-64
228	-268	-96
191	-265	-58
156	-239	-48
147	-192	-43
148	-140	-11
123	-88	0
50	-40	11
-56	3	-9
-152	45	-5
-187	90	53
-134	131	83
-19	161	67
104	166	-18
178	149	-117
175	117	-124
118	91	-147
46	77	-174
-1	67	-18
-7	41	92
12	-19	57
26	-111	7
19	-199	13
3	-237	5
-1	-195	-151
27	-80	-323
89	63	-360
155	165	-188
190	183	-14
172	121	163
107	25	191
17	-50	163
-63	-67	133
-114	-38	-25
-122	-7	15
-95	-13	-2
-34	-68	-92
49	-139	-163
142	-175	-140
216	-137	-68
234	-32	-27
162	92	141
-2	183	177
-211	205	124
-389	171	90
-463	118	91
-400	86	19
-231	85	-162
-28	89	-287
119	71	-291
162	8	-72
111	-80	69
29	-151	63
-20	-164	40
-2	-107	1
75	-5	-71
169	97	-78
245	158	24
288	168	94
314	144	83
334	121	29
339	116	-6
291	120	-56
154	106	-104
-85	48	-126
-378	-58	-82
-632	-190	-43
-759	-301	-55
-714	-356	-46
-525	-341	-9
-264	-267	17
-31	-170	16
115	-79	3
156	-15	-8
120	24	-23
57	48	-42
4	76	-51
-21	112	-50
-19	154	-16
6	188	-10
46	197	-13
93	171	17
130	111	32
141	27	16
122	-61	-8
78	-142	-28
33	-200	-45
15	-235	-40
36	-239	-50
85	-215	-52
132	-162	-40
155	-84	-30
138	5	-15
97	78	12
53	108	22
24	82	-4
11	12	-38
-1	-69	-49
-32	-116	-68
-86	-106	-113
-152	-41	-96
-204	34	-41
-221	80	-5
-191	65	21
-125	3	22
-40	-61	7
40	-87	12
95	-44	43
118	48	109
113	153	102
86	222	46
61	240	70
50	218	21
65	183	-213
102	158	-405
142	138	-182
167	109	-12
159	50	-24
121	-36	60
70	-119	21
33	-164	30
20	-145	-31
33	-72	-15
48	21	98
48	93	59
16	120	-6
-45	106	-64
-124	77	-96
-205	56	-234
-272	41	-282
-318	19	-91
-333	-38	60
-311	-139	127
-248	-253	101
-149	-337	-4
-39	-344	-21
52	-263	37
99	-125	-63
96	13	-126
58	100	-55
21	115	-57
12	74	-17
35	27	22
76	12	55
103	47	64
101	110	13
70	162	-2
40	169	-83
34	123	-132
71	45	-53
136	-30	-14
200	-76	22
223	-78	49
176	-49	52
74	-7	57
-65	34	21
-194	66	-7
-277	89	-30
-282	99	-55
-217	96	-80
-103	70	-81
24	28	-50
130	-25	-10
204	-69	15
245	-100	24
266	-115	17
271	-127	0
251	-151	-24
179	-189	3
41	-232	17
-150	-254	-27
-350	-234	-61
-493	-169	-89
-530	-66	-97
-447	41	-89
-286	132	-13
-121	187	-17
-11	198	-66
20	171	-65
-6	117	-57
-46	41	-45
-60	-44	-55
-42	-126	-32
-8	-189	-5
16	-212	28
22	-195	62
24	-144	103
44	-74	82
101	-3	6
175	57	-37
245	105	-84
279	145	-151
273	178	-101
242	200	11
206	208	14
181	198	77
154	174	144
103	142	22
17	108	-189
-88	70	-126
-177	25	71
-211	-29	-41
-175	-89	-65
-85	-130	-62
15	-142	-115
79	-110	-44
90	-45	-61
60	28	-93
22	88	-76
-2	115	29
-6	110	70
-6	85	-23
-26	51	-74
-75	19	-33
-139	-19	-7
-191	-60	9
-204	-106	47
-166	-139	54
-83	-149	-34
25	-124	-172
134	-80	-124
229	-35	-55
292	-4	-61
314	5	-25
276	9	-11
174	23	-1
15	59	38
-168	108	93
-324	141	54
-405	135	35
-386	81	75
-279	-6	26
-130	-93	-65
5	-144	-86
83	-150	12
89	-118	16
43	-72	-6
-12	-42	26
-41	-35	22
-29	-48	36
25	-61	5
102	-60	-58
179	-38	-68
241	0	-79
276	43	-101
279	84	-58
245	117	-32
172	142	-8
54	161	-17
-95	171	-61
-255	171	-88
-389	154	-137
-463	114	-138
-459	44	-100
-371	-51	-86
-224	-167	-10
-54	-280	68
91	-357	43
180	-379	26
204	-331	-6
184	-234	-44
151	-120	-72
140	-27	-74
157	24	-17
181	37	36
175	35	71
106	43	93
-26	68	81
-183	99	29
-303	109	60
-336	83	116
-263	32	13
-120	-12	-75
37	-13	12
148	43	3
178	143	-186
142	244	-301
81	299	-140
36	286	28
23	212	33
34	110	-24
40	7	-95
17	-77	-54
-34	-148	-80
-94	-217	-119
-133	-286	-102
-130	-338	6
-83	-344	47
-1	-282	40
86	-159	72
162	-2	15
210	140	53
228	231	5
212	253	-51
170	227	-58
105	174	-36
31	127	-5
-33	90	-27
-72	58	-44
-82	24	-40
-69	-17	14
-50	-53	22
-44	-79	22
-56	-86	32
-84	-85	28
-104	-86	-67
-100	-89	-62
-61	-83	-66
2	-44	-164
68	37	-89
118	153	-49
133	266	-47
116	331	-68
78	320	-75
35	233	-21
4	104	-2
-7	-27	32
-4	-131	28
0	-203	29
-3	-260	20
-28	-309	-1
-67	-353	5
-116	-368	8
-156	-332	-5
-179	-241	-9
-180	-112	-11
-160	11	-30
-127	93	-7
-87	115	-2
-43	89	-5
2	43	9
42	6	26
68	-6	32
72	-1	-12
56	13	-56
33	24	-50
22	38	-12
40	59	-5
83	91	3
123	131	-2
122	170	-31
52	197	-43
-83	209	-56
-241	204	-46
-356	180	13
-381	127	12
-298	38	-16
-140	-83	-47
34	-210	-42
166	-304	-32
223	-326	-95
206	-261	-99
144	-140	-160
74	-14	-191
16	58	-159
-21	57	-113
-41	1	-22
-47	-52	44
-34	-54	43
-2	9	31
44	106	47
92	178	12
127	173	7
138	85	37
135	-44	72
126	-153	51
124	-191	21
130	-150	71
130	-63	37
111	24	-25
64	72	-2
-1	77	22
-66	51	7
-109	17	-96
-125	-8	-147
-121	-27	-30
-114	-40	-43
-117	-47	-206
-125	-35	-91
-123	7	41
-87	75	26
-5	150	43
111	199	6
236	201	7
332	150	-45
371	68	-41
337	-13	-4
232	-71	-68
69	-94	-60
-113	-86	-49
-280	-58	-77
-389	-28	-47
-416	5	34
-354	32	124
-235	48	121
-100	41	-4
3	8	-79
40	-49	-97
16	-114	-234
-40	-166	-235
-91	-188	-94
-104	-186	-68
-75	-167	37
-16	-147	57
44	-129	-7
91	-106	-36
113	-60	-21
119	20	7
117	126	14
116	239	26
115	325	-23
120	356	-31
130	317	-19
139	215	-3
141	80	29
117	-63	53
53	-181	52
-52	-252	8
-175	-263	-42
-275	-224	-40
-308	-151	-85
-242	-68	-140
-85	-7	-61
129	26	26
352	38	40
536	53	20
635	92	30
620	157	71
470	226	76
180	257	87
-213	218	49
-631	99	-22
-953	-70	-64
-1091	-238	-129
-992	-345	-152
-700	-358	-120
-333	-289	-56
-31	-175	-21
124	-70	-42
139	-7	-51
105	8	-51
121	-11	-31
238	-36	-18
414	-49	-8
540	-41	-2
521	-16	-10
334	20	-5
58	57	-4
-174	93	-6
-260	119	-19
-175	122	-26
9	103	-32
172	59	-36
216	11	-13
132	-24	20
-24	-28	39
-165	3	39
-221	57	45
-184	114	18
-101	150	-107
-30	161	-208
-1	142	-118
-7	108	-57
-10	65	-77
22	17	-20
92	-34	24
180	-90	56
251	-136	5
280	-166	-26
261	-167	-25
200	-136	-43
107	-87	-12
-2	-29	7
-113	18	1
-197	51	-3
-223	67	1
-180	72	-14
-87	68	-45
1	55	-86
28	35	-95
-38	8	-88
-173	-16	13
-307	-31	99
-358	-35	65
-287	-30	-10
-116	-28	-95
85	-36	-136
245	-57	-195
337	-76	-168
378	-72	-48
406	-38	85
439	31	75
439	120	2
350	208	-34
123	269	7
-206	298	53
-542	282	-77
-744	228	-78
-740	132	-30
-529	2	-12
-231	-154	3
19	-316	-24
128	-453	51
99	-531	61
9	-533	35
-47	-455	45
-14	-321	65
85	-164	43
180	-16	-4
216	104	-14
187	186	-76
128	233	-107
98	248	-139
126	233	-132
190	193	-132
244	135	-113
242	81	44
179	43	115
85	31	138
-4	39	104
-63	54	29
-106	61	-45
-154	51	-118
-214	36	-142
-267	29	-127
-273	35	-89
-205	48	-57
-63	40	-4
98	-11	-7
221	-109	3
253	-217	21
198	-280	41
92	-251	66
-5	-121	46
-58	59	-19
-60	210	-92
-37	252	-58
-22	159	-38
-30	-24	-29
-58	-208	-23
-83	-292	-56
-81	-242	-56
-43	-82	-52
22	98	-35
95	209	-10
158	206	19
189	106	21
175	-20	-30
114	-105	-18
10	-113	13
-118	-63	4
-229	-3	35
-286	19	52
-271	-10	26
-195	-63	-6
-96	-100	-15
-22	-83	-46
-1	-15	-138
-33	77	-145
-86	154	-42
-112	187	-46
-89	174	-103
-26	137	-101
50	95	-37
103	59	-15
114	31	-53
94	0	-62
64	-41	-3
46	-85	90
46	-117	102
50	-125	164
44	-106	151
29	-63	29
14	-16	-111
20	26	-205
52	57	-192
97	77	-172
123	92	-90
110	100	-78
56	103	-59
-13	93	13
-58	67	-35
-58	28	11
-15	-20	47
34	-68	4
48	-112	-38
0	-139	-44
-96	-144	2
-199	-125	-32
-253	-75	15
-217	-3	81
-88	77	102
101	145	113
296	185	56
433	183	-47
476	138	-150
401	60	-118
219	-35	-77
-26	-126	-64
-264	-195	3
-436	-227	70
-485	-218	102
-415	-182	43
-273	-135	-75
-137	-99	-93
-76	-82	-80
-108	-80	-174
-194	-67	-132
-253	-24	-81
-222	60	-62
-86	168	20
100	256	-3
251	279	22
299	214	34
231	80	29
104	-72	32
1	-182	4
-20	-210	-23
35	-165	-8
113	-86	-15
138	-31	-46
72	-31	-16
-70	-74	-30
-228	-119	-8
-321	-116	-8
-312	-45	-6
-204	72	12
-43	186	15
113	243	35
221	223	-7
269	138	-42
269	34	-63
241	-52	-101
202	-97	-113
158	-109	-72
109	-110	-35
56	-113	-1
6	-121	33
-34	-116	49
-52	-85	45
-47	-23	-31
-25	51	-50
9	115	-79
42	153	-124
69	155	-80
86	134	-48
87	98	-6
74	56	-4
38	10	-17
-11	-37	-13
-68	-77	0
-119	-95	44
-143	-82	132
-128	-41	166
-78	12	74
-8	55	-16
54	70	-107
86	59	-178
84	36	-200
55	27	-182
23	41	-103
6	80	15
8	116	47
17	129	57
17	113	121
-6	68	195
-51	14	181
-100	-39	-40
-132	-85	-137
-134	-126	-91
-110	-168	-306
-72	-198	-373
-38	-204	-160
-15	-164	-63
3	-80	21
29	30	-9
75	131	-12
139	193	24
205	202	54
244	169	87
234	122	80
156	82	98
19	55	49
-151	29	-26
-305	-19	-159
-401	-93	-157
-405	-183	-43
-316	-251	-38
-159	-268	-4
18	-214	30
163	-101	42
236	28	1
229	129	-32
163	162	-1
81	120	-19
17	21	-24
-8	-91	-52
1	-181	-59
24	-218	-4
31	-203	16
9	-151	17
-45	-87	-9
-117	-34	-42
-188	-2	-52
-239	12	-76
-262	21	-93
-254	34	-80
-222	51	-35
-169	74	-9
-98	86	5
-10	92	14
92	89	23
206	86	19
320	89	-1
415	92	-13
462	85	-16
