5.66937744117573,10.606004994744227,6.8918070189506055
7.315180593797569,5.300455184932572,8.004946125608527
8.109076134207674,2.5555010977280412,8.184547297520277
7.431088603253539,11.589538751476024,6.315856658738972
4.855959020416148,20.17526530581811,1.5032726303579786
0.352617810163373,27.05201482697519,6.492904849472585
5.6118679030269085,31.72757105123657,16.57725112597731
12.1377592282084,34.41129830992985,26.61887912017814
18.098191898294058,35.530678649682905,34.542958597109
22.411304578014377,35.110474322906306,38.88144131675173
24.264605337438113,32.42410373935546,38.94550590425098
23.212532678066662,26.24279883459433,34.67975855138206
19.174230591791254,15.634055660753107,26.46007776499496
12.455615239181421,0.7151709069035785,15.036825993275315
3.7481912858349764,17.131451671903754,1.1319587705001943
5.985004365333784,35.53450856059901,14.598069540313592
15.568143363129655,51.873551656351616,30.98677463995243
23.663715239603256,64.15858091216778,46.1136349988311
28.982363244514676,71.42175475950927,57.56280387521017
30.55959581153467,73.52104165070809,63.043317031482225
28.04284417830646,70.58173506240227,61.287966819324026
21.863602691458755,62.50179877654089,52.68150709282735
13.151629631159558,48.99399691702959,38.912672315752545
3.4432607240742716,30.162813098854155,22.156499387173106
5.715595837093075,7.238262322279054,4.531868367865676
13.10038726841952,17.0910376422167,12.363293945658217
17.95381315990396,39.12574736078614,27.334288788654057
19.950315506918265,55.26222436133176,39.17909523174921
19.0584141600072,63.24663679795044,46.79701354246886
15.44630000368141,62.91330510509467,49.29817695831516
9.482548702047326,56.02192219072493,46.242658017378716
1.809650944992738,45.34261801429743,37.830545218223214
6.590641959574146,33.52340592796562,24.865008061474647
14.461148734105702,22.33952314708346,9.03886184750578
20.485112467096233,12.615874784875269,7.244910619850871
23.587641246450765,4.682178341583742,21.559613203771303
23.20110324185448,1.076482100747838,31.934186632236894
19.389419767873655,4.023954127584115,37.24387049383735
12.79631939955315,3.550217156708448,37.247605721269615
4.444901584739594,0.422788803401015,32.423232691082795
4.504877680182958,7.083134345107368,23.929683459776445
12.943161134633542,14.790447675225453,13.46191934422256
19.911414022549895,21.5456970712908,2.7911013465360823
24.643328066861873,25.598877381117628,6.9335595383596536
26.60748782853069,25.86520189891835,15.284742432576968
25.566273370524033,21.99713250660718,22.119738413709452
21.634796863852777,14.210407823932142,27.50518298380053
15.315459688736407,3.0784895591188137,31.611288671678338
7.46260966167898,10.526497548002645,34.40921641706154
0.8244572367989726,25.347558121023535,35.843307415134895
8.365010204244786,39.68807883576083,36.21843418632537
14.090096740393165,51.54777419143233,35.84593543665104
17.20805306405031,58.999122861725375,34.315903855614586
17.31644878324751,60.687197030304276,30.628780521063547
14.45751602887945,56.20497278515084,23.85612521668224
9.113011059445244,46.18615090284132,13.516252457688967
2.1358306233700723,32.109912818566826,0.20859635839274243
5.377064138878197,15.941706825100145,16.250448383556105
12.246952077839143,0.211269330404718,32.61569822292804
17.38050690339326,14.346942796626504,46.70677251340643
19.91925532522001,24.747473120480564,56.10522960242758
19.357340198227526,30.16782460876821,59.63846642383548
15.618660542102589,30.05164243523929,57.6721654391238
9.084391276102327,24.70678150326529,51.25219943407517
0.5613759669225061,15.333809785936655,41.2536067454299
8.803531380472366,3.8265749927959503,28.489991335885325
17.66902145654703,7.614711691306432,14.327265820652018
24.709073445451356,16.9199918056079,0.4163370325724391
28.838244162594982,22.47399298184389,11.886267947368363
29.39809370989583,23.270001890575443,21.28604981778233
26.264532359702997,18.973764127383628,26.66957915413137
19.84729625911846,9.96355867228355,27.656784744617894
10.993431135047503,2.6349915099544856,24.77629643551402
0.8369916872335245,16.979466081937957,19.415339710102597
9.345199290705336,30.75572165978507,13.403052941571074
18.255070085759982,41.677316500427125,8.575501849455698
24.69530904050892,48.09645680258975,6.272593707046012
27.697851647075918,49.466141580865944,6.5711277076802705
26.68252508688367,46.38376327518749,8.300686418829137
21.628967927856227,40.15359925230413,10.019335220122514
13.175709549056098,32.09155602051883,10.835893409663576
2.5779204375165343,22.95941036601027,10.45940745862833
8.497876334740724,12.865113763554097,9.011494407145268
18.293493920852825,1.666561635365061,6.76065786145112
25.30142157103525,10.417534756787965,4.00159361483023
28.526073393014133,22.40439604306689,1.4713174772392201
27.585958479898952,32.65195656258498,0.1365416554389657
22.681395221976818,39.460300431671605,1.0184903769414457
14.494133718288847,41.807324476633376,1.583797303795764
4.065995204609902,39.771596560082436,1.7820105314641164
7.306148909560971,34.40629078387783,1.1949733390328956
18.16659180154652,27.165868018990636,0.769341735658801
27.036961960785867,19.28423827526303,4.141643677082373
32.624398767356986,11.51031734052739,8.08401068191068
34.0675651759014,4.308904148878266,11.268939660467222
31.133721081960797,1.7096681230939508,12.103076373507928
24.289939554391463,5.536565260670255,9.603771956220823
14.610747550604312,5.984926681162822,4.108163342283393
3.538463040320789,2.3472369567243323,3.3643045207249354
7.415151511012606,4.897133282763988,11.740379581534722
16.914318683918857,13.817697256977151,19.91289425455487
23.932933114619768,21.480074814140572,26.759889321851027
27.78911862324301,24.952719104378076,31.40558393699203
28.14351130960894,22.387360331338627,33.48271445112017
25.009464212425065,13.65324423876813,33.09346575926387
18.783100876238034,0.25480679954552377,30.44345857254264
10.271557592393798,15.335823239633857,25.478947247532663
0.6525614369870633,30.527439175217367,18.201613792406217
8.672299000816096,43.22558051372846,9.26545975476508
16.301432658934132,51.997181489296295,0.03902379583774949
21.08654260611304,55.91504551429863,8.211246166415648
22.33593218493395,54.39136566276782,14.114087521463846
19.91177775820311,47.213300326088856,17.301252228876294
14.21899751211749,34.802104706053,17.71054572692589
6.103500609794454,18.48102156481678,15.602410202449395
3.284662739703705,0.47460615970186915,11.851089705247858
12.635766771336034,16.474314136068156,7.558786740114094
20.632321485915178,29.759273220006712,3.769041685821758
26.101402551885737,37.55569525236585,1.805626333814243
28.17375393842576,39.19221255806726,2.757124817145633
26.42425272012143,35.132706868725634,6.7402106251987695
20.962426046610396,26.6526146093561,13.09072682924136
12.438922614561273,15.429664601233275,20.408162183916556
1.9522435938707638,3.2414987754223996,26.916152967185923
9.11124146465995,8.171184906627516,31.38656491946986
19.289071104968272,17.170447819193697,33.33717877075997
27.254831442032504,22.330354643869242,32.72158122069317
31.98057611971577,22.633697576506826,29.589127028177845
32.86642607846091,17.72639247004012,24.015286815142964
29.818039325004467,8.093720744567051,16.16223517987511
23.2564697449018,4.945218920192826,6.122065014780418
14.07017876104013,19.433339030534746,5.7881135625274425
3.4988299297306695,33.132051380806686,18.447287306558344
7.038170097291677,43.9191921571191,30.0801893033825
16.143937643644033,50.10871511345497,39.09112369266333
22.64275049379489,50.65142139000553,44.470211897499176
25.744741982999873,45.22970918995107,45.71750719455077
25.152309569436255,34.289543658581586,42.98330271568251
21.08444278083093,18.993030305973896,37.025509221443194
14.238800931261549,1.086792364243087,28.996845901846594
5.690195978879403,17.28706399488351,20.089340959283966
3.2753772991947367,33.85656641410149,10.918526351562656
11.468128906563242,46.76203328372881,1.8604769231168008
18.013376038843194,54.816269471401284,6.353186082319761
22.376754643881764,57.44274062417625,12.725082018742139
24.37995211899538,54.75865755169322,16.277653368856686
24.168639615473072,47.56445242083068,16.759527329509456
22.135170866692274,37.22682173302328,14.79676309564058
18.820691210960984,25.456608748607987,11.337295295611488
14.820859923739585,14.010373883259053,7.503116814770484
5.4055111123239,9.672843329040834,4.441711773076495
5.786131444506582,10.552879107578635,2.1175438634383386
5.216189857498051,9.713821982629407,2.708643071607967
3.5078997537985774,6.58046319323805,8.519123158712796
0.6332382317265076,0.9161307071353847,13.332210734161178
3.2517779332802776,7.0337225794582485,15.537112615620082
7.8032143342514075,16.48940115327291,14.541462802178645
12.510879429215377,26.19138938637947,10.923282999780811
16.7313374454479,34.56219578232176,5.812495772349399
19.758227452474,39.950546978031646,0.2800994695692249
20.927584415276556,40.90119732234558,5.129550123751553
19.73129877496092,36.41041249851239,10.435763642864893
15.942222442756648,26.16554932258128,15.55346123383203
9.761226591243215,10.71039493551255,19.888182144965985
1.8445712120583468,8.503809407475629,22.448688375867906
6.872567221660476,29.14374991677946,22.32633538069589
15.366966149911022,48.1604799606697,19.045917009971852
22.67514328324783,62.195998112837444,12.848279365634257
28.022088102380824,68.2082609885324,5.585964958415392
30.854455229241097,64.21873178636307,0.19621740282791653
30.837695697463694,49.981705955891584,1.447164086184381
27.86620813986201,27.2998631055355,0.5574648939600932
22.09525071324391,0.1903767719765773,4.48011150899504
14.011712031810418,27.75446713510988,7.873794035070166
4.466930213558838,50.61542160813926,8.922057319501489
5.374779188250005,64.9845849785057,7.152866596356076
14.204433149689358,68.73835838770822,2.9613724508435713
20.8348277217169,61.59297733972372,3.048259733294149
24.44395478399737,44.85108479057019,9.854126951986064
24.720857429655894,20.97771234753863,16.606217669542847
21.872535943266065,6.7549805510799255,23.446419174233796
16.50327893825483,34.529500511948875,30.24798141433104
9.452876048666845,58.26663571520929,35.77545263175714
1.6664486749035272,74.10524379416422,38.592688097932005
5.863045140598924,79.16050955606012,37.79956493530383
12.114729153003054,72.35610164451722,32.98621139988922
16.103240179469456,54.94019587752702,24.124766640321784
17.0251529550591,30.337059365108505,12.219162024140536
14.47764182927712,3.2555398459869647,0.7477943032954155
8.672696594434782,21.639970766433237,12.972704403642677
0.5219501471567987,40.943912643235066,23.15275130745288
8.499974550374944,53.10725071494041,30.445645140731155
16.68782774378683,58.252344231748374,34.543981989306815
22.50837526059558,57.44253248895503,35.2953168597365
24.932275381988205,51.900403255872156,32.72626193781512
23.583995142911725,42.61628556350422,27.541919741383296
18.703078263270363,30.45642421767378,20.908527304037516
11.005055119770912,16.536178589909877,13.631276834208068
1.5234837668342822,2.4566164483383184,6.170023228003484
8.509971968808067,9.874567208197952,0.8160441370827564
17.753188116302063,18.774123025194008,6.757312919452444
24.868281196184114,23.339708256393386,11.55851302779581
28.697679403086646,23.6800046330126,15.2196725016669
28.50203121580789,20.67031224490517,17.538192927440868
24.17563880135475,15.410579891033574,18.4705212702699
16.328296925441204,8.748920409270033,18.29489577439512
6.200381513279978,1.1647767780945733,17.25828913490097
4.5834003659556934,6.955452891941217,15.397792632368867
14.351824620588111,14.917350170013483,12.543447764302968
21.69287332585414,21.532216350803047,8.507051122046084
25.64903779176615,25.32097462852611,3.3640080866741084
25.792418094765782,25.031972458604027,2.4162059701014345
22.213190569914023,20.17012802518984,7.848423532826476
15.469893176121515,11.226166514672268,11.922172929885843
6.521187607182648,0.48564940221621306,14.451389432143623
3.3821321045302684,13.231679773025856,15.688492276300966
12.852019095940953,25.256161184955765,15.52728037921379
20.55705270797895,34.99684302769595,13.898536872730997
25.432828791923328,41.11918460204169,11.143955624102965
26.846250591362747,42.53201794920521,7.634894210723765
24.673828720752965,38.553189945779636,3.5616815287636996
19.288179910976762,29.226293984811043,0.8236644408975462
11.459573085488271,15.609411934964777,4.87342347809462
2.224673126611782,0.20242069374720809,7.714482182049078
7.238708699586143,15.450564883072524,8.705033801299974
15.73749381853003,27.39759960308342,7.72976520261363
22.18545259528976,34.05549121386435,5.244616904695945
25.723395094157574,34.651800431476964,1.8791430038293884
25.84221900488675,29.678943817929106,1.9683309446903217
22.478103585521357,20.581191821477443,6.211354479791114
16.04432371890113,9.2713895653663,10.942336758260685
7.392567368721037,2.307587454301476,16.277232307836183
2.294115931483193,12.464690606629137,21.927926899683914
11.664074667148558,19.90291105392126,26.6480292995173
19.377540165020726,23.803776665811927,28.75898198549834
24.28901581844486,23.899489365170616,26.874363479408352
25.62321988571033,20.501702589984664,20.081447322028033
23.103064744988085,14.451338362590137,8.49167809522206
17.005879433549246,6.959139287147985,6.83720857702532
8.14399630810276,0.6506752950440955,24.308060429786767
2.2428747831040057,7.191605441043307,41.673215478498015
12.673832138423714,11.778183794052323,56.452179201543224
21.651876517462153,13.892377341318566,66.39832729046998
27.887547716963606,13.374069251546691,69.82733141733148
30.486659108339556,10.370766324599801,65.82401133569398
29.072612746480953,5.284644405505983,54.18913961707062
23.832307958405725,1.2728595170008765,35.92757070841141
15.484655098454159,8.527546260089142,13.184237456462947
5.167026441088797,15.580696499813113,11.475860658191671
5.741205369651719,21.44334168553675,35.270085965537774
15.825780740464142,25.076194033087187,55.41908581128245
23.8456678850114,25.449487438176497,69.43542759759585
28.891848188711087,21.689395291181732,75.47644831017463
30.472622333684836,13.339120437482855,73.0341971186462
28.534909257733506,0.6656060929471761,63.3224606164297
23.430429340901643,15.119603544433966,48.71008389215931
15.854856921646546,31.892764061752622,31.642441753817376
6.781132045165157,46.97467753516162,14.317537119449328
2.6275599842048325,57.71364414484006,1.2189148312644573
11.14939166783979,62.10979381531352,13.591291418998868
17.670435190559754,59.265795974894814,22.38967207530938
21.348431235257603,49.507563650752786,27.836307280968192
21.74548437368933,34.19344336001421,30.48699123109272
18.899332954413147,15.365151496931764,31.036968045061982
13.313661476588385,4.607708331599606,30.081502576600894
5.87356946782873,23.32720756216533,27.862116023490458
2.2890378472492205,38.635062610846084,24.578358383400253
9.93885153343528,48.88602061855378,20.911874615819755
15.880116702271751,53.20912189881495,17.610482336856183
19.111228173334265,51.667885686778895,14.994113077261838
18.984594668993807,45.20462405641719,13.224056156197268
15.357932104340101,35.32070175139089,12.459088576214878
8.68878414620863,23.599432695317034,12.671722144756044
0.008553787044197974,11.304578545529004,13.596538965736954
9.246570410038808,0.7402957065518125,14.79294166021201
17.514329095160857,11.949836638725658,15.541572267623005
23.41664431867218,21.6217437418145,14.918112679511156
26.015933569730468,28.718327499726055,12.331743172733091
24.940655733534907,31.991647733085056,7.6539728451992
20.37381801901132,30.42476171994684,0.9589280177837576
12.969188846704816,23.753239024526998,7.458638803716888
3.7297108901626492,12.774081974670478,17.037387561411407
6.127564709606972,0.7420397220582203,26.71682196419079
15.305258780225655,14.494287247055142,34.82230712840954
22.573101307711287,26.21664736788001,39.601048133764834
26.925933052887284,34.106269367405936,39.95535687306448
27.740022677979212,37.000993241635356,35.91646743042621
24.88871870042101,34.381217137397556,28.41463763061521
18.768104521344636,26.36028527229779,18.818446081947062
10.229973722857004,13.761134940126837,8.827358036571761
0.4405437507630587,1.779196314183939,0.14780750261813216
9.300322105867272,17.86356592356299,5.935118448190839
17.856863089772993,32.02040225691144,8.75368505666077
24.44732535048363,42.235758652655676,8.294530278926354
28.62951379495256,47.13465719241882,5.118875142497174
30.283381760530652,46.36036197745106,0.15095065487278483
29.569966730287494,40.67097845952421,5.606670592951615
26.883458713009475,31.68187872782387,11.130300942183833
22.79215973382942,21.361036317192564,15.389964275452341
17.95753870123689,11.499303691097646,17.506158123586573
6.161977189980978,1.4195468822591293,0.20554287405270893
6.327949066399095,2.051753012979547,1.3797245988110352
5.3978766489774594,2.7591234837795486,3.166571535810345
3.208615341070753,2.886749325655711,4.9870256663393535
0.24162169712024184,1.7723144746794917,6.980589935172691
4.757993544325475,0.9276308381120381,9.057881931932467
9.926969917952853,5.042266489792268,10.634189089530327
15.129360130191138,9.90166975512742,11.104353092394454
19.595700149671043,14.541537755315305,10.293752245824905
22.513041509992618,17.957974254611347,8.545843490293326
23.157255151503584,19.321541763838297,6.321064520288586
21.02985155883258,18.12528762312419,3.804373865648401
15.988232561848573,14.2615308656613,0.978545527693102
8.379131847479853,7.8924424420642865,2.1949439730391354
0.9525531947707563,0.6971752136394033,5.5013844974371215
10.870281774575234,10.891951799125588,8.577406568538212
20.156248915229334,21.513017391807733,11.614264529878502
27.65847557493265,30.86933062662548,15.094388481003113
32.43912953517482,37.04621277684503,18.88844675200588
33.867780208884746,38.45926503344569,22.577114472364674
31.696094585511883,34.38594671374655,25.971410691091783
26.118286625237474,25.220355771590814,28.596518377774434
17.777353177069365,12.40272581414658,29.73305568787958
7.713247084009724,1.9848587493139167,29.181468256869056
2.7789896681119974,15.715570674799983,26.95130719789067
12.341940790453018,26.82203457745366,22.714047212345335
19.75722232581002,33.83273327856806,16.202918215108397
24.124668976991984,35.867609911326184,7.715693854236021
24.971961395776482,32.7153127788703,1.8448750129934512
22.297906215853242,24.890271934441916,11.465843541633433
16.548278515589438,13.645938113826245,20.448762777199935
8.54144516897044,0.863887881913467,28.448321369855147
0.6129132550799327,11.260591053745847,35.48551407050294
9.62099389981697,20.670542833904253,41.49588535345356
17.16044794999947,25.902641194817956,46.02630832634968
22.050082121199925,26.369717491797353,48.722178394328566
23.417631392231275,22.381497803854966,49.47471813056241
20.857136274477043,14.948346566563613,48.14454588558327
14.532640170077492,5.466324328011622,44.544570836628324
5.1988670641777475,4.592417521895345,38.668560099011025
5.8759457920577,13.916206919085818,30.668431622130793
17.087587698015,21.50552703576503,20.685203880438646
26.745621801448724,26.739920146489276,9.237709573956543
33.351611107775895,29.377772125785246,2.615721753653302
35.84959331439345,29.496208499750118,13.790370147229225
33.79488307274787,27.368012409270573,23.568893033220576
27.4124735593332,23.292488904536622,31.516374635008656
17.551775553198766,17.459920282866214,37.10486020105006
5.547835500578527,9.951395197200295,39.586479637907985
6.982145619601171,0.8806247263596364,38.18564828871107
18.34840746340591,9.394142131343255,32.85410361000029
27.009892556873332,20.106974905711283,24.902416549161337
31.79132034634647,30.10066442107286,16.346982206036234
32.0382100596568,38.04205509006512,9.209391606495013
27.733133961697227,42.744735061861036,5.116152400019176
19.54777480224724,43.468074071899075,4.837428532803971
8.767545548464934,40.06520027361658,8.507197096740395
2.9016303003512998,32.95269582669887,15.70568447638801
13.626921435506766,22.99174081553336,25.269356257295225
21.776122350970564,11.370466115980351,35.536752381631544
26.182987946582518,0.4804004319687667,44.56407317861022
26.303603408387897,10.97776062518972,50.42216649518684
22.243442407852825,18.574517402907585,51.53401002093179
14.677024077434863,22.076952133388602,46.71153671281822
4.7114962152729385,21.015664411031075,35.37258389754079
6.273917788855021,15.917214934034531,18.069365449512595
16.7956993792156,8.299026116978117,3.467973691630546
25.428731051825476,0.3171869287518534,26.730606073442363
30.971403546472253,5.822207543620418,48.46266479579015
32.61746271324683,8.4602536228898,65.26289300904226
30.091637066898492,6.86506940668916,74.77173782077764
23.712606663626612,1.2778511749652062,75.82880518409755
14.3655981261312,7.323647585630349,68.39657520319773
3.3596995486644894,17.56711382031597,53.815651137934346
7.791224588987958,27.96423716198912,34.872148508550886
17.603574732488838,37.061512002239546,15.915028159010852
24.839479694490862,43.50501798316066,1.728629883754459
28.65593065562588,46.11949836727631,4.778091857112006
28.687887408280112,44.07560694941505,3.274686740801024
25.07971429674764,37.11740465653886,4.778957499644649
18.44459717930676,25.74196683348124,16.458152887289618
9.766052687561638,11.215587196306492,27.948037274124648
0.26727476486768414,4.627945182162751,35.80316847220574
8.751671304782535,19.743684764020777,37.74033941502203
16.088660658199064,32.261068628482825,32.888648285257695
20.7916085748117,40.78751714320588,21.25305258545324
22.272421312411932,44.55890623881563,3.1802085547887042
20.374647210035477,43.453613582275985,19.818479803386182
15.394670564760899,37.93589742688644,44.745587990260724
8.057388086207755,28.973618785793285,68.12143039869399
0.5655454339115515,17.93946013292241,86.69795422877569
9.19200970044499,6.474043021148752,97.68157686977905
16.508816146454873,3.7132235133956315,99.0834059724419
21.381450138555184,11.100385156926167,90.44808301693047
23.052236692847448,14.603375942156635,73.25273004150463
21.27463256275782,13.755006950004313,50.230444809082016
16.347338009797337,8.786789146969092,24.180944157553125
9.042395188060855,0.5891428598958917,2.582324409835158
0.46196533348407326,9.437481126621316,28.04741436497841
8.132895786308122,19.5879483504873,50.559037229879756
15.496106383855144,28.09121946212355,68.74150609797667
20.557844348463753,33.362448515692044,81.1127710533972
22.561099085063734,34.23767674764037,86.32057822527713
21.171789098297587,30.165263815442245,83.61749861649193
16.54903687837938,21.313953553791176,73.2637381165748
9.346257371103352,8.578206001471811,56.58284292707414
0.6288633921570349,6.526799888558685,35.434690169609645
8.29898846366453,22.077227332126263,12.013186015923857
16.12021635790433,36.01911104177356,11.059355061273637
21.71196825630725,46.477694531162044,30.879054200432044
24.300812033739586,52.05451648008324,44.806220441661715
23.540659020958476,52.055396544656546,51.29918255531568
19.517404980635874,46.59940028416211,50.3971184128395
12.711162316897234,36.57109239239692,43.59523783764097
3.9397367442514413,23.41575796031003,33.06663882056586
5.695325539389805,8.814996350368942,20.791369485859214
14.89799325508145,5.650408179226007,8.381833318695787
22.345755127984177,18.702564479123414,2.8287412549189668
26.911559588741973,29.36503963043156,11.893377078541661
27.88789032324905,36.79628109976851,18.11564825655714
25.15245856231036,40.11218094316446,20.787439024638818
19.208639760743228,38.40560255433355,19.574342916662456
11.061377420787496,31.04978180291468,14.920038668573868
1.977174174556705,18.20097943130723,7.789822981826336
6.777633528265978,1.2486757131094561,0.5759321081228644
14.144215083322486,17.108455726285445,8.81836460809505
19.361485077985783,33.327617365266384,15.58983933408717
21.958772424724977,43.93591213422121,19.665054225358237
21.725128546217324,46.54960333283214,20.384928903272684
18.6993008622067,40.55863886613915,17.992682983680528
13.206962040117686,27.199566399573566,13.197414165262591
5.913963273809272,9.046646033752328,6.3197648385578145
2.174829034396349,10.787189121287458,2.726282835451071
9.824207816907641,29.371247388910145,13.472466746780867
15.79793938103163,44.324264933556194,24.301505500923174
19.12769124508928,53.821409783396085,33.02044612515467
19.310290409449784,56.50986518633534,37.76574530474122
16.375620119666095,51.605588370753104,37.164767299106536
10.818799994896922,39.248769353520295,30.893484054317423
3.443027613218282,20.9267749357977,20.51734103655949
4.802421288485833,0.4006859679660521,8.605672831564766
12.925731998563549,20.749914434714764,2.7049027705718895
20.07362134895483,36.50171626901207,11.98503036417557
25.593398263823225,45.548189146683754,18.24554535040862
28.96801294583456,47.54907743677301,20.90894494415644
29.883941796745315,43.82099991704541,19.95134956627606
28.323680388105238,36.670255865516474,15.929492155563926
24.625291718807276,28.47573383356161,9.78893281414584
19.460915392930822,20.928483657722083,2.465882277443033
13.71463371939463,14.731862773309894,5.179424469212785
6.883558822462862,3.8594533633065,11.480620184481102
7.939670976190079,0.5447454835149004,12.108522820600486
7.813446159065855,3.11121027868139,10.83363805660178
6.138799673247414,6.685108301594232,7.72256066285871
2.765967443381615,9.934692340660455,3.1133081729969327
2.179532145718429,12.783455501426639,2.7424826890374363
8.270090998279493,15.241494725449543,9.755422642334366
14.79348838981854,17.277290015747216,17.822874589955504
20.816621808910895,18.73794816980518,26.339665873512807
25.3143979422914,19.317191497581504,34.018937979529525
27.33343660984325,18.595108245433167,39.419602539508546
26.147934459302896,16.227036597749343,41.14639387473206
21.40844490715906,12.208948583828436,37.810672362986224
13.345214853723338,6.771655632009821,28.954571495873044
2.8530774177589144,0.011567947493183278,15.643919999565302
8.725966267471481,8.02979523917091,0.21277065532693185
19.873044610037375,17.08112311661326,16.313574390055106
29.120191803262646,26.498369831413005,30.376329347702004
35.28624155762513,35.1494127571095,40.89727937868417
37.59450685827457,41.584939453306106,47.165871452181136
35.73602655699174,44.41643680671543,48.834608624125714
29.91309763779229,42.69335399904953,45.8807553067259
20.823144071716772,36.233294479233,38.850968545019796
9.618118097554847,25.68379971234099,28.932737108867677
2.211941732546824,12.353995108810876,17.591710045484735
13.03216120306122,2.0848625705400905,6.272583979800207
21.31036151006515,15.946232175901619,3.451922613348503
25.88542188205407,27.766036447668775,10.297297014847532
26.17400198930357,36.416051571580276,14.003829939172178
22.276028063736874,41.117538385274294,14.80582884578708
14.950406888879472,41.44132720404337,13.145340112595038
5.470123498939729,37.36363845028235,10.091420522817783
4.607301713809952,29.355493090675026,6.613117360844749
13.699098629765803,18.451923062449758,3.2118032417769435
20.420927603984502,6.1925599709474435,0.24503121425390645
23.75446456904684,5.616093910995156,2.229077347777923
23.153901414611187,15.268031191623615,4.275276466300525
18.603341644874487,21.53875012612006,5.942350663867542
10.625895664658739,23.932647756161586,7.276837446687145
0.2296560526280361,22.711108822062556,8.270536131696302
11.19896526369288,18.697888253688433,8.861849397475938
22.065190521875444,12.968595947676704,8.479041787522036
30.7961010403493,6.575937404082014,5.9741806473326875
36.08113788513197,0.3879893478609964,0.45694704761712523
37.07605324587644,4.948096240951248,8.172551639011564
33.53302142141378,8.962105739821645,19.68453010000395
25.84396384758452,11.32057737193425,33.76269726935722
14.984945253580017,11.853621464338591,49.08255081494619
2.3676988226449938,10.63587810378357,62.91915433158969
10.358707969869043,8.049576182274906,72.0989758696207
21.536745350803226,4.775497285507918,74.10449266518866
29.725632750590865,1.6780479896979914,67.79578480881554
33.88466371400615,0.40275091418258624,53.338288184894814
33.508150003171785,0.8790410696800218,31.73243400376475
28.698407747588544,0.4131984193959201,4.76463372295648
20.16435032730896,3.1537317740981696,25.14558570070086
9.133987846909301,6.611553573883912,55.03338160714216
2.806947653616846,9.837819963960431,81.35139905447114
13.925262431919004,11.912141940334076,100.52693413921095
22.594721826009796,12.155564081820486,109.64610828986018
27.55072346571368,10.249308167745577,107.25632702416327
28.090198658305884,6.226123042922748,93.76171650150208
24.192142784140838,0.3667967094637145,70.80010954819045
16.52598484845822,6.915651215635609,41.28654802038088
6.337101619250474,15.126469215586509,9.62029259849449
4.7769148902855925,23.64067833888559,19.492303105544
15.1492472499977,31.603352210773874,42.43513059218648
23.3076571374015,37.868734762874574,57.455082437107244
28.189367186152577,41.06883693411475,64.50898042411103
29.27332209280949,39.863465784701454,64.46932697275052
26.60353499657822,33.316128814023955,58.572200722185784
20.731035561180594,21.270168562344395,48.25980920896079
12.596373982283078,4.588107117669601,35.22342846217253
3.3775597501692443,14.865072093575709,21.097448851592503
5.676533916179852,34.503462255286244,7.379689766041793
13.4107059207064,51.474269714293676,4.257126074557904
18.89912449782561,63.169810313917914,12.163059258328845
21.54736648540133,67.67013541803965,15.18006314260918
21.1518093560382,64.02638064721452,13.235614538684784
17.909494226326128,52.376174775298644,7.369965140492936
12.385064531121968,33.917224535339884,0.5766224517184843
5.43087941488712,10.755685695615737,7.977256178641596
1.922253752111384,14.34285766288427,12.497415289348156
8.593766283990588,38.25908599354489,13.168169459520424
13.607884881078265,57.8692952442491,10.099893391062784
16.245296550608913,70.43362864782877,4.135546341440608
16.162469224839953,73.98492686191564,3.3190728941186896
13.442967607513527,67.67387952220462,10.638747419689029
8.554979320513102,52.02879018135363,16.517111628952655
2.2414483055105547,29.041274158131955,20.336239858913288
4.62120951287676,1.9802425593143007,21.98941047194014
11.151495612442812,25.086215095060748,21.61806800018395
16.551540301392247,47.98618430708285,19.450244980245685
20.16006262102901,63.200284752660224,15.859698261574486
21.486193817307168,68.4724693654675,11.66052637207277
20.266849274675305,63.10777360497959,8.135474574058199
16.53914171140927,47.95202702329951,6.460131367125436
10.68012488847793,25.170552780168666,6.888284828988113
3.3927460233915796,2.0564063176761476,8.610882737801901
4.3975415276775305,29.832839017491203,10.199058834767833
11.719548140990801,53.86556043820433,10.214662417332853
17.724326089211903,69.94507809039698,7.919522996363502
21.791383893841957,74.67632395119657,3.454787312375116
23.545785385671365,66.35271907097666,2.5118473799481333
22.808229775404094,45.66299275276021,9.268230406905136
19.554640527513513,15.871515836489733,16.216345303434263
13.94317334161919,17.738749530321243,22.48753824304071
6.4039177344032,49.088015788983526,27.13652637147688
2.2781193946032237,72.76414820091442,29.604864240622952
10.973106170655239,85.1681527524335,29.41758494062839
18.368197989894295,84.98805438651728,26.36289094558096
23.251394951634786,72.97571128084287,21.018586063739868
24.80702508844556,51.30652042550002,14.384808535088798
22.815760660894757,22.94998505077689,7.325317167152876
17.676781323104343,8.678225247624765,0.22807615061516956
10.262315808528786,39.82609458099365,6.888910009006981
1.7018588704593811,66.55081220582218,13.798115751674388
6.819692548758225,85.15205751795673,19.829469077324887
14.18832551934742,92.900496970482,23.925310931299126
19.421778796652568,88.78104752661882,24.827914092912494
21.74728825437377,73.84654027589873,21.507368393207404
20.731381522470052,50.933136405056715,13.911165210666896
16.427880074671094,23.804530384010036,3.5402277046301536
9.483527621097876,3.8713282704698164,7.404287107969581
1.1070699741553576,29.226519167728775,17.128161546150206
7.161196616235735,50.34504917561355,24.108913876103124
13.803788823606038,65.94978090536094,27.216242283796888
17.665979800886642,74.9937060618886,26.425022645181887
18.184519994618885,76.55244880597971,22.47638342594242
15.433916038428933,70.13665595020917,15.729788583558149
10.000553017340621,56.22291591899987,6.158342687913366
2.790971982705589,36.61118089014363,5.707155626514363
5.136960509020609,14.297766619656054,18.532632705405994
12.688312320099294,7.167355873444954,30.40572725443247
18.8076164470347,24.576431988503035,39.47102087617806
22.56343897555173,35.805279835634714,44.68261099461411
23.271011226671643,40.11054824337547,45.773999281556826
20.63589732796477,37.971836526224074,43.08039120487214
14.862685728127444,30.693811009315624,37.19325522815186
6.674341918388148,20.01109171959607,28.623206040298836
2.7916414782392773,7.836725604178021,17.743240847969624
12.186439517273564,3.8620926304317518,4.752827521062686
20.300371616466453,13.496560088132604,9.65149562590988
26.30020787363936,20.09138056290681,23.928035533272954
29.739082018636108,23.18451788550402,36.60099776938941
30.545556302544224,22.906233749109013,46.466478500918925
28.973903906104205,19.946211554863954,52.20492451382974
25.521304710199335,15.35831383559984,53.11727578376572
20.83534234768321,10.255404873636419,49.78373650324916
15.628269657628874,5.5191404449601675,43.46759821663245
5.7732333065567065,10.00802108361616,3.2972275702842913
6.897014464485937,9.162912075893573,9.677317819066467
7.059029007848198,6.10113821585034,15.767880381651375
5.8680946456333745,0.6556750831539501,20.481669329664438
3.1193217659336434,6.799969340854128,22.955658510690064
1.1179990099241477,15.359727219410887,22.6210169892688
6.459299520322295,23.765585865613954,19.33845175835689
12.242330507997602,30.678372277574628,13.486704686530082
17.61456699439342,34.92571228155237,5.680346444280435
21.67023579616206,35.6338119357405,3.219479597131124
23.60118088795984,32.27074906882163,12.267130490103408
22.809342972456214,24.69771828339881,20.790812151066905
18.993388356553247,13.291394615134598,28.14820266087351
12.288112431431404,0.9647790981986519,33.455270328404154
3.349062047759183,16.537697950190257,35.652927231535095
6.766173628769608,31.481798733497534,33.88912734885288
16.756741128003636,43.68893875048245,28.087616506064
25.244114162884426,51.3024250369211,19.061111695701705
31.01420133878515,53.13459978919589,8.138838722785735
33.21719706727853,48.929457391463174,2.9806865431896794
31.519799973605217,39.37292554201019,12.357324613049657
26.176882080601253,25.870274287941672,18.593755356717
17.963391694625788,10.236209301912028,21.10980314319263
8.025769634530747,5.588011495073005,19.76902470953669
2.3280320382549333,19.726895888696806,15.0500230452266
11.826266776256329,30.50535795488805,8.013055397865266
19.36186595394943,36.61871824758379,0.11083943554930549
24.076237454640477,37.366278040988256,7.04957916676613
25.412799375200148,32.875500523567574,12.201565531401872
23.180692052221776,24.160136716521126,13.953229076586357
17.63062530737521,12.91738970747077,10.719827379913214
9.49442180933006,1.129114857731405,1.97106344155332
0.05947712941876579,9.37492776437197,11.194962216917187
9.58696604117879,17.213943713392958,26.16758843776284
17.628767316634075,21.512527894855356,39.17520633283326
22.984109225073304,21.804298577614933,46.5833108906684
24.89373606768859,17.97390241450375,46.425524809166696
23.109861546229975,10.34315311154912,38.646925670287345
17.87185358675834,0.1378880148846004,24.683515504786214
9.82056818470001,11.788041491935344,7.136884731331727
0.08238446551591162,22.396954019429707,11.2065875383393
10.614181995796699,29.750028972666385,28.01864094557869
20.374323792428783,32.271236216594154,41.3120572221096
27.935848516921517,29.4713492208564,49.59936610477555
32.07329412611025,21.969702884963123,52.1920772632352
32.029611717663194,11.100067268564558,49.394230569564314
27.729311414063964,1.6434425478707884,41.894951808237394
19.83379019843553,14.977738089925104,30.25595266260729
9.603040197287477,27.823052038865093,15.802672938513078
1.3855774734372779,39.01480978616998,0.6511258939530822
11.549947365025798,47.072331341761505,13.681521430025654
19.549213281691497,50.316998395463784,26.55203104734857
24.423216460062424,47.37437409028481,37.347559087364814
25.63838516556928,37.82862949694456,45.265500656133774
23.104773508880555,22.632675241743236,49.5706314072777
17.199261962282215,3.9714650601078048,49.46058504660296
8.771587929132584,15.389907053304551,44.34465556724845
0.9048011239081241,32.923748741350245,34.567325613691516
10.28714102112801,46.90583714065392,21.186239758472336
17.82654041710617,56.49339996714195,5.575719699562513
22.270850666297555,61.38629687068808,10.38727608044129
22.906119437134652,61.40910513811759,24.614343123405337
19.6602432457038,56.351396641364,35.41287443230839
13.0638615233216,46.18080946863584,41.87443974945017
4.102345400097457,31.463733953191415,43.88319905482946
5.969084918275822,13.656253312058377,41.8278017947763
15.786194347649676,4.993436018725415,36.61439490663899
24.020397004946545,21.952777709717093,29.279212821986892
29.51831622568224,35.081059799214806,20.326754610949955
31.44335347390231,43.123921016144045,10.154043938891604
29.41817908802542,45.82965621011847,0.32701387700544754
23.62307469603815,43.72988933723741,9.891919711466262
14.790249699772481,37.78902225008383,17.441617071395825
4.084425662472135,29.13803957511229,22.264071266781244
7.084488871355491,18.98350233071847,24.257478565267398
17.27590942217309,8.618063037284864,23.893792451563147
25.20945356851278,0.6355920335416929,21.49788332716706
29.892749541308408,7.621901508492954,17.083238755805493
30.71147128901129,11.6088983852226,10.927853311645588
27.505688228595808,12.467188812329853,3.489589389887305
20.628960524714245,10.639106320990878,4.52073823507899
10.969119227245189,6.888020417893679,11.996449810285876
0.11702393819946581,1.9895520906863255,17.727153433478943
10.984418344125517,3.448436165579284,20.460509319980744
19.978379040681645,8.944188193145184,19.300438434906898
25.740511920455734,13.958856605547453,13.989318490277363
27.446548744830064,17.76401600872733,5.185770581351872
24.917486223838353,19.497905109622977,5.02337123040882
18.595216970805517,18.43866997245438,13.83496310629316
9.415225798480893,14.353722805121125,18.925843593606825
1.365162983102637,7.69338536315039,19.426158869765608
12.323499990127848,0.48822582440501405,16.412773150415124
22.00664145720376,8.843200564282053,11.55730050435155
29.082330690091393,16.08868161663055,5.568015404425589
32.50926230485052,21.219855210144566,1.245161218934558
31.706786226854152,23.533292823945885,7.917456863437396
26.694568630807943,22.557534692036143,13.343910680810513
18.131343758809397,18.06247030348778,16.817263989439386
7.2147119589445134,10.248852201540059,17.76393163341808
4.530086740510843,0.0354462368616625,16.16522286367946
15.520559441473376,10.770611789473532,12.565445298862393
24.37530722695258,19.656947916107512,7.463870258568678
30.089952069892213,24.02275948186772,1.6029426859683011
32.11619219781515,22.049916287434694,3.7497110170964882
30.37006418667484,13.446916975403928,7.060754352749776
25.190413073169715,0.3115045063170043,7.459844252058791
17.277701227090944,16.364722988226625,5.601019916925978
7.633414426944482,31.30183283703211,3.120074290714267
2.523833897475211,42.09361136116496,1.7680139711557545
11.88723352852764,46.74301980760015,2.68372042833547
19.233118768793158,44.49545786028901,5.695189925495138
23.609993533380024,35.68525566443892,9.731470596017918
24.487828653799877,21.4722980458955,13.907483165288083
21.831642131196084,3.6935407019359947,17.701074845074043
16.08986160586814,15.179732633450694,20.5144248110648
8.102434902396977,32.13423063590785,21.897590936923514
1.0230498947314914,43.962046883207535,21.68916381634573
10.04113361192434,47.94862539685084,19.579847737521984
17.71366137136911,42.713707260749146,15.3095191613607
22.95097842455221,28.85021531665046,9.137319288729158
24.93797764071641,9.00958721093535,1.8055249861141844
23.264335291657613,12.706372812301863,5.756895030139465
18.03136059486556,31.852664201267764,12.59902485351583
9.881807177552382,44.811074095183386,17.63007348124801
0.06076858971495847,49.55816583021064,20.048602351406554
10.355686460644263,45.80922981704974,19.8430874744509
19.49183376477081,34.64387094838231,17.48539576665733
26.14443839636427,17.910907584721304,13.618575623159849
29.38840413791856,2.25771465818773,8.785684320315708
28.824101510558094,23.658398093308563,3.3606232424365063
24.595658255790127,44.02512108139037,2.035803961786994
17.331621738868535,61.04865817770097,6.443075577513695
8.037838086487383,72.59165790872531,8.709677490697485
2.0296408417495373,77.09519626937158,7.734813751879808
11.500089906515292,74.00263470466142,3.049170587232707
19.05305266995017,63.95452026187092,4.793265109295794
23.607466891553734,48.59287794065676,14.186825951898282
24.50337628425315,30.04693353397446,22.956688141534286
21.649619574340484,10.338501017180691,29.445511888397633
15.587502206970433,9.011751833006429,32.966353379850055
7.409838001454203,27.011864457183698,33.20895120868784
1.4575308057560272,42.92890341671745,30.10822058095143
9.685258297212608,56.097526715723234,23.98682338683405
16.3174857591411,65.84907917742812,15.44908245502342
20.777786702182315,71.51996261412796,5.461202139465805
22.87603610145823,72.66515540235994,4.682858785807181
22.75313578615072,69.32061437901191,13.575372848205886
20.78464205922179,62.14412266626428,19.761147287333166
17.482807390453306,52.3322008270405,22.078102922712233
13.425088662591982,41.3481285466684,20.479730771578485
4.7770228538951205,4.498399120719376,11.538038307893602
5.9775477336478335,1.869381572769812,10.52981144674737
6.421490416224969,1.9059082731469095,6.9225140679616155
5.6914850390121146,6.442761219919331,1.579624046502281
3.530957964772037,11.23292661174989,4.351253234958884
0.06523259002585075,15.706370836691505,10.05007687353445
4.80735265395913,19.27493630373215,15.050838578899901
10.13525962971688,21.3642294170792,18.783353161197887
15.29081430945697,21.4605396569415,20.818783781145143
19.42369106289204,19.164773331310744,21.083684038487874
21.715482086123345,14.259462090532503,19.61009485001903
21.495774498843435,6.8144751749777495,16.444686051171583
18.35286253622007,2.677405040070372,11.643659326728299
12.293241705085311,13.291457414148002,5.498694862523574
3.8474513581577905,23.856053045230702,1.205020231095999
6.005673970932787,33.1463041680512,7.470626690702027
15.971777693897952,40.029054004593284,12.479378456414054
24.612173539987783,43.58302806849473,15.583941908533067
30.604491449344263,43.16505767756558,16.586565251720558
32.97606828433588,38.47740448824428,16.245838524328395
31.278642920910066,29.63310587926705,15.647443397753378
25.674904384018923,17.20012794378206,15.264559312734644
16.89286460235211,2.2143743310322708,15.05158417955929
6.106433238424504,13.884636360882608,14.656625667402604
5.240124464929228,29.380276419858404,13.568019213515136
15.643768351277112,42.46986839850744,11.466292938379052
23.73814467324214,51.496271537452735,8.46341620965432
28.462165857139727,55.17730114559586,5.187366430583597
29.199890749778746,52.82312666003683,2.3098577866036467
25.870954465166175,44.48290328352595,0.05990175478106401
18.953309992011665,30.99141065069779,2.2783108877537694
9.429488853154874,13.911556661811158,4.708976687220875
1.3534836398390289,4.6406934686047325,7.477064823693699
11.887725926186906,22.270744168733344,10.69817565578664
20.722001094043975,36.638898840742776,14.647428189060564
26.660124295356805,45.79863312605248,19.238748442679693
28.91223152879308,48.50489035925785,23.693547408522573
27.18152751821297,44.44409136456178,27.067390546074673
21.688595573820937,34.31271342036806,28.628988261790735
13.138537707881197,19.709820604814432,27.539691142849446
2.6439806809860866,2.8496211601324455,22.747951633797697
8.392208155703312,13.842867042577089,13.758570115431159
18.453633983886743,28.139062756655385,1.09238078536386
26.136135712831845,38.310828586754766,14.315248118301902
30.369912941669106,43.270238867464435,30.94583999390499
30.60305286039023,42.56887086956368,46.01425227087562
26.902244391327887,36.338999608250866,56.35291835725581
19.92267329321966,25.2510543352434,59.79601636462591
10.76725826398094,10.521465621190888,55.72678671784472
0.781423229239755,6.093154262908507,44.81117098000749
8.661880871086044,22.439324157420995,28.36389418765606
16.3335002786554,36.29315177245298,8.174888137324423
21.26810379729251,45.795402229880494,13.426674093407225
22.85418709661473,49.82624150588988,33.697695462217176
20.91917471852339,48.149138412720376,50.054484559719405
15.794384245410493,41.26731589582575,60.592455980566704
8.319268237814313,30.084222157773436,63.98084152075336
0.2429256043337182,15.594170073060088,59.926729563423905
8.411878217362485,1.1808042582646827,49.98239326857298
14.789081166014073,18.990138426050507,37.055109308908925
18.342507751403833,36.07800229510277,23.867476895354102
18.59410718391725,50.113498924907915,11.970080125175603
15.652828958368039,58.53217066545027,2.130807335328582
10.09605826141748,59.24232511721094,5.1371590269859455
2.7926173798533385,51.40240378678754,9.889011231351715
5.249079372324503,35.88249469775839,13.008008584365902
12.977446945972343,15.155788096555847,15.68456153110424
19.35685358409532,7.337505215142543,18.696840956850686
23.439993292623736,28.062849017042147,22.32641114302952
24.492784473866752,44.11887528706212,26.350178047178904
22.16247633215767,53.582237597199764,29.90892845169302
16.61360034383847,55.52719328747941,31.89181891218505
8.547877198185962,49.94537154101368,31.35560404478146
0.9236792819792792,37.748085206900264,27.920349204639695
10.5127244345103,20.838290677004906,21.928611725624673
18.994392074052907,2.0638922140326548,14.098744717818938
25.37229774850036,15.157070908292823,5.5619524093174775
28.925415512367742,27.608966783593107,2.2171402364783854
29.18488643564942,33.21434079473795,8.094323255058871
25.941367360892208,31.68152064151699,11.551930439196008
19.318269818138575,24.525881321790433,12.65355103263609
9.881715020106734,14.431735023549155,11.76335257408186
1.288916027145563,4.252559012258655,8.911659512867809
12.67680770966232,3.8525271921598896,3.8675185952464624
22.584555186602966,8.772171725613246,2.9735691555104986
29.490664620033304,10.25718067725973,10.4551340282002
32.36950142404402,8.486727336960028,17.18807430980492
30.867469577652262,3.7738451706258487,21.973029703752708
25.2959052165553,3.3940579277100205,24.26587983341101
16.482954518725602,12.076732982442454,24.169031706416924
5.595530930682779,20.69817132199516,22.02688073652669
5.993861094082808,27.269543741557044,18.22152167133366
16.805068375448762,29.998506638517327,12.912887937112028
25.364233021367664,27.962358133681487,6.022509366463835
30.384747260334137,21.448115073196192,2.641619519012704
31.015512427737473,11.745407885387335,13.34850970272799
27.081251341421925,0.5013123779600585,25.73598144749854
19.195810441629547,10.967589023840965,38.41865799133344
8.67130712177084,21.95975121401267,49.70747965908468
2.7708334669680723,32.14015649832574,58.023291266469776
13.384677499976512,41.003908360660134,61.89658579075091
21.719275760145937,47.47567742699115,60.42310441012125
26.79426302971046,49.99830508551997,53.6731747704657
28.139038017762203,47.122853018496855,42.35842964418886
25.74031143545495,38.26595809561312,27.44673300190341
19.98593868732688,24.178063917196702,10.441600354440325
11.641341479771722,6.831699084981475,6.628811762313907
1.8236644545693743,11.191659076807795,22.021877450749802
8.080636603110849,27.466326726667653,34.53741255987397
16.604624935671247,40.247045116542736,42.96072767432407
22.462374043806868,48.54172264738884,46.14746833296395
24.793041483655024,51.85937895219673,43.76059452865707
23.321095563012626,49.96102377238658,36.360924091377065
18.37973861437417,42.85323049252074,25.082093185760836
10.800938006438987,31.022615198174712,11.754802509321829
1.742305794613099,15.706790236405066,1.3297121149246158
7.489861535826187,1.0631455187191627,12.340748733684789
15.597797878097433,16.80281158824218,20.140511013659204
21.423829397242972,29.17975349212306,23.814072473462755
24.07459791655494,36.58588514124673,22.632017023187466
23.06396202056561,38.42768138440463,16.444019842068453
18.43282613824526,35.05895126500438,6.202407302031196
10.78149977265837,27.48438474743261,5.947407364169725
1.2039973301279814,17.041761868737662,17.655074307022147
8.87881307925568,5.214558661057096,27.340581413398766
17.95563339124198,6.4347606667395505,34.12344476033671
24.656670258944978,16.360767410147247,37.553408432355255
27.94712024687183,23.251059326010914,37.78073663836163
27.26517216794951,26.315500776647017,35.47524981581455
22.59320301970352,25.49780711016958,31.37086430463338
14.48415087247772,21.451753347551097,25.942282562068844
4.026289487782983,15.251847842138199,19.38445598130112
7.286443127916327,7.979394857441865,12.201542737593494
17.77049874266112,0.4384467235088036,5.14980812984929
25.838940589049702,6.842184906382437,1.6981558688170602
30.283460668129912,13.391290987574294,8.670413997706287
30.457622419071676,18.57031117734342,15.815252695798671
26.3424427337745,21.569415060023452,22.937940613810788
18.500678849350273,21.697588892629742,29.59239513124326
7.946654311747056,18.79585013529342,35.01438689051371
4.000766102380813,13.484405632384805,38.130154065775606
15.848898283768282,7.030199522512517,38.09243861839114
26.19863075782706,0.6211842534860401,34.64976617936509
33.98832256205138,4.9939145905206965,27.95914785182939
38.576120208984996,9.360160115226849,18.5639798869878
39.80299954901164,12.313666121069344,7.714153953203907
37.981545694333995,13.848498713279968,2.6927868615322472
33.79634932971777,13.966202691301461,10.99687235610882
28.150597183431298,12.631595050372061,16.280352911286624
21.97884770573679,9.884329954968036,18.372174807389957
6.247570455448016,3.4771892915340894,2.350688385742235
6.278795129551694,8.284488872346833,3.406152609761183
5.233052409816959,12.844787285470186,3.4888506653548657
2.9958121742227775,15.619421772808392,2.701689837066666
0.4325026489727301,15.476084630266095,1.335177860639102
4.904137875229494,12.075599925604203,0.5655608092795215
10.077070058891643,5.893000937806797,2.680526845919049
15.378966264769133,2.0654343124012877,3.883757127218352
20.024088190678427,10.646849761921155,2.893523647817375
23.133723176373092,18.805723810736048,0.6240748292425828
23.914415129145944,25.64860626328486,5.935479520547709
21.82484206257312,30.35153102860314,11.601683660288604
16.716444790776755,32.07414435652903,15.912266032877845
8.977641180185584,29.987929410316774,17.657784848123008
0.4875802185386344,23.591897232272505,16.245803949705167
10.541206070510613,13.254414243209979,11.399270940236516
20.041612487396257,0.4873348804286727,3.5326974497903785
27.93703940003672,12.341954759119112,6.171301603201274
33.33919500315257,22.72675065957331,16.354886349904188
35.5617575431201,28.852227573615707,25.562631122287943
34.20920413014931,30.09942841916989,32.21625493523284
29.297063823354506,27.005749679624078,35.29331845871417
21.325653297800567,20.802913743795877,34.7274113809535
11.282998611536977,12.835965985366508,31.007833112189054
0.4999215193346397,4.229709503838518,24.79711917837917
9.592613187933914,4.094640517401632,17.127043926430588
17.718886428449952,11.212515353083917,9.641120452693563
22.95976593008789,16.046131440952298,3.8985434305635156
24.835204634263658,17.492736487382672,0.37857436050401927
23.300614955859896,14.808446180295684,1.7253559615892857
18.70041084813873,8.012242445607479,4.288382789216901
11.720335764488075,1.9321783356651345,9.249891016367183
3.359354109417285,13.278330146268779,17.236488244755524
5.134165894683346,23.933443545007712,27.642937635219095
12.409509611577258,31.957856879720524,39.03798870778983
17.230150861796936,35.92416600362857,49.13741086275543
18.710745250532522,35.054370895137005,55.71965503174824
16.5085679694718,29.200937845503034,57.54455796493982
10.89697866644408,18.81032146907616,54.238284950002424
2.6976506472760162,4.922321566690415,45.77105784193298
6.877004320172899,10.851360995367198,32.44043734100637
16.427286590047764,26.446283045034168,15.538444969905653
24.57957347697723,39.62944306378463,2.692845800522316
30.156432901059745,48.425877709430125,19.908404541646735
32.30865667171862,51.52791017890583,34.02398240420182
30.62601922889218,48.535689766566286,43.39820330900652
25.204585371655913,39.976493630536105,47.313087913728666
16.657749226777888,27.11929459919902,46.21461763765405
6.058701200878521,11.688918516502273,41.53343873556101
5.19560696036424,4.392179394511067,35.33380238445285
15.592056868685853,19.209613647541318,29.541557379734826
23.74705417506313,31.051384857413584,25.09091339549173
28.625906958727377,38.605666507015314,22.02893164278184
29.689666605316155,41.13738128805951,19.869959005838563
26.95781727440631,38.58485478126876,17.702570825573066
20.98643308457384,31.53410326266873,14.747980508992528
12.773554995808881,21.07486348351226,10.817751679538155
3.602755803901139,8.579677443056765,6.138995966789253
5.153971157938492,4.484778683519524,0.5705434818663314
12.232774223775397,16.65260339031912,6.636315490259625
16.64860823514738,26.52568099867385,15.683319638961699
17.81756655654994,32.88980552699314,25.71308910684174
15.60992769341595,34.92932451142688,35.23193917802851
10.339906448412766,32.49717639775738,42.262129619763186
2.71642313098621,26.28185275382956,45.12102399084116
6.225725931150681,17.719360830199353,43.37198752017328
15.222253489836826,8.598864747947616,37.75627649225109
22.911670285322156,0.4922906767055034,29.705462271497876
28.002223886020513,5.728323592578421,20.768844045811488
29.472267731286564,10.045991751880713,12.109949915245764
26.772848277610642,13.047489674982717,4.411643427302102
19.979816683331713,15.42610941329937,2.1350315179973887
9.84293107237377,17.53621751523369,7.734823965578952
2.3076839017325583,19.247587091807922,12.6907516876965
14.786234930084968,20.146978231020185,17.263302905612452
25.853385374662377,19.917362917135666,21.51920309064344
34.01155909289798,18.644224481832126,25.23668561735489
38.2132652584659,16.83266572166713,28.310169928596302
37.97140467714587,15.124762511542018,31.219953536902747
33.37704661622904,13.943206608512059,34.528003999032364
25.047022180575716,13.29068082120378,37.79825789636704
14.045311868416988,12.821454103070383,39.657610983457204
1.772866060018045,12.119668395778328,38.63800258956705
10.182059713755944,10.965282462299486,33.852136004364425
20.23872975530326,9.395746313673333,25.476461599028003
27.05896939288062,7.506062258080726,14.514183269525212
29.77668084847023,5.147892509425007,2.3891945249442665
28.167623602550048,1.7817112072622812,9.603695406849917
22.68753496435626,3.375830858749081,20.92106054159738
14.364430505792646,10.930394553730467,31.202154593709476
4.5897953707826105,20.826399187970583,39.83641513148008
5.149828648192909,32.082104670544275,46.39459537632786
13.509809877120285,42.91011805864484,50.620479013235226
19.432203988588874,51.1821665443742,52.409909821695095
22.218289963052843,55.02718764989105,51.86497716783458
21.554323017094898,53.33258857363754,48.838733876543564
17.52187411026143,45.97597445752585,42.869216767320694
10.606877863327442,33.76769286436436,33.83604202232373
1.6898769962976024,18.226482097762137,22.048961812310058
8.01912362297572,1.2940066250890814,8.025253175359902
17.127773916851087,14.942896122932739,7.047124270935634
24.265146193701064,28.49369658132277,21.391438737064952
28.306454210760865,37.70448645338351,33.370280152004135
28.57098569943313,41.51428837818261,41.78308252400856
24.93886749492975,39.65888873641354,45.85694356761474
17.865020498605944,32.73336281019303,45.16798295436976
8.292773430349449,22.082202390661326,40.33051257656436
2.492776986629265,9.546724062185671,33.286770723427736
13.046584327675173,2.848121858691273,25.76958601498906
21.96992528636553,13.182154017282812,18.549627933679847
28.098565778641035,19.850101964637897,12.152801207976937
30.65869409539381,21.703001671978416,7.162817394102581
29.37847097625177,18.198290790827944,4.153620741849581
24.51663975455899,9.572846660042153,3.3818981346799477
16.80042072459582,3.035047074894759,4.341615513278322
7.29259345394917,17.604694313528086,5.9348470780830604
2.7739096224230413,31.498882566731822,7.039869082479435
12.151155802135865,41.98721815875942,6.770590185390034
19.709377730985135,46.875910387023495,4.705184389067882
24.543881983582143,45.046212135377125,1.089613382980317
26.060372364094672,36.717548991393144,3.47707341975373
24.05944075158146,23.328262537038956,8.329866989258385
18.80122667282231,7.093094812724029,12.931435039946557
11.01316846274033,9.55890508483877,16.962655789648956
1.815407663565911,24.44410931140378,20.13174512308064
7.448819943166279,35.86418600857861,22.697064551717688
15.445689809491315,42.64200248864863,25.614887247016306
21.084182328407895,44.07413754332074,29.152219580024482
23.680128517328694,39.935946621629036,32.34393976457778
23.015689775556467,30.59261804315972,33.94563787155412
19.31207453536585,17.137637983243106,33.25997013040934
13.146227341666052,1.3918388134970803,30.359798591532044
5.356741833289193,14.346858923950453,25.362455365907877
3.0328476507088813,27.78060849491413,17.918330163195062
10.887591752777137,37.14767887982999,7.849461516175583
17.069147272002798,41.568768860173584,4.594775077609958
20.60732715094364,41.05640076933284,18.721362502663037
20.891068167599613,36.23025591517654,33.18915081508735
17.817039979575924,27.926561332961086,46.14176771953278
11.855088804078894,16.946616102940833,55.336373098386694
3.9783049162348605,4.078083844421257,58.79550862819813
4.526647971980978,9.699621221529162,55.70413312583857
12.44509327596237,23.15254957864563,46.45724972001735
18.893684316475106,34.924196609498665,32.295468674316
23.32592840861415,43.73520310788999,15.180493074307746
25.532460512548145,48.66758888717049,2.471633051950535
25.58195747145896,49.43141716011417,18.56290818593038
23.748882941706963,46.4670506245224,31.796192651549806
20.4617142018572,40.80068034660166,41.39437046869876
16.255538551581697,33.7113022430922,46.74518488674147
7.734598408490333,1.2394349829623887,4.928180033616551
9.135221083381618,0.8610204778114097,7.80508600107896
9.219942400006882,2.883548758493752,9.345223731900653
7.549091078234414,4.766547222607169,8.870724294978642
3.947948794096665,6.7422011435871045,6.193785176796129
1.440719569097945,9.10540860044459,1.5974015974057902
8.151796245000066,11.90362317542785,4.137495605249253
15.432147875409731,14.733752611031386,9.993690624086396
22.3030685382774,16.795764784168576,14.958736584278702
27.67352584929304,17.158744026916327,18.09555345167798
30.489895155379838,15.095702965879747,18.448956286041426
29.898864423911817,10.367611887222784,15.157505426442587
25.419415381272707,3.361324795619687,8.081601036397805
17.176699829679578,5.102969254385155,1.7712134316985144
6.034153827660349,14.196581625890486,12.552277087802269
6.592779109559691,23.252853223040464,22.207920436557245
19.029920116942648,31.625668066027586,28.598330239108776
29.615455519392988,38.478348157685915,29.708033074917694
36.980320406473126,42.65188111778613,24.787753094084742
40.21689058910254,42.86225394056949,14.774293907220445
38.95900923451599,38.20357394323031,1.5756401415529915
33.39632682023733,28.663523794493766,12.441897617952842
24.22588696603589,15.380433993891279,24.71312178976604
12.60023176954843,0.43131842902262746,32.89985087130808
0.025230755487170728,13.78580960608442,35.79099763295609
11.795578193702218,25.312850108258903,33.696423178632045
21.176238228852487,33.19537279740281,27.82850030897166
26.715559948726362,37.59125297494945,19.92409832539243
27.540241539209504,39.459852050755494,12.004191552271957
23.487020928376154,40.01486946415909,5.931983261209764
15.163285561164775,40.17360527111672,2.8946346329167105
3.868879513035851,40.22016144961598,2.7737411676326684
8.58608391944189,39.77005552538129,3.929097879569757
20.15900070244945,37.99179328146465,3.7189694921105136
28.90531007914445,33.953593098790535,0.21711398709244986
33.28647441832007,26.985852376834913,8.913709128647412
32.40384862476672,16.96425927405138,21.872430569970838
26.13889035663491,4.41136514291995,37.07940193755936
15.171306754113655,9.592677597674253,51.632287789110514
0.8719825292848836,23.642712483912852,62.68842046197624
14.891022628236882,36.312414014267056,67.84038097636423
30.016844789565084,46.415567887396314,65.36404565224315
42.46878348533621,53.15391120249127,54.749015627277224
50.55193921388752,56.15591258289032,36.9828352117094
53.15760920071835,55.46008679869082,14.10515982126474
49.93680678685339,51.50764074703564,11.070256522432572
41.35833787350776,45.14237369284838,34.92216909032042
28.632352312919412,37.54884484671826,53.798531502588816
13.492550083571551,30.052699032706517,65.05438136181867
2.109360390423503,23.742312935911954,67.70365230613056
16.319459208082016,19.0195482985062,62.63510420168864
27.643843328365907,15.330027285608681,52.10435356140981
35.09607549437258,11.272563158779668,39.026269160489655
38.22614937699257,5.122924753149468,26.02256611802189
37.08193185299079,4.409450287701481,14.25850786229221
32.14759557031378,17.528462455464553,3.6735391562801203
24.277922567781665,33.115727718934956,5.760167806178952
14.630869856316345,49.040958314714175,13.964277891424308
4.567950132509605,62.85297464936179,21.1118472478903
4.508916767132565,72.49711383805177,27.114471362946993
11.35944584024126,76.74507402626968,31.44148170378942
15.105759008116488,75.22566200803087,33.3420780136878
15.378364308270815,68.17954526333676,32.09460563038232
12.355706072390655,56.18687260465717,27.54285767398645
6.704999813167912,40.08405771224596,19.9204445148998
0.5533383244662823,21.08081055565628,9.520345527426192
8.213715980369864,0.8906247373114006,2.7709012898757073
15.035962828894315,18.321120683412083,15.291448175149185
19.893010876116243,34.270593702932594,25.923900094463697
21.916685658960052,45.080743371528115,32.38280430405562
20.62447285760574,49.7407307714534,32.875121068940814
16.021309160889963,48.294869306320464,26.887027976476272
8.630113758224532,41.710811740926594,15.535108259657832
0.575952015740789,31.53914142342172,1.2250037610738564
10.324367468785788,19.57494024918287,13.262687115142096
19.25059015075077,7.650085525335706,25.449864889725976
26.11759642348031,2.449868755224331,33.39515869490911
29.993031508695307,9.060887599709051,36.2323366764319
30.3492927099927,10.854663455158763,34.461443281560456
27.10090173375253,7.205161305421475,28.947681658644463
20.593570425332533,1.4493064133458728,20.07658876922624
11.55804128887533,13.476133653276293,8.129286484085151
1.0441766860081665,26.308666978132038,6.498650391632793
9.680718839710911,37.07047828984493,22.87799631084658
19.266720121951547,43.33499678582191,38.691430897643826
26.446265675700186,43.717206042086794,50.96545509544685
30.223212475026237,38.086166340284905,57.414694186660725
30.03160368259691,27.36275004468863,56.62194705710395
25.84041810433003,13.080848779415321,48.1164412508351
18.189902769382694,3.0264882729396447,32.9271890070896
8.121138991121216,19.26067539636135,13.883085948171658
2.9851191320093986,33.99173285783239,5.509927379484556
13.623702555319378,45.60884988374094,22.544026104935913
22.396234789923884,52.56756652685229,35.224089765319604
28.204540911934195,53.62494402681829,42.27746426466108
30.380426386374943,48.20014901854413,43.47861241520898
28.744989333196582,36.68126055563816,39.12912466228213
23.609125860391,20.492615636167788,29.928744195761066
15.734551390539384,1.8452420340568545,17.153377779849343
6.252298082560204,16.74085330261565,2.7671878895507693
3.467746180480256,32.91672957028003,10.425754513202982
12.00696110641989,44.79456951770134,19.219923400145362
18.138728674063152,51.00863231561151,21.12988030858655
21.062498356210767,50.63773554107479,15.720646927773474
20.556682397273782,43.18969056916792,4.7286198537591915
16.990736069380052,28.799649674227975,8.939749259810096
11.199824075357396,8.57757622916337,21.987532179746005
4.2718888392624095,15.116557293889212,31.363639594704853
2.684177453688182,38.74338137818582,35.073723609105365
8.694299845256896,58.16068007002005,33.11023131662429
12.974974954161993,69.59490377531395,27.054943210686613
14.93848625425867,70.67613516125843,18.59180989365155
14.202915562917877,61.13946490938249,9.383005517640198
10.654564333086626,42.90261890711589,1.137645372633329
4.540807630540586,19.50074590406723,5.06919964575093
3.4630504100912787,4.856634746253006,8.959284497325731
12.269350222389562,26.239585897610215,10.943719082531041
20.52281734580659,41.66922695250042,11.551598767465364
26.84277622686964,49.40739893633282,10.95328030895931
30.087088615799704,48.97684980294775,9.305017032130907
29.553606173883313,41.06311676328459,6.889722393504262
25.07259617725361,27.37445847671742,4.273790216937609
17.009743593796035,10.451423854477735,2.4694255838529426
6.208557275688666,6.6672511808561215,2.447608970769042
6.094967140964897,20.966983916929586,4.653040182177775
18.387694920733544,30.06119139139586,8.892960195555533
29.052497004415027,32.69098063828371,14.5623715375724
36.59062730094412,28.92352929178315,20.926619995702822
39.86921994847656,19.961606579238914,27.15859031261911
38.34025661988847,7.682868499878867,32.51385901417839
32.164238473358544,5.886731666538856,36.514167202546346
22.20423401343033,18.986549109173147,38.730323088843676
9.885574862201347,30.321484479544356,38.405260009351096
3.037096922331674,39.0682820239514,34.620678306487754
14.752805612088965,44.76633828201588,27.12075570021911
23.676110528687285,47.1620531374539,16.49941375402121
28.695681614825126,46.05684434103648,3.700175611451698
29.347151390362463,41.189020006798806,10.044437723536502
25.880702441646196,32.19488501479682,23.122830921339407
19.202154257055412,18.742756959279273,33.6006421239674
10.679995509229105,0.8793445546112885,39.58955417610593
1.85021279555523,20.509038058861147,39.96602729097491
5.974491400218039,43.5416807556248,34.94417822518159
11.889078642859024,65.91743837996263,25.730919338433864
15.384564460018089,85.51364087568015,13.657929637267276
16.366397482494943,100.5967075107233,0.1274686149184067
15.102964874007963,110.00131612109406,13.12178302486676
12.133436651103645,113.2296984306791,24.39075577707384
8.161440303257784,110.43577718716473,32.41024202367089
3.944718892458504,102.31103188086355,36.4058834258331
3.6101114988661145,14.043684901744832,16.4404763908971
5.368999911526651,11.37082294694469,20.785833257815344
6.618669821383668,5.8256056608244915,22.657566970239607
6.741146586424085,1.538028819377348,20.95978606878387
5.283983633593059,9.531538548429497,15.570880143807516
2.114350322602912,17.22495361622074,7.409836603174776
2.517367973392682,24.028159950764852,2.622598351128293
8.021812961993884,29.522367913206356,14.23521754563046
13.592643400611516,33.146001738016075,26.786365504558212
18.342466618932974,34.10275328284359,38.73738988243997
21.426918326724888,31.517383006638422,48.3739967095075
22.15449218575896,24.679634128796344,54.12935584521646
20.072267853486192,13.409779155041509,54.5452764974486
15.037033531547925,1.1622816688414188,49.06528784611297
7.317754105558892,16.460213862609443,38.57575705459167
2.3061178401502684,29.86038211793667,24.8968417663457
12.577588757174583,39.76530859180936,10.415894884369337
21.968620257855463,45.65581272612802,2.509720733076083
28.99617476301157,47.840647135977555,12.594983302370736
32.547033614538485,46.7149918397333,19.591021116981842
32.10877825653923,42.26057447713682,23.841869267323514
27.837523661355362,34.17324298237876,26.374224931800885
20.45643580117416,22.299465303492788,28.450139829127508
11.063542489901389,7.275163620895208,30.55943979870064
0.9316797792566213,9.239642592911617,32.30197497682352
8.655527697021824,24.85484947805787,33.69578386691555
16.517576990375893,37.10753525589943,35.74353523387654
21.679476426142536,44.22584337463598,39.060208075879046
23.493978311816544,45.514392186621784,43.03512254391579
21.764999454241053,41.33118170941404,46.38552577484199
16.82229989914193,32.74943505264633,47.644304623632735
9.506413439834384,21.142192424198278,45.477358064553655
1.0442539113458769,7.962213432314778,39.116823505081605
7.170708283271431,5.29160708449671,28.805854205308865
13.824584267626994,17.02729333807859,15.948622858938249
17.89294245942257,25.634139841121623,2.3468290764295348
18.766912207989193,29.761254118193687,10.72106423785609
16.29715695627578,28.69120196598387,22.48063279655264
10.79644091205474,22.625653445570524,32.385404280665526
2.991524651632652,12.702698006450792,40.04574806000322
6.058652228710919,0.7343840567606404,45.202914252848984
15.067814040483023,11.216138999313076,47.89060505605994
22.687160380822334,21.250091565902146,48.362603874393166
27.71559721450711,27.899511244826428,46.776856847838665
29.31533890885097,30.223329771564373,43.18957478393831
27.175535252822286,27.803239475716683,37.73227608979229
21.56413425695754,20.74679907715406,30.806043363129795
13.261478756710698,9.74286830445832,23.092852813793893
3.4049334154043063,3.899875635381514,15.21430740221165
6.706160547393298,18.31511080158624,7.540947839101657
15.802064130611326,31.28561705566127,0.38395365968634815
22.796100781874483,40.58893168931095,5.73173023589342
26.8911805154957,44.403863885228525,9.98534559943847
27.656209207040483,41.67172859490704,11.481279999303256
25.06673764329335,32.33014982895464,9.768932801558853
19.511820684158053,17.377634178657964,5.175466574294974
11.757040604939816,1.2242126787005976,1.5514648448188597
2.850568431196574,20.800677454870257,9.465612582779302
6.001487413624283,38.3684085542895,17.280631162433636
13.587275308515647,51.140887365003884,23.489874591909864
18.857650047668685,57.03593578764051,26.262895387729493
21.076989333441617,55.06014512055505,23.4510072908559
19.938060165426098,45.45125732237978,13.535888434540407
15.620071119478968,29.56073270198707,3.201409756001035
8.774423807037556,9.546612343963018,24.41053185605459
0.4263262532019302,11.998518328989082,46.58949055015414
8.18993338202838,32.36207067893143,66.38087294515805
15.827186675888152,48.936067412387374,81.01403967172956
21.416390818147494,59.42321578508451,87.98905197317696
24.19387240929877,62.138746674038224,85.47426995617695
23.75564127576515,56.412926268251184,73.18532762941226
20.06715123855956,42.94633154707272,52.33124325013432
13.452197368826939,23.89503639000876,25.2064497562952
4.596973796453914,2.5075917882681584,5.087992639049347
5.44659389508037,17.652543238454122,34.99367488099311
15.321674144985444,33.62628395269236,60.666394703621016
23.531568994380052,43.730827882534875,78.6574910644944
28.7077209973843,47.68287321486876,86.87256884715457
29.918679596338517,46.1639083220689,84.78319203361299
26.913879039031855,40.13809408096745,73.45632600831591
20.19586334731317,30.366139853142283,55.63434486414022
10.881507827422597,17.399213172862627,35.05202939104604
0.41500680315534977,2.002112603288657,15.134070110918318
9.749436488267008,14.332989324302655,1.7281927259414542
18.374952721941202,29.237504378732112,14.178602315887753
24.53709174729372,39.93244036538906,21.739450641352487
27.6233338217921,44.12915518103655,24.587605381394315
27.306033874484744,40.913640239119864,23.664164095320086
23.57084947496369,31.122304660258063,20.692255665194903
16.797776329179374,16.967470442202465,17.69665348704582
7.8108835566551,1.1551019267827909,16.601652222234677
2.1730387781177445,13.994170013244705,18.685719688004784
11.734017439860754,26.970375947624426,24.158418011072207
19.538307215054527,36.904065302929666,32.04918346108598
24.604231016701345,43.0694331324573,40.07671711098634
26.443303653390377,44.53545530121949,45.51912588148999
25.053394261711887,40.309304511020294,46.48323761743372
20.800128277802624,29.938065589321003,42.245034231001554
14.273984137605872,14.180368429768537,33.369120584792405
6.208513682602249,4.737101114609572,21.525220902906337
2.5228857355683556,23.52956967292924,8.658534899843639
10.895586476102757,38.78691295934879,4.036983401997087
17.796640128388237,47.986529136378074,16.237158656846553
22.190396260830372,50.084251541452424,27.512445081728217
23.34411606000405,45.46461271539122,37.143406170800645
21.034931144926556,35.43436612477736,44.22669216888865
15.64105578120352,21.628887668845326,47.68520628176547
8.069567125443191,5.662796036131066,47.13481871736541
0.432051153599746,10.853104930003292,43.27752341072195
8.505807874123786,26.12473500194116,37.87998150425798
14.892944286286086,38.14796968919227,33.2241114299179
18.595477410379193,44.99867527015924,30.62597057392207
18.9990785984325,45.35451922081539,29.916824940927444
15.964867914235654,38.98800686334106,29.84159725504898
9.888363093483036,26.937652790464774,28.666801530542863
1.6958582365591668,11.253487918202799,24.894918404065113
7.27125448859906,5.533683895246646,17.80482988567018
15.487028512086813,20.953908675679482,7.888476977965762
21.52898004084221,32.95596922552667,3.3673320049428908
24.349217029877774,40.051299082708134,14.137684667216158
23.4542861117932,41.34412739033768,23.32072958765821
18.946960418946567,36.589138053544964,31.185633806761558
11.452516352000561,26.328786572483246,38.29151153048701
1.983695142906497,12.001999451431798,44.536842153747756
8.216084345227864,4.145942627055589,49.06312803273824
17.817112806354817,19.432181552790276,50.45905183492074
25.53669885171807,31.290306233024467,47.49672773310514
30.292997688818453,37.81785514078837,39.78390457977347
31.364829477712036,38.13900522607907,28.465158944819787
28.522360038269348,32.46966029924697,16.108385794515677
22.090093367679355,21.937282586606408,5.353086113306781
12.901955481734205,8.303108067808168,2.0273681139920616
2.163071429861117,6.311665519287625,5.500299870504355
8.741131364499688,19.65734570293895,5.810786686577468
18.444718881103977,29.600338264818525,4.574492506785411
25.770211420738054,34.43115194191905,3.3522852278390736
29.845968031027986,33.19935774948588,2.866016521610047
30.1817013572474,25.979445506066895,3.2200161189714223
26.73034455669981,13.932091347781592,3.891219532475609
19.91713986330157,0.8966432260819379,3.9520101436361004
10.612767894065819,15.9818644436051,3.27165357785321
0.04513403928964636,28.81111581434678,2.5157898134561076
10.450527553035903,37.574874851809845,2.0916661681109696
19.689567846216303,41.449092757107316,1.8749232124211817
26.77217406721776,40.404752146340115,1.438765111595853
31.17595645214705,35.10336829554553,0.25997824691373084
32.77488204337094,26.723952145630165,1.9791592948308179
31.79659571043809,16.75292666686732,5.021253088673812
28.736781993251007,6.757205255172896,7.933403965750133
24.252350150796843,1.8525761070377444,9.448533382438296
3.8031421902003495,10.63241062081401,8.637162955945822
4.318082099057515,12.560594558608425,2.244570409187497
4.14325926300995,12.918414858639304,6.225796902466863
3.1166307190667313,10.91951693230418,16.09421025740564
1.1740637609525975,6.02584416050253,26.52171479583788
1.6432597822373662,1.7596215149904828,36.356420892976175
5.165341446389698,11.681333133480228,44.181603340560116
9.063797721249436,22.25732445592724,48.445752138860705
12.812596612718199,31.59475200351162,48.00720324092072
15.691898568536963,37.92820605733356,41.91585834993118
16.88043926797292,40.14416763093962,29.37471130500179
15.625508912123058,38.02879016982895,10.899869714086547
11.476765689907792,32.15174374079164,11.234418011431455
4.5833896672122965,23.56647478542563,34.08658743559887
4.17062815223201,13.403580202500526,54.967708611468794
13.390704249339867,2.450860980972179,71.16309514272366
21.52400875138899,8.864572537161532,80.40319258828258
27.189936912125717,20.112979619143687,81.66961843630438
29.471637212685337,30.527178455778476,74.75363657075954
28.016352984751542,38.920439672429076,60.349089318293316
22.981431811864677,44.00848848417164,40.04582216536116
14.929105936650489,44.98431936084866,15.88880194298649
4.719498953493209,41.96728583796728,9.179247775556622
6.531840894637963,36.0328006047781,31.720027815859243
17.48385165445764,28.738461749943884,48.88162600999933
26.664946870908746,21.44564909901756,58.98393425852326
32.67655182742405,14.846162641207037,61.61349947590352
34.489850233740135,8.959194422728055,57.31192343874454
31.7242045071612,3.5793808236614173,47.95702552199998
24.780223121642596,1.184770100749628,36.51948538975203
14.753804163207636,4.696398080081395,25.542335628355058
3.157892369719012,6.098742677667173,16.426747619656837
8.432062052884234,4.970534366665362,9.575027864953945
18.660867675247285,1.8977929566250062,4.657216855331849
26.517099122707467,1.4418617544017551,0.8411265798834847
31.312231210765134,2.834989593893537,2.5606636664783697
32.610467237770365,0.4657670998318154,5.340689537151037
30.2151234199554,6.2728029107979255,7.14870073352209
24.240391866929855,16.516181459830264,8.399999079107822
15.233328460277182,28.32517446388889,9.7838266990738
4.246757320924537,39.46807045810453,11.934278420695577
7.2410389045177945,48.16235381808343,15.310712931420326
17.56495888239414,53.422919575683935,19.61632882751417
25.204070522195668,54.93595866670727,23.898464887775724
29.084247441411083,52.704662055877,27.155839700507645
28.748908909783676,46.78154732476847,28.588509139913963
24.385407097347105,37.25996126256886,27.900564771515196
16.739827515455065,24.488042073335222,25.48578212487316
6.970580764027505,9.302074093617296,21.8897459836424
3.5204785366103013,6.933085113262017,17.11136509123231
13.256225814691359,22.53810979806244,10.544725571154526
20.856822553467477,35.870605094535044,1.3875990662232822
25.22750379455844,45.641535336489106,10.818950401027642
25.726935221145908,51.06941809938076,25.49938479106193
22.280778603651473,51.864098567755484,40.647977128578816
15.401293114394317,48.15309883407034,53.132677406870314
6.099374544552222,40.452916858159384,59.62522989558067
4.276012047588649,29.700566507478722,57.827522584357034
14.245936079614518,17.26959120187373,47.21576820567186
22.416070439455464,4.860569233466933,29.309832936024176
27.661071210105106,5.752064942776581,7.317524700028815
29.273987185201,13.050466411568168,15.094661478897523
27.062938954175685,16.08206710817495,34.68192771468519
21.373349999745393,14.622359589462286,49.029668485507614
13.029779515302252,9.157003614196064,56.60888282260757
3.1996339474505024,0.7548121174198485,56.38925531360802
6.803066870948964,9.09723879998606,48.003067774006254
15.712983663474285,18.66849722674936,32.28935194185079
22.458210957597586,26.189648159198686,11.672746930208216
26.262609450668258,30.11335598450746,10.223978734913038
26.706077005356615,29.405628039403197,29.540570646665017
23.756539168162856,23.78164774960698,42.653764335180334
17.79946817128954,13.790604003177227,47.000711776554
9.637112992621862,0.7028832535957029,41.988751626417105
0.4263405994645749,13.77739587060058,29.06079083149845
8.469082053566535,27.86025309177506,11.534252925437617
15.704753519664735,39.9393963146857,6.278914909225685
20.19321884697212,48.71572275732564,20.736555263885126
21.2966137580173,53.207981635257234,29.890912283104022
18.92416920937278,52.75270167838868,33.189813396656994
13.508157978179439,47.067893314412316,31.01584059591166
5.904062737662425,36.384056774385236,24.696094733625266
2.73616868316488,21.5853542038978,15.977964907833325
11.112207651923406,4.24223231713619,6.722707860759701
17.933409764072444,13.56129575402031,1.0323830833052912
22.07530641078268,29.584972366368724,5.645895793022199
22.747147281286782,41.86566519519174,6.421281009509796
19.64214702386913,49.07558157546294,3.9672737184985674
13.025716876532487,50.672394825998694,0.19770648937528212
3.7498671701069406,46.818678061337465,4.513639152510362
6.827111749954147,38.1530398588021,7.4422885435170265
17.024522425057363,25.546519613660514,7.8689886349912745
25.101312761632734,9.97353062483259,5.736201116706564
29.554856531177478,7.439697207773514,1.7117992578681993
29.406710297517407,25.23898413035014,3.360672317498547
24.426140934276887,41.50780911144312,8.582449712178972
15.229222331161584,53.9548955824851,12.96049830264195
3.1996302309764055,60.290131356979934,15.681215002970216
9.76301392894763,58.81106633858447,16.471964139847255
21.61172192945709,48.999922735193714,15.719512715940544
30.54432690483482,31.87680968202834,14.234261129390372
35.30427105776821,9.916098373164658,12.707214128637357
35.32420917875738,13.47576936380716,11.56167267765011
30.713820327326637,34.71151681911163,10.971690824962014
22.14531714114811,50.72651573514357,10.731842295725691
10.716753195779052,59.43726712590592,10.246401369306817
2.1674686447218154,59.89908451689626,8.636905716903588
14.911529905345578,52.27018375061758,5.491177674670789
25.881912568265612,37.752548794151956,1.326227696332679
33.63760283296185,18.566199756930224,3.013533815918948
37.195022973423804,2.1390953106406343,6.443034955158506
36.226000630498774,20.606891062945977,7.698190092199144
31.112978119483113,33.14182822404265,6.343758672055002
22.82358574613439,37.0309297306767,3.132260017620001
12.636181542862335,31.404147791283705,0.794971053828883
1.8460128285729835,17.63249885092507,4.660216086090147
8.426576422301398,0.9713574765246787,8.022822106533411
17.286942460860992,20.071368304352657,10.392152260912802
24.010053351696143,35.50064639621824,11.055771134614842
27.984122254097393,44.27739176821898,9.313465626126572
28.745782526717424,45.09705564722822,5.141203609980267
26.10327940933027,38.238790249318996,0.6590745581276857
20.291365797036374,25.124770448579927,6.973643086925217
12.058587728933485,7.843330080448661,12.419292462571546
2.596075142470471,11.190227766580811,15.256450764371795
6.675187029339103,29.427369313861195,14.105826075391546
14.381546848173995,44.37524513836427,8.960197964207834
19.447153685583896,53.940269596325905,1.6275123741515818
21.228827836990707,56.89838504551466,4.459176636609659
19.536799633768595,53.274069451549536,5.180965727548846
14.615816393026945,44.386719221941476,2.5781251647642596
7.119245762002849,32.46737162771829,19.28912111055881
1.928363083796559,19.98072000685601,42.270326167241436
11.197281101990395,8.942920641724807,66.98695531169786
19.200860840989197,0.5269842782048025,88.43044170350376
24.540366096885784,4.920267611658961,101.56458025752204
26.187543063313555,7.578899307855798,102.490499303804
23.715371374761297,7.830344851083978,89.3085011126616
17.390140257217876,6.107694449952147,62.113406866560545
8.106529688203825,2.9714272317668553,23.205120960078286
2.7980099637261846,0.7253572435741856,23.519464237949784
13.789108877589783,3.804733415876555,73.27994233707972
23.484091726860054,5.310861850889051,120.57961560441221
30.8560037131736,4.885812053906847,159.6760301855434
35.24659630749222,2.689796033227231,185.57043727967192
36.40822374938517,0.6198203169188279,195.09564416437868
34.51151879561474,4.121697924542176,187.74603252576736
30.11545626379845,6.976913910606729,166.2873007707734
24.084542639116496,8.715719967697783,136.0557165541842
17.43692088877111,9.32441817383772,103.07420553890405
5.474627858964511,9.334473423020333,0.5274424162167045
6.42162680698416,10.786873073770112,2.265770546158211
6.490302493801624,10.90746680220659,5.688083839158298
5.366654620207658,9.102221179804477,9.137200371866378
2.8773545132782137,5.010065081722053,11.79485746960766
0.9517775136641123,1.347383223797123,13.119565936852855
5.84932399290235,9.493247403652912,13.020640804618385
11.290402353219374,18.52765476303179,11.773418222077142
16.528132097956746,27.23399925081881,9.666559405947377
20.683561736854408,34.25265466210189,6.679239427837232
22.8853407804555,38.27314313377073,2.753500114338046
22.421026008008948,38.22094624783578,1.9219102751011603
18.883937525471733,33.4680384516661,6.880245274547958
12.35944316923085,24.06055536072599,11.534983277714387
3.5169036903319864,10.799786217122927,15.391161524713105
6.5478677111977674,4.89737038861115,17.662966851023075
16.51894433370102,21.1733249894184,17.224494541653417
25.032045005423967,35.94157705831929,13.69716532328957
30.884263833664715,47.194531425561756,8.037361156717544
33.19003951047161,53.29277616320132,1.70735426911082
31.509336654404944,53.20711379059021,4.153415072889958
25.957064280877063,46.66199387017885,8.721552673368262
17.22358938668633,34.173054279874634,11.481529491103506
6.51339995824946,17.047972879534555,12.17923163723221
4.634035966290735,2.6880329724679872,10.592839223189005
14.608354756119228,22.4568802117515,6.558576527394815
21.99860545308538,39.413504135836355,0.06597751736045174
25.822322971331985,50.87372246192791,9.057530511260703
25.65697219350778,54.80176392054578,19.258920044708848
21.668532798963664,50.25173668345575,28.750663757459225
14.54605323205705,37.6138643596787,35.35374210814196
5.375472925468018,18.57065953096247,37.265392584124534
4.500922446281556,4.222960721185544,33.62854295286704
13.643961042568579,27.635977260258937,24.775584882421967
20.701491328412622,48.5581693028305,12.397659029658382
24.603829161822496,64.27908671380965,1.0504519371412961
24.742120982382566,72.72552447710262,13.705484791931228
21.08302240343748,72.6101733360651,24.713955385026527
14.178428102599284,63.56699492377881,33.41016894302668
5.056715522299106,46.291891737794145,39.02679277081999
4.971635862403485,22.63546344441537,41.21621366431377
14.545621001659311,4.483735845884754,40.102233180901116
22.457384262380057,31.443420375800567,36.19830171166797
27.770579501562125,54.540864692815596,30.38627621557221
29.881802957256852,70.72865186124582,23.576376779514277
28.556589135491148,78.20886573139526,16.71566902250915
23.947004905888356,76.68528511664869,10.727311267763113
16.60699554630378,67.20529962454857,6.055570440809225
7.46799051033073,51.691744964197696,2.4961084329463468
2.2539267652315855,32.41354647182445,0.4539311141596712
11.215921175230312,11.613533217718915,2.7953071297753116
18.168577518519786,8.605708357175402,4.102257725025792
22.183915063243234,26.208236464022203,4.378538163077317
22.816011488843326,39.17921277428877,4.022426354613882
20.156318345032943,45.68767864496891,3.571261323342947
14.78353953983302,44.50600482765959,3.8360157602757163
7.628929045540507,35.53900478629737,5.737686424581091
0.1948257829495428,20.18231563880026,9.821997065879492
7.5527731150578195,1.2793515593419802,16.16101632830979
13.42250788588385,17.41701534386208,24.310885535893807
16.9907169903357,32.13446090026397,32.77363412460073
17.726281808926846,39.99874696799464,39.522106092998776
15.453156207306122,39.66207956456253,42.97076758223391
10.39232238509407,31.44670518507429,41.999050736478445
3.168077736404283,17.03668222936991,36.30144198482515
5.22736930245463,1.0686077413083328,26.64221137541218
13.552283108617264,20.087276603204845,14.503829486373538
20.507092675784587,37.31028945516313,1.6135304312988048
24.957474787805882,50.28538000972766,10.28961083237504
26.142521886664003,56.962832760656774,19.07613678024941
23.812957374218687,55.945958567514324,22.81646995290256
18.258217256977606,46.85774543418032,21.06697620223912
10.222417069665232,30.68753980498183,14.979882600226048
0.7509306581307958,9.89335394089069,6.731029915833298
8.982537096581913,11.943464580610913,1.1796902160729092
17.81713287656556,30.897072305316257,6.573899718693572
24.697619995157485,43.66499473267512,8.174783891591469
28.74626430320631,48.381916610429336,5.754652796919105
29.344714109592804,44.96272098459607,0.2697585469316263
26.24279152469973,34.87184311321094,9.003794380108781
19.671797717400704,20.4873044266562,19.550928222433363
10.411903575312111,4.369747633095052,31.011476304194556
0.2525990797596932,11.250558207010311,41.79021872043134
10.735880410582535,24.627379384531714,50.14826437817157
19.46015244948589,34.40170898432029,54.970807493625614
25.16443668927405,39.47869064480886,55.75506261698928
27.12084126602056,39.06342688050999,52.33078576039912
25.205821155337762,32.89677250207528,44.7482155248794
19.835662715904473,21.549830661053125,33.71383261597813
11.824803808034066,6.55268986560599,20.397953997503436
2.246846977568253,9.803683707270956,5.6492574534787945
7.657216314724838,24.981090437024214,10.250594380385426
16.557056637926024,36.81034318185029,27.31289027168176
23.149819008711404,43.93017881940593,45.11818984570485
26.341932874960175,45.89293489155413,62.296973013055045
25.475587441228175,42.96465602360712,76.63159747023896
20.52413349015612,35.79532006428438,85.61432414222517
12.171616847950235,25.184178693396866,87.54843186105799
1.714743861465312,12.062050377164221,82.42763291073055
9.20182091869842,2.3659962762029516,71.88915183844692
18.924825110647447,16.50467250790068,58.05866456656416
26.091734130870073,28.461461632962592,42.21342702813658
29.799212813117805,36.39728843781409,25.038945805107836
29.641770717310855,39.01502522293877,7.384433395479509
25.67962038015722,35.96513070756274,9.991917313062396
18.379415975915915,27.980556131782095,26.57900049317506
8.568832339188786,16.683882573083224,41.63121753041067
2.5994211522892225,4.159073950579442,53.980603462597905
13.727530477678865,7.528424755387301,62.635987512195875
23.337720125208683,16.68212303640464,67.22549651048992
30.111916391281607,22.122321573403113,67.88412876664889
33.12618308691396,23.196924250383493,65.17977336343752
32.01549543570318,19.760293722366768,59.81088937113595
27.030731513823216,12.193249448919751,52.29767470551257
18.96132789908018,1.455121680576197,42.9092066827818
8.968509937420164,10.925200183076614,31.566322211644373
1.612353258381481,23.005941835455797,18.34440020139623
11.451691543216052,32.76284968209546,4.145833186830924
19.361642068043935,38.51138513702935,9.356858957633055
24.409830663851867,39.255361388445245,20.44290637069689
26.020264397599664,34.829103413967665,28.322609916829315
24.064426831530323,25.799001154137645,33.09113314703698
18.91524796743102,13.21656132229292,34.96360286035009
11.417730231411658,1.6247895406277852,34.32623145928038
2.7744659315631948,17.331513780049203,31.847651154203174
5.648668047672391,32.436169799707066,27.930839543052112
12.55873534297503,45.39508017039402,22.702691160516036
16.94331207640994,54.681887348085915,16.8190108644323
18.20912894518687,59.015931006184246,11.430916872139855
16.243334061462708,57.656423218954686,7.230915393405769
11.409812949556803,50.618940667378475,4.282137201752602
4.485126976970841,38.700807177146835,2.3383276331320535
3.4529641831743194,23.29729391041491,0.9681629973501223
11.16076693551998,6.093869343706577,0.2533853382741779
17.39774625994366,11.205240408440897,1.6904527832170477
21.12002649964795,27.01578599619488,3.428105289540607
21.650695312755094,39.88885460518156,5.074617747853968
18.79291532541941,48.508215115708666,5.921143731166556
12.864782135043102,51.80974715777641,5.211099199295929
4.6487320045919045,49.24911227622872,2.7815527284536308
4.730619238364456,41.109265972271004,0.8292038792184598
13.96862212072752,28.640841999277576,5.0561510424927
21.913330969929095,13.801309863586907,9.408141376755971
27.761003667893068,1.270729991572901,13.410516750489897
31.02664031156023,14.725303510672147,16.78673006648623
31.571862656975483,25.314568037884662,19.31329290648366
29.6011584303342,32.49104011186907,20.60506852213732
25.61922926280135,36.28419967755569,20.253093889646077
20.346362147741274,37.056052059050664,18.216704634213087
14.601951080005456,35.280041921769374,14.908272797700455
6.754921262488565,4.504585342543684,0.5375860727930927
7.1157274151673215,8.789872909408802,2.2815319683615876
6.396589923990233,12.777298266906605,5.224070334112422
4.397254662748932,15.223287523242723,7.332540319873262
1.0611319584201468,15.090633974802817,7.860388114665566
3.497201145718872,11.884485246318102,6.7745679382067285
8.964912408109164,5.779400518894966,4.36507474831315
14.814906987236252,2.4883371646660213,0.8662735863032949
20.317574042728577,11.828361393452752,3.2780272417248146
24.62134991941892,20.986477529535932,7.38892021915422
26.883426504684056,28.63935003565443,10.837561631160158
26.41114514467743,33.4172352317023,13.474292206067354
22.81797497725035,33.994996556974286,15.449700982362366
16.180647206713708,29.490131863865205,16.365729054649652
7.066129093684426,19.974256721351303,15.349363302911605
3.623558384629032,6.661168880683616,12.04992483564091
14.812284694733352,8.155772621102333,7.199992100739255
25.35549307300126,21.49363835632826,2.0638310661338517
34.138685373064476,30.511911857103705,2.5394693067345067
40.14629849773763,33.35211809113626,6.546247316293213
42.55042339022071,29.657601375365314,10.332656576492713
40.84174030096344,20.57093878665721,14.321676856867184
34.96612319551907,8.219901840051245,19.098607708482145
25.4343706301042,4.946938387240157,25.126411571411133
13.328596495123133,16.704742133620986,31.790272954212995
0.17557574388579086,25.289546868522727,37.79381089248469
12.30387195973441,29.37822254094784,41.76369785238434
22.51319943958611,28.057921085260904,41.92192399125025
29.246782157804876,20.940622088804847,36.6579756594368
31.854783429893025,8.444399031379016,25.611169603860336
30.300820441014277,7.973222161556018,10.181056551701937
25.1133605692104,25.886799804960475,7.083924539787156
17.275381778325418,42.35951076839826,23.83106401225246
8.08588138707779,54.65573609435095,38.36690656606871
1.0017146256449847,60.90362411028468,49.44722592255062
8.566105935314306,60.42540477534287,56.048564460360154
13.425300533673994,53.63168025144985,57.60493799050185
14.835057635784585,41.60355335428204,54.46365690704995
12.642115801823621,25.639431141813176,47.56822805312425
7.341526188364128,7.012579002848943,37.95550695129778
0.0037208310423429885,12.990023580933158,26.529253549525112
7.966776438457687,32.89122491028474,14.436179057353918
15.043970769833008,50.92492390870841,3.326413339696576
19.944295988927422,65.14249456330032,5.567239269495651
21.801365971347284,73.7310497003418,11.804410859658269
20.284474602161644,75.41151936210588,15.672563489893617
15.595659578746123,69.74992046516202,18.497452518877402
8.38505785516292,57.29986366140812,21.766571336996474
0.36677844788949815,39.54896556180715,25.952096368968842
9.48941329813338,18.718968207750212,30.338509396330885
17.769159554255236,2.500613774504946,33.53193437172991
24.093247269366504,21.289002335117015,34.54578820558267
27.58717015059529,35.11630389339228,33.154797686700164
27.729641526195966,42.195106130153064,29.197641580370327
24.42590367331743,41.86178340016803,22.6330889433758
18.025572238615048,34.76372558049165,14.438736131766014
9.2892760292801,22.754548470134,6.252066373316666
0.6968186073791202,8.512940998621326,1.0048910998533478
10.654934589629272,5.007649522761342,7.224050938947025
19.28107467504345,15.154499591488454,12.566518771455739
25.41566521754017,20.044360482185564,17.094875267726167
28.186875286538807,18.86638758556167,20.39007095201495
27.12834931891067,11.998182290236542,22.064183371648856
22.267264343109943,0.9309486552473055,22.2359011968138
14.154016623357323,11.997647690147629,21.23087375601983
3.8269845041914317,24.07512455459488,19.364291000193575
7.3023551341393915,32.82633849384206,16.740085987531607
17.636405260252452,36.60289035352121,13.255650741415938
25.62193837571713,34.96026544999223,8.724051221895687
30.00108342977631,28.680550397268647,2.9468640925409924
30.024711594619685,19.4207986800484,3.7698901324691403
25.588531983359765,9.13462073541579,10.599523267053696
17.269105330863994,0.48812560859219206,16.932806659286403
6.241109878397644,8.36835338704553,22.258228156611782
5.90489294889932,14.093388198568888,25.570588709789583
17.407081768108668,17.73651239669227,25.888921879622846
26.591330473749892,19.60151324605187,23.16245075850504
32.107877230971724,20.033724953984436,18.14921964294362
33.11952716906322,19.330642534957363,11.766730877957228
29.42568469489373,17.70559740817451,4.655025609948927
21.510282771164018,15.26167519976181,2.961478169114781
10.489626140050653,11.983453256848744,10.811912843551424
2.045382369785854,7.785035546290522,18.102088110292716
14.285020973387395,2.661751336240232,23.681225685003984
24.5075062077073,3.084384272591722,26.60543579531692
31.34473766170984,8.708122281073642,26.51236658185767
33.95850202910289,13.109435209897187,23.46438045977988
32.113997998638844,15.160192946172758,17.88110838726259
26.151218082606494,14.16493589697472,10.575556070050522
16.900917790657363,10.218407587458863,2.5360152280957746
5.577274199180677,4.234952419815618,5.2262102699057165
6.3491936063976375,2.3910467883986763,11.889413361938628
17.297730016621003,8.310118066628412,16.9860075661806
25.757742740308196,12.636886508434552,20.202345583962547
30.505594124506946,15.062969291657875,21.255889800914137
30.833378093155225,15.635467512083405,20.095013866781702
26.71509107304917,14.385628181807094,17.046913864810815
18.831224811689797,11.121326818383428,12.757817330794285
8.449124505413268,5.5558591845859935,8.167994167133125
2.8167428929470377,2.300533847549432,4.15929573215599
13.310299280723786,11.716151347459181,0.7517253927571618
21.603138554374492,21.084540816372535,2.8840288280508517
26.67200957443885,28.234242746594813,7.703409500197305
27.978104307369424,31.091001680072065,14.206475291711511
25.46794847195256,28.373742665089875,21.906767279665402
19.54733732954287,20.02070308335307,29.64680052458531
11.031001259978044,7.185748468693768,36.26850692267742
1.0524922508107115,8.141996239461458,40.57529795852197
9.05525156853428,23.662460112675248,41.15890956982841
17.923260035651754,37.18759395683411,36.445911275545704
24.346306326659523,46.84001875320553,25.526966451627512
27.472645334700736,51.08919837376916,9.127813410909567
26.937001781126565,48.80447895410452,10.761526858620224
22.906394542269553,39.43950423253239,31.726305332771886
16.03126409824905,23.3444880916777,51.00166811910639
7.316610711200452,2.0669994754445575,65.56557621286534
2.040484802730962,21.605956457198584,73.13330073325706
10.816712301585213,44.0121543251943,72.70734680023848
17.9077577861245,61.342838110531304,64.4043345424454
22.427864298901568,70.5471485030534,49.773295623366565
23.7956796225617,70.10192430657443,31.43055342827636
21.809298145944883,60.355115029636636,12.145166392464994
16.690512226863266,43.34094158367756,5.525299327024988
9.109800028996755,22.16206167752537,19.87618547300331
0.1453223835899896,0.17251807853716822,30.116666804699296
8.849305023255718,19.735614712216854,35.86145991935266
16.44079051852,35.52906039899761,37.59966616758207
21.369301519642505,46.07476820358626,37.07566872009938
22.800421260144436,50.944314482546204,36.587645319546304
20.492200049136812,50.190137831335264,37.92284549662346
14.833544964932871,44.237962565150106,41.34504627483584
6.752344399331491,33.91921817369337,45.36286947661438
2.471821836796688,20.56545897336825,48.00092194251429
11.44259799206106,6.011868392116063,47.586810051070756
18.863155992172494,7.610798352176934,42.5111151130905
23.702821235635607,18.276747483627,32.24984039505387
25.30759218553068,24.504706097438607,17.94717928829532
23.452973777279638,25.66746126061819,1.356783860530126
18.367660090284463,22.061966011272,15.77394410173929
10.711369916049586,14.732917568033393,32.02667671540869
1.4942838281818993,5.160909778126231,46.17311687655412
8.040910558383068,5.044371459782233,56.56382554123308
16.68729758713299,14.518421342058584,61.771937088581666
23.50691163764485,22.29231280940916,61.260957448899035
27.907135407797167,27.691768994817966,55.26323615271286
29.693049474062175,30.3258267238915,44.98879227300912
29.042660139578164,30.114413279337224,32.5509163870913
26.416304347227555,27.33235762009415,20.220736612156745
22.43644632888348,22.609115006452168,9.882590235369694
17.771985578012515,16.843223818599398,2.6745252176584486
5.048429296658585,14.352068230062116,1.252942329304849
5.935415915619107,15.863011067489332,0.979995324266088
6.12336048096524,14.293160273160451,1.2215053876156772
5.422807576315942,8.644989989424609,1.6872576465509095
3.706464168728451,1.271114908897857,2.0956503498924355
0.9010910357947096,14.519974464781717,2.312139997518056
2.9824542578067894,29.05360473793762,2.192984988034177
7.77341258877151,42.126156923513285,1.5417611726578841
13.034680038057136,50.9912319925403,0.11539741901038165
18.023505829536685,53.651921332385626,2.17023632981834
21.77645672045778,49.335640903165675,5.24657574639056
23.291403326931352,38.512781885139816,8.933763636082842
21.7756599622689,22.572489584536186,12.868958775875539
16.967106752682515,3.4541385690985464,16.685789258273516
9.308401789030464,16.66433816913755,19.750803892568857
0.22500837195453985,35.65120828725671,20.644808543087446
10.391115818303492,51.51064066638904,17.767044968378322
19.894295352813998,62.40758018423958,10.614729822686705
27.568428081040956,66.91147300128003,0.2379724230479018
32.44011068992919,64.37376287522073,11.230407757272625
33.761047493995726,55.279725459708736,21.415979957958495
31.10510643767971,41.31932146629916,28.68964995963089
24.512078948655443,24.989097285678533,32.45224376721142
14.63722402004611,8.876073339513294,32.50418289687167
2.781333754252926,5.071995671880474,28.840275790799208
9.268952619187086,15.921682501411839,21.951586422693115
19.595577118021072,23.616636199182,12.800162960678996
26.60170763612731,28.472792874128682,2.633443118398911
29.35805074454796,30.63729739738475,7.161026224999917
27.728766199107955,29.897419315947182,15.03925224259386
22.27972292094365,25.9380281696746,19.591697496565754
14.046148787238296,18.836794236901284,20.257853866171526
4.282740590049754,9.456863601772154,17.43948843087069
5.707267017867485,0.5626302056933453,12.557419777913431
14.659151032821061,9.245008059678614,7.801854074369483
21.418434878415717,14.888280257207532,4.922801867974942
25.055029853290556,16.51545662935841,4.752307380856216
25.027839818606022,13.968417049918436,7.058924904927577
21.34282358186266,7.698236023716175,10.665375917885235
14.613437359129714,1.5198122380615946,14.654396991682033
5.9591651136149535,12.72329954982329,18.56456491874759
3.2338478567342714,24.711337038238096,21.61311599013171
11.586606745032512,35.964018060251526,22.56773141280676
17.951220308933916,44.74057178307216,20.207876647478148
21.540448102570856,49.433928008898135,13.868541755444705
21.963913614557708,49.04336717792538,3.6560845329630003
19.22165677017955,43.50356908022275,9.215577425192924
13.709501616677116,33.6590104044749,22.500491060120325
6.233100451680474,20.881550997036914,33.80065677877957
2.0375653225699697,6.560812221501631,41.39746693626539
9.712686818661496,8.229739365322281,44.743195029333535
15.42583792207782,22.7094464284772,44.054219233214816
18.120864847930235,36.08467222255378,39.91249640015175
17.273292318967382,47.23146869724595,33.28205056608428
12.987577134030477,54.64803766891642,24.967241939417864
5.95437577886602,56.780754943861616,15.622043419304742
2.7069668762757866,52.57919233579029,5.79796154093909
11.649581530120088,42.01605308094079,4.232912201957362
19.494258603211268,26.318060598724127,13.779123024490566
25.00336753337754,7.797841431894428,21.74366497211189
27.246468856280423,10.612964847324971,27.16102021039227
25.757910023074505,25.934183534492355,29.33900644242044
20.63997960644673,35.653928484056266,28.44989572892558
12.563198680682872,38.122126172768276,25.567207914420557
2.653092661682203,32.80689173938206,21.528637562703537
7.707254650899397,20.415005451420594,16.3648550016065
17.116738690826153,2.849874455727131,10.00123026868976
24.378444678319227,17.04434367165073,3.0709977658588556
28.640987524569734,35.945004096856124,2.9203308090611393
29.458988903277636,50.63667763419845,6.499371126348005
26.798148552500603,58.601011469206185,7.355381781320788
21.012294055438876,58.4695671389747,6.040839448888936
12.817881836688183,50.234102027612266,3.0195041912460665
3.2357122025229232,35.199065134588906,1.7502911540048065
6.517392543285629,15.718945895347783,8.418557465134134
15.171654608469115,5.235286648595896,16.250196697625626
21.569102932866226,24.63625476936418,23.366967433789174
24.818711732502866,39.99165925632593,27.433551828992314
24.417763067151956,49.82184189656064,26.692552566155022
20.325693838899237,53.86793525397608,21.030274990131353
12.988525526862212,52.933450340998476,11.980382518126612
3.3225394422843935,48.41298803258753,1.452808202789914
7.361138981717756,41.71279783153666,9.105227751008966
17.525024895968446,33.839952604937345,18.29890926472623
25.65307336919746,25.3408470041901,24.74628583600231
30.508092373491106,16.54920137128011,27.779935204657964
31.33971391497451,7.935454769349447,27.64005723837408
27.996961131273483,0.28668021171028313,25.420537075265578
20.912779026535517,5.443557193048788,22.388524910818624
10.99530432102099,8.526088795738877,19.071882108213682
0.5146241788454691,8.828539719986825,15.784392006648147
12.187043468055407,6.930648808871931,13.088400346646383
22.541511469289645,3.9058183007252603,11.432747619144052
30.207247590244037,0.9156903509358646,10.85506245968247
34.110313049618505,1.1152150668471497,10.558376369731274
33.66456502370984,1.585799232064042,9.0835204391807
28.920827610534896,0.10106116865234258,5.064715347023026
20.593755934225648,3.6539689075373953,1.945396821360576
9.934091674534669,9.825020984568628,10.969161361303327
1.5214668266970797,18.071894752233877,20.090037150461743
12.240082714604632,27.25494294666131,27.276670203783176
20.910477395891107,35.4192920843383,31.20397329303475
26.54165163587539,40.24897791555433,31.47277760845433
28.48222469517063,39.86752802490642,28.05229005081539
26.443822680798306,33.590308474439325,21.1018222249548
20.569838487627603,22.22220809102294,10.956566892944023
11.526333449170393,7.738456907574838,1.4559808256105367
0.5456478639624309,7.47098890338135,14.063394977245467
10.68536025773418,21.364026316451916,24.407055761421038
20.31835767706375,32.60686183273866,30.629431425047343
26.738032396892148,40.432057712748374,31.702020373734086
28.928941984717923,44.23060730148826,27.428001683405313
26.6726898955245,43.26402726586488,18.64864626893204
20.527336531736243,36.78975533131634,7.413257337518806
11.62959415688325,24.55582577514393,3.84062769262256
1.413021304112931,7.329829434930734,13.312471471816073
8.643581452809661,12.89941958370791,20.19982238449092
17.197181466279215,33.230119191699295,24.744861634921048
23.160949688370387,50.52752714763466,27.567695051250475
25.803716439189177,62.13190268081786,28.86114033594842
24.86336477757415,66.29416768250576,28.27783490739337
20.629158722984954,62.24215970034295,25.20158099437472
13.921622331453197,50.05534481494769,19.000570257464616
5.935337793635489,30.612417699773424,9.412036129734648
2.0253777100259502,5.708755547180568,2.7121988036895477
8.83563325725865,21.795804872474438,15.624535195636408
13.754756446333692,48.08009406587283,27.872953937425827
16.461992524393104,68.91879019650685,38.436762992098615
16.958652310091832,80.63795244841445,45.874014657714675
15.435372685959468,81.11592064303142,48.3545380607395
12.181915924370895,70.37974243932821,44.88252288102205
7.581056137033313,50.53720492765857,35.628545115288446
2.157549665935326,25.107449780070983,21.227306820078418
3.3973166227348526,1.898278379306815,2.9257107841211862
8.291655174958652,26.743686048080857,17.189659491841574
11.781635903519074,46.378890166833045,36.62313319960588
13.336617309040141,58.57343102806105,52.67441594872146
12.74977826295162,62.00514858222797,62.98551201009858
10.146491432002074,56.440756255366296,66.28083781329457
5.90872641107783,42.952255295052666,62.33327823286681
0.586043481880965,23.96338678867093,51.85082011597792
5.151785552102072,2.8823034002695533,36.33363555766392
10.637668050118798,16.85539477409212,18.10247160368876
15.28864022846899,32.62286069759028,0.2913766957506043
18.594798419948617,42.96934580546637,16.901079388898562
20.185181709598968,47.74497789519031,30.197066972919803
19.921082335275898,47.810459988613324,39.01777529161989
17.96394426663533,44.487160459772134,42.96495460919172
14.767496955777828,39.0252230810834,42.647614364769794
10.976992806445613,32.332453334069406,39.17186864566549
5.7879299449272095,2.8896386082802867,4.808386754989145
6.311660164149544,7.544939873336867,6.700071553324526
5.899898991503924,12.150366725176651,8.666131690419144
4.32377948499272,15.271210996542385,9.839757236061379
1.4773137393524758,15.668406001500465,9.516044238404683
2.5697604572058004,12.642528274713138,7.099881687501715
7.519634854079699,6.17467519751657,2.3942346803965076
12.830756480787105,3.1053562029147646,4.3306026829915005
17.760577724827577,14.025313001632862,12.569080917316507
21.479599346612062,24.98724754560426,21.435679529938305
23.21214139576679,34.108947906020276,29.680151738625693
22.36305419516904,39.45123400259464,35.954217846906566
18.64006098481585,39.33742423857279,39.01529068788633
12.203874859714485,32.74344602416553,37.99259649175542
3.7030052392100865,19.741078003884034,32.362951292526596
5.909601220007051,1.8081997436786745,22.14604468425503
15.552093018686692,18.260420620657296,8.441589538653195
24.120645882852052,36.907901041639526,6.552337890259816
30.615642509561848,50.66593669808916,19.81676407258114
34.23108136896335,56.986328699392516,28.42862008851655
34.44882911567315,54.765065843284134,30.97672616610884
31.13765661188297,44.44734622796394,27.948807859641796
24.597052801397588,27.78161957021429,21.202241499711477
15.555075006997077,7.404362958301457,13.474842621842749
5.090511490328016,13.590240501669339,7.5869862385815425
5.518614212644178,32.05688867890574,5.15350617033706
14.986858303496337,45.21972992019197,6.483684431610902
22.20473490094245,51.11515737770091,11.47552956516129
26.37411368610555,48.96566497766131,19.40960561912303
27.103368477663818,39.35592808388012,28.820293453412475
24.446577012486646,24.106820937854426,37.93549910679013
18.876999820755763,5.863026584027409,44.52167549017344
11.217793642350893,12.449693397714622,46.43369158652372
2.5421049450451587,28.14068290304735,42.36141749635138
5.959915127307902,39.1152203937348,31.835563765890804
13.12274852884939,44.04693131489801,15.596440881823924
17.938618298090354,42.45385418265864,4.403389996611712
19.694288282331122,34.73681971401313,25.477949724449473
18.08967841409303,22.165356131455653,44.63650662571801
13.312456606174539,6.740485451926634,59.35026561098168
6.04941691192088,9.133767675462252,68.09900652985019
2.592990757583166,23.11183181127033,70.6507566425657
11.26078119799872,33.34609663041277,67.88294398996238
18.59267269247475,38.75354909649447,60.83936995198835
23.46112714165861,39.021114118903114,50.04959476294725
25.14816783904877,34.407546159234634,35.70214607679826
23.435103554851988,25.52145579275148,18.38713150859884
18.601513309465346,13.223776933575447,0.4270023935333223
11.359492482109186,1.3105254820210166,18.61852100748737
2.7418164279176405,16.481749965341017,34.00934126009854
6.047931051090982,30.28150773000745,45.20682365403443
13.79995248514485,40.5166907218671,51.80851601460165
19.479635833946,45.2156715740568,53.769385501931
22.397306385977856,43.0954673088581,51.27213098635633
22.310623677237242,33.90399362530952,44.79716268778512
19.431758527146993,18.53383517479912,35.0786376216147
14.330043667831074,1.0888688967409061,23.363716598314593
7.781005353998761,22.295279660267326,10.972648165725957
0.6400635242627213,42.07478458704481,1.2621272839960027
6.227257917265796,57.53199286522648,12.512687135887422
11.969213810358768,66.35212321863736,21.513466425358406
15.779682963477338,67.1906077756497,27.031523856306865
17.003504395680284,59.88218205741144,28.580345802674916
15.312172777080267,45.39988426306198,26.32663788188085
10.870217971673915,25.577416190446247,20.876009066092664
4.397934643629812,2.7128078317761064,13.413234237430823
2.9405474324769414,20.765379677164546,5.1280479281581846
9.817868715475894,42.475220975886096,3.040247682875477
15.069399267517877,60.14393708029099,9.67875796058685
17.921488100227585,71.6997470723705,12.997581092352933
18.05318369319274,75.56418803855964,11.78781171320684
15.508783411155695,71.10694302299298,5.922146417090604
10.572910709804015,59.028759238967496,3.638918049739061
3.723065394237808,41.4250521547269,14.785410778999541
4.317684333231925,21.350157452894766,24.61794462559657
12.503300331108985,1.9850098148383364,30.62915069265564
19.500179969578422,14.205032714885629,31.361508895392046
23.91674270035954,25.93752215629392,26.265094464889724
24.676579366003974,33.00988948102961,15.844693601888265
21.386262374308693,35.76696488791062,1.8358510228102984
14.517758689826472,34.56164421774021,13.23734621530819
5.289473800372198,29.593729626480492,26.84652483205714
4.701820669475396,21.223462887108493,36.7638088588411
13.904890323420265,10.493161804068231,41.144156185332
21.116307153215303,0.6069183015034508,39.003222888894356
25.57447842074323,9.447557547703099,30.457916711492192
26.88188957927805,13.608295206648345,16.804744744693018
24.89901253646542,11.864164126193499,0.6590578655004697
19.726204801854582,4.7554216991815785,14.835069778231759
11.797128527644636,5.596180961975609,27.20860874415035
1.995791026301092,16.327542593036778,34.74385828988694
8.35331335253391,24.884220227324736,36.35832338328096
17.6792416247972,29.759325997851565,32.18642108442767
24.496347983238167,30.624128444305562,23.463974308505772
27.75454152365017,27.941055970192906,11.894197381915568
27.04472897118519,22.437418202420634,0.6590243931170573
22.599490599262996,14.78831079655277,12.77882707270874
15.1523948741002,5.6315708497365105,23.616735100660456
5.752876823337227,4.2136827712018965,32.29484457290914
4.381386694517815,13.615239065710757,38.19517019422509
13.955375120190721,21.277990584100735,41.40468242344452
21.68088654835405,26.1218772980143,41.92555099387517
26.413222815118473,27.65631347556633,39.1427450154461
27.35090598185161,26.110941572156953,32.86687839192547
24.23911408812148,22.25052333658851,24.098510326246732
17.47380988532522,17.008013676574777,14.317000971531158
8.052567018562005,11.159527533917798,4.902995491184229
2.6117860995347484,5.205290199761348,2.964189825020535
12.958150168876161,0.5413657726371733,8.636632205911331
21.53490212429756,5.791987439096315,12.299866376517885
27.18590573044789,10.19062935209164,15.017357749537075
29.159312998413814,13.340698148921632,18.31792114200415
27.174095243703803,14.897746301604842,23.480036681480744
21.462699637538645,14.62623400780803,30.598001147386974
12.775359212725418,12.373295778568126,38.1354791181812
2.3267702900079823,8.033839698882593,44.16848937987183
8.363327211582547,1.612884709681003,47.49965291661346
17.729062934410127,6.581621285413168,47.352391831336384
24.434160968294254,15.702543987586738,43.610043276887346
27.595176504941374,24.2817159794672,37.06523153672123
26.89496251419015,30.4417531517352,28.359482782765152
22.58212745694749,32.37443325668164,17.66166220072647
15.387230386073114,28.925427294803722,5.58863583989443
6.389588699875204,20.035823963752748,6.439997847115692
3.119135513210989,6.841192259300815,16.36853826588286
11.791802632483098,8.581513953551237,22.192227275141782
18.416968329421067,23.675893848046574,23.245914401637798
22.106142990356144,35.90046591146407,20.442140213238044
22.442387580899336,43.126382144368755,15.548062214097119
19.53652951350584,43.91833933658314,10.867165585359125
13.972709458237484,37.74673395763163,8.803183740461192
6.6730192343769446,25.14141871407086,10.63280849925216
1.2714462177300505,7.7449938979041475,15.512823804540245
8.750284235018079,11.829646166895118,21.03384499811352
14.757024940910211,30.394767695364976,24.813763278741853
18.4833296066204,44.759061932587,25.69945785708007
19.402372290434098,52.33469299397541,24.155643368283346
17.367723310322674,51.61606650547743,21.819102908941055
12.676047921509433,42.41384687813513,20.272051218408066
6.042552827435511,25.866636591162663,20.061627455411124
1.5188528614352834,4.287984890522341,20.915073190405607
8.885664029400184,19.146684021375304,22.28916178252026
15.108412249508472,41.243833264226936,23.775257175020037
19.565797027479082,59.495866449405135,25.50569798625668
21.95207798534323,72.2200863251539,27.72344410534691
22.261852973617746,78.65432966493601,29.91498946360354
20.729633415342832,78.92976164456356,30.998259572024363
17.75726559725564,73.93134842396906,30.026667208517132
13.854638323019952,65.05344413440939,26.390834407267462
9.594189692576634,53.890897366368264,19.96565735158622
6.455749268773917,3.8093700762673364,5.907067350206702
7.969794109745628,4.097010607204552,3.730334174060751
8.384708648821212,4.607873751589682,0.21053498134397974
7.30948232970545,4.806852358140168,3.7605246459938027
4.570050062277769,3.817104607504136,7.288245747221286
0.2257262938438059,0.8899551744420867,9.765106496923998
5.436670488055324,4.1024799590179235,10.727922116268827
11.90250023149496,10.455611568924231,10.116834141988972
18.41304400916781,16.842621409710006,8.46651788469055
23.995897620311222,21.83590268626513,6.634063187605292
27.569709666650134,24.419035492765108,5.229612332049834
28.115820953272245,24.223058534988947,4.2689569799209135
24.902494934518284,21.445822350318124,3.435447501551278
17.78920648359249,16.58008631439231,2.635761280514548
7.433297367759707,10.004428433469057,2.17411996746355
4.8425506296457685,1.7447913452546844,2.5674834930933828
17.360714844982933,8.15688573377675,4.479669502497007
28.419784005465274,19.006660954019257,8.295039788031941
36.60291264082119,29.17115840793336,13.295443690630671
40.92299153942478,36.36659798454148,17.389040920330622
40.84971990810865,38.499129783261964,18.05785169236565
36.31138171152981,34.58695451935282,14.014771767613135
27.707174113164715,25.209382219802556,5.6334054800832005
15.954332125352401,12.27609695641184,5.948837616159921
2.4790802743943225,1.7346528674255102,19.215896626706826
10.926004227176652,14.578479871839313,32.181590186206925
22.398988318078537,24.662767248660426,42.848165815295694
30.383213454925883,30.977012392660896,49.98077993912011
33.93449587508887,32.765134483962214,53.29336938034791
32.873567748027035,29.354908378033514,52.90959535677644
