2.4581736569734742,9.017935862897364,3.242876766340603
1.7251261737712553,14.582727318889095,5.433217302871674
0.2383106549514642,18.107437821250734,7.406813932768726
3.65636591110166,18.735586056175286,8.548129409247759
8.48456666287079,16.07564804123292,8.409628340075615
14.164073584090449,10.135149454900011,6.786606870617091
19.46184978780607,1.3014891039919747,3.7345747630773944
22.60317740961337,9.632953493631668,0.35013016483117543
21.698385372949655,21.342518004988346,4.9293015275594545
15.374047219896239,32.00441008123293,9.417034857824106
3.3549453935315507,39.51745595530441,13.15126482896859
13.312121793168878,41.721252409151205,15.596278036412775
32.4567409307787,36.68318184224104,16.440203552751164
51.127887667085155,23.74959246072315,15.546339650791612
66.12248736727015,4.529942276227891,12.98861957787436
74.79322613995464,17.786448044735575,9.189738875960233
75.50870709814826,39.523742324590565,4.910186747342025
67.60063533375991,57.191167945950504,0.9883152680224352
51.21538409308788,68.1840899145241,1.887051977973241
27.183640816153396,70.9069635726172,3.3431775728378077
2.9207892455596642,64.68331697874677,3.35352744824892
36.617568410853984,49.81196399125775,2.225762690450097
70.5467775118406,27.599637103131315,0.6304595686787627
100.78233050420893,0.5338905686685795,0.6553400241258701
123.50758713404127,27.822440463492693,1.0419257659513175
135.7980939172487,53.313669610540266,0.25479010884205694
136.15040451386167,71.96691263848201,1.7264837887766813
124.62664247745887,80.93371048825446,4.860655251815268
102.59358562274481,79.12043353050736,8.817214620386803
72.26002033330106,67.35517651484399,12.860256180219334
36.29753542080904,48.028151488424875,16.2750017857812
2.3236092747396153,24.378564002487227,18.550316180612835
40.36760135165222,0.23099341479826346,19.382972691882575
74.4533003534469,22.883896968933968,18.690424239150317
101.41582189111335,41.37736336666305,16.4870887486411
118.908741907671,54.25156595808738,12.890740201875442
126.04423099036666,60.73271327136217,8.143499713472478
123.7442750288925,60.67903871037604,2.5952793544089974
114.54935125423546,54.555454033058716,3.229973803758023
101.86626961615178,43.3741430846035,8.609133251835534
88.90647669628675,28.560132409358427,12.740824084823421
77.70120216069091,11.710188430334643,15.11291654655926
68.54185395027024,5.695543705428239,15.663074137882758
60.030171825398675,22.50268043522131,14.482122129776428
49.683024209623355,37.93879045431688,11.743726783050786
34.83383268103306,51.48112427041142,7.909529381392924
13.531573309033757,62.633432997847436,3.6590141066003765
14.80266576666648,70.77127641582202,0.38472500046452096
49.09558122547658,75.15370818819738,3.7303219042445206
86.7074383478234,75.1325857485296,5.92831243108318
123.80848459373601,70.44486027768502,6.673885291235926
155.9541481531469,61.402458106387975,5.929529511832716
178.75744451201658,48.850033592296235,3.86352933197131
188.57823183799547,33.84942986161314,0.8371399925544881
183.14002516009893,17.230234889174113,2.64659752388309
161.98264245963784,0.7083992656015965,6.075180085502602
126.67763693639314,20.14838607231971,9.0121050706985
80.7203921097199,41.355184073596426,11.16195576797261
29.049462905237952,64.09837415750278,12.465632979585882
22.740516126282465,87.21284486798417,13.18345420735668
69.33210892074041,108.59056276305044,13.598795954557273
106.57156963707578,125.63334530996015,13.647272239345586
132.09474072516755,135.95694310519846,13.023603310486692
145.49356769891193,138.02002452648873,11.40774163357843
147.99015812564883,131.4032853512769,8.738157124652279
141.78697888992875,116.6818687415001,5.2886844928081045
129.33419528604804,95.05744163127986,1.275413371047598
112.76075205078388,68.00162830229154,3.228089273056869
93.63111540810334,37.103975013000955,8.110219479562677
73.01296847492866,4.134394454092157,13.178310189912919
51.71034245230357,28.872456587238137,18.020689854192643
30.464550774963964,59.70302780649611,22.081942575515487
9.991854649748069,86.27171173298224,24.875080434180802
9.111920496606908,107.02816927656816,26.06589687680023
26.4708710079781,121.20755434780123,25.552808878878835
41.9080811654405,128.76506972845073,23.34987711408475
55.279495275060825,130.0312050829568,19.530826185819624
66.26094568041208,125.27994395901439,14.441352595012383
74.23363055070766,114.50403854726329,8.788742171712553
78.37952180444304,97.55907571366443,3.346253991671851
77.97494371106635,74.59381602017875,1.5586260155782108
72.74481145260809,46.51953538540879,6.144107578314469
63.09147430008661,15.246664427848058,10.745084019198737
50.08196603040414,16.442152865602935,15.33867534571565
35.23510370312455,45.335042164946366,19.540698528589836
20.217650929052137,68.37339261392145,23.036341112259958
6.571138887634672,83.16781341088921,25.59909274882553
4.435202192838879,88.32529687565388,26.899389415703666
11.859130327270405,83.58371709862972,26.689008012398105
15.13004199053097,69.81431201553218,24.83656597307849
14.12240673459803,48.92894428081331,21.22873517283521
9.253890901010388,23.67039687509242,15.81746037209081
1.5221125689234927,2.753881996852208,8.745077554811042
7.603346076171723,27.16159486406731,0.466468019750145
16.42306803874427,46.887892584117836,8.38057628609707
23.3240901118867,60.14775147438129,16.975810934885253
27.087367304405287,66.16769373320949,24.161487860969643
27.106555189388192,65.07644475451356,28.70250433389018
23.465712888764852,57.677826344532285,29.730153499489504
16.860789739800726,45.24619360956024,27.07033747857466
8.38021610525707,29.384438889159217,21.316901764656055
0.8289800133413964,11.908790531065497,13.549333524441277
9.955250837856417,5.327039595420677,4.896037223789101
18.86311733615336,20.73979897600745,3.643881710355406
28.18633308362118,33.38390325474606,10.995339376681246
39.040545847590266,43.195469601315956,16.211354901370616
52.41929607723249,50.94257172197089,18.87717112894618
68.47277832153404,57.81926503866078,18.921846469741116
85.97987224816964,64.81940202711944,16.55219231603316
102.33335349440938,72.15561485867883,12.367282649673351
114.12345619162761,78.9789618058053,7.198910347126234
118.09539939300755,83.5279086072452,1.9426700889688646
112.09169293740496,83.61939138221305,2.617902635469669
95.60476910809514,77.26885886917064,5.907451475085558
69.75001591111116,63.197359885491586,7.689625261085236
36.77852324926863,41.07648757424818,8.194365134178518
0.5591912545991653,11.553189397134673,7.87915177209442
39.519524542234954,23.832154095597502,7.161993140801443
77.61175005568899,62.71981261569004,6.3725017392387535
112.64497500603146,101.96910070704209,5.730186324452568
142.73142925045173,137.7625139023293,5.326086927079019
166.3471355637953,165.8925607390611,5.293642764137414
182.4345240285068,182.31873915998915,5.863416320604262
190.42089248036234,183.93419815388086,7.008358213685636
190.04115266449324,169.28991281652662,8.394521097064834
181.0176870335385,139.0101076783764,9.567345795195758
162.80842603644552,95.74865881540556,9.955649730917763
134.63235067516115,43.696477534827764,9.151241393219829
95.87264073889621,12.186153801713795,7.068704553819183
46.77774170267556,66.94375560076017,3.7864635951739762
10.865826543644179,116.19363777027827,0.45008658551245107
73.42955007906744,156.4247360648424,5.2261134820959
135.67540567594267,185.08899097822624,10.009421841688628
191.53099401389744,200.63490323659698,14.317776665165852
235.16884019309788,202.59388156001188,17.88936586353881
262.05459357621976,191.6800586079306,20.446944593452272
269.7112913472577,169.78824673710386,21.491141011716635
258.02916761090654,139.76039054531694,20.563327656286084
229.098959768184,104.88173251903605,17.498713945250024
186.65381539246755,68.25251360799776,12.462614675403227
135.26726408736437,32.258265895453604,6.020303549665182
79.53442343317398,1.6322054522576872,0.9248085413352581
24.181975030308035,32.13750260418834,7.456067892663662
26.32496768038811,57.94090320521629,12.900778993560978
68.73722287822838,78.1184468695466,16.925562376598915
101.04672070191873,92.05396079596002,19.479956774477195
122.35259223158214,99.47044868381741,20.59746616176589
132.68635664122374,100.54083015283001,20.337911555047853
132.85903283431077,95.96507421184035,18.857514029241766
124.35863146233243,86.9243341706291,16.402891661356886
7.674211317717121,4.030863051264745,0.13330929500266517
2.59709337036636,16.244858238919768,0.21648715584945644
15.005859612169116,30.46954929704657,0.3591981578068057
27.691773609688852,44.49674023257401,0.27214457562024363
38.704398849881706,55.453480644680056,0.013505856342827718
46.24235013569372,60.22380960278316,0.36142719289435216
48.79007180370406,56.11277541851315,0.7716165443102091
45.209495064552925,41.5329008459414,1.1068775624888927
34.97764426057965,16.592085274540988,1.245189903822011
18.46886403155215,16.677613623201545,1.0675661439777402
2.818020106961703,54.47532984833268,0.5027117423276539
26.106969796443927,91.57974744923212,0.4472469617027648
47.4371973463909,121.87515671556096,1.7030671127101862
62.66726856271961,139.70530408690448,3.1187055257315173
68.99298567141533,141.45201071537934,4.5080728766851195
65.54175533305747,125.88481222743785,5.638247082562756
53.27759618535524,94.12746898851148,6.241281957650429
34.595599500008866,49.68564785268967,6.135407565187772
12.441463828906917,2.102185941658174,5.269538349477716
10.306895469503623,54.73391246562922,3.615987785427586
31.073509234364415,101.49391108065527,1.1920345681563025
47.62178601441051,136.66010577498452,1.882614668377186
57.98100760613626,156.43287624200883,5.4076429940098585
60.68745450895699,159.5726657154076,8.957569588237419
55.227274379934144,147.40592546353702,11.836893825903932
42.44633107214832,123.21610535771175,13.361525653221218
24.645084705915384,91.33384725395707,13.107071046748446
5.079629987747717,56.15890108818462,10.981647188809784
12.931375215664861,21.480934221345613,7.19446474357836
26.95444329223094,9.837974262681398,2.1578537140673903
36.002247785595024,35.859977361836116,3.6122825766246756
40.46716414238444,55.420063919447834,9.559244159926676
41.56741414619116,68.0673371765039,15.099504992653106
40.614329271267074,74.11996113836531,19.617805479849455
38.49485443490709,74.77439297545075,22.518448655702624
35.55737449115864,72.09225073251511,23.283998576513316
31.82748772422974,68.68718279608552,21.423448883812924
27.307921938965094,67.09074663450141,16.684472190553812
22.11676005220901,68.93780370032962,9.546961077211101
16.41938041210789,74.26506607414674,1.0813029759664594
10.241893489153982,81.22474245218207,7.555457284485261
3.340474224949772,86.38862563938349,15.19948678149158
4.735934628540038,85.62605767059097,20.8828451804143
14.406583208233918,75.31842346756524,24.120200283185156
25.755471810707412,53.504944305609904,24.842476967504375
38.302494331183276,20.57114791221134,23.260768781375617
50.94672241761488,20.724758047171427,19.740297134139503
62.11383772629962,65.82489970220131,14.805100545414287
70.04598222922608,109.26761971953918,9.15836128243533
73.12952274183871,145.60319723563538,3.5125045829885484
70.21450970195416,170.09836321703963,1.534348599853852
60.86842202605046,179.2025157577028,5.512153644396636
45.481053456615065,170.92621240399123,8.059767292667098
25.201043121933928,145.23083853287275,8.994708862990107
1.7403330701108273,104.40758212472993,8.396091065457355
22.88675169248193,53.22845377860513,6.691791750795919
46.60212147969647,1.4529590691052683,4.582668213845054
67.40686427018294,51.7985443819577,2.500458878262397
83.42178376872056,90.61400007165751,0.5088473372469565
92.91094238941754,113.006245362663,1.2544896456563248
94.40972459188738,117.47877092589373,2.638867910527868
87.00917019383814,106.06381266701288,3.5992101761814124
70.71564705964634,83.42466658751748,4.022944944843362
46.713211935400906,55.33236602706077,3.7117410817348846
17.36344062031463,27.163139995395582,2.5015768193806003
14.11474588843238,2.9288158092984165,0.4166605514962523
44.19523133675921,14.962209004735799,2.3200916283358235
69.64395890505257,25.401759589360456,5.368788288191393
87.97591537395822,28.13945332740064,8.29425754638389
97.6504034010403,23.549949515153912,10.62822728259326
98.04175069191693,12.713839933416534,11.942780528949303
89.34117209617459,2.3798308642360624,11.924744852323899
72.49973252366331,18.82995209160416,10.468004999516689
49.21498606971617,33.23568169408066,7.7161187655598225
21.90211533433651,42.48333345003983,3.9607018932261098
6.454147323917271,44.62455156056036,0.34534588899880647
32.64046350734321,39.461857753785864,4.367637916673398
53.70778393513402,28.564210561860623,7.11625162613661
67.48793851647883,14.720279503502875,7.972999437067428
72.97670030968924,1.0793608321690957,6.786479952165109
70.45863769680571,9.685921171172724,3.7253026049993587
61.346909314972244,15.911532976163892,0.7265945879691073
47.80763813881999,17.071619634687394,5.742325723833968
32.28266181534202,13.617031923211917,10.296355210324926
17.037796470803006,6.715821341132775,13.468191036466582
3.85142650588745,1.9431746844986297,14.703056845493737
6.110039480911416,10.266019836862295,13.891601009619551
12.27021157176824,15.918230421011673,11.323098483778363
14.554714813962491,16.65330318760314,7.493464182226986
13.32406748506305,10.833312724129506,2.838187223162788
9.375356423227638,1.9690044305778074,2.2636204550911185
3.975901322692103,20.561319071833314,7.39049110484706
1.166298709616603,42.17086932854411,12.140774332446668
4.108829500671914,63.01563820137417,16.08234071043492
3.105673498545706,79.28655758112274,18.832369797380853
2.844473690543699,88.18505045057115,20.282015202609653
13.539385180792376,88.58251072566428,20.45494687971845
27.383956825036698,81.05332593498485,19.374958388783014
41.59048084593314,67.3261007603689,17.162469760311964
52.777551991688426,49.45096897822452,14.058496486485632
57.768787215664275,29.088269014042172,10.381493690659557
54.330015717506754,7.236286319087375,6.36611019624017
41.677014990099345,15.564365056617074,2.0995530500887094
20.664530917366786,38.791594286095105,2.3015630616203313
6.333149411080402,61.58701209263829,6.568031754729253
35.78331228562944,82.70377124336657,10.272135204909862
63.530345000522786,100.74861590070299,12.920003274084886
85.44804375670273,114.51683997610832,14.16701165654033
98.16066783820096,123.17648325165764,13.990412533011728
99.72394139454686,126.17390411926723,12.601156202110209
90.08751439589474,122.97868852999684,10.302785857331727
71.18355202888867,112.94495009099529,7.524295957143576
46.56076579059838,95.48747240389906,4.730891899487034
20.57706810979632,70.55486915663468,2.251774426971303
2.6614580498594704,39.170284214565136,0.25929057357723867
20.2990981990956,3.6723669305917843,1.1688729233440251
31.402383846761136,32.5993900762648,1.9906539091502882
37.0857730145159,66.08482693444341,2.2782759189395674
39.977330878350216,93.915632675127,2.205949199772883
43.19311140080133,114.55636473703495,1.9665126492796627
49.16090829147697,127.8696940416556,1.8356514336691594
58.679878662335184,134.62800586366512,1.9810753735240654
70.56137294510094,135.79778232208204,2.2807858338774554
81.99084297966625,131.98487471722504,2.4888088087113833
89.48896046284703,123.28849427798241,2.419908472456155
90.08897535605782,109.56885441800299,2.1004419369510257
82.25692007576514,90.90867162828637,1.7165820309305102
66.24637107083856,67.98399822492992,1.3927930083620592
43.84627538320196,42.163652371582096,1.0730823287926425
17.737179322837868,15.324185325296,0.5966018286804309
9.183162399979716,10.49070286275846,0.09148001203713818
34.22539918705975,33.41960895185709,0.9214505230922
55.08171749926464,52.05900755524794,1.8181153823971843
69.91211742810067,65.61949682668437,2.7166795485600073
77.512157739609,73.96624115779214,3.484708780425464
77.63053631686657,77.57142113581973,3.9468569882478426
71.24680816514258,77.37763024634616,4.07498729471078
60.50120097434618,74.58098119751246,3.971430479914297
48.12557816819532,70.38725265376144,3.776828732515447
36.49729182169293,65.81682507749058,3.682098157465076
26.73318295960742,61.58581109087814,3.774674640830801
18.3127776430648,58.04010447800491,3.9672170252561845
10.14748257948325,55.06215064412631,4.090748287414075
1.420463100102841,52.148889652335065,4.033189283929669
8.32167104087733,48.69542820721091,3.8482218894368825
18.726984381485902,44.233402982636484,3.6614405207204666
28.6636868593183,38.58187871669114,3.542622242085024
36.67101907259216,31.900188009124097,3.458437468519349
41.57306693133677,24.65449847912311,3.3264120522575364
42.92185412061684,17.511412690242704,3.124552929733426
11.39580183973371,15.470747159809154,2.9948807102929487
0.6368145371227042,23.747055156067347,4.013992985058818
16.143738712366723,29.660604688425995,4.686325938674872
33.11117029191778,31.189043659728945,4.905712852490053
48.93835527195905,26.94422661967572,4.730203829403938
60.87344469846537,16.49308534388305,4.191049216957787
66.55589607087454,0.5441021140281169,3.2123857716568986
64.45736127973824,19.077087226782176,1.7257677563528457
54.19242072506255,39.61017632299003,0.32008443532424563
36.51328015538004,57.77867303796016,3.026178816752891
13.108435535569344,70.3813829812626,6.399921002454812
13.47118231473493,74.80675337212544,10.090294359989004
39.74362608147806,69.3912278665161,13.407976039813422
62.020161480831256,54.0503382011936,15.770057873426412
77.60718814280379,30.79867561952419,16.84955713707239
84.91236619249293,3.2075225204515956,16.34958474091959
83.27518829148254,24.536559685029005,14.178218961033373
73.14139821871417,48.41363402318461,10.590768506384936
55.92498437424573,65.35847247220293,5.997501505290691
33.97717435958441,73.61561729486944,0.8924735176378544
10.406785047284115,72.79930475003337,4.264376757438257
11.44754697571948,63.855090813088424,9.083013787974513
28.551739904737087,48.817071744032006,13.087905698432573
38.814334784998074,30.531001685831896,15.781523798851543
41.46713241169902,12.190910681287898,16.877269074304223
37.100208340740195,3.2892414086844903,16.388995196821984
27.438039504936526,13.855106718846724,14.547884100789295
14.849140930127772,18.715236701587184,11.81440056798992
1.8474433167836553,18.34825848520422,8.833882043020083
9.366516511037222,14.134311964539453,6.075829307905664
17.21296526672024,7.7937104094359615,3.599951577594348
20.85359974649663,0.8848917895277985,1.2672351764649303
20.20210181441519,5.4147708298214114,0.8903672258609137
15.77204957003367,10.25316266595118,2.6982014943119186
8.454127381890713,12.916545956389088,4.1552400388139
0.7037047883953079,12.715783638235635,5.37782017153126
10.697261024124554,9.063843107253799,6.3890673301967364
20.707667076017692,1.7054434232616136,7.0840647095444265
30.166211963870435,9.031556906208985,7.262423294188222
38.738185986874484,22.117453005465702,6.789208940758501
46.253065184038356,35.88361520938171,5.642281430547007
52.566014620918274,48.231677793848945,3.835621179698944
57.362631827201504,56.94462065610498,1.5264057482741515
59.988685811035936,60.04426111954654,0.960252790253121
59.3855067255415,56.17415274996665,3.2770107151239194
54.223473035158804,44.992569235406634,5.105434270099863
43.27322531049576,27.46491411589364,6.12913163987667
25.940114849189133,5.8847863489116,6.132970614811118
2.76582089856248,16.474212908547585,5.305779006615141
24.33617235532898,36.035738283721926,4.255914237187256
52.249583832575745,49.72903661292732,3.511003418103067
77.22719893781766,55.62767477782957,3.189006594002424
95.68516827048164,53.19148324533398,3.162068828822012
104.93203019939361,43.11171875055713,3.2531544726088173
103.57427567618514,26.967524999219133,3.2249115300435296
91.52133407515157,6.9351459488931875,2.7923668201124667
69.7392578006266,14.325194528817887,1.720675085839006
39.95827088403619,33.70062012218413,0.10742000265904869
4.533457732133651,47.83366875411917,2.651169423882726
33.48281806065561,53.677163969712176,5.729420524039411
70.24797756733113,49.32643650203044,9.070176066993817
101.26203122142502,34.783110942628596,12.319316965632236
121.90006861633444,12.204821730310934,15.014911924204975
128.3108753104723,14.573530268257832,16.64457760650992
118.40106645815987,41.10492756471126,16.844706019024798
92.55209269011445,63.521404604436015,15.475819007421347
53.74894679038456,79.30287858189175,12.54911687369064
7.019549232733352,87.3548266368734,8.314739391314317
41.59940491765939,87.53851825396812,3.3648667708604068
86.19958755411139,80.08936748391567,1.5983368177122679
121.8856392077539,65.36577261432012,6.123868617829249
145.2503412597048,44.06131103026468,10.011802362292508
154.50906843784702,17.64519146527349,13.057780776970322
149.46618588773381,11.384119714548804,15.032773858884795
131.45517557018147,39.732844063947645,15.839998144760635
103.22717317660593,64.00702570284811,15.513012774483471
68.65007046181253,81.54133998310326,14.098797704623525
32.08743317409657,90.93519293557065,11.660575438149367
2.5067932633110397,92.06063696024952,8.358229874562017
32.469804449767445,85.63916843176892,4.467406938856948
56.88269179488305,72.72677714074348,0.3793403272131308
76.30194530275605,54.45593743239976,3.507260444008371
91.81357761104073,32.129461417330695,6.8527522853133265
103.86134208836665,7.4855559371612355,9.237552484257817
111.44169893686487,17.1679482023846,10.241904132147024
112.14252730226784,39.163495398510726,9.674080547179699
103.12661116513887,55.99002692479492,7.616113623653254
82.62902383306758,65.88469056796585,4.412114315603188
51.25102663548363,68.19796354443149,0.5802018908319179
12.43110935016951,63.36813044695374,3.2585635791991945
28.125952169473756,52.61504101904661,6.4485663813685585
63.797981532060724,37.56482922107716,8.521472592748529
88.61208435402388,19.972306192136013,9.278673073072143
98.45750260099817,1.5936077129650288,8.689102035633445
91.65046586397881,15.88769009137383,6.885006349862311
68.9111261066103,30.994112354337243,4.175204259976415
33.013578503004176,42.651339260260286,0.9286130160349289
11.641169901113708,50.36952150469607,2.486576433210121
59.47202298765478,54.30348459392637,5.667422136094056
104.28715015631914,55.11422549150029,8.21208826222285
140.08673855900943,53.683180616204304,9.771582895271395
162.07367361884005,50.825267810206306,10.191175194754226
167.62402908081896,47.106250838773484,9.67274363588517
156.8567014132193,42.793265499318764,8.610290565287324
132.5202751559778,37.87449363635843,7.365480524876248
99.15442875669169,32.060119020597334,6.20806078421369
61.77916051955908,24.770532243618295,5.254175616885458
24.563091575580277,15.186237367089408,4.4974734805543894
10.07464416757867,2.4454835894929783,3.8192474951913526
41.67228666569364,13.97994161755549,2.9469585380176135
71.23063399954249,33.85329689401772,1.5439985834421208
100.22233306390616,55.90643957875604,0.6749382040776843
129.4853549421385,77.90442019420438,3.78867393667823
158.39638870730587,97.05982338121385,7.52252767280384
184.61732883681324,110.63911730434077,11.332882372668763
204.52465075339532,116.51096504388204,14.619592257035755
214.19570396534476,113.46004600420817,16.73864230862067
210.63876894311406,101.24995899160122,17.02623770636103
192.83345651716755,80.54569446891573,15.164023966714584
162.18119762088384,52.83434405055781,11.29711375791237
122.17577043527622,20.39266512864767,5.8063372524149
77.42233330397761,13.77374398234433,0.6507429462271835
32.41771525374575,46.16512680635709,7.106520031675586
9.440636726058598,73.28488681766206,12.558952021718312
46.255457803442184,92.29689982179956,16.186118703000027
77.37626686863544,101.60774557885209,17.3107005541524
102.79597481916478,101.13444519976288,15.441308406428403
122.58252474920552,92.11481069270481,10.634514650027647
136.63606659472538,76.53816762829544,3.683719003033477
144.82636364895404,56.48192562714586,4.199397958098963
147.26062291612232,33.6615370928148,11.753778082307617
144.39828500239284,9.340686260406436,17.84453714347802
136.88521057988595,15.438091307442425,21.571145612416426
125.22233300386561,39.48903488216968,22.320827411310635
109.584933807842,61.23118135627193,19.88396658048674
90.01820111430158,78.68754079244046,14.63794710831001
66.98941336552996,89.72695085992845,7.429275003939818
42.00020079107455,92.44708970858123,0.9274935332245878
17.797707865506005,85.56444214091951,9.798492195976594
2.110062323497735,68.72199394858586,18.27592942207112
14.56153812743511,42.686570794944465,25.176262923014765
18.02744084394094,9.447764221572104,29.60493532495759
13.014686557312316,27.783971930890036,31.175392763819342
1.8970539423192407,65.13918932686984,29.895284288925435
11.593006638393073,98.81344187127675,26.196877367236233
23.56574767205251,125.4660093946321,20.901380951295724
31.149881935657504,142.63184312702333,14.870433521976683
33.18710330562189,149.0784327145489,8.77817111523258
30.22683203686599,144.98693927087874,3.2019207192155306
23.960836007780582,131.87330862393682,1.33056952507538
4.520532529700987,18.848650420806777,3.6266718001112883
5.29982529700071,20.112573381895633,5.913747754794694
6.780475979069365,17.29966350234797,8.088695725757647
8.630334760436465,10.03840256997599,9.604676680652513
9.959615332217567,1.0706113176960248,9.993492003078103
9.420275925648346,14.56844789076988,9.003368581454046
5.570031196284488,28.45385988896367,6.646722185063444
2.555325333861877,40.60906943299638,3.1699523121305284
14.951336290977176,49.14012218118129,1.0086266767646281
30.389050712424922,52.63251947225057,5.424606215324105
46.546713180715294,50.2590086781369,9.742734197754569
60.57871125028686,41.715371108562316,13.798894437637609
69.85881159368535,27.18353546573205,17.41619133547939
72.27966098349135,7.719578598426232,20.23930682966169
66.33952068209933,14.465799855463493,21.81322982413425
51.60071791810291,36.576869556604066,21.778305639037363
28.830352600319088,55.86350901205388,20.085006772113218
0.2386027794453717,69.9817443273537,17.046017185167095
32.99298671004018,77.35685825073023,13.08433184800253
66.16254244322347,77.19826588790639,8.582732475177986
96.09609400772234,69.3700128375504,3.9057262237904733
119.11329990885753,54.27280870441503,0.728369446347709
132.09515522456286,32.71208873781222,5.296055042145458
133.05559252512967,5.974960457383173,9.757693066225086
121.63520024073757,24.02724967056169,13.859735688043267
99.27781263861988,54.65738351015655,17.138080409447745
68.93726443460086,82.64230243942781,19.119975278200414
34.47177568112361,104.4614706380915,19.528097190690637
0.1431727674625927,116.8973355972908,18.336724935776015
31.517839142139632,117.66623998729122,15.888214883886533
57.26572963665399,105.90642150724068,13.000220420728548
76.06835780527108,82.3806457761442,10.643828367846702
87.46549971521222,49.39837259164048,9.464127214574955
91.57545575332544,10.470505123734311,9.58499461935414
88.89477661703364,30.176944751203074,10.680331458532503
80.28630824750532,68.13950839021345,12.264523134070034
67.10781287996768,99.38157453527165,13.826644956963618
51.305995866613756,120.77398429131576,14.735938790599517
35.32809692555094,130.5633900555832,14.409637769759124
21.75735457632097,128.65208056196983,12.567201036468962
12.745989476140497,116.59333614647682,9.171953920488553
9.464405651462615,97.23734787559442,4.3067779381998665
11.78037028662098,74.08816016206316,1.7422327003293472
18.302111561960057,50.547949709095256,8.347147435005486
26.766060519877605,29.279215302279013,14.626214087385181
34.59382093850577,11.892026000058584,19.81895452811118
39.42069248594958,1.0376189315474378,23.5435406525642
39.460130400861395,9.746892409790153,25.636327336039216
33.65765087574571,15.02230405504579,26.02095215021488
21.723284824045653,18.03174614348863,24.86284574088835
4.141089237959146,20.256041800222153,22.62430923738949
17.835505700579347,23.4017248160764,19.849283298150418
42.235773605475536,29.16359991813267,16.900381068129914
66.53448098951603,38.81962130203183,13.907457878502099
87.94566162227711,52.776699624779624,10.885004799745722
103.79640266379165,70.25323467656541,7.754765047758518
111.88926888791795,89.29164594693357,4.285195494685475
110.78646817092482,107.15539308192771,0.19438293331678053
100.02906061682677,120.95112481438176,4.594364385685451
80.29877262519382,128.22915410617054,9.842229378763127
53.516171543302406,127.34336799410829,15.109439727947212
22.814225307089735,117.48090537147513,19.899540454856467
7.770780360114235,98.49397908943115,23.63882340383721
33.95349366069164,70.76773595071336,25.660040959595918
52.09297415500932,35.30429285263002,25.523910637658975
60.0893681202822,5.940156310829366,23.223717794252863
57.93044007263387,49.67635736340042,18.981472129462315
47.63258010392996,91.19742467907294,13.125336419037447
32.59293167393372,124.83836664335692,6.012402270703745
16.599176292080152,145.0234258728255,1.9818706425446482
2.8859406449075027,147.6265736191666,10.255701871731217
6.424870812135203,131.17134505678246,18.001406940644415
10.40676894294994,97.43923011860855,24.364220800378284
9.092427870083242,51.24410510669659,28.51672237571879
3.1847117965401903,0.5540325184522592,29.87975772655644
6.097096347988145,50.43181296911187,28.272858298148407
17.03892735149432,91.51900461501661,23.90515788685833
27.492005091775845,118.51530936058494,17.359401223875498
35.15742675674549,128.13183162959243,9.397723456202495
38.14769490154783,119.19507501315543,0.7472869408868197
35.65138637876147,92.637083527662,7.867830208001325
28.363075752073033,51.47887332274086,15.738030606562518
18.416776695799072,0.7132612120131243,22.337382253667055
8.766061173470089,53.126188729491794,27.27182216556157
2.186421349432758,102.8887444839166,30.156687144837168
0.3022597860850807,142.12550312701205,30.729825827464232
3.043530585269847,166.42316201968237,28.909254295746372
8.728076373115663,174.26765577177184,24.926839049174312
14.733987183195067,167.05813283368178,19.446543784277672
18.47341056236612,148.26847915548643,13.169304731653266
18.260909656242056,122.14057743622884,6.52981793765813
13.76265299498496,92.47446433026538,0.266431690321492
5.899473758384096,61.989868214145666,7.1506025386767735
3.677704859965908,32.386390975979516,13.90006160220676
13.27302462323562,4.853185081794106,20.13921168916103
21.69246103226559,19.44027748500293,25.48490272551452
28.42802495114398,39.24198216939492,29.32124358795134
33.485426886897706,53.54345972754535,30.94859282401048
37.036528461316124,62.09124287719195,30.095568160274215
39.11554763395368,65.71157225456459,26.926119609022578
39.53342147723807,66.18714511425966,21.770120936678982
38.04337832346306,65.71055845446074,15.134197769710708
34.607272011043655,66.1975531408702,7.669779483798069
29.548601527615993,68.81116598970277,0.051477207486852423
23.484694184741425,73.8541768030534,7.564990318967097
17.05194999391435,80.9484886510139,14.460436252392162
10.584095113577877,89.29404634670387,20.312724578319777
3.982619232930381,97.7977117269111,24.599954494472474
3.137277801751938,105.03014551777073,26.836338463514473
11.113439787006353,109.15906662606174,26.77445365565959
19.90795617256913,108.07080606705668,24.54898785480473
28.990376571999217,99.78573241460525,20.56073922706974
37.49244179494452,83.05910540998339,15.208181887943839
44.53029752690571,57.92402791039315,8.985481893059312
49.480790161902185,25.935088939064347,2.624906532906182
52.041230021456194,9.985803815872874,3.1434304936076507
52.065114893765575,46.014404878269524,7.791354118015124
49.29588690630062,78.0311144734131,10.870838519538571
43.20565524998831,102.19066092412355,12.080227374792784
33.090636352535725,115.37329969706931,11.563739698176125
18.429755359045664,115.58067822081476,9.76180746758177
0.648301484827064,102.3313654261577,7.092809173150917
23.026748467512675,77.0077617852007,3.9617346988492175
46.541073690658,43.008499193047236,0.8090084568693336
68.26677342644567,5.508178060870477,1.896200700348046
85.08358926658786,29.27572556540911,3.7268892129582403
94.29792067248661,55.188331920440895,4.4053405415099816
94.14723521127002,67.36198082095159,3.8063707686339168
84.08268560199858,63.262278679270246,1.9752785451766162
64.80741664997635,43.253023408382916,0.8232729075994409
38.13668182241221,10.55548373680415,4.13644750658254
6.775758793026569,29.322073468918234,7.3989841879367555
25.893548215154546,69.54098424287449,9.997920423381506
56.01413031045179,103.09749171856548,11.43618186567606
79.52748175464411,124.01249757097636,11.567845091099505
92.62857981919569,128.3576781051223,10.619748862827803
92.45157177168016,114.93720520337281,9.056139088839144
77.87997061769534,85.4982165105068,7.325747708766313
50.233525133573714,44.40923593978844,5.555072875920026
13.49653563727568,2.171085692425642,3.6657705551916675
26.176814563785026,47.460169550918295,1.6994301822529723
61.66065619341585,85.25821458416681,0.15342520095429196
87.79343072331133,111.17361876619115,1.6455469345879052
102.31081479367575,123.24566757577276,2.5707647840583574
104.5758308577813,121.82866668869215,2.8534287720236766
95.44655837844687,109.23385735635152,2.577147462258738
76.98838002166676,89.0652995853157,1.9939222836657338
52.128506149467334,65.41002320717375,1.4156417523711355
24.32226714182904,42.07945590982648,1.0349761729159834
2.773432885836152,22.028497703131126,0.9308436558373276
8.398997456506365,7.008350518929493,1.1545997137941828
3.0256887177540803,7.748653496106306,0.04025325403487649
16.947062311107153,7.645569895804654,1.7438760029915545
31.731185809674272,6.37346610284386,3.8709074696636554
45.37222529817847,3.844724291724507,5.943968324714386
55.774240653732754,0.2247449891746285,7.491610549737389
61.15235998094188,4.181006648701013,8.1512142658985
60.34162261426712,9.07342811415019,7.732659201174118
53.05101330870161,14.248117797368334,6.204821057265156
39.84345727023455,19.531401008935312,3.755815507681899
21.971415066996297,24.608179087074355,0.6919658264990314
1.4319212640184802,28.89567998548746,2.594303732084695
18.87152429855401,31.59586794519117,5.64238947242208
36.11668067399933,31.813427501546478,7.98767479895593
48.981226059359926,28.782975210152163,9.220899242517625
57.331958712366834,22.322587922679645,9.206872243925615
61.59019014238237,13.046198876743926,8.12637133778792
62.646634856710634,2.124837046975502,6.375015193338717
61.40727638083719,9.130635594998784,4.556669944878448
58.65400779784718,19.71904422060931,3.3749729743583288
54.94679427766062,29.15052333038128,3.4195760983523864
50.38779964678679,37.29099087112034,4.977809557424254
44.715458891380834,44.02658448776204,8.069427958678999
37.42634202677846,48.96392113261783,12.378876732463066
28.14014792431415,51.439868901230504,17.01639325591071
16.999319076718482,50.82072274125816,20.763205051438593
4.77660660811035,46.862357674837085,22.4573929280558
7.259072692584177,39.906167094042196,21.189701800091864
17.821128245324097,30.737863008851964,16.51942421533956
26.104615174784954,20.185512766400578,8.575561281504513
32.04966709275542,8.707360412581863,1.9232436597317717
36.27020590075913,3.724559343017917,13.829420325762394
39.66940932628032,17.310281845023667,25.792991917183198
43.017040324351655,31.86313613541201,36.40433724550029
46.66019479633532,46.33800145080285,44.43950199779729
50.49274954344385,58.78403707938421,48.968086655830525
54.12355931071939,66.86046891999183,49.385123764665835
57.048824347333934,68.70944093915877,45.51771992879912
58.71033935663523,63.76021432685726,37.66719281287462
58.41866294898175,53.05401294002027,26.70138767567421
55.302455356171194,38.91114595692266,14.009285174137373
48.433634797802256,24.079369658799077,1.2178012797075775
37.1657581349772,10.757174203289216,10.171507187832733
21.59864735519759,0.042902884048754156,19.168906514171553
2.9102354382858606,8.51757772574729,25.35942932063983
16.67228771947477,15.550077274970432,28.706145681800745
34.30832402912626,21.9523992476462,29.514401496971807
47.248295817726515,27.861704281072353,28.360408272545246
53.52493686730545,32.59113725616041,25.83244343973277
52.363866854479696,34.97479134412546,22.471975950574056
44.21712161853091,33.98913879127074,18.86992498991546
30.502881029886584,29.326843965002688,15.476198656140577
13.24004561392343,21.654143153225256,12.43508514082466
5.231575077007244,12.455215646815951,9.715661928821376
22.372622839762816,3.5742356006900393,7.199395639365135
35.48997477520314,3.304114453721495,4.77234334557539
41.87217640532156,7.009563477421632,2.382077825193669
39.14071109545928,6.981212699671186,0.01841637315422861
25.814334453423932,3.1751052535273763,2.184235319887174
1.9439879847251214,4.056079903313856,3.987317034760188
30.422455596286575,13.983662775600546,5.174739526070011
67.19961630080776,25.405440432688184,5.6053212495955504
102.77395215018979,36.55409838167241,5.318552704993721
130.98547182398002,45.205117808949815,4.4587469436221685
146.34023677750454,49.09963952942476,3.192901235272138
145.1274924230992,46.623787868875844,1.816479975491185
126.14503681304674,37.504497931045755,0.7141656842374231
90.8639501304974,23.18458899583957,0.23492035433053313
43.04405753447771,6.62047374257383,0.6788651651010847
12.015978428093215,8.518865924090266,2.343428625544118
68.33830621664237,19.002322673646074,5.353246854317896
120.0275490569473,23.09672778309905,9.30346542352852
161.85132662167445,21.10645324432354,13.317752899193092
189.68341757625873,15.166394902110902,16.441433031253528
200.88552800818337,8.378501240309957,17.85802795577812
194.64027165171427,3.698236681339856,17.017799579057115
172.1490573044412,3.0629504028061447,13.74712375384422
136.52418856967907,7.070972219533818,8.278275792924862
92.23066495379436,15.226531549750797,1.2381002880578948
44.12758105010074,26.492052673464528,6.474636064509174
3.5839214716514034,39.785214896643964,13.86211234924759
48.087628761460984,54.15938227876353,19.954497907377313
88.04200747038138,68.63649577087851,23.89742280756425
123.00469759311689,81.91736063309916,25.06714173035328
152.5174581799373,92.2708867629952,23.229301522064244
175.36281839509732,97.75365692510499,18.501622125046335
189.41971955908153,96.70397650580874,11.256392008008985
192.23582905404206,88.2650908296541,2.247436816980118
182.03549071187808,72.65143916293847,7.325001616054729
158.63397515525784,51.0518666009883,16.087364081772513
123.79078598306901,25.263665952924345,22.966193901437784
80.86606511653268,2.7252402091174783,27.32398352677318
33.99139768498698,30.979109759914536,28.69852388688952
12.819819406210472,57.61913361905695,26.863042992729007
56.21062467983296,80.72805877912235,22.0652156212887
93.55473474561713,98.36366491620512,14.89475320344135
122.76323077548561,108.8091213408659,6.116980620507876
142.14273325797427,111.0058073247793,3.29416350332788
150.55074657002433,104.96187668187007,12.18731118852522
147.81674251589794,91.9185624018431,19.528733623257736
135.1415396417909,74.14553761059614,24.710060174499233
115.15200776647025,54.41843069134987,27.51823657943813
91.44535213424007,35.405769577437184,28.03445606462525
67.73146054106051,19.185591053740993,26.560896173131155
46.90086141839728,7.0079822994872485,23.44526158053516
30.38610775971365,0.6924574241411033,19.01368250206911
18.06069743432396,4.149464362611337,13.538170714505366
8.665453070908528,4.111431743271464,7.219229729408508
0.5208470025078289,1.7109436844195816,0.38241429722993614
7.774290438813348,1.6708700603604374,6.378894525366348
16.891308222633118,4.588764572488287,12.30358586225757
26.682912584522835,5.791790774967659,16.66094998595674
36.41197085270791,4.492698833891047,18.961583423499693
45.140214483030256,0.5462655020613935,19.033229282499594
52.098741135127796,5.531357031982545,17.064786475807743
56.890159323600805,12.718462115465913,13.663123414078349
59.46661894534329,19.762920647450606,9.564364954682041
59.943780683831534,25.48192966895266,5.306816817321984
58.37325135194533,29.003270084206054,1.3323815885866384
54.61100616412419,29.891213673595242,1.867555926945533
48.39200379684258,28.150958946746737,3.8347279377144847
39.60250162046052,24.150829186131507,4.207695773806698
28.574205049055475,18.49348036064937,2.753002188342639
16.196280408420247,11.869481722502552,0.41437130530815003
3.752296394645281,4.932880096117209,4.655082901529258
7.470173715182712,1.7828391543135915,8.94971238338264
16.58530216791157,7.88540023808859,12.183169219375598
23.261617090438666,13.067086619370134,13.527299787431287
27.52089975235799,16.991185367279144,12.778847689404023
29.323704517109377,19.164183729136536,10.28872084851105
28.25528845726422,18.862016114265614,6.6931998135900805
23.62386973663437,15.19041239491473,2.7751667432143012
15.030863060053042,7.31817570358646,0.7550427690179904
3.140880333724353,5.154371565273467,3.534699782589466
9.842249119952646,21.79551813838735,5.5756622701270455
20.408430433637136,41.071892944936664,7.126920108940177
24.721042445429152,60.37007869891464,8.432740524628398
19.988458134788857,76.37621352350556,9.511282435548026
5.615212784062425,85.74285391564527,10.214228142756188
16.42282743562268,85.85077888540833,10.376209885269564
42.12582983814215,75.43041851350034,9.900848546347204
66.62326861586178,54.86822677057659,8.84915318938618
85.99575092295598,26.260729974981775,7.424744127763371
97.9537348463355,7.060496930082412,5.821712766827863
101.36052635803277,41.2241256482466,4.09372512630852
96.15874730209136,72.30432420338926,2.199056787156533
83.2287412117824,96.83754410360538,0.17652738350940264
64.28647388084558,112.30138827744773,1.7492603915777483
41.80843085158368,117.48592270848694,3.293991896832272
18.853961234141394,112.67813535595279,4.323866092577983
14.415932573424802,6.775843212308652,1.4762627188736788
17.21194219698341,5.174605383639072,2.5674827097333206
17.270296688095307,19.406312284781322,3.527011961689181
14.107828489105389,33.309896089813726,4.258952496372193
7.85059702713522,44.17142709165724,4.659458898320038
0.9896369451172781,49.848843576933085,4.5455959377403445
11.753906270024117,49.211795904251844,3.779549969496548
23.711125055542983,42.183415548988826,2.384968371078183
35.90399356975743,29.570393930806947,0.47456911998816653
46.96245546596274,12.74428972566931,1.8352432235624303
55.09197958840295,6.604711606026071,4.405461527617314
58.3237902043738,26.396293992974822,7.0661214600531705
55.006822136160125,43.93382994739937,9.600729676215037
44.541928295340796,56.48149994813917,11.601483658933317
27.90128132535501,62.32090975080594,12.549745902460721
7.318497867050778,60.95158827263832,12.11843751516912
14.514782400820492,53.118582363297485,10.124194788087582
35.2466036269706,40.81290779611124,6.503855603111728
53.38774949200284,26.553623087278332,1.5988916448089845
68.20084523609137,12.653783889541703,3.8990693400087486
79.17683294746158,0.6317652028322391,9.240181844817718
85.56663558090128,9.06331331810618,13.635336096842195
86.30037190728505,16.699875002350073,16.25824622681887
80.44434256516995,22.7474542364389,16.538021109081186
67.85459215407829,27.377152745882537,14.382061592803355
49.5944718067261,30.312251134854034,9.986572724169609
27.8094654969756,31.15909641370231,3.6344874842617454
5.049182806483946,29.88545441342328,4.149461387350795
16.57157577584311,27.199274814232673,12.411822503624721
35.92649762281401,24.488314037986907,19.855186804180438
52.833526222302424,23.292806538867477,25.09659284570085
67.47240764230251,24.56641420345028,27.02457225052448
79.6478394105514,28.079527119287594,25.119090944238057
88.31923552926462,32.313196889834956,19.440404272701162
91.68693501244336,34.885391035363746,10.475610986136534
87.78404271774399,33.34665946012515,0.7128035066295811
75.2702429914682,26.003731385360716,12.471055484335796
54.090854110656664,12.435488720844765,23.142386634656248
25.740890350535253,6.4100857428718445,31.490784745683175
6.924529339410082,28.47117787097588,36.630213811685834
40.19368745653721,50.9855119541659,38.07789990556886
70.11166295811954,70.8862862231406,35.777917927910075
93.03696776220708,85.12363055307705,29.952880714235956
106.064207558409,90.982917651272,21.20505101422785
107.33288453659753,86.51402282995967,10.657407411143726
96.26294199798198,71.0631157507678,0.23397098669989289
73.72201817848519,45.74183941514203,10.02969864297224
42.09247857137155,13.584184433866351,17.572579780798506
5.144175232109378,20.817659975809185,22.207159071956074
32.38676339202017,52.2029192713036,23.885337804673746
65.51602927517135,75.80140526355659,22.97895368679432
89.92623794142278,88.35493647461126,20.115278033853535
102.86588946323589,88.65177500052911,16.10249868819579
103.7398686572337,77.46391721231556,11.726448336167667
94.1715277850891,57.02734511153267,7.657598488990076
77.47798457332237,30.369187720619887,4.42864964740543
57.69141964925355,0.7978005445688127,2.3375441876772003
38.443447593867916,28.328489350273887,1.4135775595616376
22.08578705054573,53.68431070043665,1.4644045912712733
9.32281157618133,72.13273083635758,2.1533730617064273
0.579888242295009,81.10134956230348,3.0001221542155476
9.181167869597326,79.14787770828876,3.4505558954340225
18.115562163369603,66.47043944498715,3.142145817220588
28.465251911325392,45.06391887631642,2.0445101247200217
40.41851526333173,18.396345334541184,0.3389459952443841
53.211681377875614,9.314684479243631,1.6986837658889866
65.26507357914346,33.97336680140806,3.661049447291931
74.44766428555981,52.29371445554139,5.095942067164793
78.42421871868969,62.1372066692547,5.7466569964810965
75.07253007077063,62.57443427351925,5.61707807373405
62.97850626948684,53.84865472230963,4.986213918431835
41.972639108641154,37.385509643832826,4.298768054278434
13.578630724517398,15.823881918833493,3.722928776523507
18.82330421233435,7.117497240173936,3.0385582300615823
50.26134808989144,27.12649287525853,2.0309769289127857
74.90541748502825,40.173419749291554,0.7077707728506565
87.1984590279355,43.53936305490216,0.7127283851810904
83.17122573523118,36.58448666879449,1.9135172757738805
61.60876528178857,20.896565940061585,2.645824727033573
24.70012987530531,0.2904366689282061,2.7209215101674284
22.06894026436975,23.153364493340238,1.9989186493708448
70.84278941448032,44.32428957432055,0.4532423635573498
113.00441726804523,61.484689577567785,1.8677045893793838
141.0346921555364,73.3736932186844,4.897576441791866
150.1036438970328,79.39203374780953,8.497495813203871
138.9918505963432,79.15673596494395,12.30561587579525
110.11852342809411,72.36694740118153,15.704950107281437
68.75293996049594,59.056063867845644,17.9773380475708
21.72159109363014,39.981321249636586,18.443507507823245
24.00293321168619,16.826777234284933,16.502341918361076
62.52368716626114,7.996796765224607,11.757181707277057
89.8668483473086,31.909793134866828,4.41153033998785
104.36792333941317,52.78487410007994,4.529172052281757
106.66771563266096,69.29782083783688,13.665247503758202
99.3900423521951,80.85609561617751,21.748113812014747
86.49032715316123,87.24355393570193,27.872623941476505
72.34032674700885,88.28271379165632,31.44442995412452
60.704537572360394,83.77660503017076,32.20459836212955
53.856985880927844,73.80085003539737,30.182049613171845
52.10181569614977,59.139739321810076,25.576013311351325
53.86329214146169,41.52206660761298,18.783796531436273
56.37115666943707,23.429736082159973,10.410050600740856
56.67755501375983,7.503947247942232,1.307428424775849
52.59110524416064,4.198423723188758,7.456582501744746
43.24001730597168,10.759440502415183,14.9795756627557
29.12467915119236,12.528747527138275,20.765600054848452
11.725132825471063,10.836580231033077,24.584476763638477
7.0795124424111755,7.509283174543993,26.344498488303536
25.495922734253288,4.423478601098217,26.12114083640533
42.056729209901086,3.2316728770854284,24.123428843334796
55.651634567515195,5.222130456278966,20.54895879553183
65.46126439873494,11.154225378933223,15.531698795489703
70.92619141738611,20.997437078042626,9.265351431424502
71.82877370431633,33.666983239859626,2.2116774607261407
68.42163142195524,46.96669871627755,4.918659560874291
61.47921463625482,57.93822641325089,11.337113789174403
52.20461395889756,63.594035274301724,16.23873222369967
42.006096155264395,61.788605823997564,18.98284198920398
32.209416246152216,51.88138198296227,19.194541243078955
23.800431084574512,34.90618185384098,16.772740899226893
17.28194280051884,13.221374380486962,12.102850356097198
12.636709713554584,10.147153521078785,6.009048130259509
9.355277460415088,32.14956841940163,0.5370458321884584
6.544414424084952,50.09702107186634,6.5237613382915765
3.139321411229802,61.80769583542372,10.956291182423403
1.7705462297201486,65.70260707168208,13.055198593175172
8.543024588422927,61.03439035351795,12.472264627205194
16.65072753449742,48.281452274460655,9.310667771178831
24.602749595760187,29.470408973462092,4.115192719728728
30.279127623382344,8.075028120072448,2.167739201525383
31.656126726293063,11.704981578109582,8.323272919716059
27.65472529344941,26.136050886926412,13.057404095553913
18.74139698084666,33.13009852725636,15.390197922239556
6.987450945895904,32.84776840157199,14.945557775444875
4.50960699067519,27.389174248584148,12.029932435472196
12.646837291720482,19.714287083369204,7.554246870004668
15.324617516197296,12.350703428035315,2.624477599014384
12.021766218866235,6.523943613849973,1.825270065055242
3.763082432894655,2.0995876268979576,5.187429464400656
7.434996961221421,1.7367507183081725,7.331776937654891
19.312673604988184,5.531626975283845,8.55859726864593
29.932097782527183,8.930511796302802,9.157820560235871
37.549907835146946,11.381444954101514,9.333659058211293
40.59620782022436,12.832280768265488,9.408879147666772
38.165554520791915,13.60143324165086,9.706018016549713
30.34371506576452,14.31520204953588,10.421624257650494
18.365718600684378,15.571292217374706,11.58607083373561
4.480543850595142,17.514143160886746,13.051073800604506
8.53583607625901,19.615205098484907,14.506453311104996
18.132653642042897,20.837958775083916,15.491503089146388
3.866830555496088,29.2410601273652,0.6573039919392564
2.7005586551904015,26.843845898733157,3.308074404851644
10.1220407888892,18.80876334347714,6.744503446423832
17.435881490812253,4.991657648888467,10.561601312371813
23.621046423381827,13.62876229419818,14.098718429112841
27.621437891745934,35.00100404145114,16.521457540337117
28.487408875057586,56.349131317283025,17.116233673435694
25.640782073217416,74.68473378216699,15.409860768996518
19.244141907655187,87.32393735299692,11.176714654833662
10.394297272811434,92.2792122659886,4.5978044246174
0.9996213418234443,88.43698989974867,3.781264829041422
6.570525541037738,75.6195182039759,13.286315601564036
9.998554240116224,54.69438719305059,23.14811347559406
8.060379973704618,27.58767538165591,32.30361195214868
1.6744917265347883,3.1041587944704996,39.444124218409144
6.365564556179651,34.62336337352922,43.39162018061057
12.47821356007433,64.2589407594736,43.36088290348897
13.400636161035727,89.4442152518442,39.196623358351225
7.250998349118628,107.88779126747427,31.31090834197186
6.073636492137935,117.69987386903095,20.361681042348664
25.090556143297412,117.58506076094083,7.399518109870471
47.14020578872866,107.06336138768057,6.131874185164307
68.91831154054083,86.70510414080901,18.770214788319784
86.84085093392791,58.31543372521964,29.21927026471561
97.38838295498203,24.94670445840903,36.48601157744296
97.56725667822062,9.296131990689439,39.96330258540954
85.49522068672005,39.74517844384444,39.55126261980535
61.068862125888735,61.908973221577284,35.6914168199248
26.360570133076163,72.29338787411035,29.11932201549167
14.478721204041436,69.14110547661232,20.83124526932185
55.907557082865004,52.8665129729383,12.179479224632384
92.14097379731774,26.083012540536135,4.639880887410444
118.3512016493622,6.755947348146021,0.6578095414276036
131.56558967203586,40.031070031854455,3.197424246764427
131.0214803292325,67.80880880203577,2.980973247092998
117.97900527897386,84.76072364939093,0.43386268213985413
95.18137540682876,87.04280988566681,3.7040815138733696
66.18772496983159,73.01589223579445,8.506644410717934
34.77087786986737,43.684120832599724,12.896401060798299
4.438947298162071,2.7055349043790855,15.895617666733852
21.93026895046382,44.10170671831289,16.788498600425857
42.34137279496376,89.73836491974825,15.078403395494599
55.82017540410909,127.31454879201235,10.732922776655379
62.41252806187353,151.3338048306936,4.294300179529834
63.014649235028685,158.66863142349274,3.4338735558562137
59.08621059802263,148.97685300722296,11.598720125744062
52.33034963318737,124.48267237686787,19.330837552642183
44.393746901902325,89.26633155951104,25.779421411799888
36.60420106207076,48.31669222975419,30.249879775648477
29.73158748704599,6.683546827256548,32.41347151404898
23.79897885039457,31.05559109889607,32.26671331527142
18.035284133605742,61.0327443968246,29.999927905209617
11.063913133560334,80.18647974435673,25.99839295391616
1.3972232338668806,86.45574850715894,20.739102014828447
11.824026924717984,79.20208158315955,14.683685285486712
28.12668521558619,59.74909408848955,8.267037806566856
45.387860628337194,31.72418722429656,1.9194937509246675
60.14785422252523,0.8276270522364867,3.9085119815078286
68.53816871258587,26.159316473638025,8.794729370218798
67.48658941594925,42.957867615279845,12.365940548318227
55.72395266890198,45.4551439600316,14.359918221645657
34.19716369531344,32.82194606239008,14.660087885957763
5.760633159745509,7.637527252465461,13.219361292106857
25.631994795015085,25.01310896730255,10.139390503539497
55.821684798824066,59.03825802434515,5.769900446577978
81.0730492241206,88.80140165665595,0.7686183404285246
98.3629406339606,110.03760960130306,3.963449443368523
105.49888115306776,120.08764078182804,7.652809029896848
101.3010601592719,117.72414597003129,9.81289389972727
85.95713623549713,102.97271262827874,10.169850108563177
61.36873265631967,77.16673797900613,8.649395797149232
31.15333835502813,43.16207597710091,5.363408348626508
0.05858450166665864,5.361217197891541,0.7223862080584728
27.175472277943097,30.78535696424118,4.558382482338216
47.08427226664584,59.850149492228496,9.642512033416052
58.34191075060238,77.76679173183496,13.736553011676572
61.859779256695255,82.87479049356915,16.27032677657861
60.1048349196948,76.18297522698711,16.970456733760404
56.03446501674898,60.74890844615183,15.915139077140443
52.14110110336141,40.4989313871997,13.5749314219569
49.96805306666713,19.058098496046647,10.586659549401013
50.166128368132206,0.915856040436271,7.553075018359261
52.76986949768234,17.747352381316627,5.054499268682974
57.35788634333634,30.33553425053742,3.5754133872805207
62.996066720841114,37.73461071484396,3.238909667088458
68.07723234184355,39.05292923757135,3.6767612388932434
70.33348696616875,33.72326431977581,4.398865635661734
67.22852901401197,21.92645630952884,5.178751325533934
56.682357776493625,4.868632277378899,5.884646501819598
37.81820772679878,15.300065673436253,6.202766278373564
11.367852369809434,35.91580673360433,5.730841364341739
20.43357578718059,54.369767324987905,4.211767924875035
54.36738757694752,68.59192028710353,1.5389727266634665
86.86168556135758,77.3064294182457,2.325778547704643
114.4611818114637,80.02607070412199,7.286643352367689
134.06991704809914,76.88457515299727,12.975216737218014
143.07947735629443,68.4298766065724,18.65836034823669
139.5957429057071,55.447430289640614,23.474821420776237
122.87411400317559,38.83373181145254,26.8422260673352
93.85269572264123,19.505727483479077,28.40600498694874
55.505965567199716,1.6184432107409765,27.7156710879348
12.711066489115472,23.53064180478124,24.359714693354785
28.463137858688565,44.97961727985996,18.51453725274235
61.85636201996224,64.33177478196232,11.006556313804944
82.39771424165454,79.5786055739015,2.827289316037529
87.04158560830493,88.57357566438495,5.016862455182426
75.24174480389405,89.45677981865248,11.541904601766129
48.976058708357584,81.16753058059516,16.047835309440693
12.458217846412293,63.85267396668178,18.20059742663635
28.372966392219965,39.00403524053878,18.037358866746928
66.54332878584194,9.295895288701661,15.942037729714746
94.91803219746873,21.814027788342706,12.642482961573904
107.26812321854582,50.593470701634146,9.165232710427395
99.41651962173425,73.5422755406086,6.453280358467985
70.24827105485944,87.82929002571971,5.094679877653477
22.29675721315757,91.64413889368156,5.277190034152975
38.35403203590942,84.46031957690533,6.7892737804110315
102.93075667676628,67.15962145817798,9.188073036349703
161.4752629875883,41.965586328294506,11.899982258021623
204.67048224504097,12.132858086904854,14.149758155918972
225.55474569380112,18.587689997947965,14.997696736873431
220.73095801523624,46.57156608044742,13.74905113542899
190.83615656847633,68.8768449541355,10.296964188852707
140.24362536794337,83.59373800230335,4.977740009689707
76.11716115849423,89.94530352829635,1.5749430946529408
7.090643308457124,88.1856387694981,8.537996931492687
58.131356892093535,79.34393661838159,15.0637533450416
112.06367456731938,64.90955693406286,20.30308799854818
149.44721040326274,46.53293035967387,23.597992240331955
167.86184612778868,25.778946603108803,24.68756999421233
167.8940249905081,3.9825434325385607,23.635577629519265
152.8065104498217,17.77042148697993,20.73542958933989
127.7368690693811,38.5199968360906,16.40698414042145
98.54024492248664,57.21512153076097,11.205987309833699
70.52592389489435,72.55801695830301,5.826173448641346
47.409215119030264,83.05153955440575,0.7478491718613581
30.739092487270426,87.28710590129258,3.936315655026169
19.95628434544385,84.39039305368065,8.182746483799578
13.00359304049731,74.42560035350864,11.737806489761596
7.225465919696205,58.51103618600781,14.34716180150453
0.26396872494879264,38.54190332559989,16.006601229542284
9.299650028065521,16.628434660382062,16.78999291894042
21.61465324811826,5.167126838940922,16.763224260643028
35.79140770745855,24.90570137607269,16.061398057493715
50.37670139556209,40.96509580731333,14.773486860077957
63.64323709298067,52.13431261167954,12.914530106853253
73.88042973807784,57.70581825968695,10.550227169167433
79.6811435483216,57.58750192895823,7.888349469919916
80.20701171036436,52.39522629762835,5.251785470731844
75.39644042750867,43.44634986023552,2.910441291773283
6.544244885916777,13.240647771189005,1.0710448996414057
6.716913722088323,15.41388733509517,2.121413117547008
5.838721810295863,15.685255513894425,2.936720818723726
4.124832033502577,13.783013859278316,3.2085828485670116
2.0334794172589135,9.58062812657707,2.7732762631740333
0.13334073060079746,3.07604271270915,1.701557314983522
1.0373958013980158,5.525142938666283,0.17941028517674562
1.1008333966121424,15.70873768624082,1.5827461132624698
0.046624951060614005,26.539860574620686,3.3438775541342363
2.1200423172572904,36.72036755548286,4.948990336874749
4.384493472134122,44.75829287523702,6.275696725614095
5.722748071176765,49.102270523242986,7.11010301353264
4.861614072072062,48.35302259106788,7.258249581453495
0.6186184238908505,41.99702982786329,6.632452255895397
7.734869858941649,30.871276980008105,5.315414989604286
19.90321642955694,16.449033148009324,3.553152661827941
34.302894947774966,0.27470000669672784,1.5967916695544593
48.31779451847315,16.056723671520405,0.3362426260241652
58.87849534596195,31.041640324727844,2.052162759887626
63.27888875236335,43.20917531043488,3.4205328038116027
59.89341429948401,51.22120667727765,4.422793619756474
48.543962453106715,54.241896593938165,5.1863029425908005
30.482765923877675,52.21228688542771,5.9139121984680445
8.0228033718569,46.0606812745691,6.739054971483446
15.97890042142554,37.55782354876089,7.645385869609516
38.635272186367715,28.86826020707632,8.575279675966074
57.43795417731326,22.001570394151216,9.454537106566669
70.54219287747904,18.286925931939198,10.172370067197143
76.96906822485205,18.115914768175394,10.835415959021617
76.69940722283081,20.921324480560887,11.702738374343221
70.64298935935541,25.3481465082036,12.835322198271118
60.43081334206868,29.52811170778801,14.030025304519597
48.040679049754004,31.377103644236495,14.767438331307918
35.367686551509216,28.966797632549696,14.384077111788384
23.853313704317987,20.947127275921815,12.372139604858177
14.27348357469058,6.978919845557595,8.372065060013622
6.741711325764894,11.981548148805985,2.306135215860355
0.9100279194012523,33.753899470389115,5.475467324530671
3.751384860223322,55.41624261290882,14.240843123364696
7.709829157918923,74.11220600553824,22.92551872968873
11.227131478397464,87.88980374302598,30.357078819195504
14.368121672261593,96.17547876378244,35.49611437025981
17.11853718056396,99.64458375575441,37.576751426269006
19.53283945720273,99.53969437539276,36.26101081946436
21.8381547684957,96.76871570492385,31.715328238001813
24.409838415138477,91.2562550950749,24.514089039675614
27.596788897476653,81.91597845890686,15.525631616999757
31.474388938067335,67.26183481227773,6.012779011779029
35.664440581215345,46.34185596263747,2.505809168152152
39.34176455147978,19.533035800190543,8.810340615930407
41.473305873495754,11.22076675086961,12.297780266941286
41.20177569695234,42.827756276623276,13.028099852178197
38.18292942293536,71.86129648695406,11.639547087214996
32.7125052599672,95.36497133183609,9.053277380883971
25.54683922347437,111.30999894851878,6.233256084053136
17.495397601994302,118.64301192570471,4.033239782765537
9.035399439305653,117.12702719950067,3.0387847461121535
0.16003070902411035,107.23054387555474,3.419832551975284
9.450926172498766,90.2126749367134,4.919451061445669
20.005912644714925,68.28902658644128,7.132976196293625
31.140236665406835,44.56013105002025,9.665999517795354
41.65082336019619,22.4775733024982,12.121930636319206
49.554857990169204,4.924391750619028,14.208096809185218
52.459320074413334,6.711320683915232,15.67325380046402
48.11628398267445,12.960617781692244,16.245860844424605
35.0184754283534,15.85680463526604,15.766488974757618
12.944053517550604,17.80301506466866,14.260929913592559
16.643140053328217,20.28903503112413,11.893703857626015
50.45498952683322,23.126279618470864,8.71904042614634
83.59657125083062,24.632730479706744,4.74055455365163
110.22714207341966,22.685436837608048,0.31916340080232586
124.62860530689973,16.048412847898867,4.019937185401443
122.4380483364097,5.252648089167179,7.915208291235567
101.72263741005796,7.4277935903258046,10.97146979795692
63.58815182861166,18.848469232576363,12.76138758062489
12.13708917499263,26.20480507333632,13.057430477797109
46.18290728688489,27.946162505136158,11.790902047870006
103.64765830909052,23.98378429167737,9.055117850984681
152.49392489393782,15.255092873937082,5.283917774869556
186.10523138722985,3.075922552802915,1.1862176993077571
200.01249848847462,11.275761609216167,2.5011091164786134
192.60877393732076,26.549369892874605,5.163911416433244
165.44230862046513,41.265782870466836,6.523623879473909
122.95784026713167,53.59911679753544,6.663512988001353
71.64195029143904,61.66101095570219,5.71826477661749
18.695745940026445,64.15475203402882,3.8196356689017055
29.40671519544043,61.01822863834724,1.1880065671663322
68.02546436255982,53.6032647444808,1.851899405341099
94.83200476623253,44.21858125480668,4.9236921604356505
109.60426649713689,35.21992903792727,7.814865198111923
113.57185303768178,28.119232187640527,10.310311885047643
108.72612205973455,23.17208485887982,12.051073359171856
97.39159229120469,19.603460724881078,12.875226517468374
82.08480248845082,16.28998311995026,12.790962088301823
65.463029409686,12.449877543550464,11.821806321607687
50.11806796267547,7.932177490741203,10.04406946538373
38.127540750299254,2.995742701973562,7.417879176783816
30.482126090565576,2.2087742252532436,3.768127503775455
26.683058945873196,8.05109843188461,0.96268588135049
24.8130100278261,15.416419579523279,6.433167978185851
22.15335505728785,25.2352137437274,11.884902202194361
16.15753553786033,37.801222355181814,16.44489466246229
5.42621537151607,52.25746307648298,19.349512363715395
9.677061850328455,66.510675939627,20.15283235191872
26.983113871243628,77.65317805011091,18.79521917662081
43.053894989275705,82.73281351661076,15.495475758711844
54.116333500752326,79.59523196004652,10.717633954474527
57.10371048906141,67.56637949723483,5.06952269186992
50.514660783267914,47.79070179423968,0.7450278682806862
34.866243298670014,23.166389416302632,6.041994730574836
12.632497643442962,2.1219333558972986,10.280084079008992
12.253717496366779,23.460188124719693,13.04428559459532
35.15780178948571,36.883957065520654,14.169650004882532
51.58489701857498,40.121643289021115,13.684730687140686
57.89560090044413,33.325263342350524,11.80368956561869
51.79295604831616,19.19151543590092,9.127509703298882
32.64201303343466,2.3553620736462624,6.4289370316525485
1.6669374497095264,11.778000943349769,4.309121764303224
37.98214401860016,18.41675762574664,3.0090498197654276
81.37459644591947,14.559350285669328,2.351063993062279
122.3241888997195,0.36966604763011396,1.9740043847513824
154.37326505156344,24.52747481383296,1.563396766612585
172.0624660209883,54.17747657441031,0.8754263378094541
172.09277471607285,84.48669883464525,0.2635519851376209
153.95970804461706,110.37629542353145,1.8794446404461234
119.8167438149331,127.28962843178029,3.8391893694923334
73.64957015847344,131.81286429424821,5.877721467127256
20.152457139716258,122.11882460152428,7.5063491209444155
36.18446801382735,98.2172579551502,8.121078170783301
91.43696565811858,61.95437340028089,7.289910338983445
142.11276639783827,16.709395274205708,4.915349123398801
184.84466005031263,33.11942261137133,1.295407461703311
216.24995765949544,82.69190321567045,3.043891950876122
233.17887402350493,127.26585385932056,7.4889606183823245
233.26270669422058,162.61753020589455,11.279119010056444
215.45422237866566,185.34349856220865,13.68744453487923
180.34176411596772,193.11612078809586,14.229446250974686
130.15158612153235,184.94052358559819,12.608841327336465
68.52008603977677,161.38048491990327,8.821700801975656
0.2383462008556753,124.64216433875328,3.2542659585982365
68.95052900364679,78.43110510522814,3.544989357009941
132.60872085799798,27.56701997530033,10.882696089764275
185.2627228888417,22.782323644197476,17.882467534485233
223.3372314978969,67.64463742391558,23.75717913069128
244.68707791306755,102.61703271669876,27.9779383155331
248.78295932081144,124.54910843068487,30.31088679414565
236.81411926615277,132.10775581790236,30.811260596498975
211.56246252933647,126.0403165088081,29.700762228018874
177.00562224956528,109.0447154801307,27.280986089298793
137.73102196056735,85.2426162374623,23.896244149889153
4.4498357415530565,3.7882662299596777,0.7744145367730786
1.3234865627688648,6.888149462037806,0.058138247101822346
2.9919001705946786,8.456880522620352,1.131236264862173
7.951236877862828,7.79417858081063,2.2575606795666197
12.968940637478497,4.864232452978363,3.3147881372795083
17.489040853491172,0.2438339936438149,4.3185389327809505
20.97809351314351,5.127369092652309,5.240851464252942
22.886149099725515,10.256022441778711,5.958309382210895
22.60506960402151,14.287483309227337,6.390540166453111
19.513428896984063,16.581508029489097,6.505812985538364
13.10338360779136,16.709914542293923,6.232608260514117
3.1661320573194844,14.39584755419753,5.628292288696815
9.927667993247862,9.462550918564197,4.972461512948476
24.88635132192134,2.0701065602456685,4.42399381770803
39.659177565124274,6.924590391583913,3.6547889936487383
52.163252238429905,16.077938813589704,2.095860671686333
60.65907703539526,23.76608729579914,0.5047791390081953
63.788060792225856,28.632187405478685,4.113519589732472
60.66002350706316,30.05955359439733,8.616455915993905
50.84106164187363,28.299380614683564,13.739070135895945
34.450598514443236,24.239586513107042,19.060447115367307
12.34999936871042,19.00304504629251,23.906260015802314
13.767980358290874,13.518699541026212,27.330035251370965
41.394490009465336,8.325955608578434,28.53920479268588
67.47345000415469,3.6099446765898837,27.147672937221024
88.87514235772116,0.6089386280845707,23.004398330312608
102.9408344456498,4.256887899654807,16.202821741019505
107.93730777902145,7.130274113694003,7.41237012659094
103.2555709574463,8.96452897723989,2.250672293257763
89.37135251901421,9.61770718845512,11.633083772705763
67.63373652649325,9.273244884938244,19.5870970519754
40.010293231705475,8.546622848346946,25.12639314192225
8.86155292673734,8.425974357832327,27.785839135301828
23.25023722729827,9.991183850360681,27.769241448816306
53.73278367640867,13.97468119143341,25.60740358386825
80.1778427933909,20.32665300180571,21.67481595475071
100.58589733864481,27.989787684926743,16.391087864079292
113.516629946447,35.07077569650601,10.575814475171077
118.08822700404646,39.4180194607511,5.32618182326901
113.84933054054495,39.39372517336747,1.6681452807162578
100.69136694159826,34.517460704398616,0.072397189262185
78.94343823516391,25.68299097061013,0.25419106837510225
49.71119962789054,14.836254919097083,1.4540543153386232
15.323646319201325,4.296519955260883,2.8179323545795283
20.450878124988883,3.9316883154635187,3.659021987947463
52.71645553629408,8.571007338064602,3.6012961409473974
76.37670020364814,9.137820914924559,2.6965249489047123
87.43996991181886,5.821181929558064,1.4096965987427221
84.2131073033899,0.5993374879505101,0.3558389004648391
67.88855048495273,8.691790577833249,0.156958821871748
42.27441679031475,16.302555769110622,0.3489965413273613
12.813512846097753,20.762130759202627,0.6108355969074725
14.67812730617791,19.54987387624143,1.1931859834798912
35.09527604398741,11.28862285107034,2.1835891221128274
44.709207943509234,3.3991593328414065,3.445371700379818
41.470942390400815,21.693356893602616,4.760525694362069
25.170880004888733,39.31485415693027,6.089276637587056
2.3780748342217333,51.996948940206515,7.6145142651849635
37.2049608289347,57.015839870074494,9.551419403530184
73.37672584840149,54.08777204854099,11.826639356890853
103.81209590916635,45.25455705416664,14.00868198583046
121.75648873315961,33.87999125695241,15.498519843377245
122.53936776044632,23.355039876956294,15.748477996171783
104.95254153928452,16.137873419954673,14.557078509183295
71.6740115918437,13.442656225171238,12.141948486640494
28.53413857815773,15.473410626462183,8.952527699359383
17.10680750853376,21.784835896353687,5.633460954023951
58.25346656677461,31.418902344229966,2.9155202502560864
89.75296077279911,42.785443645458166,1.185129854175941
108.93517310677035,53.54647905333815,0.24958543566284527
115.4374481533629,60.84170540123966,0.3074678412201699
110.55995218606337,61.972723646714115,0.7575762273651966
96.60674602108091,55.288102911822044,1.3467230048635632
76.48039302638738,40.786568544853516,2.4247128168447207
53.48926349783049,20.088729208258222,4.269968468727915
31.15999123377015,4.220918684688024,6.91103782389954
12.845637534934365,29.50004572247755,10.172032540323285
1.0918698629234438,53.657089706019825,13.724160967290441
3.043749431703482,75.17981900115821,16.965275877061107
0.38688426761289235,92.72831348569787,19.146694636087055
6.512337384656966,104.73479588072692,19.685004916072362
14.10921186145327,109.45173573979005,18.18273809878359
18.93821500303373,105.54093226974392,14.479901171873257
18.65862509326242,92.88823828347813,8.861584869302169
12.703098849707791,73.11243047924374,2.0008667153949546
2.3238027924710085,49.37314131825626,5.242427544028777
9.950481122127222,25.524783246879814,11.877454254389471
21.225722844837545,5.041357740846764,16.918510996216167
29.197501423849126,9.760894999197781,19.634983177532032
32.848721132089885,17.889823926456117,19.587785936906954
32.67217417867771,19.340671473895906,16.643175495742753
30.379786964549442,14.65250228465188,11.126177631711151
28.238625204462526,4.732571328237343,3.8084082523738645
28.24918250601013,8.946513229383504,4.312638303283204
31.44454964692361,24.030754239812705,12.17007010954931
37.560981565917395,37.267665141437504,18.557372304937758
45.157440504439826,45.02878041401915,22.2390747999691
52.091964908780135,44.25952527259729,22.506121259439315
56.16948744493075,33.43259560832378,19.440227906889405
55.719145021318035,13.032798184427978,13.59755597580334
49.91930502925458,14.60155431179585,5.797381052778578
38.88594016322963,45.918742083547556,2.9455701073800626
23.63013233531808,76.92282298391586,11.57113654681068
5.963166135341431,103.73114445731777,19.00081827486323
11.623063618547516,122.85844535273323,24.29541048456745
26.200445826044223,131.42822358105838,26.900841674378395
34.91455045833699,127.52667277310796,26.604394193265158
35.757440302240795,110.72762425423078,23.572431099599378
28.396884132934122,82.55852579080619,18.373788539747846
14.689346796469376,46.54387206914771,11.68851630552111
1.4698490974046243,7.613461771279062,4.24651249121656
15.065582144347278,28.99540219315127,3.081392096447606
21.430495901204857,58.933607350936846,9.431364053367705
17.736556503549565,79.53823133015143,14.147502668189718
3.9162780137047144,89.95317734850266,16.995243974432842
17.335361066296592,90.6867072608605,18.166662467172227
41.42982340114056,82.9781790293534,17.911930430453623
63.25401148000198,68.36916489137073,16.353674548092464
78.51690249482807,48.631167819764386,13.703383904198894
84.61324284082302,25.87531044713974,10.330359635222766
80.87668234935106,2.5650221392870525,6.6443685403381245
68.36044840703792,18.744527493724526,3.085037037398827
49.34074552154724,35.889558158676486,0.029519033332255005
26.76985429123287,47.520872213154696,2.672385046244854
3.788733873562737,53.20232716384457,4.937022438115767
16.71239343527667,53.15935263658218,6.832142330077743
32.46785937671183,47.89760353140085,8.334801099153955
42.11284642840434,37.99881165869807,9.483173844384174
45.320166155697514,24.25901648112136,10.292433160136907
42.774954293782464,8.049033418624317,10.640772244347595
36.018179660794445,8.454032976196585,10.291500163662205
27.199425111911626,22.478373020477292,9.00944459780293
18.74093433157104,31.37058777058707,6.668735169545485
12.890559893192831,33.54380622546468,3.3261320298125616
11.195658612379399,29.180885316846584,0.763057644521965
13.982463880099509,20.309565831444154,5.247810578770001
20.0449360838677,10.18023509589665,9.670421199497017
26.83352854894416,2.242121079189844,13.409224869559104
31.217533931842137,0.8232549054171256,15.937174386093282
30.60545256899581,2.3030078841785087,16.94676970660023
23.992843369158834,11.445896101398708,16.191756415426017
12.410504519938781,25.14217643700019,13.644596249174413
2.1552931895053966,41.03950716755645,9.738201426779431
17.73010682353004,56.42264055428936,5.15013557544936
32.43199736248512,68.72068398582488,0.4456483353954766
44.77501422502152,75.92623389024122,3.863417602187518
53.753188542657334,76.94558379791377,7.221979945744581
58.74734033905976,71.8282502836478,9.283855429234178
59.400062462656024,61.77279641262781,10.008674079903818
55.62317171781275,48.82913355109258,9.547146849845815
0.5042566661482543,4.8850732151079965,2.6454672514505044
9.347601342066708,1.249506136545872,3.8536235365133664
19.96122009113587,9.104750391445126,5.0183591966915495
29.961297762141943,18.270072912564352,6.005932860243655
37.795929142134014,27.90746737066563,6.675204970240187
41.69906832736833,36.61500541365802,6.753516050619352
39.91253746258859,42.53943721952348,5.8363335948396315
31.165764668000982,43.72688609080306,3.6280655429951754
15.369143955046464,38.73442670865571,0.12201287325633657
5.93750293624169,27.148696309981172,4.366154949756322
29.620901155587507,9.879916456643079,9.260295386329686
51.30857698574903,10.714587174500911,13.880584103186335
66.00545154393767,31.02983506267751,17.57099216051328
69.66383178642683,47.410632980151476,19.806223847243665
60.967180045887694,57.54899598244705,20.281933281902624
41.38947662281196,60.50050996008919,18.945746732558664
14.299060765729086,56.364281237284594,16.087334610321424
15.892939801775697,46.22169377766792,12.274786798599777
44.717170763214604,31.776346543220072,7.973518178551787
68.10737192178489,15.276026970388907,3.351933842459272
82.60284541888443,0.5896336543820905,1.48708418010583
85.71106751268634,13.09492610251908,6.2760422900338435
76.28272712051177,19.94632044980551,10.610062744433263
55.01189512885161,19.972309489563617,14.139618222079347
24.606846290677808,13.605687554517973,16.81085157638388
10.589065647209168,2.9320098366083265,18.80539909803125
45.43438278545413,8.74578360996009,20.18066477351682
75.10966616206227,17.82574299236383,20.80087833670269
95.98361704286401,21.36874074502082,20.49172313540257
106.00742103945393,17.84672146902806,19.096861039940208
104.67022248431512,7.44845516838386,16.562408784977272
92.72564496798354,8.113579845513657,12.956839446187985
71.95658441965503,26.10884506517875,8.435640157476024
45.020256598062915,43.447676936895185,3.3473779246324322
15.300352413352453,57.27064952448287,1.7328553102295134
13.450439988786268,65.38682055503757,6.148791046428476
37.764780930644164,66.56204219592598,9.3424103421487
55.223693995546924,60.64592959657245,11.061865098564152
65.02412627844416,48.57180315392017,11.410138599284842
68.03034172440141,32.207191889705264,10.702383224590454
66.25479375651639,14.04525370098557,9.385525102208023
62.028576598419846,3.205423021230675,7.931287992435638
57.23965389999445,17.06065146328829,6.717272732986816
52.973337509378375,25.663653418151338,6.024115255532673
49.62372885497737,28.07919146252627,5.899986949992003
47.25153303902672,24.436911717456777,6.03432177531711
45.85183836343504,15.944877156822079,6.0294554314568805
45.3012268894903,4.7865898755896,5.716645199583948
45.03908069909869,6.125188185287774,5.119233825050134
43.76569986211247,13.593401524759813,4.321723631903122
39.47668411116442,14.774959798531969,3.4192344487203927
29.98906219773171,7.895644646450712,2.4550334861441865
13.779474945490671,7.139112453650956,1.4605931412072415
9.264392354704993,28.487294194805862,0.5302392141806439
37.55618244378176,52.647638414995,0.2505671588130961
68.163320818094,75.2315725243882,0.8461014748253524
97.62565647953812,92.01399116742672,1.2301535453360273
122.82741543319054,99.93548822658961,1.359799967594758
141.52645488231653,97.72676610818637,1.2424947210012356
152.3600136152647,85.99037200901665,1.0739434029891084
154.4600373624235,66.80970095460448,1.1308080859449625
147.03768226040822,43.12048635026058,1.5126563928096246
129.29825434668302,18.089912605947127,2.128354253985158
100.8056143582492,5.353698959163723,2.815604203792175
62.11946081053921,24.816422562926462,3.399156322872266
15.336044977323747,38.6439645340428,3.811583811928698
35.81874759271686,46.1245304869705,4.225962810509123
86.4493651952405,47.646857485884205,4.907101407693362
131.35839845218052,44.68779825290365,5.9412924454877585
165.98823055960744,39.522674231945544,7.216035970268013
187.07990634960242,34.64096901139778,8.501419075561975
192.93219717867044,32.02416102320191,9.455963958763762
183.36862108251677,32.57126088933523,9.688798602134447
159.60511428889475,35.93322716480287,8.935351626684824
124.18477143439513,40.85382879622109,7.156580899460072
80.95487156107764,45.85961129937409,4.440948751457652
34.89291550467804,49.97312067952527,0.9582203917773001
8.404671999294216,53.131694907416716,2.9904021239990954
43.626756568713276,56.114889758235066,7.013440767883152
66.86011589086313,60.02930059916564,10.678934938966416
76.5220894957352,65.63903151083188,13.533825681135452
73.73623399978943,72.85113646889869,15.18520247944729
61.96416789443921,80.53981105837748,15.421106473146398
46.00394007894901,86.73922776532515,14.236568496432968
30.7340753640461,89.07588514589185,11.809193304784714
20.016599555478717,85.25480605412969,8.598238228934148
16.0431141930271,73.47986424297,5.290643537791484
19.211554100510355,52.77142062567722,2.4237619244171524
28.391761016815174,23.21011810384035,0.2100367496769523
41.36678667706475,13.890393567479462,1.2955944556779304
55.30447360704691,55.95630709450964,2.1124433807901597
67.21512780665742,99.33046966150278,2.3365663619574266
74.42068892483456,139.6970046873662,2.0810932600728913
75.01096433872932,172.73978261755659,1.5153047678786065
68.19249610966622,194.85839259205557,0.9809727884441858
54.413518574782145,203.7298226668308,0.9084409208565861
35.17297441792275,198.6006800458842,1.555105621628457
12.539509797488455,180.28439453315374,2.857825234988697
11.41639493207898,150.92035560457757,4.478137955135803
35.011114508282574,113.61605552125249,5.975663988214641
57.01544694244571,72.06324797928758,6.995623626709055
76.4112984029203,30.130650753263634,7.3545330654816645
91.99552869220263,8.579133913275262,7.089294258977659
102.10887347757681,41.18734137581739,6.457979799071887
104.68870807205401,65.93804234717162,5.895527454718111
97.65971846775867,82.4110693083498,5.922702425472887
79.54535489143348,91.44438037314909,6.803333272998222
50.091739857239986,94.74780137213484,8.237886999380732
10.713742574844686,94.31490881747119,9.557091764907629
35.34029941594732,91.83511010138585,10.106269400233025
83.14602857764419,88.28394298830298,9.404570964020536
126.57347803150122,83.78647354665215,7.25664311873224
159.064565471681,77.7702840914959,3.8634010283582483
174.65619368105067,69.33148284056176,0.3602737236196567
169.06821483138415,57.6821425777565,5.008506133799548
140.64794259011802,42.568654969930016,9.55873025985454
90.94763277190687,24.570384359576675,13.256703789638314
24.729398128293308,5.190407554068421,15.406559921365114
50.62875671745525,13.326716297853782,15.679591162638522
126.13734042214453,28.469651695956642,14.08922204233398
192.37441043723587,38.15131070908055,10.94998138368836
240.6617032798173,41.39543069142288,6.897541972569996
264.1093730694039,38.738025855722306,2.777511663941271
258.5132571079737,32.15872193086831,0.5562175514316213
223.10450451586627,24.518211615162826,2.4376495126288504
160.99613810100692,18.682585411693246,2.455224792938959
79.10537861536905,16.670547483483418,0.5339000660155533
12.635845902116648,19.124762272761537,2.923567488332529
102.78992630473678,25.256411847721772,7.056055785703876
180.32370492351077,33.186889309289214,10.702273646126933
236.4054845155175,40.4212441919681,12.860763152725848
265.59811230982376,44.24695247482426,13.17996439510126
266.23153703539066,42.03429490234239,11.812434472649825
240.09260478087106,31.54266900767371,9.064890641374417
191.7557448558431,11.394313834497936,5.396729115280241
127.87466462861067,18.250227259020726,1.4184095234621303
56.53788029194467,55.02858065405035,2.3848371840086955
13.469671026189333,94.1300411576992,5.806801537840469
73.71905376084437,128.86836653887036,8.725459712905913
117.49679407204253,152.1164487224494,10.991330898353205
141.142754777143,158.19316996244976,12.453803621756094
144.87169000784257,144.53904234956426,13.022301141069438
131.97351144937574,112.99356049873816,12.676443003343277
107.40841382287306,68.77650575366077,11.417404276712364
76.7945010209497,18.234655453881874,9.412622180961796
45.2778709246747,32.36084033296464,7.101934936060294
16.782201100085707,77.69455867866708,5.003512089387203
6.213042685647162,113.81488409137577,3.412421882853668
22.484850281997872,138.1591137838665,2.277577337284814
31.739702751730796,149.4519729799392,1.4161111893110516
25.056937699263052,7.4713650670510035,5.493490042034055
18.271916901829687,6.998067493565492,5.239292903427737
6.023405695556642,6.087343815610282,4.220841443720111
11.257973629609786,4.854979333614077,2.4751876916963416
32.15476800100184,3.3636865135410474,0.21951408176997467
54.209528433543724,1.3589415654807218,2.2560148156227706
74.15472858981019,1.832426194369916,4.771981766756133
88.45469148502909,7.011763756138853,7.250577056927448
94.05880597196942,14.589660268748641,9.56460202232605
89.07372432474213,24.022915378576442,11.634394113006799
73.1320207506931,33.6641187471524,13.485363403580628
47.49455357261769,41.321502191446626,15.01681362220541
15.013742300836702,45.21058187765819,15.90283194031868
20.361070913678386,44.28516354518268,15.698093157761141
54.6121734603969,38.24719204335119,13.992764940558764
84.35515142943828,28.00764987474468,10.659756713729498
106.97104533538169,15.314174555662383,5.750039764605357
120.6257691607674,1.6770768913823304,0.683098685255615
124.27391462940415,12.071172621823209,8.071277272954799
117.78365721296082,25.754249449113512,15.19320692538382
102.08829888698043,39.24073846393027,20.920811072689922
79.0678808133233,51.675620410005685,24.601952841231927
51.1613313819504,61.360876934459995,25.942660186797518
20.825424277291877,66.19748149759783,24.903021167779006
9.848469130926032,64.58673817024312,21.701647560145584
39.11493062708097,56.16325875312967,16.995688518157518
65.206904651163,41.859114968385285,11.776414389498735
85.89865913990663,23.406160576819616,6.903429201743834
98.44462510114181,2.572995079497429,2.984343089204796
100.13001941388602,19.251833460903846,0.4072512048576039
89.29393589004466,40.895158778532114,0.9514603219357428
66.34756686393418,60.862149998516195,1.7953500761398373
34.23305817377644,76.88333955481681,3.058394975741236
1.9541794907261258,86.05678078807327,5.585920694555218
36.10818149379859,85.63231849240236,9.868405396863587
62.55489006951094,74.07632370846979,15.892371247716461
77.20561214352719,51.825798219853944,23.06662445712632
78.10024017793977,21.285589633113588,30.07334467721098
65.35294699539679,13.901648620761494,35.1670107424676
40.79530518734728,49.89772274707903,36.95678429765313
7.6474102085601166,83.43830462485654,34.80969432834038
29.685995244183527,111.98657059334705,28.697473735341646
65.84877687928311,133.40271685192297,19.087937630343294
95.07360135451624,145.56848691095368,6.948586283529194
112.16909067507032,146.3911967595582,6.3468272113261595
113.7614803495282,134.30394914532712,19.13465045002156
99.34378678341011,109.00850619856978,29.819084110942
71.64757789423443,72.02198952497712,37.271301002527586
36.08192817318002,26.687670603802594,40.86222954440174
0.6122043709616264,22.37371001061592,40.51245654143891
32.01636185861997,70.08942585274401,36.75903188417295
53.448475335096724,111.68412456443092,30.551736465839184
62.76964007103708,143.15224344050392,22.972214544782453
60.490177548707464,161.50252355845765,15.019080930050809
49.3270149446029,164.9808029888254,7.567947643347308
33.47221637619088,153.39722206504248,1.335104875106673
17.733891658104096,128.4781403975669,3.3330632413356365
6.615827944809708,93.98932857410456,6.463931290647384
3.419107382239045,55.35503342016465,8.236787957581408
9.482749402968743,18.68893290283611,8.91768237492996
23.74970941386223,10.521347181395855,8.907011219242857
42.866524629781615,28.613325142354554,8.640780357419532
61.87781546506255,34.407574496496906,8.48007878781764
75.36967537137231,29.145403682985435,8.73500931846856
78.75133790624137,15.852324185578592,9.577014524396164
69.33515777634155,1.542521704998002,11.002077271502552
46.98635014442789,19.007718957580654,12.929622316725876
14.24823328483212,32.96277261413011,15.153723311067647
24.035147807018355,40.62385043977595,17.38358920322929
61.53397390600041,40.24076128137939,19.384649570864113
91.59098986523931,31.28176425937552,20.915147366812658
108.56324041658455,14.537881136367385,21.594472888857148
109.10836744414647,7.970347362360406,21.010732646354032
93.07543815339844,33.34521970475029,19.008671248710012
63.66117196888275,58.3458799541635,15.673333778309742
26.680261504932197,79.9332857891359,11.140276525748094
10.873314882577596,95.67267236543344,5.653792206148432
42.51340642038502,103.92491708445023,0.45391705909563906
63.66254725912484,103.862649630257,6.884506399404963
72.3644111890847,95.44986636195236,13.28101627372561
69.2154219596055,79.48447131178015,19.124934276391997
56.737656058941475,57.66389462939691,23.830094434922163
38.54694890912291,32.55495725611098,26.8907165426784
18.609823149508646,7.347277902089128,27.955866162165094
0.6835466726075349,14.626971027724917,26.94822929723708
12.14187004866387,30.480188497694684,24.048250750638264
17.87420079642073,38.26540527835419,19.513380888550792
15.98973745199023,37.22239417472938,13.760297100321141
7.621078972142909,27.77003937094537,7.441374297483184
4.600892982779177,11.359975719328451,1.2529887539359954
17.126733044280954,9.678466118763481,4.262355254587192
26.375907699456832,32.24368781883907,8.800112908885936
29.662264010974845,52.60280997088837,12.172067542506474
25.844500771728363,66.72067554744021,14.189605145645894
15.504398558378082,70.88443872708565,14.668174027069977
0.6516550240568204,62.559218288489056,13.40160972798698
15.926532650838304,41.21334926411393,10.227914979265126
31.46630067908706,8.799842427883814,5.197385784533955
43.91959404614018,30.367843566183236,1.3044948666974967
52.339616101535576,70.39798245189313,8.551524425196336
56.885951965540876,105.03354350611846,15.55786825249951
58.49655126046918,128.92335007306752,21.258324895373413
58.3581820198653,138.57079140663157,24.716252324101777
57.386407258488376,132.74786998040457,25.144765540383524
55.916361261257386,112.4085866654168,22.035668306125324
53.68677878213983,80.28327811633278,15.4439246713867
50.05811551429896,40.380979453589305,5.973127362472788
44.26364952615696,2.452278677773467,5.386106008354168
35.54591700893909,42.93621542822463,17.423396595842032
23.210599148751836,75.83853032491592,28.881424563435687
6.709630087603089,96.62645990150249,38.40673700721777
14.10781295261093,102.24885386498458,44.582957408642535
38.55710628560122,91.85979291464491,46.30757241113744
64.69267596465545,67.20311047366322,43.11636144318094
89.21228275064006,32.430473701276476,35.32226427863694
107.96188189366453,6.677770537021378,24.117672138063053
117.00995219426201,43.887092842960136,11.352055953574409
113.88794894139335,73.70294051930874,1.0257340901194836
98.45188370868964,92.21715634132782,11.377902328035571
72.97153052420745,97.42228406560443,18.676547137442302
41.412086104055014,89.05496435634639,22.62491967199414
8.257337099476525,68.24000638625613,23.463841101500584
22.561547773121543,37.22512491930208,21.956183749498113
48.21507543402582,0.668489162107761,19.356381517765
66.9536086897804,40.989229811490716,16.83034009672761
77.7740990921979,78.28867709190884,14.89121325349297
80.1802581452666,106.7050680959276,13.565664990007498
74.24963785829638,121.01766396393462,12.863552042385834
60.88011828189185,117.91373456891743,12.828207359655591
41.93447186207695,97.01372940485261,13.346854684792344
20.03466227304294,61.225059012935844,14.030454707813755
2.003324090915141,16.250176332509284,14.262361604465315
21.82494879097788,30.60621762243087,13.39794126203511
37.94213635161124,71.9412551592523,10.946606405760349
49.68124428449771,101.60571832306053,6.878116774128698
56.76934856530212,115.59887302693687,1.6714508798071044
58.90185623051282,112.43423298545405,4.0719115375786785
55.60540688070909,93.06904164674037,9.784943093076459
46.49509732002635,60.56827021250704,14.95210577115098
31.791915127783298,19.615229412646862,19.072590792833317
12.820868098879458,24.099235383084626,21.562211054246855
7.795441255629824,64.60056093189318,22.087154576921378
27.241475817337815,96.67045262589824,20.980684842057606
43.3791837321697,116.69691722312311,18.797355492890812
54.68550396555782,123.11926783358953,15.699037227327803
60.44296788963427,116.67261703613579,11.68642406411081
60.69156051677088,100.11902139317662,7.0149379486654
56.04858723798013,77.51517272541932,2.1592063926324836
47.53825387896393,53.237832852236004,2.3664802159579006
36.490127506086544,31.060199282677655,6.083469593086981
69.59388810718087,15.252356590649125,3.832954751849581
62.47752696093909,23.32234327217064,2.682038974842721
42.21042011897798,29.355299829456875,1.3230419184801208
9.620199568977782,31.47259110955767,0.14861073934947086
32.23087243775601,28.325560291722162,1.6800015027544632
78.70808179049747,19.37880686523851,3.2244596957340788
124.41547576455116,5.043460145775533,4.750757913999976
163.8756425035998,13.373889949428472,6.1957953915423545
192.04896319802123,33.78852927505526,7.543822518770895
204.77172802985217,53.59333263958169,8.824334520124996
199.1822475612898,69.97777256731769,10.018054252693455
174.24161048884054,80.14198730028953,11.102096255096546
131.36624945049198,81.48839836482577,12.102480555974028
74.61048136273403,72.33486537800677,12.948702283965693
9.782598269438553,52.72223864288743,13.252323526944135
56.93926778549897,24.335571934435944,12.502838203424648
120.06793049333423,9.782778311247167,10.40988918091885
175.34400448186156,45.43213412104887,6.861260551531377
219.60825321505382,77.81166120258676,1.8935567217541656
250.28963918826634,102.0901223831896,4.137181637375455
265.09497327821947,114.15440079920018,10.476965772656389
262.14801675161414,111.53074956029191,16.22920829904892
240.55881161804706,94.07575045206974,20.705544926444524
201.09687710415164,64.3537625196214,23.47839180426588
146.5326731170627,27.324275496824104,24.403910837044176
81.43076468745441,10.670779464285689,23.604397279633975
11.501338721563272,43.32052704686445,21.33776176451023
57.12620599458367,65.80299245420896,18.037474155908235
118.4323055148175,75.72849410018837,14.235391834444279
166.84070502814137,73.35387456136621,10.372697583556432
197.60364854407538,61.12562924611839,6.763182910835008
207.50127687803763,42.83376836529324,3.5536405539722544
195.79520918377665,22.743711040109247,0.692454942778012
165.00554410917542,4.898803126611305,2.0761203696553974
120.95751912231543,7.378365305088024,5.015885374120033
71.7435125999542,11.948000777624648,8.148309909854227
25.763389007339498,8.330741571954077,11.384093377712382
10.42391412183279,1.9459570996715587,14.63504706049654
33.57402194621221,15.384744123442342,17.68284878832569
44.00661907223179,27.22086490231596,20.109607931590073
44.666216997206234,32.740505691486305,21.404177060682265
39.617308540165325,28.789206485703,21.192086393641247
32.70824569985325,14.896615894968349,19.386032601756853
26.86630730995951,6.5074664527130945,16.20077615933575
24.029613458563233,30.92250324530409,12.056967742981529
25.316950090713167,53.282968421797094,7.462328258121508
31.03927627361408,69.48866215613334,2.9616632991862657
40.44723958310361,77.34261519179832,1.0106704610091133
51.469759872704444,76.62697048129307,4.277618013116758
60.83661010300356,68.49344387847266,6.820070793774263
64.79630044516205,54.64118465768411,8.611494854766226
60.27258847336686,36.74434085758907,9.63859722710706
45.93522894786099,16.317172249884145,9.977533009141062
22.68860480068033,5.10874097234696,9.689713030164812
6.6306271189404065,25.80970138436332,8.767781431315674
38.19967291797167,43.950665435528556,7.302384086190451
68.29000860490449,57.93285831275078,5.582586095348079
94.01962321446284,66.79290773522939,4.014038860529145
113.60476831512379,70.37256421966882,2.8958433933477146
126.16175565356477,69.14552405003994,2.3072633700456056
131.32676122480746,63.81714213637059,2.3021187987455773
128.99098562315393,54.945346421451646,2.994707922835872
119.24528505251479,42.82403389800146,4.380694779217678
102.45114950335777,27.68276438067088,6.239720377931162
79.33136666029338,10.043231501030924,8.247450778235859
51.004296330476144,8.998750309086967,10.138396430093895
18.95080630188915,27.745029537184255,11.62832198396515
15.02748987950562,44.1412448989676,12.240620898650109
48.864115103553104,56.158370762813895,11.464130882631919
80.33245309459559,62.153562056901116,9.066549324838034
107.22048373678307,61.11622736060763,5.159458443223366
127.6029288278598,52.8040366872699,0.037599257119700656
140.11533262294316,37.8429833315276,5.846720825822527
144.1005223828303,17.804509364148476,11.788100889483392
139.5991497008793,4.795456127350684,17.039241112681985
127.23406667764868,26.672955409880196,21.192561958300754
108.1110491224997,44.2068766705511,24.198459219382144
83.82810759336229,54.06411234414699,25.987848991198476
56.55309979958526,53.877561309755976,26.349268772635643
29.004274766086397,42.810584053731766,25.11975762526785
4.172282943146539,21.854894779008212,22.040635327534254
15.252703888759916,6.187115737306967,16.74814879840041
27.612256299025166,37.017356971520236,9.310789636843129
32.84836986116096,65.44548519067388,0.5153953401353917
32.60883071349977,86.2689000622396,8.352624151291689
29.79366504406945,95.29194883961287,15.91854313211418
27.689690897584995,90.23210183405187,21.14650797968365
29.03589905251823,71.2538720683913,23.51306933876309
35.33680337224573,40.891829764445156,22.937931277828657
46.60094856812668,3.328304588264967,19.80185457392467
61.49801639814228,36.69774939219015,14.929182746216934
77.73202991180682,74.90759826393072,9.286668325929531
92.44672867895142,108.02933278106208,3.7130735772538723
102.61905778432896,133.7557059237096,1.1091573345959689
105.479902347913,150.32980255896373,4.5589932014019965
99.00578867076223,156.18904626002544,6.106047891943209
82.44840072647057,150.04502362631044,5.64244664230448
56.74987169374238,131.4213146947098,3.493222572339931
24.605804789199304,101.29940184815017,0.17068163831127564
9.96456994549454,62.403604412803205,3.415249087222477
42.47286570832702,18.832324744356836,6.133032580686282
68.99317669405335,24.873806836979803,7.34980315136245
87.01107906514586,64.74540526774439,7.121925845806998
95.79571405104193,97.93885669778395,5.933667808398936
96.20983314987123,122.64469785698213,4.354548629836369
90.11710400580887,137.5952550092025,2.7827314937362457
79.68330511172907,141.69218254603993,1.483090840625456
66.82823125905003,134.19981873961012,0.6568671999917792
52.979807529830964,115.50727931375145,0.28232455999467
39.11937532893454,87.99334610777115,0.0912989695851923
25.949240414033543,56.3056434175167,0.1611381869466676
14.017592875823551,26.611536639342717,0.6160615289457771
3.748782545172843,4.9593462249087485,1.3306885052006505
4.5921625124166985,4.607279791975725,2.2490221594110893
10.944763939930624,1.3281640780873736,3.304704703097025
15.450140227906367,12.176718283474665,4.3575598891375495
18.38402762913628,30.96635928355355,5.180177247108404
20.07594923019578,49.43236297210466,5.661879179229788
20.86035787127752,62.77827050824256,5.75003162147338
21.06319454400978,67.80326661521278,5.422811224918058
21.001826535959,62.94985888388584,4.8019215087231055
20.951039044815815,47.979047049024075,4.076778208917298
21.05885772234744,23.713537157470924,3.436377896771006
21.265168970456642,7.953407872615348,2.9967673032865165
21.302489198856343,43.91809114898726,2.7195646503444535
20.82633613360311,79.94960668164596,2.4774322278020784
19.64650198841579,111.24035506798177,2.1892623833931597
17.950541774575722,133.3627697631657,1.8725360050307507
16.38467990885579,143.32118736935678,1.5461614666230106
15.913945698058805,140.2575019039261,1.2212398357615142
17.490534996164502,125.51246179202262,0.9530471556394416
21.664374455861,102.07628977065984,0.7513498469194134
28.305259713511575,73.70351713007608,0.5563384857998941
36.53116188536342,44.06032428613336,0.3127933355220213
44.81765888045686,16.173722104164824,0.0015392426416777857
51.22993705531302,7.773168293960901,0.3401187362764773
53.73189499708128,26.402145427442687,0.6456217371647666
50.51509971656431,39.02185690554754,0.9292826754680801
40.34826989303108,45.5527187935849,1.338776134187528
22.96033007758969,46.50039342719126,2.0606370543197805
0.6276929804187964,42.91395861499534,3.1803473587138535
27.968555840639144,36.253573442154206,4.607421118050607
55.84277966158961,27.972568733490192,6.201176178420215
81.02177426465533,19.249108032713977,7.84387085916269
100.62991107911704,11.023935489577445,9.33255622459384
112.61333976957488,3.995128323461825,10.430594990872581
116.07358871072353,1.3647568956023262,10.996051698331675
111.35882879694758,4.801012786558895,10.98233273515682
99.89463722745722,6.29423884261972,10.424870865331487
83.82066213460354,6.089317637203506,9.421705974649782
4.874963877371269,14.2144554888234,1.6977151443734906
5.463513388684923,8.75298273800696,2.2145182071785667
7.152556412959752,0.45760383280224887,2.741746584320296
9.787096924279979,9.911312716296925,3.235129138993816
12.276083184880054,21.224035592032678,3.426042548758957
12.831179099537993,32.13573930573393,3.0430726843893177
9.615879637440731,41.2700647623856,1.936759158612116
1.5544419658284572,47.37493492903025,0.14430740643899265
11.043599672018114,49.49670799680154,2.1790077455445895
26.371717805632628,47.073098270441584,4.9172803117987565
41.564408809576726,39.95531479825012,7.924853399735825
53.530528127263494,28.497428630352243,10.901154575487007
59.878488743944615,13.705824909889493,13.333473754816016
59.51239138839607,3.0244229998960033,14.694348063023622
52.507857355864274,20.399325095779393,14.753411298541204
39.493031332456646,37.15688407751976,13.43819715328202
21.322845665140314,51.91407822438668,10.591089626968877
0.7855196838457075,63.25941714153538,6.00289775959642
24.916777064474385,69.7913612846693,0.37585605682425954
48.151381869573605,70.38922210150149,8.160979154424293
66.76096541387031,64.54738981228473,16.501011935088354
77.05707462759136,52.541621265028404,24.218024473328665
76.61640740918197,35.47717715831847,30.04752102033747
65.37966275525382,15.079717987734162,32.954455184540834
45.99866520630728,6.593839018613662,32.3967172703978
23.208331800408292,27.412996348115684,28.489984675515938
2.424507041001454,45.35693195970308,21.838201260223595
11.875137450314696,58.577876509764735,13.324528633482434
17.300880458678655,65.50740696888555,4.052242597442056
13.866745209490974,65.05035201333996,4.834768333150765
3.4788872603874053,56.866950328628974,12.321704024006719
10.98997886446528,41.65477722308344,17.74190910693011
26.5035709036422,21.253221656465108,20.91671910158036
40.2569356484338,1.540436465245146,22.015050525252594
49.6863665973027,23.47914930852069,21.492623848214123
52.43636527158164,41.52890847400956,20.102945013358458
46.60976545271696,53.47840329584148,18.682985020222727
31.344458044784023,58.34742820032294,17.759809769744983
7.48910604181756,56.46266699082233,17.378508426362117
22.077373914092306,49.220438487511146,17.268177654084724
52.83277314142195,38.65463665639411,16.90425621521673
79.682131971711,26.931383908214247,15.493734185048801
98.32688551147697,15.881997163598433,12.266392015354821
106.3635462616801,6.67750993970073,6.983916421818509
103.67346271796283,0.29510852262025306,0.18623222967491757
92.01497348921693,5.365412188386872,7.156343703412707
74.13981802972813,9.334825162015436,14.152091771576636
52.932349161634185,13.140587532577248,20.164778278828166
30.91812662906056,17.559996539932293,24.78672768231876
10.207548336698693,23.033844618363425,27.75078393653619
7.361654717055359,29.65162824730636,28.854991947879704
20.214578550360226,37.233913326618776,27.95865869254324
27.315326509087114,45.418991136795654,25.08549788243052
28.612073489095685,53.71057869426818,20.60310345724205
25.31622686669603,61.454598224877756,15.149919601793355
19.716645646847805,67.82133065212119,9.342909006749771
14.505375930088322,71.90873426729623,3.6348896140373035
11.883281856016826,72.96185974069563,1.69666491111807
12.875141483866289,70.61072949489609,6.557667179700061
17.189792674903465,64.96648398535875,11.044494025072888
23.64567415074226,56.42609096665039,15.311927738933958
30.866727644658866,45.221969554324566,19.29182809397263
37.838791626888906,30.97460307061464,22.590366631999697
44.04901207352288,12.57966853788821,24.672385660465594
49.201667605915794,11.347490534303478,25.189685828119288
52.78972077556386,41.51035377245319,24.18438705053511
53.88985155657126,76.84551231926561,21.95949263209476
51.362785681682496,113.89609816583231,18.904946776360465
44.37451764006302,147.09579503037963,15.40069963376051
32.93419095451492,170.0378187171693,11.661708592261744
18.118158133591194,177.2875624867059,7.693149280999674
1.8640644911859112,166.00657116326397,3.4721199597409313
13.536486161878276,136.75133725323823,0.819739321736948
25.99277215052482,93.1761032665713,4.877006044129761
33.99153890172714,40.93724804853521,8.527135175751681
36.728619905683665,13.578246583261418,11.71701638428225
34.099061761187784,64.18986200151551,14.476196456059776
26.7055357878336,105.34851568966062,16.90150763653307
15.929674341531893,132.32063241664028,18.911846865232487
3.9361531433379104,141.58376570635068,20.126439705290853
6.549479874618213,131.61285933983882,20.057050066079267
12.756982802486787,103.80946396476253,18.387155542674794
12.588247606218156,62.96999831137897,15.107932280412268
5.277380685495484,16.713243061271726,10.547429647683428
8.2689409099201,26.221476022405906,5.409331866148079
25.597449418996035,58.27882884617681,0.5194873471662196
43.24561180431727,75.04793739355348,3.526437433082096
57.47404856838405,76.03980275248492,6.411895701172179
65.00534180958044,64.03736096859323,8.057578078849419
63.66307325948,43.48739187184729,8.514702166917475
52.85657979908084,18.852886854672672,7.842302608506119
33.85446840348528,6.303731567033524,6.051400572820409
9.723881010001616,29.303127433627004,3.1467262005568286
15.194578571673718,47.830194091187956,0.687191767155945
36.28490451532419,59.63217697113684,5.03758101076995
49.89648231964771,62.84986121744569,9.272987843741792
54.383836206462426,56.848451729092105,12.65591395658712
50.510245816696354,42.941428921275616,14.721268633116217
41.00134217910983,24.36065068592109,15.355647010297856
29.426093710640885,5.306916914687938,14.46558499877179
18.9412023638481,10.498687734439489,11.796683322616138
11.45663911375583,20.990410559931817,7.2193587236725305
7.493674948614756,26.036643995306925,1.0492081669841657
6.600935827206225,26.759494041739753,6.111178295509954
7.917124498122007,24.40327062797898,13.545998403697851
10.477217843411971,19.514713310060248,20.43400186065508
13.138349379043555,11.920453590384406,25.975554207519394
14.387282802606853,1.418699282017355,29.473893897501686
12.42216626165095,11.351666584967392,30.411270112221306
5.6862131582654225,24.522993637955047,28.5756812645254
6.339414546392561,35.393689526155214,24.138182160876212
22.5629356647307,41.36784910329407,17.581512459169016
40.36216291517038,40.89501100936548,9.548848364546659
56.3830827469071,33.88408249011436,0.8755827330204841
67.66339669378048,21.44009485295355,7.504384975415338
72.4570499702152,5.227183092079271,14.84100413007521
70.35809991288566,13.075904473960595,20.694258576293524
61.788046542335664,31.908817353509342,24.95107303569948
47.30441585867735,49.601970081868764,27.720653927679674
27.31702817331275,64.14169953649977,29.15525028322435
2.473533237831133,73.26097458915366,29.250818014832376
25.571211617298435,74.9477310894208,27.721493603024335
53.627016407892164,68.1566692211109,24.166679645346484
77.24727214966421,53.32541207299311,18.392754935745835
91.88090947339307,32.39062821227075,10.659281968061576
94.39737610564362,8.296558275771591,1.6610482346245008
84.2308654506909,15.743776513719917,7.755585166491953
63.54619319783982,36.89721189810265,16.788140767694024
36.394577775566894,53.03945910678249,24.650393827789987
7.372427560306529,62.77324243319862,30.61268203471373
19.52322788426865,65.34334787710445,34.20048107036448
41.36240156213012,60.627374566466855,35.24472245707263
56.12230677384186,49.23662585503349,33.78441224829737
62.34071565134053,32.630343446237994,30.040100396605155
59.044640557274846,13.063331932206633,24.422386424834784
46.136497310877935,6.7234385816126006,17.5511273271292
24.979290303180935,23.98389630940049,10.222537453024493
1.3053976451676117,36.43496994931572,3.2493230734865266
28.212522691905676,42.546249096532755,2.7489292610709772
50.903473986524546,41.615565207770395,7.516559273728452
65.49353614415222,33.70881111597803,11.074461114590182
70.01575887375095,19.592443172582716,13.434095198135466
65.04245667615582,0.9690668113588733,14.632290664190105
52.98666749388197,19.765307567049778,14.740923172449365
36.6527086687177,40.124106513505566,13.791155872964405
18.503431771674855,57.777413475035225,11.935944425556487
0.3997752175022481,70.8408151513593,9.471018074096321
16.244201374045883,78.14438745100544,6.717732417179408
30.18392196779976,79.39576111646785,3.9808647963349806
40.22620029174354,75.1580137749953,1.542920629260409
15.032362961819684,17.360226104675412,1.21328634521999
15.91721026276953,25.79558481722871,0.8264460729512009
15.115761172380346,30.653085147255595,3.090314708236425
11.58872801003029,29.554184218718145,5.238859587565282
4.324342345135087,21.257341256364256,6.95992662678968
7.324327483833813,6.093259093629905,8.133634772028556
23.31492285726197,14.040260188169222,8.738174987569648
42.64113945191765,36.1160282874391,8.681761552717203
63.2462168461874,56.57016660233706,7.807717883629025
82.12949389691758,71.9427721236188,5.923732337049363
95.71625716567435,79.36883592031666,2.8689823096410088
100.55603996484722,76.77058392501671,1.3908002156036707
94.19070487372765,62.95235636151086,6.579899424591466
75.58284936949723,38.336642076825676,12.058995478049438
45.2154056057336,5.776345216051374,17.01545645831599
5.431679234421097,29.9455224856183,20.59923759051661
39.691894387664654,63.18417144514791,22.05926038028286
85.1145061827403,88.54216851754201,20.85014708707441
125.63288451141075,102.255167914087,16.771333966942457
156.76561798007916,102.98628320826262,10.0631849318724
175.38025779426474,91.86777759868954,1.2005103473983096
179.90690513775175,71.91925771560942,9.146759146194274
170.36113657389632,46.95659430582081,19.960084038030672
148.1295164232171,20.652638631936476,29.792566494709426
115.7152426608497,4.049550152416158,36.97651811694231
76.44880719153484,25.042238534135365,40.319574428744296
34.069005661512634,40.83187759050424,39.40851218942738
7.779426038977768,50.40228351396239,34.33542193897814
46.09142083980715,53.246431083010826,25.55758010657204
78.87697025029884,49.59776797376558,13.83712260968808
105.22959366018357,40.629134743172244,0.22081588570754995
125.0325447519056,28.364312289108145,13.94660590886398
138.40744266805999,15.259369509404454,27.137777911549144
145.21960596292362,3.5695373456739676,37.99886436119642
144.88509888157756,5.168605713238284,45.62886269780906
136.63013517003554,10.34140364942609,49.350709880870404
120.11370081553461,12.130734913779147,48.68741750154031
96.07992265511713,11.168447312503737,43.61944515336296
66.70859050428331,8.211606863003203,34.563130126002626
35.44965271309253,3.976961441869696,22.514172236564548
6.341678918232438,0.8771863483628126,9.089951168004513
16.94176986744576,5.740088298030491,4.009321812922562
31.95620369398495,10.118887609574099,15.637523461224532
37.96594358684253,13.763734632219622,25.22473595049292
35.90602610796762,16.752046553939206,32.22571691001583
27.907082511057652,19.42855938027124,36.125591043172165
16.63708827110432,22.164462208116145,36.8633008062733
4.72290890365077,25.07438423804615,34.73726944696916
5.558210240613552,27.860782791518957,30.25427695360846
12.300905950507191,29.821291718540497,24.216987170689237
13.877945001711725,29.97499990711709,17.617173887476415
8.9432984988899,27.21785131601374,11.278478947469273
3.3103066606243083,20.43711750409992,5.703384782848314
22.674728468296315,8.650509047641991,1.1811969812482406
47.474447584612676,8.68451542397395,2.327467438119507
74.45494609891931,31.13688259641488,5.200821671787946
99.22964300331775,56.72850023473819,7.832160533058223
117.23583999164279,81.68893382499252,10.482949198482782
124.90031843840825,100.85867019705147,13.178128558445684
120.55218274497214,108.82836543076715,15.596821899398705
104.70312817971747,101.49410798101195,17.265625040495554
79.66472981184701,77.39570523627364,17.865146806621606
48.76087328493314,38.26680849730075,17.3512555403829
15.55577816827009,11.407564502886558,15.876436579088102
16.57391877932082,65.53284917745223,13.806676823312412
44.51070935182479,117.6547859619404,11.703653895931266
65.35622360337372,161.78432157341607,9.95862275387097
76.63934115067045,192.67163165287138,8.589373739823113
76.9105350268595,205.89450383166468,7.432997314589108
66.49408409945374,198.2268288362199,6.317738048580002
47.975700815110365,168.48374937755597,5.161550829899343
25.978745303613216,118.54515106375825,3.952299191185995
6.111431736594712,53.85702463600621,2.664321348354499
6.575128850959695,17.187388408973323,1.3150031459525822
9.027636429089911,85.07834187573646,0.10790641214406414
0.9404629814678165,141.60690724122324,1.7169375134578522
15.410591956274642,181.80853823062247,3.5900482011728014
36.039755125991064,204.62061347475552,5.8038234013931564
56.37451139324259,212.07457777473303,8.45245564850273
72.17413621099462,207.58943155709963,11.432694232388467
80.07781562126408,194.36655674202225,14.37079190995022
77.91145598470122,174.63677768155196,16.832077096035395
64.96789856896513,149.87673384032854,18.534523841790072
42.34873158209005,121.50046463761981,19.377982736078117
13.17948309364641,91.29840898020868,19.44744575546046
17.65007273625626,61.20206790358328,18.958537390363837
44.42917194640623,32.54558772295443,18.0469096729878
62.10552632670001,5.442734041256837,16.643767947266493
67.80763073103219,21.141760745324095,14.535492243089763
61.77026272713437,48.520443820830586,11.544585154610111
47.204312793841005,77.08421355085372,7.65701717219268
29.15933844677745,105.53059262037033,3.044307443655065
12.89944670101027,131.03457452037105,1.883065188047894
2.448535573839772,150.32151506002484,6.6015130475633725
0.1837564926066015,161.03350671272543,10.731024753568748
5.023326373231992,162.5937503662087,14.057952283342681
16.61402245401265,156.15248404413794,16.406107338126073
32.22024773826351,143.76300754427777,17.640184829506047
48.91849640224055,127.345020559742,17.78399676447969
63.41761402615997,108.07273313806654,16.96810618208835
72.323065692177,86.48126018971269,15.272079510954631
72.67472723865197,63.062298648611865,12.736557323724863
62.71900361569078,38.833929941293206,9.471891420668243
42.601188982340105,15.45265415946965,5.721174965308325
14.564576350229085,5.23596972353543,1.8862964568727238
17.540153897026933,21.92093880569891,1.5158595842619462
49.295599449883085,34.361660272669354,3.9929546898966755
76.90496750211591,43.40995947136731,5.1365351141372955
98.01119904337824,50.518670389758775,4.657888853430864
111.81363299712854,57.03245490458871,2.526980181262532
118.55642116451739,63.616995263419625,1.0492267817336576
118.78187836153526,70.0674712140398,5.666608829499381
112.76807773516838,75.50599248305703,10.570453455655924
100.42753991309935,78.76164202060076,14.725434624284974
81.69655636702946,78.71229709765792,17.21197650868246
57.13288640305208,74.48771516306192,17.60468437870069
28.353297018484408,65.56820746407689,15.977343864554628
1.920408896564469,51.87175106639381,12.481469655455715
30.267370142711588,33.886639741130175,7.248826002992008
53.303425577946555,12.81955537570433,0.829591544703651
68.51259870758616,9.362384253720938,5.85311301316787
74.92258045309133,30.104256790163877,12.01677757215134
73.39429677251424,46.674571652106074,17.170705910491062
66.41171142126646,56.74572580316714,21.10357489907871
57.42631581991174,58.95701262923265,23.80696410929402
49.935779655518296,53.264049946037886,25.320424931712687
46.58913261869456,40.95494232761863,25.80766425683211
48.622248893869,24.29563557640061,25.540504147606114
55.77601462079462,5.929949697122451,24.728198486816282
66.62863265257207,11.748973114810251,23.388572555510283
79.08558250784883,27.05058130420538,21.147981075991204
90.74882414499322,39.11058783604967,17.26441387661601
99.04654261478423,47.713436313510456,11.132406432258344
101.24684162705486,52.9772631344748,2.891723549779792
94.63520356652059,55.08151163957534,6.540946253123663
77.0596733445629,54.15828822119227,15.917189792048335
47.76215134924497,50.32200795103142,24.03549376919622
8.121965715516179,43.71510778125357,29.97394749100389
38.136962612385595,34.472679877833734,33.05157069769144
85.5514901078984,22.617827071641187,32.896947893403144
128.21157505764575,8.014772422335316,29.737729475388083
161.19145943410757,9.456312634846473,24.337171008921235
181.73655643082782,29.019952497183088,17.736013245147277
189.32295246408884,48.93654060089779,10.942357543883048
184.89579481325788,67.24544637940376,4.713173666511785
170.27268945084066,82.0030174095836,0.33386915557980756
147.6719777629371,91.61477394707148,3.702474493446327
119.54045205304537,95.18270845778137,5.129385588568201
88.61820225818212,92.72239420400707,4.703888744762951
57.971179282109034,85.15090911444686,3.0101084398638656
2.660185198025242,12.413039893777736,1.1540097947802348
1.1698523403821683,15.791210294067756,0.37893677503031964
1.945396883589138,14.939634889920319,0.9257031974477782
6.310793781402388,9.462647996476143,2.4439207665081875
11.153171825850018,0.20630405804607493,3.7288848527184175
15.583368938044387,11.107461501929837,4.4743158888930195
18.81109336913728,22.395942261546924,4.606972554584022
20.185335140903263,31.704788982768537,4.159098666564659
19.115888716379175,37.399924580105775,3.238876828160872
15.019410613104863,38.21360790685334,2.048602779001123
7.4473372184434385,33.221137369365294,0.7973754875888831
3.6058253637830786,21.71422920167586,0.36920282948891575
17.383546797207494,3.237702799460366,1.392668846709253
32.23126126563828,21.363001310449366,2.20451904135158
45.69337429800341,48.826563141808535,2.668246480423223
54.910149851672934,74.20819943744618,2.7276673642748075
57.40387264313914,92.33182741806269,2.4442437919725397
51.90052112938325,99.02926098371395,1.9945092048374558
38.73714387395731,92.3995324984389,1.727353706118498
19.77596460071062,73.13011184499594,1.9948191630280039
2.0911266423279757,44.03434307098009,2.951428668752242
23.594667427728925,9.235800946055944,4.503371557972865
41.650424378850126,26.88455838969677,6.290551875041181
53.779398923185845,60.33027589465853,7.813419498973865
58.4243794078508,87.79861179924623,8.700772053082583
55.22613511269023,106.75778916333688,8.77368207152301
45.16268427212708,115.4288277146348,7.908986105502991
30.399575273665576,112.9619764584398,6.1076601570100815
13.793313298796162,99.68517350623674,3.606480814729613
1.882490159278845,77.33134669772559,0.7888702118142131
14.687343700559753,48.99597623526506,1.9110063048215142
23.899909380591374,18.669849812680862,4.132765134761216
29.873707536798754,9.533334527096269,5.620839559438913
33.461961226459586,32.27981665879536,6.164226972938412
35.35625546740619,47.69999366323305,5.732432228607716
