2.0399877289734336,3.6406719123821634,2.4972679313411064
4.759073254946787,7.803578328210395,2.4450061662359244
7.553858803090432,11.97139262511493,2.1321540347979626
9.857465077777176,15.267371339772795,1.5481875992405298
11.073418155116686,16.798440842046414,0.71233008691518
10.693510539611383,15.830494689714932,0.3308761017088392
8.411277941962496,11.951850646589941,1.514344577149925
4.197930595010348,5.177162146845987,2.7425569875366937
1.6444101680709826,3.983545149575785,3.9012539322297424
8.495599373528824,14.546996850917857,4.87022968450608
15.480137716487766,25.151874222662954,5.539246840807899
21.53108974369028,34.16008532648999,5.845160462675238
25.48192184628023,39.8030711986121,5.800263998147832
26.37044763813761,40.645563862410135,5.45419336938534
23.777934162670558,36.09577038309045,4.837669814342904
17.835932214613486,26.422221135042793,3.9821290680562753
9.163058057713029,12.65859326003085,2.9406151933768183
1.1698059339016653,3.4733467095220236,1.7688795267035644
11.827277726011882,19.87582481729065,0.5360672724650373
21.38986191849128,34.3653822276593,0.6731541977528505
28.54499659488109,44.96712636191812,1.7819345669157278
32.29807174477436,50.22996657605354,2.7289661098936224
32.10642985618882,49.409087181172175,3.4671362546275866
27.972468917124765,42.58362757264835,3.9657456708958594
20.44175940005898,30.64811281454294,4.221598100079777
10.524165227565096,15.187283717263579,4.25777560657863
0.4403480486468813,1.7255536882527904,4.1041293651797615
10.979414393310838,17.818912134820938,3.7931194788959064
19.685813640362795,30.934112103734186,3.3667713783295175
25.410555645223525,39.330713724555565,2.8743468366582614
27.421751761355203,41.92429078530119,2.372224374464739
25.49853233228643,38.431760200029196,1.9206149302457525
19.961253233865595,29.424069875938795,1.5685780430048768
11.625854555429578,16.24812656551505,1.3453141229877115
1.7020571617603015,0.8385621401938329,1.2540003042992482
8.368022671662157,14.557842722957629,1.2687757055726372
17.124689964894376,27.704579247081693,1.3498160704577054
23.29856367717844,36.69311112402971,1.4580324786434358
25.987753249481194,40.219930754178954,1.5545429055364932
24.795146413855228,37.76536506800104,1.597089880772983
19.888540467329076,29.653425869235093,1.5396435774384334
11.970257670323264,17.004558079924852,1.341668799241888
2.1683771419420794,1.5805708476549567,0.9875591122049144
8.13082739146744,14.462087038569173,0.48831929572896576
17.480347548442236,28.871470344623685,0.12923005212317717
24.570129805097718,39.61485314763041,0.815256279305248
28.40331910881652,45.16684186381974,1.4989498242881165
28.4344177958622,44.72201271670773,2.1121321285183443
24.646883647983447,38.31065582587253,2.5939312281332745
17.555638924091905,26.807010922426265,2.8902994719408523
8.136981318800276,11.806682408676803,2.9755638700562734
2.3024803564781555,4.608356995287582,2.8562112721426187
12.304520687692474,20.165060047846143,2.561256003695958
20.472303668028843,32.72139965891697,2.1450092827422864
25.676311390304388,40.56866045496002,1.6695594200919368
27.210782163424078,42.66492444687799,1.195212446209615
24.89294483411808,38.76974753229325,0.7887941279136489
19.085121383800256,29.466281770547514,0.5035557094870122
10.634670616914294,16.084482722829513,0.3713018186376056
0.7532147921737692,0.5224269187127694,0.402020048938803
9.15683814082566,15.019426095206589,0.5729817783451153
17.697366799586547,28.341245203432077,0.8475050761316981
23.662014154385798,37.55182987526709,1.1789855798612714
26.200568445004233,41.33654731777509,1.5012613949394007
24.938617634913783,39.14287957509138,1.743132762283047
20.038776849000627,31.261624240980943,1.8423288207148485
12.182263625011466,18.790824943281464,1.7582665784796259
2.472236654153961,3.4847216800228753,1.47868822158479
7.717700484295727,12.498393232392544,1.0210194359404148
16.934134700661467,26.904272502647174,0.42889919946313226
23.853904420450085,37.700061263723875,0.23413490945793547
27.480176261497437,43.36376349491146,0.8934904073557501
27.286755663591055,43.095714535121786,1.4906509498695588
23.293119556250694,36.922308019681836,1.9807835132415401
16.05476537850157,25.68861481092032,2.315442290008821
6.574807412937266,10.942894590810313,2.46195953500931
3.8315638155518137,5.276954467084813,2.4107817323209297
13.716528895680085,20.72629307899119,2.1760613381689677
21.704268575728314,33.262273857122835,1.8029960444862414
26.678895609461925,41.139831452965815,1.3502139657480448
27.937121373730154,43.260319014721716,0.8794960086266655
25.28910032018422,39.33201106985255,0.4544808141611937
19.094645425826574,29.912974782613226,0.12499542005082248
10.218604089794084,16.33607001362076,0.08274975007468176
0.0985231258031205,0.5252321071387175,0.1674278829530754
10.413861957692612,15.281733175601598,0.147767511668338
19.28024527001966,28.85795247839172,0.05440176910825411
25.458418491780964,38.302663494756295,0.07306028898279533
28.09215803247686,42.30644778323026,0.1937155983006205
26.82066932540443,40.329988920276136,0.277479141728281
21.82796755261963,32.66772972276855,0.3042704717655138
13.81486093193489,20.399457012137137,0.2581207833662864
3.896678722406953,5.244948134007946,0.13353936362665417
6.549633070964868,10.669314455072632,0.06126907198566174
16.07378369110619,25.1071180748128,0.30671751324500857
23.354173579985666,36.03558516182884,0.5709758326865747
27.381689435763814,41.908795418017164,0.8175488515739504
27.602888789550693,41.886115001894204,1.009477526252166
24.000445824925475,35.95666395144001,1.1066101590289759
17.096485518468988,24.94778201177741,1.0775052784259855
7.877772386965631,10.40690183822013,0.9144977755888298
2.3505753974125065,5.615609426877886,0.6332398019189263
12.149934109530745,20.85451199480153,0.2667557197441187
20.14278082393733,33.16026358171122,0.14129140038022808
25.207948221306513,40.80476057329324,0.5436137112778989
26.6405604778828,42.71725822504619,0.8916183652406114
24.246842572456647,38.631038695887646,1.141206662178056
18.373076946569537,29.11677980888985,1.2604346641549042
9.856193381475087,15.502129359859698,1.23082117044637
0.09730014725753296,0.30983555210223745,1.0465368273469402
10.080461620474281,16.104837108451292,0.7166026922676838
18.68360599202834,29.666609095161537,0.27084371531210377
24.687504650966446,39.08998885983396,0.23783802046619343
27.23284125113425,43.05070614615413,0.745067400227755
25.943372654321394,40.9871658436155,1.1869230958753123
20.978189722054783,33.186008220109365,1.5018566626369085
13.014756556278845,20.753865359027532,1.6474261178800174
3.1565686766497554,5.455080417466449,1.6121263534216872
7.226814321793706,10.543133195422541,1.4039509359087725
16.691317994549028,24.975529020206608,1.0527297638444555
23.91756765723659,35.80870453898813,0.6099483407591831
27.898047476000677,41.53414552473723,0.13503631973212568
28.082241377941475,41.36576594615232,0.313894197677336
24.452104485502005,35.33773954125831,0.6922789178147045
17.520319557371867,24.305879805663746,0.969528088359389
8.258352605652021,9.832534420749846,1.1279060162774746
2.037582827510003,6.037063460676397,1.1662984839296942
11.925904289279977,21.064787254435508,1.0906529038048252
20.024289568381153,33.12926152299561,0.9201141663777697
25.205623936789774,40.51886761436577,0.6939582463541409
26.753445529703285,42.17285902587341,0.45516116309837074
24.46718755039224,37.83026338463256,0.24417618014745687
18.6912588843293,28.073499392761576,0.09507644321348446
10.260175701444242,14.257117996373568,0.02884911263537839
0.3844481462133347,1.686727891589149,0.04876840191075208
9.518956796942835,17.523551632275463,0.13448267317894208
18.032242748717643,31.025349462095217,0.2542029268390296
23.93346498483462,40.28932771135596,0.373951340241079
26.366275090078393,44.01278104895632,0.45877498405368883
24.96493627992343,41.669199511760375,0.48225411753031766
19.906330831627415,33.57612447298187,0.4253025590729243
11.88638624531773,20.8527920553016,0.273954601253685
2.0355443252517444,5.286042382313006,0.033233822748977904
8.312649953166588,11.034408615078334,0.27177603462103517
17.88962847298038,26.13319327997168,0.6082331090409147
25.654198936172758,38.38874280616098,0.9396734826104197
30.904038923633678,46.704379787431996,1.2235131156680479
33.32988081373277,50.599813717227185,1.4207161401458643
33.01183421460099,50.20833084311053,1.5119754683887576
30.363270393289877,46.18768948264506,1.4963069140727672
2.121192452615675,3.609307223003339,2.782742203004266
4.777118660602759,7.770728933363498,2.698725976241175
7.488825691573893,11.954546879209175,2.3248209150805543
9.699887616496408,15.281613551637912,1.6550212007628984
10.827566336763923,16.851249116341922,0.7119356703376378
10.379121261289727,15.915786767004189,0.44675021755672223
8.05998548100941,12.049601985567572,1.73826297855059
3.850986373081425,5.260089014541294,3.06040902388208
1.940131474006576,3.9417290347525396,4.3026029277519955
8.697051291492913,14.569344258555718,5.354964407803721
15.555516794439633,25.258221945069028,6.10864080421226
21.46590760999924,34.36215789877116,6.488404394187045
25.285414903538243,40.09937114004236,6.50224426276531
26.07063644614783,41.01332718587461,6.208531965692907
23.40664660974232,36.4832911432322,5.639457426948308
17.426932874683708,26.756778677184116,4.810710346404102
8.760710571490016,12.864983261556505,3.756432460548573
1.5125065236073476,3.4557202036636663,2.5236623278471844
12.057030449582735,20.074010385010038,1.1745891262842554
21.46219586083055,34.75937264971472,0.21664702722223153
28.437862682259734,45.499561978846444,1.5709869892667119
32.02121568725023,50.82563169856632,2.807250184383468
31.69831448232435,49.98786609492811,3.8592651529946416
27.48891540132714,43.07367988011396,4.683197841190092
19.943460756325432,30.99938645337413,5.256188416247096
10.065917359899215,15.377032620090512,5.568913811125233
0.8154619124091227,1.7011597192121153,5.621205099129174
11.236240143894195,17.95306491223875,5.440349841335462
19.795089924890792,31.203942210683007,5.07413007234956
25.355018790212284,39.69634367468701,4.567807611984363
27.19802750203788,42.3386197537221,3.9755053135291436
25.1216061269279,38.84719331112292,3.3647488473226272
19.474523128373253,29.803784255258442,2.8000763580463297
11.100833402287368,16.58122751649297,2.3298928700481842
1.2204639901517267,1.1371457701096686,1.9721405415648388
8.740785828611486,14.276345583559664,1.7156776864891699
17.351532345543095,27.433164532345717,1.5309405624398473
23.37242120963589,36.442248606561385,1.3765077527649334
25.932050018167214,40.01318374215413,1.213298672741328
24.648907455747395,37.63049339268955,1.0065725662572174
19.68707478293318,29.61385294498262,0.7248899098845356
11.737668563311557,17.07483834639988,0.34868803864896025
1.9236948601625457,1.766862728493638,0.13575875797540218
8.359409983520726,14.165920516193067,0.7278672425674518
17.648295638489678,28.482731601959777,1.3883715759550206
24.622834396068033,39.14873998555054,2.056543297856826
28.29468128284857,44.63362577779246,2.676477609910438
28.13967777750578,44.13626044292691,3.1908333140681746
24.16080077703352,37.690133203314176,3.54876074419054
16.893930294129,26.165810109224626,3.7246611140471457
7.334642838642346,11.160011121303553,3.7164681600253804
3.1978886178309103,5.239606601555974,3.5445721445331726
13.234359343119289,20.759525101208784,3.246607703442945
21.36721486052741,33.253068709853615,2.864264659162795
26.45308893193376,40.99556886822391,2.442471944338448
27.77634659042965,42.92796364346163,2.0218562744914395
25.158906671416762,38.80303376804531,1.6285922678167284
18.985974697670343,29.21670164939123,1.287553489372608
10.144242035687894,15.526101086770236,1.020455941895913
0.10905839238524676,0.33892538910152586,0.8328242323103984
10.322503105904417,16.147005666941126,0.7190275997640588
19.063419436945004,29.674171937329334,0.6564314155184028
25.11926009166968,39.00823005905587,0.6165655510633944
27.649378540391975,42.82193692697614,0.5818923416134756
26.30222726784431,40.566354065853155,0.5220790709308641
21.265283303991275,32.54267126620223,0.39688054808752493
13.237704127382655,19.862602371717017,0.18422483482362192
3.3439740601390513,4.301483210185434,0.11966925169072433
7.025305306919182,11.95616741524989,0.5024682351521829
16.411534626663585,26.635188564687926,0.9356411637636938
23.494057935195457,37.69275873878585,1.3796790856372065
27.285465750523482,43.601331281529575,1.7869435916714882
27.26799044965703,43.55701783573531,2.1075862090721706
23.462221394879492,37.58649047782961,2.3020910032304878
16.42232163615776,26.539138430717394,2.344097756440559
7.148698955097476,11.96869491153495,2.2168637254214203
3.0558380321186687,4.0823896692913655,1.9251855233740072
12.765728437553129,19.36828507589171,1.4973375879296853
20.629705279587217,31.74868687240914,0.9785128293613203
25.557252944359405,39.48997892185948,0.4341423044931097
26.862286133380636,41.51793219407984,0.06252457671576825
24.353329647962077,37.56963239248996,0.44756912337134014
18.367043740462098,28.22959059994689,0.6706321001525615
9.728318077362696,14.847774087817513,0.7022953028055867
0.35536478662141424,0.6521747671592871,0.5472915052847696
10.461247063403873,16.04983254402755,0.239725596062298
19.162984244232145,29.148289181924156,0.17565635675274452
25.231113675944048,38.081419267055566,0.6460349794510989
27.805578750990357,41.571912891179124,1.1110870499947916
26.524865077515962,39.10783229301025,1.5098676012577537
21.572654201419237,31.014609343835303,1.7839827974642304
13.644677842412472,18.41198180301461,1.8838456821083385
3.8484899180087324,3.057079892248507,1.7817620239402103
6.451506847512713,12.898199862296533,1.4817473791314526
15.823688664302734,27.212341198406733,1.0112133573774262
22.9691455233704,37.87296396116257,0.41892531173830033
26.8958426888915,43.375907433657595,0.22148567882432615
27.055303001777894,42.93702050188488,0.834794023648737
23.425627688613492,36.59494314649276,1.3614571743530284
16.518729617550747,25.204851720100308,1.7521021622022497
7.314759496981703,10.332562106179056,1.9693953318541753
2.8723090924789108,5.962877296835461,2.002969681608544
12.58540385284848,21.420266905852877,1.8739767495934705
20.442846910788436,33.89278845322545,1.6165366906523717
25.333584062332307,41.65277426638811,1.2738493913381987
26.566206134375083,43.63489357034706,0.9034560680013705
23.97228797211302,39.57930425624207,0.5590545347698973
17.923108078813453,30.064325487873482,0.284543656373123
9.266126318227355,16.427939476955313,0.11659545159620903
0.784955458901739,0.5772166355994911,0.07205307630810015
10.819087436452474,15.276959852306955,0.1464900585223156
19.427961732441897,28.91985559982701,0.31941476668589747
25.395584311564182,38.44718665452935,0.5490780569681978
27.867963651139966,42.53025958381868,0.7789066582901244
26.47777308710847,40.5971535666132,0.9575668706589497
21.40121706650636,32.925843322662054,1.0462288821519554
13.336491715065282,20.610165644446504,1.0154440752097869
3.402530990881249,5.407377320805645,0.8454379221541576
7.020818148635022,10.511503306741014,0.5358663127240015
16.48652816255809,24.88526372919442,0.11207706112531739
23.684850335433453,35.685127127076456,0.3836255910386897
27.62628460395525,41.39645417075533,0.8985109860334389
27.777553344307567,41.22877970463306,1.3734667812082906
24.13684312433574,35.21352491643248,1.752789549392377
17.22683876224751,24.19446935460439,1.9917775960924369
8.013761829392287,9.716208522193549,2.0591268552628774
2.2182399125252426,6.187610147267905,1.9458685646203224
12.040503298639518,21.275163114863386,1.6711277828698425
20.08409009625275,33.40966646872056,1.2730724844292007
25.228429775301244,40.8668604117301,0.8075619688648985
26.75484193379997,42.581974927464294,0.33634379900138134
24.45457058280401,38.29528370093044,0.09436652002439333
18.664074088629192,28.59351073064912,0.44075457368161153
10.215156803880141,14.835916124418025,0.6599697106131331
0.3115673424147837,1.0474957275209729,0.7362505827398657
9.643910425534168,16.83285100180832,0.6782755433352784
18.24020940593659,30.3048981469984,0.5141962884849111
24.253966034773196,39.57201267594846,0.2902135714200606
26.826657758975728,43.33490228492968,0.051453654843526306
25.584549060293607,41.06404010954391,0.15864826070102267
20.69075900638583,33.074733572856076,0.2965246739456566
12.820768600939099,20.480125974534513,0.33220868863115016
3.0820058678771307,5.054193532594849,0.2629318284716651
7.206499288166058,11.124139037161582,0.10929359921750562
16.780827417429226,26.081336875856337,0.1017248977382034
24.594265193429997,38.197665571476044,0.34126422430363107
29.930702896044014,46.39011026938521,0.5762349896570831
32.4675671828367,50.19642624506662,0.7738551194022613
32.276581879210696,49.75994871289025,0.9094403237381141
29.764667468518173,45.739064089295695,0.9658273151520951
2.505242434112044,3.557063388185669,2.580214042222507
5.160240568780602,7.6622036397841935,2.4903968596342545
7.822221885348488,11.788036098476125,2.1296605937679582
9.934380111632096,15.068115351208174,1.4976488128185903
10.923075729965127,16.615151060874656,0.6200932819636242
10.305922233596373,15.692344435935235,0.45551059856831305
7.800899025890883,11.879000415736146,1.659679975707128
3.4020435722425453,5.177467395937642,2.8961901724660644
2.5692700278477476,3.914066201656486,4.054832312568923
9.476666876629363,14.42109266616255,5.023386559005968
16.435382877328006,24.991862508821363,5.697558706938935
22.3872907674621,33.99485564767423,6.01249513814443
26.193658770789252,39.66154191743172,5.979519355911076
26.92273302787264,40.55273316912016,5.652239741923064
24.175816211402303,36.066160299552216,5.0540879439472
18.100491684425283,26.451278365582176,4.202760631656955
9.330962831065248,12.719793817427478,3.150370709764441
1.0567083070628676,3.420283585652915,1.9566932920477904
11.728513883190239,19.869439543240407,0.6886317592394198
21.268194589851273,34.43067276204807,0.5758082307532132
28.379794804646735,45.113506543353644,1.7610523055798037
32.09692109048585,50.454366731673936,2.792752220613144
31.904668411773507,49.700084732241606,3.6102896002435743
27.829859124155387,42.924670253739166,4.183027499626076
20.437034754005634,31.018591282442607,4.512455094794227
10.744419700062217,15.566915042627496,4.622508670560351
0.08401730549886369,1.352859292624904,4.541539986618779
10.094361131015797,17.469887163915995,4.300629480507916
18.416169096703708,30.630495057806563,3.941780648777653
23.77309499069147,39.09576267002317,3.514067177184332
25.46967103674951,41.78296941183086,3.06815453055184
23.316422278141385,38.414073886342024,2.6496483915131592
17.669341204614984,29.559930964096136,2.291999180274703
9.37467526230498,16.55970527540521,2.0105870623788813
0.3492886189409785,1.3337778015263018,1.799128055359701
10.079291647991,13.893024245231402,1.6473970338686166
18.391114846743463,26.91133738082563,1.541178995397513
24.06333038990059,35.83484789380727,1.446116908010379
26.252228281040964,39.3665902182348,1.3226420589315546
24.604775674115018,36.98354971491324,1.134381354914569
19.307853277104503,29.001685054358475,0.8531319303901201
11.066544559345868,16.521378769853893,0.46665086533285316
1.0014207605291015,1.2800399530197724,0.027063864845001295
9.510452011512283,14.58316680381464,0.6132894831117561
19.024778268411257,28.831819643950244,1.2577162445772663
26.225710267229466,39.4456033072833,1.9055460434963665
30.109448200715438,44.90231372723739,2.490063995509751
30.132533124767747,44.39390291976941,2.9553012348852445
26.28641378896657,37.94318623251807,3.2532832784761943
19.09328189807948,26.412011293088625,3.3522711654721062
9.537605661524672,11.384770839271738,3.249501062651264
1.0647669137121774,5.0590281239186385,2.9596620695582314
11.245834033466716,20.63780147918884,2.5177097502823194
19.59517780441865,33.19620216068779,1.97851375502643
24.966232708699167,41.01659944171693,1.4114390053153574
26.63594819181521,43.050295178869135,0.8912547729859062
24.406582986843095,39.05416958825626,0.47275420886630704
18.63507867287478,29.626349380259434,0.18402696963760037
10.177797368245013,16.117434958433357,0.032452600019099796
0.267925104671991,0.43856733180275687,0.009727914083702606
9.66194015095761,15.196196744651925,0.0925871261441536
18.183677175984965,28.574581883253035,0.2494870767938781
24.067420033665776,37.80040323900063,0.45480450980277887
26.453456171176267,41.562429509509826,0.6749915921813953
24.975408046456142,39.31469941422193,0.8633833305908015
19.813265039984397,31.359625277391913,0.9714766810654222
11.671424977081223,18.81755935700132,0.951763130709545
1.679525311303617,3.4641130913909324,0.7774012530384653
8.763007350459596,12.5290940502275,0.4495450032956275
18.18534364008946,26.903847170717125,0.015188557372653627
25.26159654206842,37.63652209081997,0.578720137257062
29.00009954881725,43.22371049873418,1.1708323224999078
28.882759447027993,42.88421930111109,1.7123097978640904
24.934830074042925,36.65604694347218,2.14321922288626
17.712412895162828,25.39664665651055,2.4106235332600887
8.217662397966047,10.669991553830187,2.4681235839816136
2.241031368540622,5.478693005681354,2.2963505296461606
12.225666395101634,20.80679192001365,1.9042914784680647
20.36424186322451,33.18100823611541,1.326842246383716
25.54200559570045,40.878937241319164,0.6181220328231537
27.05733575110802,42.83114768259607,0.14322976607085883
24.720657469875597,38.76683415248473,0.8505641880815489
18.883143054811313,29.260487580534495,1.4078497168731217
10.389795529770172,15.666105267094045,1.7579773631275628
0.46083146848094847,0.08112485903998393,1.8783924204721474
9.487387685986885,15.752348287099512,1.7777954391558237
18.043733950098297,29.135707479206257,1.4910233327955527
23.995537785071665,38.34830837171171,1.0727730455372282
26.49769078546471,42.10655914709072,0.5950933833342639
25.189117076157157,39.897495691464265,0.13432165126354928
20.24224113782922,32.040176106727635,0.2538442590552907
12.338198183673482,19.640694548307128,0.538725773866601
2.5719525441539384,4.442116655062664,0.7032497073606071
7.694871691992883,11.419332652209839,0.7528957949292442
17.022181741437397,25.71342964261762,0.7144888182335842
24.095740418796552,36.4216831975197,0.6193109585853757
27.91449789439024,42.02181142421963,0.5090476682521338
27.934937296394,41.70739053566267,0.4324239843752019
24.14866359579137,35.5022896622039,0.4231306968580501
17.079319505828114,24.26669094693665,0.496279584501615
7.704241712658066,9.583997186672958,0.6497231306451858
2.6799872262721087,6.470125857817597,0.864622083056867
12.636418276313334,21.62951240672186,1.1145654165021481
20.789567780009413,33.75847977546209,1.3649322524131728
26.01264095052497,41.15209380543238,1.5666177944093749
27.58425079191677,42.7740590596349,1.6637349332270523
25.29328768221477,38.396497822547076,1.6164310981100543
19.469390716845645,28.623636250312774,1.412717639157943
10.942296963983194,14.809325182049918,1.057925134744717
0.9267429861398432,1.1221986008576936,0.5710687886841054
9.15519842757947,16.94532438021261,0.013233913031473428
17.877753200408364,30.444461568929505,0.6491815080726506
24.01121532817514,39.722525186923846,1.2873705978485637
26.692717184511466,43.473421491213664,1.876777425754008
25.542619196423505,41.16822201733067,2.3591390505050294
20.71497013835957,33.12747133802822,2.685950203591778
12.879029136015424,20.477398184355255,2.8295811350283286
3.1300380128281318,4.995729471528879,2.771198687479982
7.156074081619753,11.136694513591026,2.5064147699342265
16.513189607169227,25.648290270458695,2.05327056141335
23.599907492383124,36.50406378609596,1.4563878642485384
27.39274117600626,42.19278468562324,0.7815161338282272
27.331017230908756,41.93192878929163,0.09554032924528892
23.399860887700747,35.77099395148784,0.5414380480072417
16.1368840876714,24.58362813377395,1.0832867459525268
6.556981008617298,9.945836596454082,1.4959381372728047
3.9967287874538906,6.082023652574108,1.747846895765061
14.045820499167325,21.239323105868543,1.822049118186014
22.183969056714698,33.383324307756055,1.7258360166781452
27.274598549833424,40.79594827152708,1.482422901679645
28.608838284840974,42.42729014110156,1.1296792356659926
26.001778248421846,38.04203985692979,0.7253750204303717
19.81605154990189,28.254027640779974,0.3304522090124575
10.913287944830966,14.442186197750525,0.007784601788184759
0.5370804458641874,1.445385714310852,0.2543089215376609
9.860406311523313,17.166562968763742,0.38915852563191256
18.82453452200013,30.505189429555493,0.4078607867468218
25.11044518995167,39.59118278750586,0.33232769828016123
27.85628927202088,43.16088257592181,0.21031814042295413
26.696146424980537,40.72491864754614,0.08111462980810989
21.813499628878287,32.62744254090753,0.02791770981806316
13.91511864964633,19.99803589219975,0.08885191290912896
4.140308604472449,4.615465818182655,0.08814235919711742
6.1762802127224825,11.452331890727853,0.02487904677532779
15.772231885080814,26.25574897850928,0.09611604223589554
23.608088168163746,38.204799384821904,0.25500290476054427
28.980059602464227,46.242076014615975,0.41995166622708496
31.577615483226726,49.92678502079726,0.5600176456597235
31.4745823098237,49.417656281796546,0.652474004134723
29.070666912805862,45.3779725974545,0.6859894724455374
2.2126964071323103,3.7748161222218326,2.4393375695289197
4.924971020021675,7.909613588542521,2.379261196668986
7.679618206470965,12.028273039893662,2.0772425595907458
9.90992014274734,15.25850280049158,1.52493618099606
11.025004739067686,16.712468846947345,0.739004281237581
10.526773977934782,15.660532594482268,0.24220911929329425
8.123674876702683,11.699645838257055,1.3549054362935624
3.8039068360143693,4.855847096578472,2.511299262082875
2.1154437698610984,4.347341254393145,3.615367764145564
9.004772768956204,14.914481229990662,4.5678747094178345
15.981508081066508,25.481081217078508,5.277160901202125
21.974035054582515,34.41164583166392,5.687205068892811
25.819045314357744,39.943912671722394,5.805660394677028
26.56477887214154,40.6574613195839,5.673605649522565
23.807111654975895,35.9818389580526,5.300691172434332
17.69792482863472,26.201615035622417,4.68092989656992
8.880789389226443,12.356297908056892,3.8288415582458337
1.5534395455645793,3.8266758420868263,2.775077432912395
12.257355258013446,20.237070664525195,1.5669796599527681
21.805597162793696,34.680994370603244,0.2643376177790493
28.895712049789562,45.186683512754456,1.0615132470393025
32.55656200583065,50.31690765572078,2.3321215412043794
32.265630020650335,49.34763404626539,3.4724839936142065
28.043144970100926,42.38646426660944,4.416444746226284
20.453078570034485,30.356106299796263,5.117297226632277
10.518026202804853,14.860848387111533,5.543053307789513
0.4134385801995267,2.0186730789293024,5.6776427246403784
10.86451814405415,18.019305065299484,5.528173406658079
19.436793647486606,31.00220261536452,5.119556667519482
25.00611071108212,39.2500891390629,4.5013744848813015
26.87072210606243,41.7023863802787,3.7453165374886996
24.840123989998883,38.09373625566631,2.936127196485965
19.269808457130814,29.007433688331798,2.1668016045196232
11.005923438160183,15.802805343571382,1.5132452239416778
1.2619085552908693,0.41748902549204364,1.0112112938056705
8.546809700628623,14.908390721433136,0.6618710730125366
16.99807620849995,27.95085205956572,0.4536642030901143
22.86348184212742,36.82111188511085,0.36325494346005505
25.288509760773326,40.23524380239113,0.34507670482980407
23.913963950129446,37.69081305479162,0.3441430529664424
18.926988382844286,29.525388610799187,0.3087872948091182
11.03716275142701,16.864534888922122,0.19185527114758263
1.3666398531270632,1.4674935664432822,0.04408957571290447
8.719508654209774,14.518066934717039,0.4112731820901394
17.80649690212039,28.851681160713653,0.8894736990928226
24.624030415846814,39.51465545890277,1.4362447479626208
28.21516863184311,44.99935572324667,1.9916334436070533
28.061679347443697,44.51270428271619,2.485699515401241
24.160061557243928,38.0847484697389,2.8520786593441865
17.028874177494863,26.58347978765914,3.0394299897392187
7.637247116979368,11.604666011447756,3.0241514803319607
2.7252288000167955,4.764074805935811,2.8121192250785416
12.6266283124757,20.24327209113864,2.4309682518994538
20.69537578433295,32.67907453430103,1.920199405835988
25.80790959123288,40.356822841042785,1.3297803470249614
27.25413832150128,42.243212165678194,0.727176177794848
24.8451435522922,38.11397488386643,0.19195011094986308
18.929584900039718,28.577199076020324,0.20227796005904286
10.343892492315424,14.992525835030596,0.40999478268834494
0.29817053530770127,0.7134292779256632,0.4215250625587882
9.796341368218233,16.315733979893565,0.25977498889668843
18.522007459898358,29.598915092275835,0.02162081868724564
24.645470335244188,38.667763603830934,0.360314846012729
27.286373326813198,42.217385318986665,0.6995447388872296
26.048317564039362,39.711973540862495,0.9807331841800079
21.08222829653783,31.46797246468783,1.1509822911354823
13.067502515690164,18.620495850436214,1.1751024807537032
3.1175389267714695,2.959792781559153,1.0458079068958865
7.377830901562848,13.32149661525762,0.7818968458044897
16.94892729717375,27.93914461215317,0.41618045377506496
24.25721161417251,38.84593697382441,0.0033278664429271265
28.281835975125485,44.520626565406175,0.3898487998530933
28.459123871808096,44.17384092879964,0.7108139173828574
24.76816485204881,37.850430013271925,0.9234669999147133
17.732494129295834,26.42631595304771,1.0069989650626152
8.340297810193011,11.493765091373234,0.9573213445003971
2.092470638591559,4.862864312456953,0.7929902281644331
12.109671893306743,20.366160234530113,0.5535452569329594
20.323212941095875,32.864779528692885,0.2787292534668663
25.602175147988273,40.63193826070602,0.007364055004431066
27.224673314764825,42.603979132206014,0.21438780849132105
24.981942803938253,38.526183012922786,0.3352915260960854
19.211211475305262,28.996177156603963,0.30933069197098423
10.74427886109412,15.38149537501285,0.11942454053745788
0.7901141745418793,0.37999020913747533,0.21730374216532006
9.235657897676862,16.045451993932314,0.6617564930131011
17.912427585936,29.380998062873896,1.162145505612002
24.01188850413687,38.490534411491424,1.6602647742783296
26.67030091420995,42.08546275028989,2.0918496205862964
25.512810366525102,39.65917047482254,2.3977666785296976
20.70681586221517,31.555719519282075,2.531794999019331
12.935546584775288,18.919339299312032,2.4582343284694184
3.299924955941394,3.5293363613432422,2.1637943842935856
6.83693867416359,12.451989033686392,1.6724166120058264
16.04382133697492,26.780712602543357,1.0439473498154475
23.022353719023595,37.446368575889345,0.3513550727341853
26.78488041025664,42.9521185947238,0.3367026438223104
26.790976552662777,42.51881476704067,0.9515066563711536
23.028642741934682,36.19337905855341,1.4316101574854971
16.021908745522943,24.852093568757244,1.7410325626164043
6.756441792466294,10.0890175355365,1.874193835906327
3.4616473939719383,6.016984305220826,1.8542478108365297
13.18714128149787,21.19995664384831,1.7223107796302535
21.039408105416292,33.32158675700594,1.517079283458658
25.90405153396891,40.686127057162075,1.2703240170723562
27.091028257753155,42.27987338164443,1.014979116037873
24.429280962625583,37.8966886719315,0.7823364495491875
18.29129095884539,28.162231527231423,0.5926544971754601
9.539527547417086,14.44792943965587,0.45098980240946607
0.5960481546132734,1.321230440528552,0.35043542651159965
10.691685947972081,16.93206513445058,0.27612887501292044
19.331809801401786,30.183487134861604,0.2106890677486003
25.306658705442626,39.19892053595952,0.14969003590732588
27.7748047734516,42.69752198996628,0.10217244556958562
26.380268050613676,40.16546046553437,0.0686988194332089
21.310604256391535,31.932244510543256,0.038818954529302965
13.268364404954527,19.138939680614538,0.00048768251431700947
3.3688377985057754,3.5755458615484956,0.06308167050447572
7.011662829566531,12.573313814885225,0.15266024792090022
16.42947487042876,27.040203249670743,0.26423553746311385
23.574936026376463,37.80048102490663,0.3928028431300383
27.455370505045657,43.352448215717494,0.5277382387467845
27.537057747972206,42.92719965930266,0.6538075110249255
23.814789058711785,36.5894215883891,0.7493509462416486
16.81188623895295,25.218587199243345,0.7823613845308622
7.508788160744766,10.395179394053526,0.7291295389701691
2.7969284609915364,5.813744921363315,0.5862703612834642
12.671017351638627,21.14716660345554,0.3653343482880774
20.74171860658484,33.46636175146814,0.09192462619519166
25.88758200741632,41.05445640915908,0.20066598022869156
27.389223897245206,42.86196756256989,0.47847089909940677
25.034955368633078,38.65165670658402,0.7024438864706799
19.159746980018586,29.02808614124266,0.8283350598266925
10.594934854932673,15.363206050130293,0.8200171298043366
0.5473018443967876,0.4019135027800626,0.6672057056757447
9.560783522669253,16.04390048715722,0.393690876231492
18.29282463562336,29.359965060843336,0.04426515398180013
24.410174315024125,38.47780201154468,0.335648094286517
27.04536424746884,42.1262964473058,0.6967837325460738
25.828062858901713,39.80014103104295,0.986163735903181
20.940855598482244,31.82521394744711,1.1670730812807961
13.088314245660838,19.322370447335253,1.214729253498491
3.3996398793262586,4.061814670458441,1.1232234025015277
6.804636864618638,11.897893448377815,0.9227054499860783
16.270034598106616,26.6124517371003,0.656520011657073
23.964041324034024,38.49554013088538,0.3604964572950107
29.18888243745916,46.48785230806036,0.0655522613655676
31.63703244955175,50.13899286768981,0.19893444519683917
31.38922705824435,49.59918064196577,0.405724392555871
28.860399675485855,45.527612388061776,0.5343142669499629
2.4064434850274194,3.779511465300542,2.6500971746443813
5.087028517718038,7.927969132291196,2.5680419612599534
7.787920031646039,12.065691780910333,2.2093477452631562
9.947615033661284,15.31611612900909,1.5655694271317584
10.985415839979074,16.789284983549326,0.6611710642184918
10.406012149086886,15.750609684607026,0.45913972226965083
7.919237960250909,11.78725882901475,1.7166887829993112
3.517298052671416,4.919321912448861,2.99466320123142
2.4803979951067783,4.333104581245746,4.177567037204709
9.437179671085158,14.980590538863014,5.156626145728092
16.461609390925926,25.65797508089003,5.828474522003237
22.47946729796996,34.71892072917251,6.134513675032305
26.33004628833488,40.38355091406267,6.098269529569649
27.062926484675707,41.205260971414454,5.783252075569284
24.270564935061937,36.584137967427594,5.215725219061842
18.10271592804104,26.78347551264795,4.406726336507136
9.20384829977842,12.838283855860698,3.390439590045554
1.3307113764917111,3.514381623104594,2.217336334390233
12.144509695225512,20.151884415577467,0.9569951085939571
21.80536986371657,34.86369758661821,0.32139417546028404
29.00699813016776,45.65452362302121,1.5551103115355986
32.77518951490815,51.064622863545075,2.677218564752539
32.58518632434141,50.34545120838222,3.6245815097323533
28.45446410493758,43.57290008385003,4.346243480098057
20.945018601282342,31.639991636125302,4.815188176476852
11.075624552269446,16.13482551863845,5.019775791092761
0.1892386006461102,0.8650851348591887,4.966775959694209
10.242001396243863,17.087546492898323,4.697682710560692
18.82284153785586,30.36497087080822,4.268184036372705
24.42374092550498,38.9389007924635,3.738488846412436
26.332173941721912,41.7161603330018,3.1804354034010767
24.349296476263582,38.41852489703796,2.6681290077246813
18.82146226256523,29.623389812152606,2.2587404876545927
10.58674518324743,16.678519856513542,1.9767418191320467
0.8559721165930725,1.5113560912787294,1.8150548948604217
8.952596138035707,13.652486004015334,1.7426357085695672
17.410296912529564,26.6086703077125,1.7172368289904265
23.27749992236708,35.47870612731299,1.6941932445323404
25.68315902753751,38.975898000972364,1.622183180438263
24.256612102274044,36.57863361255486,1.451597500720985
19.179774033686122,28.597806509153394,1.1504223313186743
11.152643994912568,16.13593688865802,0.7101820109336183
1.29163937462141,0.9341168043666123,0.14374978976953967
9.02524042874848,14.864811259434072,0.5153449804341583
18.354862499736686,29.01816370612845,1.214313840799729
25.393411716262218,39.50669458437412,1.8969744186725837
29.152949877186895,44.82222076667883,2.5051774412734207
29.094414280107998,44.182013821784594,2.9734915536439175
25.210086818497906,37.63661940604518,3.2530712463520595
18.032491174110557,26.06211569583853,3.327142141457293
8.55779747163185,11.040120459671112,3.2045603038779586
1.89501723165557,5.362982443289962,2.913094508574255
11.869148064057384,20.884982472409536,2.492837596584399
19.976791865158518,33.38491857842036,1.9953635582823106
25.096419825689715,41.14476124610141,1.4819055188141852
26.53184003313569,43.113368834478145,1.01222297554985
24.10914042096597,39.0513594139159,0.6368756985376385
18.200779340890296,29.559262147741656,0.395573724938625
9.671176261268313,15.997552578554725,0.31225206667619393
0.2480389771028512,0.2944910393014868,0.3872468589673739
10.128935812869868,15.326517137707674,0.5965427404520549
18.549418391427036,28.650725093308253,0.8982650156226235
24.29617803275313,37.79070080051686,1.23274892387181
26.532396976763273,41.45575513328389,1.5295850819767343
24.916429125807642,39.12132290654728,1.7254065893131212
19.649581872913807,31.10771588798254,1.7768459406226704
11.446948490516496,18.545085455923576,1.6665272666744169
1.4377249169181014,3.2150880628533423,1.3906059148979888
8.997748592402429,12.702617682564755,0.9591733849853612
18.415176163861698,26.948023199401273,0.4104997213111808
25.499668850693094,37.505754293312165,0.19770152198026456
29.253321719271497,42.88519819983837,0.7967514097998271
29.139944472060595,42.32621287690287,1.3236787604674995
25.168466379073614,35.9018041809128,1.7337473615911836
17.891692586606315,24.50583468150777,1.9915338471156736
8.321290293855132,9.728354121867174,2.08034544305339
2.2139322777331913,6.3683105942427245,2.0053917885411914
12.259145448096103,21.53640415687857,1.789694950260053
20.439975648071947,33.65435571727694,1.4776300229071317
25.65282714977366,41.02808367731986,1.1183671960172619
27.21412734436891,42.6295749791786,0.7636263290544891
24.942582581129816,38.23272392549973,0.4702825326932572
19.187744451633368,28.452021079568304,0.2774116193462322
10.78604537881554,14.669651073702603,0.20693078657266037
0.9372421922690475,1.1713329842784743,0.2728173826019432
8.957378431310982,16.846051595768756,0.46711655155768517
17.48480170699965,30.15312516499905,0.7599731015346189
23.42159581142013,39.22844602489836,1.1111427458367016
25.911321119506415,42.79978613651078,1.4713332424713617
24.588193426763997,40.35925490267362,1.7840894899234527
19.632247765978747,32.241278315058345,1.9923038415932695
11.744267363642907,19.574020005262494,2.050412390551095
2.035426702698344,4.121668236535462,1.9336227917844926
8.128259884188799,11.95872542613578,1.633532733267644
17.313432241580557,26.41629777938036,1.1611680827916384
24.229145067439955,37.219745558187924,0.556848532446755
27.902211800456676,42.84804409665436,0.1177980428476482
27.804285707200787,42.506105767171036,0.7902635137250733
23.92457968912733,36.23000883138571,1.3792907933599619
16.7745148936492,24.887658763792093,1.8117141487274335
7.3296549098689745,10.070462307107253,2.0449278385021197
3.107289737947854,6.134776723956659,2.070467800665688
13.095449395274597,21.44601011710206,1.9142334124043654
21.24948251110223,33.707244815662435,1.6276708439654834
26.435403646010396,41.2029224973472,1.2694313563320145
27.939030340168106,42.89903158075996,0.909070680322925
25.56452223558724,38.572847498133605,0.6185462418916003
19.662104751212173,28.841605989995863,0.4467061967033937
11.084122704450731,15.077220535646884,0.41347640111500417
1.0570813993389885,0.7905047592065563,0.5116918250704089
8.999716059265118,16.540701371559706,0.7217690736844685
17.671603343039866,29.963330510356435,1.013479568925036
23.74863572728288,39.169270469753265,1.3296923852598839
26.38841271330821,42.862318328490844,1.6048488868835191
25.223327941370023,40.5200072131371,1.7821795868134411
20.414646531598592,32.46780126674098,1.8129067553403009
12.634143997019553,19.840998636685693,1.6706726840139783
2.974973714399727,4.423856286255653,1.3568182328223666
7.199433356085174,11.605368178204118,0.8962466163166126
16.4510444637373,25.982431898027784,0.33257710886936775
23.468659745672785,36.68065875257751,0.2830854665584202
27.24991459279049,42.201254748868294,0.8939046773883301
27.24704262205978,41.77881627542934,1.439241888410263
23.44927595722256,35.47342335838898,1.8715739039684791
16.38049733832623,24.15947381468745,2.1627877155709676
7.023938446827149,9.413483779511738,2.2934374871411367
3.3128214831559744,6.700743098689819,2.258094589464412
13.187820204770235,21.920189417273342,2.0698566432905414
21.229596088422678,34.10072781813858,1.7520475948730063
26.322034796330886,41.5215640012541,1.345722217476279
27.755938986968605,43.132598919892,0.908624381886724
25.32755397360419,38.70046454495926,0.49646806994834414
19.37431777629015,28.840328529880875,0.16042504272668887
10.733505251292723,14.938080718044121,0.0519210346786917
0.6233011021683739,1.0482576132437824,0.117019099350823
9.529186762570378,16.87379892183749,0.042734103878293524
18.29087097831383,30.31706312811142,0.14345847811475584
24.423876465443467,39.493638991599624,0.39217874338512715
27.06042821972703,43.13153373017028,0.6431585511795623
25.828906616680044,40.744780051138775,0.8414714812940278
20.905099950446353,32.689794039059336,0.9412589696837079
12.983399956924544,20.109648361718275,0.9169461808890199
3.191004363238301,4.786613843063136,0.7637259084511842
7.141262150785165,11.214925680137105,0.4941682347167631
16.74622447874544,25.950436257761485,0.14323927289686372
24.582168441204384,37.837062474639914,0.24248081178875408
29.942646533562076,45.825557908843166,0.6157339774837475
32.50727345422131,49.47826331953638,0.926498330762168
32.34256734477042,48.952508410927244,1.13362056682997
29.85011920015173,44.91059990361612,1.2182334139255298
1.9760020922778638,3.7610103236279175,2.6775644612454514
4.669940127470373,7.892884604418363,2.613518245950018
7.438144575051635,12.01635422344406,2.279052050850152
9.717454712918007,15.257901412136405,1.6626601134200591
10.91568039080131,16.72632796128297,0.7867949859036635
10.531870888837348,15.68841738069365,0.29347508966195707
8.266964579201645,11.73382256530036,1.4986485166782815
4.096407253426769,4.884642251730378,2.735965913873247
1.6778910730215009,4.334176005855873,3.90768691750406
8.441101775843265,14.927703059266662,4.914140700730194
15.326108598032686,25.527895090446016,5.665318886403706
21.278378946287962,34.490838974236766,6.103537022102229
25.146657512038562,40.04980736843129,6.234870019055719
25.976432756096262,40.778838936537376,6.09967568565932
23.34741686708239,36.09664784893625,5.709420281902007
17.394605226415244,26.284231671721706,5.066417861629272
8.747592632039751,12.391546595148316,4.194055743876724
1.5143144861921374,3.838525499793073,3.1257605781513504
12.05101494143282,20.281739635882513,1.90799040779938
21.446033038220783,34.7317456607186,0.5974933208634667
28.40616631066298,45.20994354466545,0.743934284881999
31.967849683787982,50.28299247222907,2.047362080733142
31.622408747233226,49.240997615394186,3.241278274745685
27.40232653185421,42.211198533439784,4.254934921364516
19.86877986437322,30.137623147445765,5.0290800754704135
10.030462711408346,14.644578786601564,5.529676118850892
0.7849006695665813,2.18006861003946,5.749556472322766
11.12496509297021,18.08117665438901,5.703611649812379
19.606012229737555,30.931724800462206,5.4273732488466875
25.104097730757708,39.032612063282016,4.976709634363889
26.91279919470692,41.34856575986575,4.423825960517049
24.83499680886353,37.638685000360105,3.842464805620924
19.216648024915617,28.504024951014507,3.29300795994596
10.899132190382717,15.308891094820066,2.8230535984376828
1.1032858913261538,0.012767937152574396,2.4626387437629265
8.739634412704886,15.231438915311251,2.2126376064870765
17.19557310362951,28.142494910967525,2.0418359033209232
23.03185159208143,36.881439205025515,1.9008480357155078
25.393174383585798,40.18791975660505,1.735650298563036
23.923643929145634,37.57226755462689,1.488856178932782
18.81323226944792,29.37327210478881,1.1199413215405696
10.768185240323165,16.71244447772196,0.6114614382212435
0.9117193642176228,1.340098712772503,0.03928769522707847
9.371109668606413,14.611191949731891,0.8059641040996074
18.628158389525797,28.916386821621263,1.6410582208408706
25.54377504621436,39.56116827252038,2.4854409626477625
29.122740450909827,45.03444567779489,3.263664355293241
28.835007066159164,44.54223892180091,3.8988983401440085
24.68923967535879,38.11948561563452,4.329457997655767
17.23118788348746,26.64443114437584,4.524336268997477
7.475643801590619,11.72031964336393,4.4781969302671785
3.2374088033052124,4.56274966279253,4.198984805469689
13.436188296305735,19.92784164569467,3.7224534597128534
21.72044482775985,32.23892475655465,3.108766795336634
26.959047631940777,39.810052209519995,2.4244660520146075
28.451114698706014,41.634637297948956,1.7349786117702068
26.02119216920935,37.509017861163485,1.098256625776677
20.040002002072026,28.054475248491652,0.561642168676409
11.36854178823523,14.635640109327115,0.1559965045897912
1.2367012645468238,0.8299834435853484,0.10170581328292398
8.927403192582798,16.143877323069486,0.21139056390134942
17.697480058010008,29.129396552579113,0.1974420917543044
23.847289002476348,37.92948573657397,0.0861974498176891
26.520566753057984,41.27199328349478,0.09517295108710544
25.35065117703283,38.6550143128415,0.29894766278085644
20.508301465466733,30.416375257887598,0.4747637133068874
12.677281602816917,17.694902466356435,0.5836815843003326
2.9626690232597435,2.2750590383736444,0.5982547190284193
7.263665446044736,13.674738029643825,0.5103036255315225
16.557231048826534,27.91111046349756,0.3275227974782683
23.60595798924412,38.43465316102192,0.07235665190275996
27.414569683290402,43.772926174460565,0.22184288234363658
27.445850212123574,43.17781711933507,0.5264977276536237
23.69622473400413,36.72297760180403,0.8192849887531587
16.68880945519552,25.292567387376764,1.0781425678601713
7.39754423853671,10.462209906718279,1.281551473754736
2.8861204745258577,5.715570509812897,1.4150730063522405
12.731822169441708,20.997128722356244,1.4770131728018334
20.771595547021978,33.259367656511365,1.4737225242319287
25.891097043565615,40.79202501334461,1.41520729309489
27.382122672549343,42.53791647861689,1.319169855897335
25.043730808728267,38.25171599374708,1.2193050541515926
19.211926452506752,28.543761241667198,1.155901727046166
10.716453632534995,14.79434395893454,1.1500861687496278
0.7705714619535866,1.0432932509933142,1.1983020652375693
9.201474030396083,16.724529335707867,1.2826487659687464
17.769077251867113,30.03736764566574,1.379882069462301
23.70475369774434,39.111144576999635,1.468454046781372
26.163790807120016,42.67389500634947,1.5239938930475672
24.79675633832637,40.22526316805898,1.5170034987486507
19.79503460901418,32.09834600000187,1.4233064832589086
11.866989281363637,19.41557907248618,1.226944712608934
2.135420005549267,3.9388547662235083,0.9279546909118791
8.020223611877709,12.173197308421411,0.5512524809069664
17.156277324523188,26.66355522874854,0.1243683741480317
23.972580273979926,37.49743111774167,0.33230655763181816
27.49328658629279,43.15572234942863,0.7877265314370031
27.198917841139778,42.84622087197924,1.1991498784857322
23.104242016586454,36.61296018100877,1.518659273655607
15.76020966930486,25.338972293477582,1.707146257608058
6.177667253645013,10.61940199811636,1.7491199548968066
4.311368610301203,5.476181142546146,1.652041860989121
14.2470876249351,20.69276875879734,1.4477646381577967
22.25121305689788,32.904682632388536,1.1777069025954634
27.217326747869716,40.41567822629665,0.8811087884045226
28.46719057075147,42.18826630870564,0.6064063734928005
25.840535874640402,37.98806206487758,0.4016257246937083
19.712185521185333,28.42106019948314,0.299440072501921
10.94301345459755,14.845206819411464,0.3154827186132993
0.76036718355118,0.818638800299931,0.4474909543934667
9.414298265636228,16.357170919316193,0.6750251651086501
18.161198263279015,29.582295223467117,0.963420733209383
24.25968548198744,38.63337446683495,1.2779270924370056
26.858970054116636,42.23199498277373,1.578099861632424
25.597018172771342,39.86091936169081,1.8044875260297852
20.660669883061942,31.837940416048248,1.8997807678907022
12.762323639847823,19.281741016306576,1.8275553862276246
3.030595192012639,3.9600281917340197,1.5726112601807485
7.14710915444523,11.966882488879719,1.1458152724277708
16.320814212683185,26.250115230706246,0.5837610992491485
23.186612315951496,36.87016180011624,0.05891708204410439
26.761721897090464,42.33552313033738,0.7235433041827414
26.525477020106635,41.89105972657048,1.3502269634361992
22.499102963882766,35.60930302773447,1.871801578022741
15.233618436008259,24.376369285706158,2.2368821381617807
5.735787951350997,9.764675052566613,2.421715783191188
4.666448640614332,6.1887326322066905,2.4165486961394587
14.513321934399182,21.256985186651633,2.23461605139981
22.416795733940624,33.32905217392669,1.9155320108829752
27.260624115327186,40.706479539875126,1.5096278721811915
28.358007495793142,42.337428346609116,1.0720377261958092
25.54079767735453,37.97271685181227,0.6626448724462808
19.187091014603478,28.219758032655808,0.33797470067905144
10.16944024410278,14.459680132983618,0.13496496752859768
0.26869012801858116,1.3558655107607653,0.06842367644215457
10.67973810049429,16.991899164530867,0.1292573527742117
19.61280887298038,30.247880485093003,0.2793011884615253
25.818033986183277,39.26175356423608,0.46853371253849624
28.42364202403776,42.77703045083831,0.6447020380870295
27.06641390587222,40.31301755725408,0.7566871547164536
21.945074174391923,32.21100238893524,0.7653464084869392
13.786454507602652,19.586576291667107,0.646136577579767
3.74875211964049,4.20285288983373,0.40693770262932005
6.810087807299211,11.88136739252242,0.08356578133996248
16.600225653618715,26.71278627164539,0.2822981430688339
24.564077918474595,38.687110441802346,0.6429899795688041
29.98764503007372,46.731930706836096,0.956208385763082
32.55688956065689,50.39499557543347,1.1919738554900368
32.351086990723644,49.83173761323526,1.328821071311583
29.78689614745578,45.71521529488012,1.3581607255934203
2.4832201030777545,4.087292647094418,2.8095856799519527
5.091089001258587,8.196540072196203,2.7062261817501017
7.679673441841845,12.24385435566947,2.2949602874137165
9.693787984250372,15.346106455803252,1.5730464181145734
10.57174722176195,16.616000724086856,0.57686095778742
9.852291991672002,15.337862668503139,0.6245804250301509
7.277461649394643,11.127095517580255,1.9393237480943817
2.8622909079600016,4.038097436091667,3.2529538723187947
3.0606593401839586,5.368821390307167,4.44715186132806
9.856714490061414,16.068620680474222,5.411331569498108
16.647907199797434,26.677009746507427,6.049221847805939
22.382105309512806,35.547469842531406,6.310998631750114
25.930239865890528,40.92038153785538,6.223176823203684
26.376572342925005,41.387483697764125,5.849714468193729
23.34048669424046,36.38892399857705,5.230054429953343
16.991026655641985,26.224913342070888,4.397239137053443
7.991240569084285,11.965467922477538,3.3978434820751566
2.551081229775307,4.627008929734733,2.2689288048674374
13.277446133617614,21.4067641688598,1.0463109058115083
22.762107658340337,36.14050679007467,0.22407312225608692
29.717165315768064,46.82601910796185,1.4838195435871142
33.19825565698481,52.01805605614013,2.6611299144271974
32.71465845006183,51.003279520873946,3.6882684831684296
28.311249046564974,43.90499768505951,4.5082442932146565
20.565237391190195,31.665450889999903,5.077503820707672
10.504945061474194,15.92121623185449,5.376650736158643
0.5215465623305213,1.2128226207423798,5.409172061045458
11.042610823545859,17.45233730484014,5.195503826365826
19.666522773620454,30.645315588251027,4.776890480103349
25.271921153377114,39.06595771524255,4.2170995845740755
27.159192028643847,41.66234896854334,3.5929303349219888
25.143602234950908,38.19936181598867,2.9820106286579757
19.58057758488427,29.292178493163227,2.4494257085927917
11.314231810816638,16.32310275157044,2.0389714747221275
1.5652747354637229,1.2408298835123601,1.7698783658145911
8.241085693403653,13.728569921782166,1.6332577982440435
16.67801358142538,26.394286084464206,1.591113451115235
22.51601718545897,34.90990822250103,1.5846435098290546
24.90309429542351,38.037978809596225,1.552668808515884
23.487497632400608,35.31363630654072,1.4412965153193915
18.463035777780227,27.10047911668596,1.2107431929578025
10.539410588167284,14.540479050935513,0.8443977939863991
0.8370621398107627,0.6014500486837273,0.34481918383587
9.27118939423896,16.187860781376166,0.27079734921532184
18.351444401764155,30.011108877340853,0.9757220673278273
25.11231880844144,40.10025849402171,1.731392125350973
28.580191838513777,44.993909700771454,2.476512433928417
28.23228038702374,43.942209605523594,3.1418197278677575
24.075823156107823,37.01969153813814,3.66780863072274
16.651417717218084,25.12078873858776,4.007633515334778
6.965413320739394,9.840836429396708,4.1365277155299776
3.646180250944795,6.738794202805134,4.052923351988357
13.709013702785276,22.348175670942574,3.7769478917172616
21.82236929357393,34.847833787714166,3.34838229730561
26.860579877314787,42.52508509493063,2.813954935999042
28.13171737814955,44.33952343656228,2.229639449270544
25.477735372575566,40.06835124518859,1.6585958982051536
19.295215163570553,30.33489369055686,1.1501997524000054
10.469043475420456,16.520626426980492,0.7327067276839423
0.24698386722003654,0.5694118598091933,0.4210648364044718
9.934692216958585,15.281862810827752,0.22472124385477946
18.64991314313228,28.810496222709023,0.1431320115151817
24.67664118897324,38.11966099221073,0.15631081300379862
27.170868849558193,41.90670253195706,0.22571934739978808
25.783260532137067,39.641385381300914,0.30312307727265414
20.703566892318293,31.646603701154547,0.34236457029769896
12.637681814272481,19.064369145087923,0.30186910248342863
2.7160942323480683,3.6884282457689563,0.14950882731483567
7.66345947874326,12.290366906887915,0.1222243323421222
17.038958782792854,26.592147988382816,0.4966676334640156
24.090685688854165,37.18053922266113,0.9400106004981994
27.824738930705262,42.55565579327041,1.4034473303449626
27.71483473011677,41.96306085165771,1.826893998072248
23.77968440291149,35.49206890272585,2.1499759347607688
16.579203407906057,24.05644937018127,2.3338764023637597
7.125586319540045,9.260705790638795,2.361140248103928
3.2620953835894384,6.826330832870693,2.2217703193220126
13.137989283593258,21.953146866394505,1.9216742418207193
21.13245408837357,33.99802220640263,1.4927528000463153
26.138309100841333,41.26870664748625,0.9869113140000716
27.459276957435137,42.74086762583778,0.4681787964036373
24.911825330735134,38.20111469654126,0.013844108599477274
18.852686631866966,28.280646621201186,0.3022115918261588
10.13080803912296,14.37732175140353,0.4398730319743438
0.01984434666461075,1.5451859680988416,0.3965996775234311
10.151967182814536,17.240731946469857,0.2086077491378281
18.822825536898883,30.490575136467022,0.05555859793961501
24.800747276696598,39.42241687348023,0.32461430135354896
27.236230334396147,42.78620075285422,0.5377233898980105
25.78442543358505,40.12204984104822,0.647240220715995
20.651718336889402,31.81009031205562,0.6208931481663768
12.565393362758268,19.015437087410984,0.4512083962869858
2.666540393680312,3.528132363445961,0.16075537379146462
7.654541046633054,12.486010875669804,0.21964826448975366
16.95025850900844,26.779409772613043,0.6525459734334151
23.917388374003778,37.33775229642377,1.0854980902505669
27.575747850205925,42.672308681228195,1.4614347982677691
27.4051453036388,42.02202983662191,1.721245125925699
23.42228026998399,35.46142549807623,1.81124184463714
16.181423806901734,23.905397444633067,1.7020390203133806
6.697879409451312,8.980540161226106,1.4033028022781173
3.7016855708228134,7.209902673722793,0.9615541922213766
13.563792224768033,22.387694007482413,0.4333419452184256
21.51053384605631,34.426840089079946,0.13321530201705906
26.441521638312746,41.65321906709933,0.686431967242916
27.682357431091287,43.07589663423756,1.1679543790822542
25.07518082297947,38.516954153290804,1.5267380203617567
19.00178232070326,28.621459791007318,1.7226734521648077
10.323385226238223,14.763660094721109,1.7346862090734814
0.26413225320181777,1.1320405412316907,1.5699766834444193
9.75983949013546,16.85759727586944,1.2553503086135336
18.34707885428442,30.2292197448364,0.8294669888336114
24.302830874943552,39.38481516454202,0.3462171067814231
26.799647333481815,43.04907110817624,0.12611047025573727
25.493484114276878,40.712779363884245,0.5213302558411845
20.574325511264867,32.706449675333864,0.794291175460747
12.740743980136843,20.16229913238741,0.9242746169788061
3.102382623693348,4.852389414917393,0.9104625828501298
6.975993226367516,11.062669658384399,0.7696471537153048
16.065918174352753,25.341937128170212,0.5341030976528314
22.87252040130305,35.983178335328134,0.2442973216532148
26.421289555374862,41.49916090425581,0.05204366683581871
26.202507085879326,41.12171331728755,0.29456372871259817
22.240092588102595,34.90846526445464,0.4343586455208246
15.085522212984742,23.736864117752855,0.4538067126234182
5.741745046876534,9.179559220168876,0.34935296277669264
4.4762729152040075,6.71313522417591,0.12685872498616768
14.127734972957748,21.69527501367418,0.193583681078827
21.853261470988084,33.64472745506112,0.5771060950080283
26.565538617850486,40.86159248728833,0.9694103927927841
27.59488026572835,42.30404479053427,1.3033894988739092
24.78129389344479,37.73826711267139,1.516924281520104
18.498350194633833,27.782627642807252,1.5758477808260525
9.60437791484961,13.826661390837176,1.4774009408996513
0.6659870061433039,2.172678213259508,1.2310065666645402
10.876021909131543,17.963999742248912,0.8587035772722231
19.598897862554217,31.31630545019245,0.40367450760065193
25.613605995203937,40.348608268176065,0.0811269716167104
28.07552393530509,43.79645813255773,0.542866014562331
26.64063515908479,41.179256507478385,0.9310079133650359
21.51116912510947,32.86029224287504,1.200585801042594
13.4066667811913,19.991238052729404,1.3249516823874217
3.4731678933052517,4.370582437412715,1.3052554388584987
6.9525281901225044,11.917456377626326,1.158563800493236
16.606280648755558,26.909755503834294,0.9160108861460616
24.452762299630418,39.00229108517301,0.6244461652232284
29.794585999854565,47.123500315992324,0.3309179061875712
32.32492270035904,50.82122799151448,0.0742947171968714
32.12255984929056,50.25308833877515,0.12149758509297814
29.59617423139638,46.09517242942927,0.25529473314614143
2.2173481153672756,3.793137976346884,2.5871620890180944
4.8264414424808555,7.947203645897699,2.4769191266377213
7.451357318180241,12.067592617007632,2.0858971453034707
9.547998142867078,15.275700406329673,1.421238560285296
10.555250451554521,16.68627710929225,0.52230291424629
10.001678431003024,15.576634393819228,0.5473900507388378
7.6119878368877645,11.55175298686991,1.7051681610564626
3.3802300835265435,4.649779662956597,2.8544565915692424
2.379415781934866,4.592574943782177,3.89223711448258
9.047717766876314,15.165548673137993,4.723189017961941
15.762390940593951,25.689219682775775,5.275554393079087
21.482439674716233,34.518693355502265,5.513284271538484
25.081590100717083,39.89388481913792,5.4637612432746625
25.645210660671218,40.404157812558275,5.186873836765882
22.79723056875694,35.49820918341252,4.709984232803347
16.705550436769013,25.500017450793106,4.051089023361079
8.016797252811386,11.496056865720885,3.238389635116487
2.1886096769222414,4.754059963508646,2.300331116646377
12.587719866941885,21.12557416705031,1.2812925314907115
21.798208453807366,35.424293663535,0.22596560987046635
28.566027153053245,45.69070301318788,0.8251955926020211
31.96013319253834,50.511214315173824,1.821542365107191
31.49334382085047,49.19232010344448,2.7109818721993695
27.207872617461817,41.87686707011798,3.444985829734133
19.668824742305944,29.52804345384827,3.987678937666964
9.883896107323725,13.789675801475465,4.321268508108115
0.8277171924825689,3.2222827005269985,4.4453508709691905
11.026779871479858,19.222636528362077,4.3760908439477575
19.351476861745702,32.074230460956244,4.146244244073437
24.70948936862823,40.077415354056875,3.804978424071494
26.427981228423448,42.20557093325145,3.4003613779614827
24.340114619985304,38.246874105780826,2.979513490405163
18.808312115344414,28.837594846081505,2.5918483465248796
10.671711425926294,15.37385390587788,2.2673788123361347
1.1319091192312591,0.18495110005875987,2.015925584097509
8.418284307570705,15.587177772162397,1.8334582334038338
16.594904116713433,28.604148264110858,1.7032038800750855
22.2136606139138,37.35371798745157,1.6040704357324855
24.455812736067006,40.571522170497595,1.5055843562461866
22.98790436026472,37.78107900598863,1.372032164559809
18.008779362832282,29.35193025417041,1.1748426212773992
10.214984403854686,16.445744180159974,0.8924635012552005
0.7028528938973723,0.853632167709753,0.517982207875567
9.182395172510889,15.249694568738274,0.05965813013266009
18.037788312640057,29.605159039471623,0.46294439048503
24.60109018131229,40.19036501046642,1.0174657810366878
27.927512634150407,45.5030833298159,1.5662416765115659
27.52001620598061,44.76715094294487,2.064710268831565
23.39968595368409,38.04990546738262,2.4610636320776327
16.109047637687258,26.26350406432726,2.71047473967608
6.6390441432718434,11.035186222293428,2.7914223802670173
3.705904488162881,5.522832676208622,2.713466851895485
13.48670222587057,21.105011996339158,2.507948996789804
21.337102867434545,33.5420293519508,2.222629178633167
26.158476389393492,41.11939814268142,1.9128070618096258
27.278945803402216,42.81875309200671,1.623195848260834
24.555100469443612,38.450615067635916,1.3881862002739804
18.383851544634272,28.673222335059762,1.2346198200453649
9.64287794886603,14.90012070626678,1.1762957142629071
0.42862563755064975,0.8957207775900237,1.2108105770745463
10.408720472240152,16.460630791266674,1.320323032299939
18.892470979258174,29.578215552771596,1.4724376692950234
24.681597785507496,38.38266740660579,1.618791251298421
26.949822847014975,41.62003709515194,1.7043352712533981
25.36393448021507,38.81808967020069,1.6783447299517773
20.133301450582973,30.355036235690196,1.502951177121856
11.979024387110561,17.4151250639386,1.166156156997395
2.033947100000116,1.821730501453644,0.6867740537722764
8.315927117585343,14.227284975786354,0.11184676248890654
17.622121456868246,28.471122680411106,0.49648521229742615
24.577609693835488,38.90238953650356,1.0718256854274057
28.208560274469388,44.05332805760616,1.5462594161902206
28.007448034456107,43.19944375177875,1.8695032757296175
24.00206536071397,36.45257580350965,2.0188555132231336
16.753886327267697,24.741685476874295,1.9916460882360187
7.27344428035314,9.682049197172242,1.8079074102242796
3.120946588437498,6.647316505515011,1.5074507699290276
12.98456092013477,21.991705159753238,1.1372949931781808
20.948298554261257,34.232580338228956,0.7501346663907397
25.908050989236102,41.680457362551245,0.4050920739576436
27.178561968246218,43.31003043217073,0.1525149254699007
24.59284359713637,38.89970412959789,0.022387280890980594
18.526240185056967,29.07104129392457,0.02457283763697841
9.838659891010936,15.212345866424306,0.1435005185612381
0.23896467203243474,0.7223971620593702,0.3426066793414158
10.268530659440081,16.490224022895895,0.5760916229268048
18.814752428566493,29.87090839941514,0.7956443042629614
24.651253452785845,38.98649798927759,0.960207900264842
26.937422199936535,42.56918002331932,1.0384871702773903
25.344332637320726,40.13198457601849,1.0153278306648847
20.09474181597866,32.03221659179172,0.901754349866021
11.928034132055789,19.41580258020402,0.716478810734582
1.9950973853632228,4.054816710339407,0.46636944981889034
8.310654440816984,11.89232231607349,0.16142295412378063
17.547897817729154,26.18304870600857,0.17464875514648298
24.4255980483339,36.81183315114252,0.5137322993351265
27.980981030584047,42.291016504355255,0.8171141963626577
27.71262145896459,41.8546344722735,1.0384387095858274
23.652388625136933,35.564124553908975,1.1496320270925502
16.359267167673647,24.307715288073183,1.1402711909742338
6.841790421908624,9.680875969779269,1.005021720999244
3.5746881565152524,6.244786810840698,0.7522168578894926
13.430703930719332,21.215130977539918,0.40488536848428697
21.349878589946897,33.11106587297665,0.005785640728408378
26.23939939740848,40.254499923234626,0.43309230909460067
27.435691063005507,41.64626222197303,0.8190471930544875
24.797553392261968,37.09800360260354,1.1097203971882204
18.7256220999303,27.25210345403749,1.2612911800762485
10.096546023509678,13.494502390685765,1.246593345905872
0.14043956811947006,2.2382239487434257,1.0545732236235072
9.730501256613122,17.728070553933943,0.6957120343986695
18.126680379661032,30.781135613985157,0.21740196723495292
23.87438124886078,39.54396586282893,0.3121683564292244
26.1706322873531,42.765161742325645,0.8267531598148008
24.69116429202917,39.96174545873098,1.260071031384559
19.639659705159097,31.496060628246045,1.5554082344346556
11.723693685889021,18.53586606508199,1.67947152428232
2.0602884146371445,2.891460148947692,1.6165430754669257
7.9781500007442245,13.240158029116156,1.372364295781351
16.960051138406346,27.588536304549795,0.9836907544189495
23.59898324648821,38.13546453856422,0.5103638456182169
26.93918489545969,43.40545849827406,0.02590505024685992
26.49224109666736,42.669389182834934,0.4013459944404738
22.30251349621398,36.039482429962305,0.7242393926569973
14.938834696090833,24.450249559413034,0.9030126040692198
5.413845296236939,9.524141389492774,0.9107111344258677
4.95502634992292,6.651890774363818,0.7471050334782762
14.728421314800004,21.815192862336627,0.43106626701386735
22.54874445297748,33.84321148415466,0.011656047804612766
27.325847646217223,41.04877145653528,0.44121338780465885
28.380532655578524,42.42290605421136,0.8636039170397933
25.54383268862529,37.776594964852166,1.1885689115159075
19.19471147350139,27.764317214114552,1.3516764966276211
10.211975018526275,13.802790958915164,1.312091192391084
0.14713418675184947,2.126523516609394,1.0591386217508028
10.428524093621354,17.76259097932017,0.6199225959088999
19.19767267499641,30.884208591741036,0.0538245389247585
25.23728014010826,39.631959782619255,0.5601316258072631
27.71270231270016,42.774661219787795,1.1394439907017875
26.29741111414469,39.87321917187776,1.622374987968668
21.214361616527967,31.333013899291664,1.9658845876930333
13.191949901035892,18.343463303476895,2.1301616603614715
3.37141758269225,2.7211031111746156,2.094935801681002
6.919444288057324,13.453026494828475,1.8820427892913532
16.425759408844975,28.2298990123248,1.5404132355407099
24.123716339006346,40.032723260023175,1.1271148383767975
29.32800469285693,47.82702893393878,0.7044751205384528
31.742164035146562,51.19857390751019,0.32218176686767325
31.45864567700626,50.34037613234625,0.014124533355767585
28.902141679695955,45.954315997946736,0.19209302997315875
2.5197114363067548,4.0117120811521385,2.9621969466450095
5.10027776266923,8.129175214163725,2.8362043984019114
7.654652055071339,12.182105226479072,2.390555210705535
9.633360468428041,15.293066337744133,1.632800776228676
10.474725328142608,16.581688803967385,0.596429178923683
9.717205991738751,15.333702697507608,0.6522669757937262
7.108636026863321,11.164646253566518,2.018879556775825
2.6759187667328455,4.127611869996407,3.3942854455401577
3.2314180921676785,5.2193459038857215,4.665644294473804
9.964820146381538,15.848578654656786,5.7213526522534925
16.644726896367757,26.367617308609923,6.457086879021797
22.228521429727895,35.1245417209355,6.803537847307921
25.608970091530885,40.36515170068754,6.76892012527821
25.903054140592133,40.69679702026219,6.408692778571918
22.765486366002165,35.59110169755464,5.760270558085353
16.39362078870153,25.3940805676454,4.85999418400798
7.462361814740949,11.218381595320135,3.754594467471873
2.9243437505857854,5.149331003516657,2.4792219898005143
13.426190209362007,21.571537194256283,1.0787488638078715
22.648343215336748,35.856516952603755,0.38031784476033376
29.32915429181475,46.06298005969103,1.8162384968501684
32.54087403042054,50.8087073273461,3.137273463086077
31.81567678347969,49.43092160070393,4.2639961756678435
27.231188219781536,42.09255491384231,5.1406975694014365
19.397151912622174,29.766200360891553,5.732178355082809
9.364716915423669,14.099289640913197,6.026353443699542
1.511549682958723,2.805045390779991,6.041442029247407
11.773719589529017,18.68957043371166,5.821427168974427
20.06082238613317,31.440811791714054,5.418293124330804
25.292422543118313,39.384302710556966,4.883191232721075
26.81211483089318,41.51898395226987,4.2661496475449425
24.47103685848588,37.64461890623851,3.613943649014193
18.650623485378667,28.397324565726393,2.970941615861397
10.210508937105876,15.160153970658547,2.378658780084105
0.3742744509926205,0.13279961351966302,1.8650897960304067
9.437786270741004,15.26664135334955,1.4374749004764793
17.806662039206195,28.059238707680517,1.087883300964826
23.514597376276257,36.665159961802274,0.8010959383818207
25.726492820256773,39.8361217864371,0.5600387313926841
24.117551455591702,37.09345169507036,0.34630184659344737
18.915322564120483,28.78856245633705,0.13720699109938683
10.853977193120286,16.057583285188034,0.0973691677255201
1.067047574552565,0.6679162525814548,0.39066902225692635
9.073584239357027,15.228910924704323,0.7627984007957054
18.156130905369164,29.400802179988887,1.2131047598640856
24.921612661484403,39.846729168465124,1.7264541576370291
28.42904253313569,45.077397827363704,2.2785525168646408
28.180769859651587,44.330384222359974,2.8292542666986855
24.1945939779474,37.681191146703206,3.3147043445868634
17.009211307199493,26.03747387599044,3.666540067656061
7.615685899762229,11.01697254194553,3.835625716272424
2.6791931276295946,5.282156311300539,3.8013573482608902
12.439065651215326,20.583298920160097,3.57728755997464
20.30209699705868,32.758020368210836,3.195456582024471
25.179935540147383,40.129638489965245,2.695783995249197
26.416067854848723,41.70750188904004,2.133205370416984
23.86823434827763,37.319724105185145,1.5693071204381799
17.921141670600683,27.629592258880027,1.064305034690608
9.429766696341776,14.038906705557748,0.6677985626661533
0.4006260695577053,1.5054162569551215,0.4104164295247594
10.173913378391818,16.78429709390904,0.3019130511040066
18.49835752280858,29.61795324050969,0.3182339514783953
24.183034723177173,38.167647915826414,0.41216906557298333
26.399264873118405,41.19339190908571,0.5338693443837036
24.801382052941715,38.23191413700529,0.6281243448164558
19.58247741447008,29.671255927237386,0.637945965991074
11.452208080831815,16.699118336473965,0.5219990519078874
1.5416096392845726,1.1292293420245636,0.2760956807312713
8.756701227035633,14.854896055005513,0.07225081371098889
17.992141726238728,29.007944049871064,0.48955114851766607
24.863229048270743,39.342505580864525,0.939812866516741
28.395467918015566,44.41140122122213,1.3818941572427983
28.081959735156058,43.504803061810186,1.7686266146622904
23.95376064641519,36.73971681302409,2.054524081936235
16.57165188047235,25.0437029262946,2.2047339999506392
6.95827575535717,10.026176500087631,2.193300331013614
3.545584311498809,6.24275742244882,2.022043246302639
13.478447424410042,21.51434350509747,1.7234791764053565
21.462193190279987,33.675945270600536,1.3410909376352729
26.395979210635684,41.04790171007987,0.9270892587784305
27.61018996418091,42.61918581087086,0.5331038168967366
24.955162856309016,38.19306898083093,0.20576143726689344
18.819245352588446,28.419082189917276,0.008526087851976004
10.07552620520959,14.70170738678812,0.0774682014202432
0.03350341027905837,1.0036167727766403,0.0005048834566764661
10.069980389374168,16.46680555983396,0.1953223810933888
18.61162493309454,29.491691810423404,0.4721557490194325
24.45242193687683,38.23253778439445,0.7768506098080525
26.768083698570155,41.461095434906156,1.042508810301454
25.23460786009524,38.726313157279584,1.21316103315893
20.075566288341165,30.408386777947324,1.2507687533581584
12.026645630092911,17.672277499369848,1.1353725710793623
2.2287831475953213,2.304086245378349,0.8723017293776407
7.935302412288531,13.541515792033241,0.494865950457591
17.036990689428016,27.633367173515804,0.055183700407029926
23.799334671253746,37.979608279473915,0.39610018825859333
27.26923390482598,43.11736824029541,0.8148501908920234
26.947870183391167,42.30924437667497,1.1594347118169004
22.863728301824022,35.640494615557856,1.391226925299655
15.566356092998337,24.01645691374371,1.4764592685020055
6.051508199446843,9.043796363539425,1.4043702132490001
4.367544810866724,7.193414837438903,1.201016294311903
14.241818913911922,22.42656561467522,0.9156396698399839
22.19680665502413,34.52456830366829,0.5980393519087324
27.12932444933085,41.80237376595324,0.2908583515104427
28.356966106557643,43.25926790905541,0.036005422013254365
25.71420728147116,38.706533514884164,0.13426075498895537
19.57639501645262,28.789215811791607,0.20921503814418208
10.799465590256384,14.905354527082768,0.190032031701023
0.6029882189168294,0.9920088052191046,0.08303517558908474
9.599816561881076,16.672962563048863,0.09724192900302399
18.400611723420397,29.93180022330441,0.331337486270337
24.581698425910268,38.89536476847374,0.5985242494905165
27.2854834631365,42.29674774288051,0.8659542922507725
26.139658656596847,39.650599171616186,1.0849216512887705
21.31048014821695,31.31938292970556,1.212805649132462
13.483104573820695,18.475233413417865,1.219934084556583
3.7720462030746966,2.939633731214755,1.0876924208734347
6.42803927077088,13.080106031929903,0.8262324063348097
15.647235927300619,27.307719666923457,0.4677182028070341
22.559620137684092,37.7261872566099,0.05010301820320136
26.169100453268225,42.8618676890784,0.37702960641359395
25.953277034490046,41.98632044396151,0.7613090665210298
21.940441805316592,35.212187889816605,1.059121116256844
14.698719552848344,23.470476668978115,1.23935406114123
5.250347555831924,8.386223980538915,1.2926020728914092
5.067966028592486,7.946481161473146,1.2224894784945268
14.79174769801367,23.259595575629348,1.0373396614101649
22.5414708536922,35.41930683447054,0.764775490515623
27.212957704175444,42.72501871151645,0.45581983875469906
28.12811226497339,44.15505154705888,0.16953026147949085
25.137371366927713,39.50902112881889,0.04413354112437759
18.644987369489808,29.43748095846095,0.15616187764421122
9.55192058596149,15.355389944423726,0.15897412009685868
0.8709966861327719,0.7614929031098675,0.06038064549099378
11.163152357376635,16.660865294258986,0.11699616220685274
19.884553943554117,30.12721347560153,0.3348962951640393
25.825989225831353,39.29434981056243,0.5471356826855176
28.174998369196732,42.9098193819499,0.7096339162187442
26.621226579912868,40.50311619875062,0.7901665293794116
21.399636281245858,32.447395276091505,0.7757690779058257
13.253983448191452,19.901570152724286,0.6674022657430139
3.336516946967895,4.65076662550277,0.4787846240714627
7.020161898696537,11.247487513642973,0.23613546632028734
16.55901608405831,25.858646331827927,0.030133127181366532
24.258075075912835,37.612570688315685,0.2874190915420208
29.440439549711616,45.470423624562684,0.5034189411896957
31.821946401649893,49.00746700188138,0.6533279214873406
31.50441005136545,48.398538675097754,0.7268644642558484
28.917760134243437,44.320007012409086,0.7293917022170128
2.369668900355933,4.123544798841486,2.7916379520260426
4.98977822639574,8.162367213105188,2.7058094879697427
7.624447480571973,12.112623593018599,2.32394258671549
9.721255107893857,15.10723368369107,1.6347627766416313
10.703369369393826,16.28065154617446,0.6626666157747287
10.08628656497757,14.939468419562296,0.5324722683615877
7.592048324379689,10.722723384071264,1.8533467566886372
3.2224114458062347,3.6982815809896903,3.179614325823243
2.69222696440619,5.577209833319236,4.3933416345202145
9.506702013757238,16.09004931217992,5.384280038992479
16.331740296483925,26.468913739901847,6.054415054232705
22.110241880143445,35.09088878147286,6.347692295784514
25.710345582986044,40.23585972824144,6.289702813858211
26.214594141549696,40.53262032929677,5.942300850638426
23.246106847232415,35.45011900974271,5.330284169742433
16.980604239448876,25.315189387104187,4.471308404452254
8.08224804685298,11.211243451589336,3.404522718312327
2.344840551514756,5.10396501898578,2.1847253203700756
12.947814472745188,21.5103514897016,0.8886698887673986
22.30966733447797,35.826735701654115,0.3977905075500455
29.144732259005405,46.1135420518546,1.593719801184159
32.50195915934751,50.974489289810236,2.643850397752322
31.893370287875506,49.723144729478854,3.5153304382304693
27.382221246197986,42.49641929083294,4.1797956595027355
19.571350276080032,30.238409004590196,4.622023347833892
9.515145665207552,14.57186701069938,4.832441484015837
1.4222681492982345,2.4022534452042548,4.818368833309006
11.767090126293144,18.403933272476202,4.618229861450849
20.136871136517545,31.290046041181995,4.2804791807881415
25.432097724169942,39.35958765262044,3.8537114244900708
26.977959181884174,41.58874831951909,3.3882464018798575
24.613977639388825,37.76142599426705,2.9401659441095496
18.73016157903569,28.51154184907509,2.5554473974239658
10.203472208593103,15.237561413733838,2.2553321728483557
0.2703577100397967,0.10058618141302358,2.04551446712239
9.636931204406562,15.260078535396698,1.913523103649089
18.088795730120573,28.03157224280192,1.8399554663800297
23.86180091036104,36.5536958189481,1.80615172195935
26.115714808481243,39.57999466393033,1.7813267155292525
24.51130082470605,36.65066230870786,1.722764233149865
19.257612289412535,28.159534223712075,1.5757415909701102
11.08405525648812,15.298154541233762,1.2936918426492812
1.1366126215913577,0.1213753220939654,0.8562665451297353
9.185829733136591,15.92180866921846,0.265167441145894
18.43438827267409,29.867999374168743,0.4444749551731628
25.312704726899074,39.985242018631396,1.215543747396308
28.853898930278145,44.836831224691196,1.9889582177089475
28.5560972674954,43.717648831368614,2.6987793544944685
24.44708935686867,36.74796916625935,3.2785620735138012
17.08436327769903,24.869672222378263,3.6725021463271466
7.486206211378164,9.723003650813835,3.845386283620133
3.0174950265282363,6.5861612139688575,3.7917606120580034
12.966604631700939,21.785770793457473,3.5364705026352965
20.970291071615,33.76480132539474,3.1348663270557346
25.917253861870762,40.875433045937946,2.660569961573416
27.135501970608708,42.15920064833549,2.1861526088431837
24.483138876696756,37.47000647809062,1.7683417838278652
18.364894612609557,27.49101199492482,1.4335629620615788
9.668524220766548,13.637884539190761,1.1901018254126583
0.36066983739316844,2.14398652021332,1.0433987866972392
10.297540481118459,17.639918512220603,0.9832646973725561
18.740095643380574,30.66202578032654,0.9854472035426879
24.502787028641666,39.36335671589117,1.018689428283667
26.772646761158644,42.500453606616404,1.0472669676241946
25.21873509350956,39.603725208878174,1.042648487739398
20.048311707598927,31.051001769116116,0.9743240884526909
11.980006454647711,18.021275611278334,0.8067553462999956
2.142981202547081,2.327015563363494,0.521399128891326
8.0770824813148,13.843193558978145,0.12453273361398125
17.23803537425189,28.23388379559915,0.35685943404761156
24.047871593605137,38.844291340563636,0.8805346304505077
27.549151943910136,44.21107167530983,1.3960956875054291
27.25525690516055,43.60507003098537,1.8513812317752316
23.21156674083738,37.12372890348074,2.198199165568546
15.986765134829074,25.676786745883902,2.3977129290148054
6.591067108107645,10.863344062977257,2.421854346463767
3.6669797606832866,5.251908970511163,2.252419961798207
13.35726947783247,20.422408842791427,1.9028956808221855
21.12659909793926,32.52857112161307,1.4243111806150826
25.88884864850799,39.88567820353032,0.8762996343528258
26.974254940076598,41.485847888209285,0.3295772468811054
24.223968398763947,37.13033345636383,0.13473692160780967
18.019766259741395,27.45761820739672,0.4497279453534189
9.235105018389586,13.862273473971635,0.5688076085200867
0.8898996993085763,1.7067936159472294,0.4817397743569969
10.923598194790038,17.02591455459862,0.21993095392293996
19.44469096202308,29.902597197756783,0.16810774039231222
25.24432905154318,38.490229697598956,0.6229732960392595
27.49769108810017,41.55602224195829,1.0708056712897829
25.878811432871416,38.6480865513241,1.4370288995364322
20.604301764600415,30.152501852202274,1.6640021585950189
12.405267773475478,17.237744818176846,1.7211595811627698
2.4261903102772657,1.6956595463350952,1.6068452573484377
7.936329974373955,14.301948039507225,1.336717985394015
17.22739852036594,28.502916076158428,0.9363016055562908
24.139124728199533,38.89546213166077,0.4483874617096684
27.697753160926823,43.999691753686314,0.06893621207367462
27.4000828463579,43.07493917352429,0.5534511704520028
23.28382463688534,36.22154344374686,0.9497255832499593
15.922557332583109,24.37180642497456,1.2187858541759657
6.349267671933563,9.16764336563041,1.3446348861467592
4.085714965952573,7.266921164082812,1.3420112031600757
13.912823205833542,22.632442562467354,1.2459566164212572
21.755194005666834,34.78751828051068,1.0876986885901954
26.517972789474946,42.05168132761193,0.8949815178659405
27.54196027448542,43.43706825416431,0.7033933313432658
24.697828998693335,38.78128585973897,0.5465507364094346
18.399287371808793,28.762993006281413,0.44179817545645406
9.541103045610539,14.802021475133792,0.39691100931999107
0.6264039597803365,1.1349560661768874,0.4178765160077699
10.673950811511169,16.80392613866986,0.5021358924687512
19.19379051716501,30.00090266713904,0.6351804164366691
24.99574849787635,38.87490686658691,0.7895287291100064
27.271659222575668,42.18575169084387,0.9225763083793044
25.70540728654795,39.47568135165032,0.9862216514711125
20.51778798556668,31.135507046802893,0.9499924614598981
12.435823085432025,18.35309791107029,0.806749544698426
2.5917533963534236,2.9460100284359783,0.5548594417437863
7.631468066011207,12.89678850592269,0.20961739572796204
16.798884683497835,26.926303891771553,0.1862202878349977
23.625541785287105,37.15659604754938,0.5936197121196106
27.14689586475259,42.150257033727065,0.9791436883246369
26.859811154665934,41.212389615685154,1.2938926310269114
22.801570934131842,34.475322539786674,1.4888666553971357
15.537736634766675,22.883781086149014,1.5360048711025982
6.079899841805355,8.062332544330404,1.4262598244345148
4.252035872655074,7.917422764815331,1.1666610235776962
14.014262561333016,22.816787332265015,0.7895106654896705
21.84150162020128,34.54209285346454,0.34840916603602645
26.640256639118657,41.448793125088436,0.1000271845744287
27.742997454683902,42.56818314536743,0.5022743888616562
24.99796502318778,37.73582876803284,0.8124097252140375
18.791057448008512,27.623816820804773,0.998665694027916
9.994204461798022,13.654709553346155,1.0472704026929205
0.1538395871924198,2.2034881751362922,0.9628734774814935
10.220170592571447,17.71724498051844,0.7628982728545707
18.783947799356017,30.700863319274287,0.48227935644336656
24.635871052250835,39.32790488257291,0.16386001777270073
26.95064896778879,42.39777892715533,0.15729109717036208
25.408982678039532,39.50161326004901,0.4391284403029248
20.241548958104975,31.05802168959542,0.6425930016476129
12.19502453274439,18.249134133875863,0.7516382528449783
2.419545327647394,2.8710892522100835,0.7667218680644741
7.767264173305285,13.028414640454054,0.6991343338297427
17.12573665492352,27.53957229358881,0.5673760126817428
24.648469901789205,39.11883542610342,0.3937683111988859
29.668952691660497,46.75867896006144,0.2009084202995153
31.91211505326048,50.063810202296324,0.012360098041476862
31.48477894243512,49.22750199968366,0.1474393942492265
28.81505733787313,44.93727024488089,0.2618101499875362
2.5088056193734403,3.895213523183746,2.7343424541690067
5.077755344696711,8.03888717349326,2.5754844416799463
7.611385760637913,12.132830598421101,2.1193252113754544
9.561785836080901,15.296016760554284,1.369163329536973
10.372992219795622,16.642750722561033,0.36373175919641265
9.592555357113953,15.457051801056142,0.8294917525034955
6.975470051648244,11.355564157274982,2.1153344618936
2.549889355542625,4.390017665883739,3.3760307054275023
3.3409153450258486,4.886551743042907,4.4937210453426815
10.059217379539714,15.452894321172433,5.360463207588883
16.734298653922743,25.925574402395302,5.8869619225734064
22.326008719027683,34.66524868628478,6.035746644129342
25.721925812002617,39.92558095267314,5.8525600072697
26.023395537879217,40.31785350018495,5.420657808830264
22.862387903548367,35.31758239112497,4.782595480744908
16.422451132621926,25.269569181361017,3.9608892188289544
7.379208433450932,11.27629525242794,2.990924012836686
3.1541382467546626,4.896351667366076,1.9070504773181325
13.81899927241338,21.132726947251435,0.7582135927492154
23.198264161260845,35.257074692007315,0.391344235795349
30.014588669467546,45.342166333263705,1.4819554854114088
33.3305315785647,50.01510864950737,2.46166580250187
32.66814219144132,48.62008473810361,3.2877293440533153
28.09136867253778,41.32723279873923,3.9282823428416975
20.194962324614323,29.10606028522318,4.369597273280497
10.021208190404444,13.593136448939227,4.613547125714238
1.0711773108312848,3.1168272774305223,4.670307437564693
11.60116695294958,18.777275324837724,4.558491646919287
20.164087188921705,31.293182032584994,4.29966678446727
25.63036863464681,39.01054883440071,3.9267071635029516
27.310624234019077,40.94313610336596,3.4917098183658806
25.04792649796275,36.90102455201892,3.052177193010016
19.240257044947818,27.530958075520882,2.660514754834219
10.778386652620744,14.232265880059781,2.3544369844421933
0.919294877325163,1.042827479057518,2.1461512552481463
8.887242752658013,16.06662727417713,2.026226227341595
17.20773477166582,28.64542349509863,1.9684613764344838
22.829026942964838,36.93630875592974,1.9259640671193201
24.932059149011856,39.719667295931224,1.8397799236781192
23.206113611845897,36.562368337651655,1.6575307495082037
17.884193589898796,27.875260228677234,1.3475921137530382
9.709891381272593,14.855161968031918,0.9002235087000144
0.1674225694922488,0.6879460084063801,0.31523802918453125
10.35464056145775,16.58181889455997,0.39043883374688887
19.4101244887679,30.594926026699085,1.1765708537462072
26.051773555491565,40.74862529515618,1.990445004336127
29.333374850145745,45.59064926335428,2.7600206711850794
28.771389196531736,44.39612989039891,3.3997331622838667
24.415501448372567,37.27670413506481,3.83419801582261
16.839699794232768,25.182930180086522,4.013464679551198
7.060806161016621,9.78101603238957,3.9257946959241874
3.596738036670553,6.789848188525663,3.603538096932141
13.679586663698243,22.228791014314037,3.1161244947817437
21.811844468962565,34.39737159336184,2.54472922601165
26.893151955875872,41.62617203763054,1.9666896255762105
28.251929351934518,42.95371636148033,1.4540404114842964
25.739979289854926,38.246642814112114,1.0574918863422886
19.74811897862246,28.20481246509411,0.7998473604346582
11.147855574122664,14.26195496695889,0.6821033810265036
1.1740054244687248,1.6145889765673174,0.692570515989539
8.754176653018902,17.19275418438499,0.8048039787577862
17.233767278965857,30.275644941290118,0.9648409611534091
23.071496204296352,39.00721691622892,1.111178265224756
25.451720284827232,42.141191908097774,1.190010949909954
24.043120874137156,39.21951995423044,1.156991646604509
19.044926454218384,30.642454504724636,0.9922275234116192
11.168541100330849,17.61941622758847,0.6898406420661202
1.5405556900161248,1.9901235441516483,0.2570447747862557
8.456926634719034,14.043490508302018,0.27311360926256806
17.385497875641597,28.23093953365669,0.8571226713445843
23.956911381340845,38.59296222294576,1.4445341125291298
27.21509086194787,43.69243722474008,1.9794578862757621
26.676029184203276,42.82757596635888,2.4119073003777087
22.395728982865155,36.12346039139547,2.69239612389745
14.95149055659167,24.511568250179735,2.7829526422750592
5.3604321321401285,9.60658702155209,2.6721369727596036
5.055548162739811,6.514373311336608,2.367608487851923
14.855895069407444,21.599688751329676,1.9028044830510267
22.685426064879508,33.53661098613752,1.3380587224559686
27.460697556156585,40.65302226997046,0.7373537451348025
28.516212812726963,41.959750019771825,0.16111571929942822
25.697595086571898,37.28825216479904,0.33322678181762294
19.389775512817916,27.310772606816823,0.7020123459559178
10.469478935586613,13.448745605607215,0.9161191106905044
0.18979403851990856,2.3322590011252973,0.9610548138757364
10.000801085350957,17.800258788161436,0.8514897053189212
18.67931219965888,30.761574530423438,0.6302940525790361
24.646007982150877,39.376559861401624,0.35107676357448964
27.082229095172377,42.4218159828555,0.0687526636697002
25.664220002097785,39.45269378521045,0.17378489308918815
20.6079471017692,30.865305286840897,0.34851922748129216
12.639285973443455,17.844997115773705,0.42940384290671424
2.8930329393168353,2.207122905097722,0.4060358701237882
7.2440066167052395,13.856594371511674,0.2939548219880481
16.329371951089207,28.091641272865846,0.12069062522927118
23.071520573346103,38.500698122259195,0.07941784026064645
26.509178600468836,43.62766472576898,0.27428426108497905
26.147271578899847,42.75898749687773,0.4370113266527469
22.027388701806345,36.01862629423094,0.5421707690562426
14.721403176898791,24.35228562218696,0.5716890656966129
5.2519964323276564,9.400290426153537,0.5131904190584304
5.053224058519313,6.731449441171842,0.36557137853975286
14.750630639861049,21.775876775315865,0.14641507701798653
22.483856519102538,33.62750437491038,0.11479475104232062
27.167574994188218,40.63648311591151,0.38206240432330896
28.132395685029145,41.8408935196407,0.6195280544261433
25.225598814237912,37.098108083005194,0.7961082297682269
18.84064966949525,27.099179115880453,0.8825803736656118
9.862647248102588,13.270874443648927,0.8525033842507683
0.4565872810146226,2.4192822908320837,0.6929346152814316
10.6814531377428,17.738713741088137,0.41662659962669213
19.398657793380377,30.510258898460705,0.05667013951331063
25.40957549356932,38.91584017129363,0.3475760084038103
27.891280201878597,41.75083315062474,0.7529623762951291
26.50930888415484,38.59612942711921,1.1151877015089815
21.46661229724009,29.876575617299494,1.392576493831455
13.473338233367562,16.80563558441348,1.5446692561010171
3.647212812534945,1.215181363617457,1.5361340605857576
6.632072105697665,14.703981032769201,1.3512633091808344
15.910953069237427,28.712822490352906,1.0081784959942273
22.872164689025077,38.843265648115974,0.5524158263859137
26.524333714783317,43.66814091423931,0.04003600697355512
26.347436136050835,42.494259131744734,0.47263130422207295
22.373181686751302,35.46346400733335,0.9327310408443155
15.176080082541842,23.53769061677264,1.287645077205559
5.78332760637834,8.362115803721224,1.4914870184490736
4.474197843063556,7.961223124362035,1.521796859019474
14.14957870315569,23.1606174258229,1.3859730680540212
21.881573431687116,35.11866478488243,1.1140043358988894
26.582060625107413,42.170404485384104,0.7444952861757647
27.57943561781582,43.33464563303657,0.3234998870593466
24.711888406791633,38.45761086977933,0.09132841920329744
18.362750562437636,28.234176175496557,0.443637630550595
9.413198465428838,14.107920953874375,0.685462328801765
0.8822099726437611,1.9311087917246987,0.7834725043251171
11.072375018742195,17.628424385974427,0.7380245076130254
19.717623766570405,30.77995822439322,0.58345656995732
25.599503910631764,39.53976182859402,0.3699706416903468
27.89712791437002,42.68103518099413,0.14460333358989474
26.300374012230776,39.76746015705533,0.05529009830623793
21.04829675742778,31.21638514664863,0.19760080651940343
12.892459291501403,18.238795061554672,0.25498634982729995
2.9902718788066758,2.666076080154611,0.2163546410116758
7.331008100923559,13.41984803998543,0.09473246782913329
16.824491447676657,28.079613412004235,0.081758935961473
24.475359603620262,39.753996246895674,0.2823107218919189
29.609399599183014,47.43057692684964,0.4787057854840632
31.94332664937468,50.71578430945508,0.6434007677618317
31.57793236378597,49.81477197723382,0.7518459815212241
28.942919621663236,45.43248075882302,0.7906567652906045
2.583533344750337,4.165731056017669,2.7105354956551797
5.211776663905382,8.126969635392124,2.639501845220048
7.814331550790355,11.99627260913899,2.283990123546903
9.833364367343794,14.920552757348757,1.6444979013932215
10.69507008169923,16.045241576316755,0.7514808897942473
9.925489936375635,14.68532424041107,0.34444860858123716
7.26936698205589,10.476766779850152,1.5696659611235813
2.758347987988871,3.4801243940280733,2.8227101552127727
3.2536873049236443,5.752167954544768,3.9968075555304785
10.110578490999913,16.212005131080364,4.99033368472408
16.920546142072993,26.53459220187437,5.708657520732356
22.628741968894033,35.09781501505241,6.096948351471772
26.113085123254884,40.17755798445485,6.171157938810987
26.47435123846135,40.40663326997656,5.980461444353793
23.353958383292213,35.26246403336783,5.545587320757418
16.93972325872145,25.077708251983847,4.871925844123165
7.907659785342807,10.943803829465804,3.9777496133356958
2.623913085133928,5.376641003203374,2.891557830028108
13.29423411233899,21.760696665221,1.6609139514410154
22.68572730886415,36.019621369381035,0.3493608707529957
29.518077685779524,46.209054223841434,0.9742875048421898
32.85479080226286,50.940557149601965,2.2363267905175874
32.22644488703,49.550692698107945,3.3592538261349008
27.713066797493727,42.20483338838095,4.273761762471766
19.92878676101839,29.87424987736568,4.940311325179458
9.928160952992638,14.205943858137612,5.345620841936219
0.9353321259113748,2.692771212294585,5.493715846969385
11.203496025014685,18.554600554076902,5.414341074514526
19.506145456094263,31.251326672604186,5.154504045121776
24.75101893690683,39.09594179816718,4.763668571696533
26.27472071131609,41.08867227214326,4.298200452114871
23.930243075895437,37.05109990731301,3.8201569001745614
18.114514333396656,27.650776262221502,3.3773510407807095
9.716672858700209,14.308296936427606,2.991676082571143
0.008315930231560595,1.0021673222778782,2.6594336589491006
9.626015088310826,16.039117694987294,2.3562257934374236
17.72401685485128,28.607706731225598,2.0507458915754775
23.10955204804544,36.873253199314654,1.7126119662560564
24.98964495751926,39.629529383426615,1.3147800438044037
23.07904178595715,36.453276721031585,0.8388994865633641
17.633543420663262,27.754442013759505,0.27632768454977785
9.412247106088271,14.72167305219125,0.36770272409659227
0.433532909590549,0.8434011218147418,1.0708024722368972
10.519553525753368,16.7737621876884,1.8012815881168174
19.427638380231283,30.836290062882288,2.519464461964351
25.905267387182157,41.04563163949883,3.171672393581624
29.031464390238256,45.94982783463479,3.6979210175896737
28.34572705744399,44.836922163934226,4.043464128302025
23.914196441548942,37.834137283224585,4.164983629641888
16.322289747988826,25.89706065005512,4.043237675411884
6.59972466246476,10.679259468409969,3.6895036429563675
3.918907809269413,5.703744323577634,3.137645499374253
13.786408837553104,20.980601677657265,2.437152366480178
21.647817268781623,33.052975148011356,1.6534626199276492
26.42215826851862,40.28637978029683,0.8662306565912871
27.4626271428886,41.73097322713733,0.15412464384201313
24.653774170942754,37.24646804749217,0.4204628022201434
18.41258630325613,27.51467399221401,0.8134149783412424
9.629509827919396,13.949324845750976,0.9964115305036493
0.4496694102514645,1.5003703638876045,0.9616035650503854
10.40298225066104,16.622500089299972,0.7293556804164173
18.830684732481245,29.247018820441816,0.34570391890481517
24.547092477979145,37.557666129109535,0.12116353281411182
26.74260310331087,40.35149207656086,0.5911096940217411
25.095545928952138,37.20295542726937,0.9949507703954448
19.8237855335835,28.52650157022272,1.282559011860438
11.660382697673457,15.526165997986713,1.4182279493716736
1.7527423412984302,0.027430112797376033,1.3829450272476331
8.499818557165483,15.786874572710326,1.1829445066334132
17.645826854949025,29.682855178176677,0.8484302059435481
24.390740186223855,39.69001577672965,0.42283118819967846
27.78120625971998,44.38935522904077,0.04098955288050286
27.33605778902627,43.10729227956911,0.48749476411653303
23.115107213974476,36.0017749369549,0.8687873822851527
15.70884587973584,24.04535538279767,1.1456658368232808
6.152645325407807,8.886220134673575,1.2879433966244467
4.212655997724936,7.38606452070228,1.288830018141228
13.93081161823229,22.53121475942355,1.1733712842391395
21.64191264670858,34.46694172889632,0.9782710468037618
26.267464715406952,41.555769833249016,0.7446876343610767
27.154732395591875,42.83534106298037,0.5218548482557368
24.17379821045447,38.14735915958429,0.34745804556351734
17.73841088197207,28.165076376078556,0.24358375684686
8.745664170627956,14.312668516383544,0.22703251794862073
1.5443060527265005,1.4408201517790344,0.30376818663558575
11.682933574760522,16.862759776312892,0.4603969791564577
20.239194588413604,29.76918200745838,0.6679870955712329
25.998079617349838,38.339419219344826,0.8935792482057872
28.13494655073534,41.37865028599398,1.0994231420777532
26.336359620679257,38.47621917159838,1.2446637919404993
20.83974740079023,30.046679130540042,1.296253987809794
12.401367072734482,17.271922146571256,1.2340961906000603
2.194415858653224,1.9434955600793475,1.0577835250462144
8.359801810285429,13.78437087395529,0.7894805512770532
17.794700224165812,27.690565152525718,0.4691558008484894
24.80439149927451,37.7961201644605,0.1352811948868906
28.42516068376686,42.647082476099975,0.18841813898145757
28.16071430406622,41.52539620325,0.4724000498650765
24.04816054858068,34.55613868348413,0.6841321522244267
16.661401845885106,22.69947576629642,0.8082209675514334
7.030961447923823,7.619829838893257,0.8351349869545198
3.498447733223878,8.555912622115924,0.7687132584786354
13.45085442159101,23.54604829260854,0.6382607527629377
21.43358361615925,35.237954773795266,0.47483693528467247
26.336296479904885,41.98786115243384,0.3034767066485873
27.484715748136374,42.85057891680875,0.15510918775015983
24.7379615156551,37.7025371799734,0.05902743815725352
18.50489796626011,27.25576564142672,0.031457099566883445
9.67884803471902,12.962719417890609,0.07890738046347004
0.48853010783227535,3.1819066845268216,0.19795460775103355
10.562828462058457,18.915919861885445,0.3684027687177475
19.130279912404646,32.03149664216407,0.5558450071512632
24.989340621245166,40.68861465701931,0.724968300984318
27.31388160125749,43.66873328561083,0.8492594263223984
25.7724435898141,40.54699932031293,0.9053280695857658
20.574940923640042,31.75476902456917,0.8696931775176773
12.446543389269042,18.52008191326665,0.7297374546993987
2.5292349278962427,2.69518856884756,0.492619093302308
7.782253158426046,13.508209078276527,0.18747942059722383
17.032110782301515,27.82893005848944,0.14041271876667938
23.907299129039146,38.2734456325448,0.446599440280971
27.43047644157356,43.397472947264525,0.6928927422438357
27.09717762040083,42.500263359320655,0.8358979495668312
22.947515903205538,35.71894571307952,0.8369037910132733
15.562158336350425,24.010819009247694,0.6876430278460279
5.978852041026215,9.016308167025235,0.40903191136736744
4.4522060344989,7.168733017692423,0.03906534166727436
14.261710633589338,22.280158440306753,0.3702125084497482
22.073038106414373,34.20234729755327,0.7621897801595505
26.795164049477034,41.27207263028939,1.0841356939935827
27.77109382558916,42.50759449839031,1.293016672104966
24.86663461027681,37.735432150012194,1.361441774300084
18.49111221374563,27.626991926762926,1.273391306881047
9.537917867539102,13.617685582539833,1.0243953676785358
0.74442180540346,2.303609364508895,0.6307046570899243
10.921362456457484,17.882240142994895,0.13153609755460555
19.56885337281181,30.915708115515354,0.4191720662951165
25.477452852958898,39.56742099879761,0.9624433886684608
27.82690967302272,42.62748999744407,1.4373299783903866
26.300599693699986,39.67539999376834,1.7911892611280873
21.12679725438665,31.12841667813372,1.9928195073275117
13.046750906856227,18.183279848476825,2.031309759680925
3.2115851388000305,2.655236786357781,1.9173906580802258
7.055220723694459,13.388067174790063,1.6774262177894814
16.51236041978314,28.01671031146137,1.3462840722389966
24.155090544482544,39.67495601660075,0.9656896457601858
29.317870407847327,47.34916377262245,0.5773351218762165
31.717473889943054,50.64344867000117,0.22332203377358034
31.445024470469537,49.758840008742276,0.062283669932066424
28.910771477497494,45.39371534692055,0.2619615238209817
2.3073718378520662,4.254452392721008,2.4885101114060872
4.940139975971127,8.271569939806803,2.45340160878657
7.576972393289417,12.158261220547514,2.1628922368410546
9.664924489463255,15.047616345256655,1.6103935170095605
10.63472070598162,16.080746145597967,0.8163445296830327
10.011799590033442,14.576534296494192,0.16923863720827015
7.525804925471323,10.193643925692662,1.2727366853458415
3.183323181980943,3.031023078181871,2.405011045143294
2.6806975623070466,6.321986989074031,3.479165354765372
9.424518589554962,16.822378033299074,4.408676591763818
16.167499182711662,27.075644082129898,5.105911253787696
21.855946916871304,35.450718128775094,5.517785832447818
25.35998053016427,40.23619101859112,5.658862846091084
25.768201414928093,40.094745626711806,5.5692115703730884
22.71977242606806,34.55445336851223,5.247002165414125
16.411268662183232,24.009025072027956,4.681750073790334
7.5189255810011115,9.602771980743837,3.8925451274901954
2.8473959643520925,6.862583845110098,2.90464714622834
13.335228627588206,23.242775175550605,1.7613200986820956
22.537041550409437,37.34778635644949,0.5256817855016929
29.185795340330827,47.248401988445266,0.737842413112271
32.3537954373559,51.584417249748334,1.9563114045045886
31.568469799863323,49.72985715931171,3.0488679750749856
26.90802744569503,41.89956476770651,3.940000070906957
18.995165361078573,29.124404779976892,4.5773544998743105
8.897783783640634,13.102199198546385,4.931252556920884
2.013926639479453,4.02507947143031,4.99628611429416
12.270295585105755,19.969741450928517,4.806001149303409
20.503453452710353,32.611610940929246,4.4084163570058355
25.637069147053317,40.300726166309644,3.853251290797279
27.028642485318013,42.07828004824034,3.2139601914923204
24.54675597159937,37.801871058839886,2.580813380951492
18.595713618973427,28.177446092930914,2.034280800057602
10.053474117568815,14.656661148737266,1.6213371680255055
0.1564441170746424,0.7708964665172915,1.355657067647693
9.659630430596863,15.859049152145067,1.2359327169962924
17.97119653785743,28.421977570273402,1.2364543069953862
23.571727264510972,36.64429501382355,1.3033956380175211
25.641111917998636,39.34210665071287,1.3781201854319562
23.865023015202276,36.12045684031614,1.405297517406288
18.48234540142408,27.419982981716444,1.3354866032459867
10.248241490759813,14.452568569296217,1.141103808513657
0.31734611546225727,0.9725165586128293,0.8211099060716689
9.917018440445785,16.699955571696623,0.38978692074407567
19.016316740664085,30.525483005080062,0.12309942332033846
25.701053102471548,40.501366744031124,0.6754079604777603
29.02291738759799,45.209490171036,1.2269736493756922
28.493955286462576,43.959456000022065,1.729311379448073
24.15487176006741,36.883092288502084,2.1265238657540437
16.574424915355486,24.9252541046006,2.38756433167906
6.782194780818153,9.72044580126917,2.5076776889879664
3.871870890490493,6.6367051253552924,2.4961713139756325
13.911253379048429,21.885070837209923,2.3795240613033855
21.94442753894625,33.91827074389042,2.1925743955607837
26.864677323874115,41.08676812589094,1.975157223249344
28.010332816988385,42.4308251025332,1.7692406757765309
25.254668178194322,37.80903424449784,1.5998684519565503
19.01893576986519,27.91322312507289,1.4764617476574469
10.210847215091924,14.17234804008977,1.409580607984252
0.08918620514875232,1.4515431508629293,1.4027207071393963
9.914261838138277,16.733686285574144,1.441949348579822
18.39528493121254,29.495212583889383,1.5086422005815516
24.17360836229551,37.91894518709015,1.5800342588339402
26.442672206697058,40.79948868406892,1.626966344361005
24.880207242350448,37.707378125803125,1.6162862480756277
19.70413998747115,29.057745741386302,1.505149078275391
11.638848032532756,16.054600347805575,1.2615815643626898
1.8216662150632033,0.5273177059778398,0.878917565771596
8.346176798289989,15.324793480947942,0.36690118648540754
17.410925103385235,29.25253433787759,0.23952398806301312
24.07757258215739,39.27626201692338,0.8792417213007253
27.387743035874504,43.96784074017726,1.484551852331795
26.863371704822967,42.65467212394314,1.995204658214205
22.576292165052262,35.50327001056888,2.3612471823177494
15.12724087252528,23.49401707844136,2.546338885195731
5.557043013009221,8.289022198523982,2.533438225587797
4.799713442403471,8.00563428634134,2.32855186858388
14.501187221614984,23.136177048365777,1.9655173354631483
22.195766531893646,35.011509279164606,1.4930846204423747
26.806424894858484,41.996828601806904,0.9632849013112954
27.678294075152937,43.13749028592835,0.43980657781644217
24.675339827960574,38.281027882587004,0.013391811609360696
18.20862488901841,28.11372031711123,0.34509954616133554
9.179951398505706,14.079721719600872,0.5224270816692148
1.14129744490474,1.8329916575537584,0.5463018471607524
11.293014159745095,17.37190315569738,0.44479489787605186
19.839591197851398,30.335934128840275,0.25861041882063107
25.581010818343376,38.895739570711974,0.03628366276460787
27.712379367383374,41.852180786427716,0.17667197186810146
25.937019129290164,38.80672270544855,0.3466410280225442
20.5082428280648,30.21231140091868,0.4494763373325118
12.188203259774076,17.29695550694538,0.4646133693691075
2.1396226272656387,1.8929289780676213,0.3839250660552192
8.237352284086342,13.821897588040738,0.21989718130587135
17.49459900764108,27.63293082612255,0.005059171177448923
24.33514977183982,37.590893677238256,0.266408714875202
27.800385553549685,42.28562750187113,0.531310586084587
27.402677478632103,41.0417836476081,0.7521557001566496
23.19412969848451,34.00876291447584,0.8791654978126487
15.764981580069739,22.15652415995044,0.8823692046260173
6.15604869627161,7.149877855114719,0.7529088159640231
4.288906757457286,8.89328274263678,0.5014931531399963
14.107355312735512,23.704065140371306,0.1639090498343833
21.92930782112326,35.18802473580304,0.21209633321352062
26.672442860646612,41.72992212982706,0.5767896481887959
27.688829317460964,42.41908670237328,0.8804792841203667
24.853188918850158,37.16863253431727,1.082659138704505
18.577883455351476,26.721076289868815,1.1532219764078786
9.757404657639078,12.53797384289014,1.079278242953742
0.35618279315575396,3.401523276538619,0.871745636075996
10.3355661186477,18.868702059876583,0.5584466785334509
18.77881314336824,31.696788172861837,0.17748485783437926
24.504125154399446,40.087384622145336,0.2314636628752468
26.71639138351413,42.86074619176924,0.6244410274680005
25.116788344797644,39.6181000744509,0.9487223741659395
19.940494576231817,30.80287862022011,1.1617586722714128
11.922255631157762,17.648880010646913,1.2472687934287512
2.197937621623714,2.010271232735326,1.2115026693005866
7.85458287533268,13.904232719667151,1.0727128788208466
16.805469484113278,27.849041966305723,0.8569806995824988
23.369968717759306,37.86261937799277,0.598967012881906
26.601170514059103,42.54480753583111,0.34053501274088016
26.02957240430934,41.24565423272468,0.12081316970640096
21.72867508196702,34.15033294703429,0.03931894147158702
14.304142331770409,22.257458983447062,0.12618431331639232
4.803154990648991,7.238859068493908,0.125127073201999
5.434163524652962,8.794003701510412,0.04168095014752555
14.967408950211581,23.582426627525848,0.10145746137847592
22.45797228849168,35.04281440306685,0.2756242896500525
26.851028374346747,41.558682924486945,0.4431038572789864
27.52548383420985,42.20277278641407,0.564807554782671
24.379134807436678,36.868339885969455,0.6043059445363647
17.840676429677487,26.290306529970326,0.5343833285847022
8.812888956299247,11.954360575610442,0.3485048606197465
1.4478034694138024,4.117188574664818,0.05119962802298748
11.501705589610065,19.659569408243087,0.34700363620591695
19.931886368114622,32.478379581350985,0.8192291366465991
25.547421355229677,40.76379938315244,1.3236443685834505
27.556841220787067,43.34763304809902,1.8026994670641534
25.6863124353088,39.86062227106845,2.1872151342876798
20.210069846264833,30.78335412002616,2.421089888385774
11.904895189873367,17.37435485563561,2.467239025003572
1.938889540087356,1.492881973041939,2.3138957362115966
8.365384959306608,14.770830736765546,1.9858138524349094
17.774366269231574,29.485039807536637,1.5337886501330604
25.290625888204694,41.10872133238137,1.0161293270303096
30.259070166892194,48.65257429256086,0.4875487106295297
32.41843280184267,51.74712440190786,0.00035519340815323556
31.891578583416432,50.624527639104016,0.4059241743628557
29.1199983163315,46.01900447626691,0.7026400131249181
2.4824964377278302,4.355967593693866,2.38421302935307
5.07821601244934,8.409839723899566,2.3089124133798613
7.647577362769077,12.334610116689863,2.003713862072613
9.635469167793127,15.263343585319799,1.4679951772800164
10.479979735709039,16.334794280550426,0.7181061731807002
9.722016078046778,14.864036004521376,0.20969875758188336
7.115030652330416,10.500116903482233,1.258749257859943
2.6917994595138217,3.324846757666196,2.3480866813442627
3.197911918650959,6.087199598181542,3.3889350995574614
9.90438014664217,16.701198084334415,4.294561487297872
16.546631690021655,27.12259436731603,4.979682716741129
22.08618805984543,35.706872691648634,5.392398158997616
25.419647382001536,40.72004450859268,5.544014066455027
25.665717891526356,40.79828129092679,5.466497918705906
22.485086268419312,35.4446520926831,5.158718714530722
16.090364954096746,25.03757006624395,4.609157291875983
7.17323632387024,10.714635687756141,3.8182803602477176
3.1554700540629677,5.7282582639031885,2.799547080820872
13.554484168135284,22.155173009308747,1.6060019168881376
22.632305257817755,36.384588701761736,0.3178834498017787
29.144265610218433,46.49007327188069,0.9786740045251884
32.19295216165762,51.104756621599634,2.185447579456934
31.340027225017604,49.58950998523653,3.2202368469799088
26.680843239213,42.13754744234561,4.028115040732286
18.83243819343485,29.74610771579269,4.567415146301423
8.844931985852552,14.07728535558873,4.8223374400556045
1.9353339756651564,2.7560298408559274,4.802371872216479
12.059641606950473,18.487458444008784,4.545134891612292
20.174968065101176,31.006873336961018,4.121739165026703
25.210694058885828,38.6663995874628,3.608518810162299
26.52546820587886,40.50482800488413,3.0771139922755384
23.993986000532875,36.36637408003925,2.5903864797813516
18.030109966779158,26.938836414825076,2.188644870699701
9.528338616023234,13.661931537022637,1.892831337741996
0.2654488214446963,1.4859141558196425,1.6976238473754943
9.926649247798618,16.273443742887746,1.576078044234139
18.044524157574145,28.529904615830418,1.4954909254767743
23.429210968160508,36.45134925355479,1.4180688963993233
25.292014818724546,38.86254662663606,1.3073079138215964
23.35162092970175,35.37694415707306,1.1336800280471881
17.869693345013975,26.4414004095159,0.880634484039529
9.611030866439926,13.272183345777782,0.5377543600684966
0.2668125961089018,2.3154644782799876,0.10153574423145342
10.37627941761903,18.15611387170769,0.396532622351035
19.298370436172604,32.029373145446336,0.9088650817464354
25.77721997396757,41.96817744116224,1.3935163601845724
28.889431087737623,46.53978052305824,1.807879873351623
28.17647203946766,45.04936804603642,2.1298388620821345
23.710315764968033,37.6380366543723,2.3463431344647065
16.083621383911417,25.28015618059029,2.4331109245122864
6.332296772059209,9.657537058848535,2.376779055852659
4.2079907882597345,7.088254546396745,2.189133826084072
14.093556522358469,22.663233727314335,1.9069720119506943
21.970995342179926,34.943628071291265,1.5809443111277766
26.76103723218254,42.2785047329017,1.2684920633796715
27.81813146075802,43.71605302180333,1.0253375808420473
25.023894867776324,39.12253476443002,0.8820419723668835
18.794930172231982,29.197007794277614,0.8469856253078352
10.022352048272475,15.374657050131347,0.9141001322987005
0.04917317748783722,0.3779021211540597,1.0593321352952028
9.994643647436577,15.832490492690502,1.2496381695915373
18.41303118895729,28.803787696306156,1.4439885730993076
24.1238165467646,37.46169177244175,1.5988059685686125
26.32554705280281,40.590343523597575,1.6745036424995754
24.70913029113056,37.75688658804929,1.633550656601228
19.505776004377708,29.378587229507154,1.4536343211713847
11.453805071221181,16.665759341802655,1.1292566739143726
1.69630981706796,1.448743946720061,0.6761733198432284
8.377719745093815,14.08479937917268,0.14408088817633727
17.333324689276175,27.708885897329004,0.40505190070056374
23.89260297081705,37.47801034892496,0.9170872768399176
27.110442563843627,42.001225911435014,1.3452842671686422
26.509908166489833,40.6313176549193,1.6527177202868288
22.155668448278615,33.54605277521912,1.8236205718249558
14.647564011537181,21.725727439316405,1.863401609980826
5.032465292786096,6.820715189453573,1.78032986045906
5.349563835881276,9.083920289774593,1.5931635479648765
15.05238965812655,23.762431218601023,1.3344217155388336
22.72225045849934,35.15171419316399,1.0334853840493143
27.28967357771456,41.6413614025743,0.728287641370199
28.11992672610514,42.30534414649831,0.46380719019247185
25.095698454623253,37.02680661021192,0.2702400346644096
18.631686671932762,26.524934790421785,0.1605740995648007
9.625556515780197,12.26604366877038,0.1344564996398602
0.6651291305275759,3.749906903495458,0.18318903564445402
10.80524217661375,19.27375021887094,0.2871731415999285
19.38042607556918,32.12541431929473,0.41119830880006397
25.195731750896957,40.50423568644882,0.5134003918319529
27.4488670651921,43.24201415312776,0.55749896540259
25.843122593276096,39.963365461561416,0.5167265662236575
20.63299109454154,31.12750201688175,0.37722397826917015
12.590242684284906,17.96320287615582,0.1497323728188757
2.8869786764374137,2.3030289637709274,0.13720972475162033
7.081246877502386,13.673887117416466,0.4485035389389561
15.895332679447835,27.74008733321858,0.7435293253078784
22.30702277405468,37.927365106643826,0.9918716815653205
25.413485939952295,42.80801282450785,1.1682507007143679
24.78428243532941,41.69628808998501,1.2440760876117147
20.516539737725676,34.74565297765906,1.2028903494732164
13.215467804960884,22.93379850005816,1.0369361309574456
3.911362267488601,7.932765121651324,0.75169527863204
6.075195845342141,8.13223588409337,0.37757828967438417
15.318351007362834,22.98995380868239,0.038906815904108376
22.491313000975797,34.54239154170223,0.44158744032529157
26.552346645769607,41.16667190166744,0.7796802817940552
26.898743805664648,41.94276635558128,1.0195315967777139
23.455922700533495,36.77235101110009,1.1421500333709185
16.68522267060574,26.385455704061453,1.14664322314307
7.517336676345113,12.236836295844663,1.046102532105465
2.783266947082697,3.692423691843607,0.8593251531853853
12.796661698666714,19.170452505768097,0.6102741405210567
21.14426659387253,32.02062827659634,0.3256484311561962
26.67503454082169,40.42211413589718,0.028441384397379293
28.619650316969146,43.17424215433112,0.2597803230151171
26.70261291694824,39.86997406608555,0.5066040514102851
21.181819872726024,30.95735003433932,0.6738733849701904
12.813227108284307,17.680554888469988,0.7379948432410425
2.751607457004572,1.9030004676692343,0.6974205430283075
7.607371574408096,14.159071281012958,0.5722250414350285
16.8188309729488,28.25522197040725,0.39268932236126286
23.594282940811286,38.41868898041448,0.18305425577699297
26.98995029849126,43.242439188860594,0.028892078515217773
26.54113847442975,42.073105215160325,0.20863504852415932
22.325933428478695,35.087365024059075,0.3310805538874598
14.950073351999107,23.264341249320783,0.3813944517797985
5.459423776938833,8.261205010645991,0.35212754670937463
4.807195620638712,7.817831164224534,0.24116667607570055
14.403026584950016,22.718835834460982,0.05086518666914373
21.97387042948186,34.349015311275664,0.20751519111567432
26.451503403916,41.07168627370392,0.5135015855294714
27.202203753170465,41.944049319302295,0.8323486836360867
24.11567683426372,36.85117706217517,1.1113210467805696
17.62384779352062,26.52173904704664,1.290528786376668
8.636986534146756,12.428389877982177,1.3258211217473523
1.5839468192872395,3.4259368575223546,1.2037997016266928
11.601455921821518,18.794253773927416,0.9313661807804057
20.00409066042516,31.496207623775184,0.5293062631612662
25.606364896633224,39.72743987969838,0.03547753394019868
27.616717046300298,42.31886748764867,0.5007597472869307
25.75298868731255,38.898618997805514,1.0199132607098083
20.284894720329234,29.93635319758588,1.465242169311147
11.990323310174643,16.676218340127875,1.7964009726225258
2.038629829977092,0.964112785626236,1.9837100250241206
8.242742840456515,15.12268348014249,2.014241348509186
17.61535766215623,29.664648202536995,1.8987939805465686
25.084413056874126,41.13198191117838,1.6630073826415281
30.00428233291748,48.544245304821615,1.346115222446465
32.12550063099136,51.54162508777658,1.0003534604565179
31.580914250554823,50.35974622027506,0.6752403866546709
28.81780789634002,45.72737626146336,0.4039891552906399
2.65487788847724,4.30535434045637,2.6576964521425186
5.209483960755454,8.293294295400027,2.5945781325804482
7.707522771778715,12.143279913356784,2.252162883627361
9.596809026784866,14.99254959044951,1.621404283554827
10.31596671432505,15.989172580956218,0.7269178977563012
9.41227417628786,14.459585786757543,0.37876108014956755
6.655422021152972,10.06919642134459,1.6192790547971758
2.0977689272295277,2.922434052514317,2.888451483385955
3.8866947224620705,6.385455144311658,4.065218759050282
10.626148808903622,16.813622611024158,5.033428409751462
17.22809297839284,26.982155410362296,5.699596722999921
