File Name: not saved
Channel 2: 'Channel 2', 30160 values, raw ADC, no filters.
Channel 3: 'Channel 3', 30160 values, raw ADC, no filters.
Channel 4: 'Channel 4', 30160 values, raw ADC, no filters.

-71	-214	-72
-42	-163	-75
-7	-46	-84
26	85	-74
54	168	-79
77	178	-92
89	124	-112
89	55	-119
78	11	-87
54	8	-28
23	27	43
-11	33	48
-41	3	51
-66	-56	55
-79	-113	17
-79	-136	8
-63	-108	4
-41	-45	6
-11	20	10
20	64	7
46	76	-1
64	68	-4
67	64	5
61	70	25
46	84	28
28	84	11
11	58	-8
-5	7	-22
-20	-48	-27
-36	-91	-51
-52	-105	-94
-67	-92	-126
-75	-71	-105
-71	-53	-63
-56	-44	-22
-29	-32	7
3	-10	-3
34	25	0
57	68	3
70	100	-11
68	106	-21
58	85	-16
38	43	-2
14	-3	-5
-12	-43	-12
-37	-69	-35
-58	-86	-63
-72	-92	-59
-76	-94	-23
-71	-86	12
-55	-63	36
-31	-30	20
-2	11	-18
29	49	-54
56	83	-102
77	105	-124
85	119	-132
81	122	-43
65	110	55
40	77	62
11	15	76
-20	-59	30
-48	-126	-14
-71	-155	-52
-88	-132	-82
-93	-69	-85
-87	1	-90
-69	33	-59
-40	10	-30
-4	-62	0
32	-138	19
64	-167	33
84	-117	46
90	-5	27
81	118	4
61	193	-48
36	178	-85
8	85	-76
-17	-36	-35
-38	-127	-6
-54	-144	14
-63	-95	22
-65	-15	-39
-62	51	-54
-50	72	-67
-30	51	-68
-4	15	-20
28	-7	-25
57	-3	-20
78	25	-2
84	53	3
71	64	-29
44	53	-69
5	25	-52
-34	-11	-38
-67	-46	-46
-91	-78	-32
-100	-102	-14
-96	-114	-4
-79	-105	14
-54	-74	24
-22	-26	26
12	27	13
46	70	9
74	94	22
91	96	31
94	88	21
85	76	-8
65	62	-28
39	45	-53
11	19	-74
-17	-19	-104
-41	-60	-125
-62	-92	-78
-76	-102	-23
-79	-87	-6
-71	-56	-8
-52	-23	4
-23	6	1
11	25	-2
42	43	-16
69	63	-16
85	90	7
86	115	-6
75	127	-27
52	116	-71
21	71	-51
-13	3	-16
-48	-80	-35
-78	-153	-51
-99	-202	-50
-108	-210	-21
-106	-178	-31
-90	-116	-32
-62	-39	-23
-27	30	-17
13	84	7
51	121	14
82	142	-18
99	156	-31
99	150	-14
83	118	-30
57	50	-21
24	-41	-34
-7	-131	-63
-37	-187	-32
-60	-181	17
-80	-120	7
-91	-35	-14
-91	24	-20
-76	30	-10
-43	-14	29
-2	-71	41
44	-90	27
81	-45	-7
98	50	-16
97	150	-41
79	199	-79
50	171	-85
21	80	-92
-6	-26	-51
-31	-100	1
-52	-116	-40
-70	-89	-40
-84	-55	-24
-85	-44	-56
-76	-58	-30
-52	-76	-24
-20	-64	-26
15	-11	-28
46	71	-28
71	149	-19
86	187	-13
93	168	13
86	102	38
69	20	40
44	-50	7
10	-93	-19
-28	-106	-45
-62	-100	-69
-88	-89	-61
-99	-77	-59
-97	-68	-76
-83	-60	-65
-58	-49	-42
-28	-32	-32
3	-5	-16
33	28	-8
57	67	-1
72	99	-8
80	115	2
74	106	30
59	70	21
36	24	16
10	-24	8
-19	-58	-13
-48	-78	-18
-71	-84	-16
-87	-83	-20
-87	-80	-5
-75	-68	20
-48	-48	16
-13	-14	-5
21	29	-47
52	70	-87
74	96	-113
83	99	-114
81	83	-86
63	53	-43
36	24	0
1	-4	17
-37	-29	11
-75	-53	-27
-99	-80	-15
-108	-98	52
-98	-105	78
-74	-85	70
-39	-37	28
0	30	-7
33	100	-26
61	148	-75
78	157	-156
84	117	-196
78	39	-163
63	-50	-137
38	-117	-83
10	-136	-35
-20	-106	-4
-45	-41	32
-65	16	26
-78	36	19
-81	6	29
-76	-61	34
-60	-127	24
-38	-157	30
-12	-121	25
16	-33	4
41	77	-12
62	162	-11
78	190	7
84	158	-5
83	76	-32
71	-13	-81
48	-83	-104
17	-113	-59
-19	-107	-34
-53	-80	-34
-81	-49	-17
-93	-32	-12
-88	-25	-40
-66	-23	-27
-36	-11	-16
-2	19	-25
29	61	-8
52	104	-4
68	126	17
75	117	42
74	76	34
63	22	9
44	-27	-21
15	-53	-60
-22	-54	-69
-61	-45	-36
-93	-41	4
-112	-54	21
-111	-80	8
-92	-101	-6
-60	-97	-27
-22	-54	-41
15	11	-44
47	81	-39
71	127	-35
90	138	-35
99	118	-18
96	81	28
82	46	65
52	20	21
14	0	-38
-30	-23	-83
-68	-53	-99
-97	-86	-109
-109	-113	-121
-105	-118	-91
-87	-101	-55
-57	-64	-20
-23	-22	-24
12	15	-50
41	44	-61
64	64	-50
77	81	-4
76	87	31
63	85	61
42	77	67
17	62	81
-10	51	52
-34	43	-4
-56	35	-27
-74	10	-86
-82	-46	-108
-76	-133	-91
-54	-223	-68
-21	-273	-43
19	-249	-38
55	-142	-13
82	12	-38
91	153	-68
85	228	-54
67	218	-59
44	158	-28
21	98	-12
-1	82	19
-26	102	61
-53	112	30
-80	56	16
-97	-86	26
-104	-263	10
-95	-386	-16
-71	-365	-44
-41	-184	-59
-10	86	-50
22	320	-20
51	398	-5
76	282	3
97	33	24
107	-215	15
104	-349	-15
83	-315	-23
44	-160	-28
-1	12	-52
-48	110	-43
-84	104	-7
-104	36	-5
-105	-19	-6
-93	-12	-19
-68	48	-32
-39	104	-42
-6	100	-47
27	16	-50
54	-98	-65
75	-170	-40
84	-140	-1
80	-13	8
62	145	4
35	252	5
3	250	-20
-33	140	-66
-65	-19	-76
-92	-157	-27
-103	-217	3
-99	-191	-6
-79	-100	26
-47	20	0
-14	132	-28
21	208	-46
46	215	-82
69	147	-60
86	2	-53
98	-174	-39
98	-312	-28
82	-343	-11
49	-248	-2
4	-71	-9
-42	95	3
-78	158	-4
-90	93	-40
-81	-54	-64
-55	-179	-41
-25	-196	-13
3	-86	-8
25	92	28
42	235	74
56	268	56
63	193	22
61	76	-9
45	-2	-36
18	-1	-54
-16	53	-101
-47	95	-128
-70	68	-116
-83	-28	-70
-85	-139	-52
-81	-195	-24
-72	-163	-8
-61	-59	-21
-40	49	0
-10	106	-37
26	95	-36
61	45	2
85	11	4
93	22	14
83	68	21
62	109	22
35	103	25
8	38	7
-15	-52	-21
-37	-125	-35
-53	-148	-46
-64	-118	-48
-66	-69	-35
-59	-34	3
-44	-29	10
-24	-38	12
-3	-37	10
17	-8	-16
35	41	-54
52	90	-122
66	111	-120
74	95	-58
68	54	-35
46	11	-38
14	-18	-17
-27	-31	-7
-63	-43	-30
-94	-56	-35
-108	-69	-18
-107	-65	-14
-94	-32	-8
-68	25	17
-37	84	24
2	110	26
40	87	45
76	21	44
99	-57	28
105	-112	-23
96	-122	-83
69	-88	-41
36	-26	28
-1	45	8
-39	118	-18
-71	174	-41
-95	199	-94
-104	153	-78
-97	16	-87
-69	-204	-90
-31	-435	-67
12	-577	-85
49	-546	-66
75	-321	13
87	11	69
89	305	55
87	427	16
81	333	-6
71	98	-30
51	-134	-60
20	-232	-54
-22	-163	-96
-67	3	-124
-104	134	-94
-122	143	-65
-119	32	-36
-99	-110	0
-63	-169	36
-25	-93	53
12	81	62
44	247	53
72	313	53
94	255	35
104	124	7
101	12	-16
83	-28	-12
51	-2	-24
10	30	-48
-35	18	-32
-76	-50	-4
-107	-127	22
-121	-149	3
-118	-91	-20
-95	19	-40
-59	110	-56
-16	126	-54
24	59	-68
55	-37	-123
72	-96	-160
78	-71	-91
74	21	-45
60	121	-27
41	163	15
16	116	60
-16	3	119
-48	-122	120
-79	-209	54
-94	-230	-75
-93	-195	-128
-72	-131	-89
-41	-64	-53
-5	-5	-55
26	43	-80
50	81	-97
67	102	-110
79	101	-36
83	80	4
77	51	-6
59	26	16
29	20	0
-10	28	9
-48	41	13
-80	48	-7
-96	41	5
-98	26	15
-85	-4	5
-59	-45	-3
-26	-98	3
11	-150	12
50	-175	-12
85	-153	-78
107	-70	-98
117	51	-38
105	178	7
77	261	16
34	278	19
-15	229	12
-63	138	-30
-108	34	-64
-136	-76	-51
-143	-188	-59
-129	-301	-82
-96	-384	-76
-49	-402	-28
0	-319	7
40	-140	35
72	76	32
87	253	2
92	323	-31
85	270	-93
71	137	-91
52	-4	-34
30	-90	-6
9	-111	12
-15	-91	28
-37	-72	31
-58	-77	26
-75	-93	2
-85	-91	-8
-80	-50	-19
-60	18	-49
-31	88	-60
6	130	-80
38	135	-70
60	127	-50
71	119	-30
71	120	-5
62	110	-35
49	62	-48
29	-25	-35
4	-129	-27
-27	-200	-33
-59	-204	-32
-86	-137	-32
-97	-43	-32
-89	26	4
-65	41	32
-34	19	69
-3	10	95
21	60	75
39	177	20
52	301	-70
65	354	-129
76	271	-107
82	57	-58
76	-206	-6
54	-408	24
20	-457	28
-20	-346	17
-54	-148	-24
-77	33	-61
-80	109	-49
-63	71	-18
-39	-28	-52
-8	-101	-86
17	-95	-57
35	-10	-16
42	98	5
42	160	-33
33	145	-71
20	72	-37
8	3	26
-5	-16	39
-15	25	-30
-28	92	-75
-40	120	-55
-56	74	-46
-69	-42	-62
-76	-174	-26
-71	-259	33
-53	-249	51
-23	-153	52
11	-13	12
44	109	-38
68	169	-108
80	162	-234
77	114	-227
62	61	-126
37	32	-52
9	30	6
-21	44	81
-43	50	99
-58	36	51
-58	-2	46
-44	-55	20
-21	-107	8
8	-144	-2
32	-151	17
49	-126	53
57	-70	48
59	3	48
58	76	22
55	128	-5
50	147	-32
37	126	-88
17	77	-120
-12	17	-105
-47	-36	-117
-81	-67	-136
-108	-69	-111
-124	-45	-61
-129	-5	4
-120	34	43
-102	57	60
-71	47	70
-35	-1	53
7	-74	24
48	-142	-59
79	-163	-106
95	-114	-62
94	5	-70
80	158	-36
54	282	25
27	320	31
5	241	49
-14	65	54
-27	-145	24
-36	-317	-44
-38	-391	-64
-36	-358	-68
-26	-240	-119
-8	-96	-166
16	23	-121
41	85	-59
62	89	-50
76	63	5
74	33	-15
55	26	-13
27	37	28
-5	59	47
-34	76	57
-55	72	17
-65	53	22
-69	25	26
-68	2	57
-62	-11	107
-50	-8	110
-30	10	117
-1	39	81
31	74	-45
63	99	-109
89	103	-123
101	68	-164
98	2	-155
80	-80	-182
48	-142	-161
9	-157	-25
-34	-116	28
-75	-45	29
-106	13	46
-123	22	61
-125	-23	49
-114	-94	11
-89	-136	-17
-53	-115	-60
-7	-28	-138
42	84	-173
94	168	-157
131	188	-100
144	149	-22
126	90	8
81	56	-2
20	68	0
-42	104	7
-87	122	17
-112	82	47
-118	-21	36
-111	-150	31
-96	-249	21
-75	-274	-51
-44	-219	-90
-4	-116	24
38	-9	72
80	57	43
106	81	50
113	71	5
102	58	4
80	54	-60
53	58	-160
28	58	-198
5	44	-171
-21	21	-76
-48	2	-35
-78	-1	-44
-100	15	-52
-109	30	-26
-100	24	10
-71	-17	30
-33	-85	32
14	-150	24
59	-169	45
98	-116	30
119	10	6
121	168	12
99	299	-16
60	337	-62
15	251	-28
-25	56	30
-51	-187	29
-63	-393	52
-63	-490	57
-62	-441	30
-60	-270	15
-59	-56	-82
-54	117	-193
-39	193	-204
-15	168	-109
14	93	-5
35	33	40
48	38	64
50	102	54
46	174	-3
42	199	-86
37	136	-121
26	9	-120
0	-127	-93
-38	-205	-77
-82	-194	-36
-114	-111	15
-120	-9	-17
-98	52	-13
-52	54	3
-1	14	12
39	-19	24
59	-10	-15
62	48	-32
54	121	-7
44	161	4
39	137	-19
32	56	-50
18	-38	-49
-5	-107	-24
-35	-124	-20
-61	-96	-39
-78	-57	-3
-75	-34	58
-57	-36	99
-31	-46	84
-4	-42	57
22	-5	38
44	57	-41
65	121	-137
84	161	-133
92	160	5
89	124	86
69	74	47
36	26	-72
-5	-6	-135
-47	-31	-151
-83	-55	-168
-104	-89	-133
-109	-126	-97
-100	-161	-47
-72	-177	-34
-35	-169	-27
9	-131	8
51	-75	-12
86	-9	-31
101	48	-4
101	89	59
89	98	87
66	80	54
41	36	32
13	-11	10
-18	-48	-6
-50	-54	-26
-84	-30	-30
-104	10	-5
-107	45	-30
-87	49	-29
-47	10	16
3	-61	14
47	-134	11
78	-165	-14
90	-131	-39
86	-36	-36
72	84	-34
55	175	-55
42	199	-37
29	141	12
16	34	-35
-2	-75	-54
-26	-129	-81
-48	-113	-102
-69	-31	-76
-84	85	-57
-92	193	10
-87	264	37
-76	275	29
-55	224	57
-32	109	66
-12	-48	65
4	-217	34
12	-343	-44
13	-380	-118
10	-316	-134
8	-175	-96
8	-27	-34
8	61	-6
2	52	-24
-12	-28	32
-30	-117	26
-48	-149	-105
-50	-92	-110
-34	24	-49
3	136	-20
49	190	9
90	171	-14
113	116	-96
111	77	-122
89	84	-51
58	125	-9
27	158	-34
1	136	-49
-24	50	-43
-49	-62	-2
-76	-152	59
-97	-174	14
-104	-130	-92
-91	-59	-102
-55	-9	-67
-10	-2	-55
33	-22	-29
64	-34	7
78	-9	28
78	51	53
72	118	91
62	144	87
51	110	91
34	33	45
7	-47	-26
-27	-87	-90
-62	-66	-103
-89	-1	-71
-101	67	-65
-94	96	-7
-72	68	4
-42	-5	30
-11	-90	22
19	-149	-23
42	-158	-32
61	-119	-34
74	-55	16
76	5	-21
66	36	-52
48	31	-52
19	-4	-18
-14	-47	14
-46	-86	-37
-69	-109	-55
-80	-120	-9
-72	-126	39
-51	-126	-6
-23	-114	-67
3	-76	-137
20	-9	-151
28	74	-109
26	155	-83
19	208	-12
12	218	11
6	188	-9
2	133	-9
-7	68	2
-20	3	17
-36	-56	46
-53	-113	57
-67	-152	91
-71	-160	56
-67	-134	-64
-52	-76	-111
-30	-10	-77
-4	41	-54
24	63	-94
50	59	-90
72	49	-18
87	50	104
94	65	147
93	76	136
81	65	137
59	30	124
27	-5	48
-12	-7	-137
-56	45	-313
-97	142	-384
-123	219	-300
-130	210	-195
-109	70	-77
-65	-168	29
-7	-419	64
48	-564	54
88	-519	35
103	-292	34
94	28	-8
75	305	-12
52	427	-8
39	359	6
32	165	22
22	-47	-19
3	-182	23
-25	-200	87
-57	-139	29
-82	-68	-34
-85	-40	-23
-66	-59	-15
-32	-81	-17
7	-58	-5
41	27	-28
65	138	-52
78	222	-92
81	235	-81
69	174	-5
46	93	-3
8	32	12
-37	19	32
-80	33	14
-107	41	1
-113	21	8
-99	-17	-1
-71	-31	-31
-44	1	-38
-20	66	-66
4	105	-54
29	61	32
58	-74	24
83	-249	-34
95	-358	-108
86	-328	-147
58	-154	-101
20	76	-43
-14	237	21
-38	244	52
-51	100	87
-58	-100	67
-66	-237	35
-71	-233	6
-72	-107	-71
-59	47	-65
-34	138	-20
-1	121	17
28	35	42
44	-35	43
50	-26	15
48	63	-70
49	165	-136
49	208	-147
48	150	-201
33	25	-202
1	-99	-95
-44	-155	-28
-89	-130	31
-118	-66	37
-123	-17	-31
-102	-19	-59
-65	-51	-40
-26	-70	-13
8	-32	-2
33	60	-6
54	160	-16
72	203	-23
88	157	-67
97	39	-60
94	-94	-23
75	-175	9
44	-175	68
11	-109	84
-23	-22	79
-48	35	66
-63	48	56
-65	28	34
-61	5	-3
-47	-8	-7
-28	-12	-51
-2	-21	-83
25	-46	-66
51	-72	-111
69	-77	-129
72	-35	-87
61	48	-32
34	138	0
2	189	-33
-29	168	-9
-54	83	51
-70	-30	48
-80	-121	54
-81	-159	57
-77	-149	7
-63	-120	-52
-37	-102	-125
0	-103	-106
44	-107	-38
85	-86	-68
109	-25	-76
109	63	-46
85	148	-30
43	198	5
-1	202	86
-33	169	92
-53	119	43
-58	61	5
-56	-9	-35
-52	-102	-37
-48	-212	-27
-41	-304	-32
-28	-326	-51
-10	-256	-50
18	-96	-27
46	94	-18
77	233	-82
96	269	-109
104	210	-71
93	113	-77
63	50	-40
20	58	-3
-31	109	56
-76	131	48
-105	65	-12
-115	-97	-41
-110	-288	-106
-99	-410	-128
-86	-386	-108
-75	-223	-14
-56	0	11
-31	174	2
8	229	4
48	174	-10
81	79	29
91	29	56
78	57	81
48	131	58
13	179	25
-16	143	-21
-37	26	-85
-51	-109	-137
-64	-187	-150
-76	-171	-110
-80	-85	-48
-67	-2	7
-36	13	-20
7	-43	-16
50	-120	28
83	-138	23
97	-58	-15
96	89	4
88	225	21
79	266	-27
67	187	-72
51	33	-86
21	-107	-30
-22	-161	32
-67	-113	36
-104	-16	37
-114	56	56
-100	63	91
-65	16	75
-26	-24	17
10	-13	13
38	56	-37
59	135	-111
81	156	-175
98	84	-144
107	-57	-60
96	-194	-18
62	-253	-28
8	-201	-105
-51	-80	-111
-100	32	-50
-125	66	112
-124	9	160
-103	-94	87
-72	-166	37
-40	-152	-70
-11	-49	-78
18	89	-98
46	207	-124
72	261	-114
88	257	-123
91	218	-115
78	166	-151
52	100	-52
20	9	57
-15	-104	58
-49	-218	59
-80	-283	24
-101	-270	-15
-112	-182	-22
-101	-72	-10
-72	-8	-27
-28	-19	-26
21	-85	-11
62	-133	21
90	-106	66
100	7	-4
98	157	-37
87	252	15
70	240	-11
44	120	-40
9	-28	-48
-35	-121	-38
-80	-104	-9
-113	0	-1
-132	121	9
-131	183	29
-119	154	29
-99	55	-43
-75	-57	-96
-43	-134	-99
-3	-158	-112
45	-141	-104
94	-102	-37
127	-50	4
135	18	-42
115	95	-47
75	154	-16
30	154	4
-10	65	41
-36	-92	57
-54	-256	80
-64	-339	77
-72	-289	39
-74	-123	23
-61	81	-57
-32	224	-130
12	241	-110
52	142	-78
82	6	-81
85	-74	-69
66	-42	3
36	84	34
9	221	21
-10	274	18
-19	190	-40
-20	-7	-97
-24	-235	-86
-32	-391	-61
-44	-408	1
-52	-287	8
-48	-93	2
-33	88	-53
-7	187	-106
20	186	-37
44	118	8
61	47	38
69	16	49
67	41	94
57	92	109
42	126	51
20	112	-31
-5	45	-114
-35	-39	-114
-61	-107	-13
-84	-126	65
-91	-102	51
-84	-51	58
-63	-5	-71
-34	18	-176
-2	25	-106
27	30	-142
49	48	-115
65	75	-40
74	95	1
76	93	26
69	66	-20
54	36	-48
29	27	-39
-4	52	-38
-39	97	-40
-69	117	-40
-93	80	-102
-102	-24	-65
-101	-161	5
-91	-277	-1
-71	-316	-33
-45	-265	-28
-13	-169	-12
24	-72	-28
60	-29	17
87	-36	22
97	-59	24
86	-53	-23
57	-1	-42
20	71	-14
-13	119	20
-37	95	25
-49	8	-45
-51	-95	-44
-51	-151	-39
-48	-117	-21
-44	-13	20
-31	112	27
-8	195	48
24	210	55
56	171	29
81	127	2
86	105	-46
74	103	-124
46	91	-128
11	33	-89
-26	-69	-98
-61	-179	-30
-90	-243	46
-108	-227	26
-111	-141	21
-96	-34	-4
-62	37	-38
-20	56	-58
21	38	-50
51	30	-19
65	70	12
65	154	3
58	241	-54
50	279	-21
42	236	-2
35	122	-11
24	-15	4
8	-127	-24
-10	-196	-80
-24	-227	-105
-32	-248	-80
-34	-272	-63
-33	-286	18
-29	-263	81
-20	-179	41
-1	-45	32
29	99	104
67	198	160
101	221	130
115	174	69
105	97	-46
67	45	-200
16	36	-294
-36	62	-243
-80	83	-135
-108	66	-127
-123	7	-158
-124	-79	-117
-114	-145	-70
-90	-171	-20
-50	-144	107
-2	-85	175
41	-13	169
72	50	127
84	97	38
76	128	-42
58	137	-104
39	122	-128
20	78	-121
-1	12	-108
-30	-55	-56
-63	-102	5
-93	-104	40
-107	-66	43
-97	-9	-19
-59	35	-37
-8	45	-8
43	24	-72
81	-7	-114
92	-8	-72
78	37	-14
46	123	48
11	205	36
-20	224	21
-35	141	72
-35	-38	33
-23	-254	-20
-9	-422	-30
-8	-460	-42
-21	-354	-32
-48	-153	-1
-75	51	21
-85	171	18
-69	174	2
-28	97	-7
24	15	-26
71	-6	-76
99	44	-101
102	128	-103
87	171	-77
65	138	-64
44	39	-51
24	-62	6
5	-105	47
-18	-72	96
-35	0	102
-49	45	97
-51	21	94
-43	-65	22
-31	-151	-84
-17	-167	-179
-6	-90	-151
8	45	-62
24	166	-87
46	206	-108
69	155	-84
83	59	-97
78	-15	-92
52	-30	-46
18	6	10
-23	43	69
-57	33	58
-85	-33	-15
-103	-123	-36
-117	-182	-67
-122	-173	-35
-112	-99	-8
-87	0	-35
-43	86	0
6	145	7
48	191	5
72	233	4
74	264	5
61	244	-12
47	139	-45
40	-52	-32
38	-275	-11
34	-432	-27
19	-443	-80
-10	-291	-96
-45	-54	-70
-69	149	0
-75	211	64
-53	116	55
-17	-68	21
19	-222	-30
42	-250	-67
46	-140	-87
40	37	-42
32	183	-11
29	225	11
32	161	61
35	51	65
30	-36	61
9	-61	-2
-21	-37	-46
-55	-6	-81
-84	2	-137
-96	-19	-127
-91	-39	-95
-68	-34	-48
-35	10	10
3	68	1
36	117	-34
63	130	-15
77	106	34
80	64	68
75	10	47
64	-47	32
50	-110	2
26	-167	-58
-6	-196	-86
-45	-178	-94
-80	-108	-72
-99	-17	-8
-96	55	-9
-68	71	-2
-27	36	37
14	-15	2
42	-32	-2
59	13	-11
64	104	-30
65	187	-34
67	209	1
62	154	69
48	51	79
18	-42	66
-21	-84	59
-60	-66	13
-86	-26	-101
-92	-5	-218
-81	-27	-278
-58	-75	-302
-40	-110	-266
-27	-99	-147
-20	-40	-57
-11	37	38
4	92	104
23	105	131
40	82	129
51	54	57
49	45	26
34	54	37
13	58	26
-13	31	18
-36	-35	74
-58	-117	84
-77	-167	38
-87	-154	0
-87	-78	-87
-72	26	-156
-46	108	-234
-6	130	-228
34	92	-101
70	16	-78
97	-57	-76
107	-108	-21
105	-131	49
91	-144	32
68	-154	36
37	-155	42
3	-136	9
-28	-90	11
-55	-30	-19
-71	19	-26
-79	36	-36
-72	17	-22
-58	-11	49
-37	-14	116
-10	36	144
20	126	69
52	217	-20
78	259	-47
96	221	-91
98	116	-115
83	-13	-117
53	-108	-77
15	-137	6
-26	-106	-6
-66	-50	1
-101	-8	-37
-124	3	-87
-132	-14	-58
-123	-33	-50
-93	-37	-47
-48	-22	-63
2	0	-69
50	12	-91
85	13	-67
99	11	-22
94	19	-8
77	41	13
51	65	38
24	68	64
-2	33	57
-26	-28	39
-46	-96	21
-62	-131	16
-69	-119	8
-63	-64	6
-43	7	19
-13	59	32
22	83	9
51	79	-35
69	69	-68
72	74	-137
58	96	-151
34	122	-83
3	128	-64
-30	104	-69
-55	44	-70
-75	-28	-31
-83	-92	29
-84	-128	9
-76	-133	-60
-63	-120	-105
-43	-106	-111
-15	-111	-118
20	-134	-72
56	-160	-11
86	-163	58
104	-115	88
103	-18	71
89	103	75
66	192	58
42	204	52
23	123	54
6	-23	62
-16	-165	-24
-46	-236	-101
-79	-201	-131
-105	-82	-101
-110	57	-17
-89	150	-25
-45	160	-119
12	100	-157
63	23	-95
96	-18	-62
105	-6	28
91	41	74
59	86	56
18	97	102
-26	76	78
-69	41	11
-103	22	-53
-120	12	-71
-113	-5	-57
-87	-54	-75
-48	-137	-42
-10	-215	8
17	-242	51
31	-181	30
36	-45	-20
45	109	5
59	214	-41
77	228	-47
87	157	-35
79	50	-66
52	-26	-59
10	-43	-70
-34	-8	-99
-69	42	-91
-90	67	28
-97	58	101
-95	31	87
-84	11	70
-63	7	19
-27	5	-86
20	-17	-136
74	-70	-88
114	-131	-105
130	-165	-79
118	-137	-55
82	-49	-118
41	53	-64
5	119	28
-18	112	28
-32	41	60
-47	-50	78
-65	-110	39
-84	-111	25
-91	-72	-27
-79	-32	-67
-44	-23	-61
-1	-40	10
39	-59	19
61	-39	-65
64	30	-99
50	116	-99
28	180	-88
8	180	-16
-11	117	20
-26	29	12
-39	-37	3
-47	-54	-25
-47	-36	-87
-36	-15	-106
-21	-29	-16
-5	-78	32
3	-136	54
0	-160	94
-6	-122	115
-5	-38	68
9	60	-28
36	126	-99
66	139	-125
85	110	-157
80	66	-139
49	38	-128
2	29	-79
-49	35	94
-91	33	102
-111	13	77
-111	-33	61
-95	-98	24
-65	-167	23
-30	-228	-49
8	-254	-145
41	-227	-147
64	-136	-45
79	0	-7
80	140	-7
75	236	-25
63	241	-55
50	163	-57
33	40	-41
11	-57	-1
-19	-84	-6
-51	-33	22
-79	54	71
-93	118	74
-90	112	69
-70	34	71
-39	-70	57
-6	-149	14
21	-160	-32
41	-102	-165
51	-8	-261
56	78	-154
54	127	-66
52	131	-80
44	104	-62
31	60	29
12	16	112
-12	-24	75
-39	-57	111
-60	-80	155
-76	-89	3
-76	-79	-93
-61	-59	-84
-35	-35	-123
-3	-20	-144
30	-9	-145
56	2	-142
70	28	-86
67	80	-10
50	152	-12
22	229	28
-10	274	79
-37	256	13
-55	150	25
-58	-33	51
-53	-254	69
-45	-444	117
-43	-531	46
-47	-474	-39
-54	-290	-86
-54	-48	-154
-34	154	-201
4	244	-227
53	207	-188
99	96	-62
123	-13	46
118	-45	96
87	6	72
42	95	38
-5	149	4
-43	119	-57
-70	18	-62
-91	-98	-56
-103	-154	-38
-106	-112	4
-93	3	11
-60	127	36
-11	193	32
44	168	24
91	72	-12
116	-29	-44
115	-85	-48
94	-77	-46
58	-25	-13
23	20	-7
-11	26	6
-38	-17	-36
-60	-80	-71
-77	-129	-78
-87	-141	-64
-87	-113	-54
-78	-66	-30
-60	-25	36
-38	-3	40
-14	9	49
10	26	31
33	57	44
54	103	67
71	143	9
83	162	-32
86	145	-49
82	102	-103
68	50	-157
44	2	-94
14	-32	-4
-25	-62	19
-61	-99	22
-92	-144	26
-107	-184	-16
-101	-191	-64
-76	-144	-59
-35	-43	-49
8	85	-85
46	197	-111
71	250	-61
82	224	14
82	135	-11
68	18	-54
47	-83	-46
20	-144	-17
-12	-160	31
-46	-141	90
-75	-105	138
-93	-57	103
-97	-4	42
-86	51	-15
-62	88	-100
-28	84	-125
10	23	-43
48	-78	-50
80	-176	-94
99	-218	-34
102	-171	14
86	-47	-21
58	95	-120
21	183	-147
-13	171	-122
-44	68	6
-68	-69	77
-88	-165	47
-102	-171	30
-105	-96	-21
-96	12	-58
-72	86	-47
-37	98	15
2	61	-9
35	23	-16
55	22	30
61	66	66
58	125	69
52	150	2
47	120	-94
42	43	-141
29	-35	-153
4	-75	-192
-28	-55	-150
-61	-4	-38
-84	37	16
-89	33	47
-71	-25	61
-38	-103	71
1	-154	36
36	-137	-28
60	-48	-41
75	81	-21
76	197	-47
69	244	-96
55	201	-55
38	74	-30
18	-86	-6
-7	-216	39
-31	-263	68
-51	-208	59
-62	-85	5
-61	40	-63
-47	103	-59
-27	74	4
-1	-25	57
18	-129	112
28	-168	91
33	-111	39
33	16	6
36	140	-50
41	194	-78
44	145	-151
38	26	-202
19	-94	-183
-10	-151	-144
-39	-123	-28
-61	-48	20
-69	14	49
-65	22	93
-55	-19	24
-44	-61	-2
-34	-53	-52
-22	27	-63
1	148	-40
30	241	-76
61	253	-57
81	165	-40
78	20	9
50	-111	41
4	-167	28
-44	-126	53
-84	-27	42
-103	67	-21
-103	100	-50
-86	46	-66
-56	-68	-67
-21	-190	-14
19	-258	-26
58	-240	-53
90	-138	-80
107	3	-136
104	129	-121
84	195	-74
50	183	45
15	108	135
-20	10	115
-46	-64	123
-65	-94	81
-76	-79	-32
-81	-45	-154
-79	-22	-273
-68	-24	-215
-52	-43	-80
-29	-55	-16
-3	-41	49
26	5	39
49	65	-19
68	115	-54
77	135	-50
72	127	-2
58	115	32
34	119	65
5	150	76
-27	181	64
-51	174	60
-68	92	49
-70	-68	-3
-64	-260	-88
-54	-413	-109
-40	-457	-56
-28	-368	-15
-14	-179	-11
4	30	-66
28	174	-130
56	213	-106
84	154	-28
100	63	16
99	9	-1
78	26	9
37	100	-12
-9	169	-37
-48	177	27
-71	98	28
-75	-37	6
-63	-168	-7
-43	-236	22
-26	-214	-25
-13	-125	-167
-3	-25	-230
11	34	-215
29	32	-162
52	-13	-88
76	-58	5
83	-61	78
71	-11	160
41	70	195
1	132	187
-40	136	101
-72	66	-4
-93	-48	-59
-105	-155	-96
-109	-196	-64
-106	-152	-11
-92	-42	15
-66	79	-13
-26	151	-46
23	143	-107
68	70	-163
103	-20	-155
115	-68	-109
106	-51	-21
79	17	104
42	89	169
4	117	123
-28	83	94
-52	4	25
-65	-71	-60
-66	-104	-141
-58	-86	-183
-44	-38	-119
-27	2	-54
-11	12	-55
4	-3	-96
18	-15	-100
32	1	-62
44	48	-24
55	105	-27
57	132	-9
46	110	26
27	41	30
-1	-40	-3
-31	-99	-17
-56	-116	34
-70	-97	45
-75	-66	51
-64	-47	100
-44	-46	98
-16	-47	43
13	-29	4
36	18	-39
52	93	-72
56	169	-75
52	222	-83
42	232	-126
34	189	-194
29	98	-165
28	-27	-75
26	-155	-32
19	-247	49
6	-260	82
-14	-182	39
-33	-34	-3
-44	117	-44
-44	194	-17
-34	149	-13
-19	-8	-23
-7	-195	-35
-5	-315	-48
-11	-300	-55
-18	-162	2
-20	15	51
-16	130	43
-4	121	-6
4	8	-118
1	-127	-132
-15	-190	-77
-41	-145	-8
-66	-27	38
-80	85	72
-71	121	34
-46	74	-33
-11	-6	-50
27	-43	-57
57	6	-10
77	116	10
85	222	15
84	254	27
72	195	7
52	80	-8
28	-31	-31
-1	-89	-83
-24	-92	-92
-42	-70	-54
-47	-66	-28
-47	-87	32
-46	-111	110
-43	-107	107
-40	-55	24
-31	22	-64
-14	93	-138
18	123	-171
55	114	-108
95	96	-95
121	100	-159
123	138	-187
99	183	-127
46	189	-28
-22	117	26
-95	-23	58
-156	-190	38
-193	-322	97
-195	-376	140
-163	-337	94
-107	-236	83
-40	-120	26
23	-23	-48
68	43	-52
95	81	-3
105	105	34
104	119	70
91	121	67
72	106	29
42	78	-18
10	43	-114
-27	10	-166
-55	-19	-134
-69	-50	-93
-67	-87	-135
-53	-124	-155
-34	-141	-172
-15	-121	-119
2	-57	4
18	36	-3
39	127	7
63	187	-3
83	197	-22
90	166	37
79	110	87
50	46	89
13	-12	60
-23	-67	59
-49	-116	72
-62	-149	60
-67	-152	37
-65	-116	-65
-60	-55	-137
-50	4	-139
-30	35	-175
2	28	-101
40	1	-56
75	-15	-97
98	7	-91
102	65	-25
86	131	22
56	162	36
18	138	62
-24	74	49
-67	3	112
-105	-29	136
-132	-21	96
-139	10	49
-118	14	-30
-75	-39	-80
-20	-139	-149
30	-242	-187
60	-283	-188
67	-235	-185
55	-104	-173
37	55	-99
28	174	12
29	213	32
35	169	34
35	81	59
21	-4	78
-5	-51	39
-36	-64	11
-61	-67	0
-72	-83	-6
-66	-117	7
-53	-148	22
-40	-147	42
-29	-94	70
-18	0	71
-1	106	-5
21	195	-9
46	237	-18
60	238	-68
60	203	-74
41	144	-104
13	60	-127
-13	-47	-57
-30	-167	-20
-35	-271	-96
-36	-316	-137
-41	-278	-101
-50	-161	-51
-53	-13	-53
-41	104	-9
-8	149	86
41	116	108
88	51	46
115	8	-44
111	19	-42
81	77	19
38	134	74
1	145	55
-20	90	-28
-30	-6	-87
-35	-94	-139
-44	-130	-126
-56	-107	-86
-65	-52	-74
-58	-1	-97
-34	22	-52
3	25	66
39	36	70
61	76	85
64	140	85
52	196	25
41	205	-26
36	147	-103
40	33	-124
44	-101	-76
36	-207	-35
7	-260	-41
-43	-257	-60
-98	-208	8
-142	-139	32
-160	-66	-15
-147	-8	2
-111	32	-5
-63	49	42
-17	48	107
18	44	95
40	56	64
54	91	63
66	131	48
77	151	-44
80	117	-147
68	19	-247
43	-112	-298
3	-223	-288
-40	-260	-164
-77	-210	-23
-92	-106	32
-84	-4	105
-59	43	171
-23	31	181
11	-9	65
39	-24	-59
63	12	-61
84	88	-132
101	158	-190
110	174	-63
105	127	30
80	45	66
35	-21	84
-17	-38	32
-64	-13	-39
-99	23	-102
-112	31	-155
-109	8	-128
-97	-25	-25
-82	-27	-11
-60	13	-12
-31	68	-42
9	92	6
57	41	99
104	-65	74
135	-178	84
136	-222	30
107	-162	-26
60	-28	-36
6	103	-56
-40	150	-57
-72	87	-23
-91	-51	16
-99	-174	64
-102	-208	123
-97	-135	107
-85	3	60
-56	128	-23
-17	180	-109
30	152	-152
75	88	-197
105	43	-215
117	49	-134
111	93	-53
90	128	-31
60	113	9
28	33	-2
-7	-82	-75
-42	-185	-56
-74	-240	-38
-100	-232	-37
-112	-177	37
-109	-102	44
-86	-31	60
-44	25	63
7	63	-3
57	86	30
96	98	46
111	99	-35
104	93	-2
78	83	54
41	71	70
1	55	87
-37	27	46
-70	-10	-66
-99	-50	-273
-121	-77	-359
-129	-77	-292
-121	-51	-155
-93	-21	-57
-50	-9	-48
-2	-31	-12
41	-80	-26
69	-119	-2
85	-118	55
85	-62	64
76	29	81
60	116	59
39	160	87
12	139	101
-21	76	70
-51	4	52
-75	-47	14
-77	-65	-7
-62	-71	-60
-33	-82	-127
1	-101	-114
30	-112	-127
46	-88	-124
52	-16	-68
53	90	-78
54	183	-35
56	225	28
56	192	30
50	100	15
32	-8	72
3	-94	130
-33	-133	139
-65	-136	120
-88	-126	52
-96	-123	-34
-87	-123	-181
-67	-110	-264
-41	-70	-260
-11	-5	-218
18	63	-81
46	110	-2
70	118	53
86	95	112
86	62	120
72	43	115
49	49	65
19	62	-3
-10	63	-45
-35	35	-54
-54	-17	1
-69	-74	70
-78	-109	32
-77	-101	7
-65	-50	-15
-42	27	-66
-8	101	-92
31	142	-119
66	131	-65
93	67	-31
104	-26	-42
98	-119	-48
78	-170	-89
46	-159	-159
9	-90	-214
-32	1	-188
-67	68	-123
-98	81	-6
-113	34	89
-115	-38	108
-102	-97	56
-77	-110	47
-42	-78	-7
-4	-29	-77
30	3	-38
56	7	-65
69	-4	-44
71	-3	3
61	26	-3
47	78	7
33	118	30
19	121	32
5	70	26
-12	-15	55
-28	-101	95
-40	-154	91
-43	-162	52
-32	-133	31
-14	-84	-15
4	-32	-70
12	22	-120
5	76	-130
-12	118	-115
-28	139	-112
-33	122	-117
-28	72	-82
-18	7	-4
-15	-37	31
-23	-40	79
-43	-7	87
-63	33	21
-72	43	-91
-60	4	-129
-30	-74	-86
8	-142	-49
42	-164	-5
63	-116	32
72	-8	34
74	113	12
75	207	19
77	244	19
74	221	-13
64	150	-15
43	54	-12
17	-44	-30
-14	-130	-66
-39	-186	-92
-51	-196	-114
-53	-163	-117
-45	-99	-72
-31	-39	-55
-15	-11	4
2	-26	63
16	-65	95
24	-89	113
25	-60	94
21	21	80
14	119	28
5	179	-75
-2	161	-177
-11	69	-169
-22	-45	-80
-38	-127	-5
-56	-138	-3
-72	-88	-78
-78	-20	-107
-67	17	-68
-45	15	28
-17	-4	41
10	3	1
32	64	13
46	161	-10
61	237	7
72	241	14
82	153	39
81	10	85
62	-125	42
28	-190	-54
-15	-171	-95
-55	-108	-100
-84	-60	-176
-92	-67	-218
-85	-125	-98
-66	-184	43
-45	-188	65
-22	-116	14
6	8	-41
38	125	-39
69	182	-85
94	165	-142
102	101	-132
89	41	-11
57	20	85
13	36	102
-32	55	129
-70	45	85
-101	-2	62
-120	-60	27
-132	-86	-43
-132	-54	-111
-116	27	-193
-82	114	-137
-30	158	-38
29	129	-69
85	38	-34
125	-72	22
147	-157	10
143	-187	8
124	-166	26
91	-113	11
48	-57	-18
2	-15	6
-44	13	43
-81	32	89
-102	40	81
-102	32	48
-85	6	-31
-55	-34	-83
-20	-75	-50
12	-94	-34
42	-78	13
67	-29	16
86	31	-23
97	79	-94
93	98	-164
70	85	-138
35	55	-144
-7	22	-133
-45	-4	-82
-69	-25	-51
-82	-42	7
-84	-57	60
-86	-65	89
-89	-50	87
-89	-11	49
-79	48	105
-52	106	138
-8	137	35
42	131	-120
83	91	-211
106	35	-173
101	-15	-145
74	-45	-81
36	-56	-11
-3	-61	-9
-36	-65	-4
-63	-74	13
-81	-76	70
-89	-66	81
-89	-42	59
-76	-12	42
-48	14	16
-12	32	-13
27	43	-121
64	57	-189
94	74	-171
113	85	-153
118	76	-98
107	35	-31
89	-27	-16
52	-88	-16
7	-109	-10
-41	-79	34
-85	-13	89
-113	47	105
-123	55	108
-113	-4	58
-91	-112	-18
-57	-206	-82
-24	-229	-58
9	-153	12
36	0	25
63	158	6
85	257	-98
99	253	-104
99	165	-22
82	40	-1
48	-55	32
5	-89	9
-42	-68	-14
-83	-32	-54
-107	-24	-104
-114	-52	-156
-105	-105	-136
-84	-138	-37
-55	-120	-61
-23	-43	-92
10	66	-40
44	168	15
77	223	41
98	213	20
107	150	0
97	55	29
72	-42	63
38	-123	48
4	-177	28
-27	-199	26
-54	-189	-8
-75	-152	-4
-89	-98	-24
-93	-39	-42
-83	10	-12
-55	45	-37
-15	74	-42
29	102	13
62	132	57
75	160	65
64	158	34
39	115	-48
14	29	-106
-5	-69	-119
-12	-144	-133
-16	-166	-74
-23	-126	29
-38	-58	13
-56	-2	-1
-67	10	-2
-60	-17	-65
-35	-51	-155
3	-55	-240
38	-8	-257
61	71	-154
64	142	-29
54	163	-6
37	123	-6
23	45	35
13	-28	110
5	-62	134
-8	-55	133
-28	-23	136
-51	1	103
-68	1	84
-74	-16	60
-64	-26	38
-39	-8	16
-6	35	-77
29	81	-181
60	97	-239
82	63	-181
94	-10	-78
94	-94	-25
81	-150	21
54	-157	0
17	-113	-32
-24	-50	-51
-62	-4	-88
-92	4	-55
-107	-29	-17
-109	-78	-23
-98	-108	21
-75	-90	69
-43	-21	38
-4	74	35
40	153	42
84	180	-38
117	145	-72
129	72	-135
117	13	-186
78	6	-109
22	57	-25
-38	125	70
-88	143	122
-115	62	112
-116	-114	48
-100	-319	-15
-77	-452	-25
-56	-438	-120
-43	-272	-136
-34	-28	-54
-17	180	-25
9	261	22
45	209	38
80	85	61
99	-4	65
93	13	22
64	128	-18
23	261	-87
-16	311	-48
-38	222	2
-43	16	-55
-33	-215	-47
-18	-364	-7
-5	-379	-28
-1	-265	-42
-2	-105	-11
-3	30	62
0	96	116
12	98	54
27	79	-60
44	77	-158
55	104	-219
54	139	-213
41	150	-154
16	120	-112
-11	45	-84
-36	-44	-23
-50	-121	29
-51	-161	81
-43	-159	93
-32	-127	71
-26	-76	24
-27	-23	-25
-31	23	-14
-31	53	18
-24	70	26
-6	79	54
15	84	24
33	93	-91
42	106	-112
38	109	-75
27	87	-46
12	29	32
-1	-51	92
-12	-135	87
-20	-184	33
-27	-183	-48
-34	-132	-88
-38	-62	-30
-37	3	-19
-31	45	-25
-19	71	-64
-1	98	-136
21	129	-131
46	153	-141
72	140	-124
88	79	-102
90	-23	-48
69	-120	-50
26	-159	-51
-33	-119	77
-94	-24	116
-136	58	128
-154	62	64
-135	-28	33
-91	-176	107
-31	-294	81
25	-308	-1
69	-196	-144
96	-11	-223
104	155	-134
99	227	-77
85	183	-52
64	79	-32
36	-16	-32
1	-42	-11
-38	-3	-8
-72	57	13
-95	85	14
-100	56	-17
-86	-9	-9
-58	-68	-27
-27	-83	-45
2	-48	-9
25	6	9
42	47	21
54	59	3
66	52	-23
72	49	-7
74	63	48
63	82	44
44	72	10
16	20	-39
-15	-68	-58
-43	-152	-19
-67	-187	1
-79	-152	20
-83	-60	-41
-75	41	-94
-59	120	-61
-37	155	-39
-11	155	8
15	135	-5
42	106	-62
68	56	-119
91	-23	-178
104	-119	-168
99	-199	-113
76	-218	-51
32	-161	35
-26	-53	114
-87	47	119
-136	81	87
-165	31	30
-165	-65	-26
-140	-137	-64
-94	-130	-56
-38	-42	-5
17	76	52
66	154	62
101	153	44
116	85	14
111	13	-7
91	-12	45
57	32	46
19	112	-4
-16	169	-53
-44	155	-68
-61	67	-76
-68	-54	-116
-63	-160	-129
-50	-210	-128
-29	-203	-168
-3	-162	-184
22	-108	-131
46	-56	-76
67	-9	47
86	35	124
96	70	150
96	87	150
77	72	46
40	41	-49
-8	7	-108
-61	-4	-159
-103	7	-137
-123	22	-57
-120	17	-64
-97	-27	-37
-63	-95	-4
-29	-153	-40
2	-158	34
27	-92	68
48	27	8
63	159	9
67	250	7
61	270	10
44	215	-34
21	112	-52
0	-12	-40
-16	-127	-30
-26	-209	16
-34	-249	12
-43	-235	-2
-54	-177	-25
-62	-90	-51
-60	4	-91
-43	75	-80
-11	108	-23
29	102	-31
67	79	-35
93	53	-30
101	40	-15
92	38	7
65	31	13
28	14	10
-15	-12	12
-56	-30	14
-91	-32	12
-109	-14	12
-109	8	1
-91	9	-23
-60	-18	-21
-26	-67	11
6	-112	15
29	-120	19
46	-76	-5
56	13	0
64	115	37
70	194	34
66	222	21
54	192	-1
30	115	-63
1	15	-99
-31	-78	-72
-56	-142	-98
-70	-161	-64
-71	-134	-8
-60	-75	-17
-39	-8	-22
-8	33	-32
25	34	-32
57	-6	-19
76	-60	-16
77	-98	-63
55	-89	-157
16	-35	-197
-30	32	-134
-69	79	-87
-90	74	-43
-88	20	-72
-70	-56	-38
-50	-115	34
-40	-128	3
-42	-100	-2
-50	-47	-11
-53	-1	37
-42	24	87
-12	31	85
30	41	41
69	71	3
94	123	-17
96	177	-41
81	205	-19
54	188	16
28	120	21
6	22	9
-11	-78	-7
-25	-157	-78
-40	-196	-149
-52	-199	-141
-58	-174	-133
-52	-126	-86
-35	-69	-5
-8	-8	48
20	45	115
44	85	136
65	96	108
78	81	71
85	48	24
82	12	-19
66	-11	2
36	-16	-55
-2	-6	-106
-42	7	-76
-74	12	-98
-89	4	-124
-87	-11	-182
-75	-22	-147
-58	-16	-87
-41	12	-47
-22	47	-24
1	74	-4
33	75	67
69	40	36
100	-18	46
115	-81	75
105	-117	39
71	-114	86
26	-72	93
-20	-16	37
-55	24	11
-77	33	-21
-89	8	-62
-95	-21	-64
-102	-24	-37
-103	14	-38
-93	77	-82
-65	119	-143
-18	105	-163
39	21	-134
93	-93	-76
124	-179	-38
127	-182	-51
98	-93	-51
49	38	6
-4	134	26
-50	131	43
-83	33	56
-101	-109	38
-105	-207	-10
-99	-207	-69
-83	-107	-24
-56	35	40
-22	148	95
19	187	89
57	162	98
91	117	110
111	95	-23
119	101	-168
114	106	-246
92	75	-190
58	-1	-214
15	-93	-272
-30	-154	-115
-70	-152	78
-96	-106	189
-100	-56	155
-84	-49	51
-53	-90	15
-20	-140	50
8	-144	-23
27	-70	-72
39	56	-57
42	174	-62
42	222	-22
35	178	-21
19	82	28
-3	0	2
-28	-22	-74
-47	12	-92
-53	49	-145
-46	28	-147
-31	-67	-53
-19	-200	39
-16	-292	99
-29	-271	120
-44	-126	108
-55	89	84
-48	279	-5
-20	362	-11
21	309	59
66	149	46
100	-41	-44
115	-190	-157
106	-256	-176
78	-237	-187
32	-161	-178
-15	-68	-140
-57	4	-144
-81	37	-116
-80	31	-23
-54	3	69
-15	-23	69
22	-24	99
44	12	91
44	76	99
24	143	139
-1	186	102
-23	183	56
-29	137	-24
-23	61	-48
-12	-20	-40
-8	-89	-76
-17	-133	-116
-36	-159	-136
-60	-163	-120
-77	-151	-114
-81	-125	-60
-65	-95	36
-39	-68	102
-6	-47	87
25	-29	58
53	-2	31
76	41	-41
91	100	-108
100	153	-122
99	171	-52
85	141	-32
54	66	-52
14	-21	-48
-30	-84	-49
-71	-101	-14
-97	-72	36
-102	-33	65
-86	-5	75
-58	-5	36
-23	-18	6
9	-19	4
36	8	-48
56	61	-133
72	115	-219
85	138	-213
89	118	-98
83	67	4
64	10	65
33	-33	83
-6	-48	25
-49	-50	-14
-85	-50	-3
-111	-57	-40
-122	-62	-64
-117	-53	-75
-97	-30	-74
-63	-2	-27
-22	8	53
24	-4	89
62	-31	24
88	-43	-21
95	-13	-52
86	51	-90
62	117	-88
33	135	3
6	77	38
-17	-48	-18
-32	-185	-24
-48	-263	13
-62	-245	11
-76	-138	-47
-80	-4	-77
-68	95	-96
-43	125	-65
-3	110	-3
39	103	21
77	139	19
99	221	-6
107	283	-17
103	261	-38
87	112	5
58	-123	52
14	-354	34
-44	-476	34
-111	-430	10
-167	-248	-52
-195	-23	-93
-183	135	-47
-130	165	-40
-57	81	-42
18	-44	-2
74	-121	11
102	-106	6
105	-14	3
96	99	-44
84	168	-166
72	165	-179
57	103	-89
33	27	-28
2	-30	58
-37	-49	115
-67	-46	106
-86	-40	45
-88	-44	-35
-72	-53	-79
-52	-52	-139
-25	-31	-133
2	8	-97
32	53	-40
60	86	66
82	100	149
91	98	107
83	93	-1
58	92	-84
23	93	-79
-12	84	-39
-40	44	-151
-58	-19	-236
-67	-99	-140
-68	-162	-67
-64	-184	-19
-56	-153	58
-39	-82	14
-14	-5	0
18	44	1
49	49	16
75	19	87
86	-17	106
83	-29	117
68	-2	152
46	49	181
23	100	147
-1	117	50
-24	90	-167
-48	32	-282
-71	-26	-221
-89	-66	-181
-92	-82	-106
-74	-81	9
-38	-79	4
7	-72	-32
50	-54	-19
81	-12	-102
87	52	-180
74	112	-167
50	133	-89
24	89	-31
5	-6	-14
-8	-117	29
-22	-187	53
-42	-188	95
-68	-129	141
-98	-50	95
-120	0	15
-121	4	-36
-101	-26	-67
-60	-46	-60
-14	-23	-48
25	48	-14
52	145	1
61	221	0
60	241	26
53	198	43
48	110	22
39	13	-38
26	-76	-61
3	-142	-56
-26	-188	-63
-54	-207	-15
-72	-192	36
-72	-138	16
-54	-44	-12
-21	61	-53
15	147	-31
46	174	18
67	136	-4
72	51	-71
69	-38	-134
62	-93	-137
51	-93	-155
38	-45	-136
20	13	-92
-2	48	-90
-29	36	-43
-54	-16	1
-74	-82	47
-81	-127	93
-75	-127	85
-53	-83	66
-24	-11	62
8	57	55
38	100	30
60	110	-8
74	96	-30
78	78	21
72	65	54
59	65	23
41	68	30
18	65	-9
-11	48	-104
-39	16	-63
-68	-27	-14
-88	-72	-42
-97	-107	-52
-91	-113	-87
-69	-86	-82
-36	-18	-47
2	69	-108
40	145	-130
76	169	-100
100	115	-36
111	-3	41
102	-140	41
70	-233	-4
18	-240	42
-42	-159	72
-98	-42	72
-132	37	5
-137	38	-198
-115	-37	-245
-78	-133	-211
-37	-179	-80
-7	-133	-2
12	-16	29
24	114	129
39	190	126
58	183	58
78	118	-63
89	48	-134
85	21	-122
62	41	-93
27	78	-51
-11	83	-21
-41	31	-7
-60	-54	8
-69	-127	16
-71	-149	29
-66	-103	29
-56	-26	5
-35	39	0
-6	58	26
26	37	57
51	9	43
63	11	14
58	60	3
41	129	-45
21	174	-112
4	160	-100
-5	75	-38
-12	-52	-16
-20	-169	10
-37	-229	19
-59	-210	4
-83	-127	-33
-92	-24	-53
-79	59	-32
-42	89	10
8	62	63
59	6	34
98	-48	-22
111	-66	-80
102	-43	-100
74	10	-92
37	61	-116
2	85	-79
-29	72	-46
-55	29	-16
-78	-22	30
-93	-64	18
-97	-97	24
-87	-121	-10
-60	-140	-75
-24	-147	-71
16	-125	8
48	-58	85
71	41	124
83	149	132
87	211	104
90	201	110
86	120	30
75	4	-145
46	-91	-241
8	-126	-243
-39	-97	-204
-83	-32	-90
-110	19	14
-117	35	67
-101	13	84
-69	-16	-2
-32	-27	-93
2	-7	-136
29	29	-137
46	56	-163
54	58	-39
54	41	104
46	24	68
30	30	18
9	56	-45
-14	80	-85
-35	66	-43
-48	2	-72
-54	-102	-120
-53	-203	-36
-48	-256	8
-40	-227	1
-28	-125	-15
-14	2	13
8	108	55
37	161	26
68	164	63
95	142	92
107	130	45
102	134	7
76	135	9
36	104	-28
-12	20	-90
-53	-100	-135
-83	-213	-159
-97	-271	-61
-96	-250	32
-80	-166	49
-53	-60	59
-22	14	13
14	38	-32
45	28	-40
66	23	-36
76	53	-50
69	117	-59
54	186	-40
32	215	-9
8	189	33
-17	106	12
-41	5	-8
-60	-83	-11
-77	-140	-19
-83	-172	12
-77	-192	24
-60	-207	-5
-37	-196	-37
-11	-142	-13
12	-41	-21
35	82	-93
56	178	-95
77	202	-40
90	147	-36
93	45	-34
78	-46	37
48	-81	56
8	-51	38
-31	9	43
-63	45	-9
-84	26	-79
-97	-39	-114
-99	-111	-104
-98	-133	-106
-87	-84	-105
-63	25	-88
-31	144	-47
8	222	-20
44	225	-55
72	155	-35
89	43	-4
91	-69	26
85	-152	72
65	-187	93
34	-174	89
-6	-124	112
-48	-63	94
-87	-13	22
-104	4	-47
-97	-13	-106
-68	-48	-156
-28	-74	-238
8	-62	-244
36	-12	-182
54	61	-168
68	121	-108
79	139	33
85	113	49
81	60	68
58	14	68
19	-4	32
-26	11	37
-64	38	24
-89	56	24
-94	52	-5
-84	31	3
-68	7	-22
-50	-14	-45
-32	-29	-5
-8	-51	-51
21	-79	-74
50	-107	14
74	-117	6
84	-95	8
79	-47	-1
62	8	-54
41	42	15
19	41	70
-1	10	101
-23	-32	127
-44	-59	161
-61	-60	120
-67	-41	-9
-58	-19	-133
-36	-1	-223
-8	8	-193
15	19	-94
30	43	-81
38	76	-52
44	105	1
52	116	-62
58	103	-96
57	70	-143
37	32	-106
0	7	-3
-54	-3	-37
-104	-4	-42
-133	-14	-39
-132	-43	-82
-102	-90	-97
-55	-138	-28
-7	-165	49
28	-153	24
48	-96	4
55	-10	5
57	82	24
54	157	55
48	197	65
35	201	50
13	169	61
-15	110	64
-42	24	10
-61	-80	10
-66	-189	7
-62	-275	-33
-52	-305	-99
-40	-256	-158
-24	-132	-156
-7	23	-74
17	145	-25
44	188	-76
70	134	-63
87	30	-19
86	-57	-30
67	-68	-2
36	8	65
7	120	105
-14	194	135
-23	166	81
-26	41	22
-29	-120	10
-39	-237	-45
-56	-249	-120
-67	-164	-144
-65	-42	-112
-44	39	-182
-7	45	-192
35	-6	-130
69	-56	-113
85	-49	-53
83	23	-5
69	122	41
51	183	74
34	165	60
18	72	36
-4	-35	56
-30	-99	26
-57	-93	-11
-80	-34	-4
-87	22	-4
-75	37	34
-46	3	57
-10	-43	60
24	-57	-40
51	-18	-105
69	62	-51
80	135	-4
80	160	45
64	123	2
35	51	-49
-7	-13	-86
-55	-45	-117
-97	-43	-55
-121	-36	-48
-124	-49	-51
-109	-92	26
-88	-137	3
-64	-149	-48
-44	-105	-46
-24	-14	-64
6	81	-41
44	131	9
87	117	44
119	50	14
131	-16	22
111	-40	-38
70	-4	-85
18	58	-62
-29	95	-97
-60	56	-101
-72	-57	-85
-68	-199	-32
-57	-295	-66
-43	-280	-70
-30	-157	4
-16	27	55
1	183	127
19	243	137
38	190	63
51	69	0
58	-41	-34
56	-83	-14
45	-30	26
28	78	42
5	170	36
-23	194	-81
-50	129	-154
-75	4	-171
-89	-134	-213
-88	-233	-147
-72	-265	-74
-47	-240	-39
-15	-167	13
15	-77	75
39	12	99
57	81	87
71	117	4
79	118	-84
81	81	-57
76	26	-49
58	-25	-58
32	-51	16
-4	-45	127
-41	-20	151
-72	2	126
-90	2	45
-88	-16	-48
-71	-41	-91
-44	-43	-182
-17	-13	-243
5	45	-211
20	110	-98
33	154	-9
44	161	14
58	127	36
69	68	11
69	1	-31
51	-60	-10
13	-105	45
-34	-129	51
-79	-122	-46
-104	-87	-89
-104	-29	-49
-84	31	-85
-46	67	-92
-10	63	-29
21	18	60
40	-42	99
52	-89	104
57	-89	116
52	-37	87
42	40	32
23	110	-77
-1	139	-107
-26	113	-127
-44	41	-174
-57	-43	-141
-60	-117	-26
-60	-160	92
-56	-169	74
-47	-150	40
-32	-108	-6
-6	-51	-49
26	15	-91
59	83	-141
86	132	-72
99	154	-9
98	144	-11
81	112	17
54	70	61
23	39	28
-8	22	11
-36	11	-44
-59	-4	-125
-71	-31	-147
-74	-67	-103
-64	-102	-43
-48	-119	-62
-25	-109	-60
-2	-74	51
20	-19	132
36	39	103
49	90	68
56	116	5
54	106	-39
45	59	-38
29	-17	-16
8	-99	-8
-15	-158	-31
-37	-163	32
-53	-119	95
-63	-47	39
-65	18	-70
-64	49	-147
-60	51	-111
-52	47	-60
-39	77	-130
-17	149	-164
13	233	-126
47	274	-127
80	215	-116
97	51	-36
92	-170	2
60	-356	-36
13	-426	-30
-42	-354	-39
-84	-187	-34
-104	-20	36
-97	65	59
-70	41	79
-34	-46	105
0	-120	87
28	-113	59
46	-17	28
54	119	10
58	221	13
55	241	4
48	188	-19
35	110	-67
20	64	-89
2	68	-56
-17	92	-46
-37	86	-52
-56	14	-42
-76	-110	28
-90	-232	81
-94	-282	74
-83	-233	69
-55	-102	23
-15	47	-48
27	147	-126
64	164	-193
87	115	-169
94	46	-89
84	7	-17
68	11	51
48	40	109
30	58	151
13	40	97
-7	-12	2
-29	-72	-60
-52	-108	-154
-70	-100	-202
-77	-55	-144
-68	0	-75
-42	40	-39
-7	51	9
31	40	41
61	20	46
82	8	29
87	11	-26
79	22	-57
58	32	-58
30	32	-43
0	15	-59
-31	-16	-155
-55	-56	-117
-72	-94	-13
-80	-115	-8
-80	-108	-1
-76	-69	33
-65	-3	23
-53	77	-42
-32	149	-112
-5	193	-105
31	192	-32
68	143	19
99	64	63
113	-29	80
104	-109	41
75	-158	16
33	-168	34
-12	-152	43
-52	-127	12
-84	-113	-38
-103	-112	-17
-112	-112	14
-108	-88	9
-93	-21	-30
-60	80	-92
-19	177	9
33	227	72
85	192	37
127	81	20
148	-58	-59
138	-160	-166
103	-174	-239
44	-103	-190
-23	12	-132
-87	98	-60
-128	103	36
-144	25	53
-136	-91	74
-108	-178	44
-71	-190	2
-34	-121	-32
-4	-8	-119
21	97	-101
44	155	-70
63	161	-90
79	134	-82
87	97	-35
86	63	-18
68	31	-50
39	-9	-3
2	-57	22
-38	-101	16
-72	-121	15
-95	-108	13
-98	-67	55
-83	-23	34
-50	8	24
-10	18	76
31	20	48
63	37	45
79	80	70
83	138	7
74	190	-48
59	203	-88
44	156	-154
34	59	-122
23	-61	-53
8	-170	-42
-12	-232	-28
-36	-234	1
-57	-182	32
-71	-96	52
-71	-1	22
-60	81	3
-40	131	45
-16	147	25
5	125	-56
23	72	-118
35	3	-121
42	-67	-121
42	-119	-174
35	-137	-139
16	-119	-66
-10	-77	-49
-36	-34	-8
-59	-11	26
-69	-19	32
-65	-45	59
-53	-67	77
-35	-57	87
-15	-9	84
5	62	53
25	125	27
46	145	-23
63	119	-74
74	58	-94
69	6	-67
54	-9	-12
25	23	0
-7	80	0
-34	118	1
-52	106	-38
-56	31	-50
-51	-82	7
-40	-192	24
-31	-246	-27
-25	-223	-88
-22	-129	-100
-22	-1	-74
-16	110	-105
-2	166	-54
23	147	-60
52	70	-123
80	-22	-84
89	-91	-3
74	-105	99
37	-72	101
-12	-19	53
-55	17	-69
-84	17	-133
-91	-16	-44
-79	-51	2
-56	-50	-21
-35	5	-44
-17	99	26
2	190	108
25	231	34
52	188	-11
81	71	3
96	-74	-100
91	-194	-170
62	-242	-86
16	-210	-42
-36	-127	-22
-83	-41	45
-113	3	28
-124	-7	-10
-115	-55	-112
-92	-102	-137
-55	-111	-46
-15	-68	3
27	13	64
62	98	27
86	154	-38
94	160	-67
89	129	-87
71	89	-52
46	63	-15
18	63	13
-10	77	25
-37	77	31
-61	40	22
-79	-35	2
-83	-129	-13
-75	-209	-22
-53	-238	-16
-25	-204	-39
6	-113	-62
32	-2	-63
52	92	-44
62	141	9
67	137	2
69	100	-18
63	51	28
52	18	17
33	5	44
11	9	84
-12	16	105
-30	18	145
-42	23	140
-49	31	90
-47	48	-61
-42	60	-159
-29	45	-157
-13	-8	-184
7	-92	-201
25	-169	-230
37	-196	-238
39	-149	-153
29	-33	-83
15	98	34
-1	186	11
-16	189	-33
-31	117	16
-47	8	64
-63	-83	144
-78	-125	143
-80	-127	158
-65	-113	87
-34	-110	43
5	-112	9
41	-99	-72
69	-48	-125
82	35	-193
83	117	-200
81	158	-147
75	132	-59
61	59	-15
36	-22	-43
-5	-65	-67
-55	-60	-68
-105	-29	-63
-137	-7	-12
-143	-24	85
-125	-69	87
-91	-105	3
-52	-92	-27
-16	-19	-20
15	88	-30
43	174	-90
72	204	-109
96	162	-40
110	76	-30
106	-8	-8
84	-53	40
45	-53	59
4	-27	89
-31	-7	79
-54	-19	71
-65	-62	26
-64	-121	-39
-53	-167	-118
-36	-174	-123
-13	-133	-52
14	-56	-34
39	33	33
59	108	78
72	147	63
74	144	47
62	110	19
42	67	-17
16	32	-26
-10	15	-59
-32	7	-125
-47	-7	-168
-56	-36	-205
-61	-78	-143
-67	-108	-21
-79	-109	71
-93	-62	140
-103	24	144
-100	123	66
-72	195	-21
-22	207	-80
42	147	-119
101	33	-92
136	-96	-20
134	-192	-41
97	-224	-147
36	-183	-211
-25	-98	-160
-69	-5	-59
-91	48	13
-86	52	63
-69	13	68
-47	-38	43
-24	-68	-5
-1	-66	-71
24	-33	-116
49	6	-71
69	33	31
83	39	69
84	33	68
74	29	98
56	36	65
39	55	-6
18	70	-12
-6	70	-5
-37	52	11
-68	16	49
-93	-22	37
-99	-60	23
-83	-90	-15
-47	-112	-79
-4	-116	-80
33	-95	-106
58	-47	-81
68	24	-39
67	95	-118
62	137	-160
52	131	-98
36	80	-64
13	2	-30
-19	-68	8
-54	-104	-32
-81	-103	-28
-93	-78	-2
-88	-50	34
-68	-34	76
-39	-23	113
-6	-2	123
24	40	62
52	99	17
79	150	0
97	166	-54
103	130	-101
90	51	-70
62	-33	-63
19	-87	-23
-27	-86	16
-71	-32	-26
-109	40	-95
-136	89	-140
-153	85	-79
-152	22	-62
-128	-72	-57
-85	-167	-84
-24	-219	-118
41	-212	-83
94	-144	-47
127	-32	29
137	87	48
128	178	84
110	209	90
87	166	20
61	57	-64
29	-77	-99
-11	-191	-50
-59	-246	-30
-108	-218	-19
-141	-135	38
-148	-36	91
-122	35	74
-69	57	-2
2	44	-99
78	26	-88
143	33	-12
184	72	-49
192	122	-81
162	150	-46
93	131	55
0	68	112
-95	-8	98
-167	-64	135
-198	-78	107
-186	-49	77
-139	-2	-33
-84	38	-211
-39	62	-280
-16	67	-384
-7	60	-417
0	41	-192
14	4	-14
38	-52	68
61	-118	124
70	-162	77
57	-157	81
28	-93	74
-4	1	51
-23	77	24
-27	89	-23
-20	28	-51
-16	-69	-76
-22	-151	-35
-36	-161	9
-46	-93	7
-39	17	83
-12	116	120
30	163	81
72	153	68
100	113	46
107	80	-2
100	68	-37
83	65	-16
63	45	-6
42	-4	-59
15	-70	-167
-21	-121	-209
-59	-121	-170
-94	-71	-123
-109	-3	-1
-104	41	68
-79	33	54
-42	-20	40
-10	-79	-1
18	-96	-24
40	-45	-30
57	60	-19
70	181	-31
78	258	-25
77	253	-42
63	158	-109
41	2	-115
13	-165	-68
-14	-287	-34
-39	-326	-76
-57	-277	-66
-71	-163	-30
-79	-34	-44
-78	52	-11
-67	68	-13
-45	22	-10
-21	-43	-1
3	-76	31
22	-44	99
36	37	83
47	124	53
54	161	45
54	119	-2
39	21	-90
5	-82	-113
-44	-131	-82
-96	-110	-65
-134	-36	-34
-143	40	-18
-119	72	12
-72	56	54
-15	15	31
33	-8	23
66	12	47
82	67	36
88	124	-7
89	140	-53
86	104	-20
78	26	-48
58	-56	-149
30	-113	-153
-6	-127	-155
-41	-111	-130
-68	-88	-58
-85	-69	-14
-87	-64	13
-77	-61	-16
-54	-47	-38
-22	-16	-31
19	27	-46
60	68	-8
94	98	67
107	106	79
100	103	70
76	92	76
36	82	60
-1	77	109
-38	67	127
-64	45	64
-84	-1	12
-94	-72	-97
-93	-153	-204
-80	-215	-215
-53	-227	-238
-18	-178	-186
21	-74	-92
57	47	-37
84	143	46
101	186	-4
107	171	-46
98	137	-14
76	110	-4
39	113	39
-11	123	16
-62	101	-57
-107	7	-36
-132	-154	13
-134	-331	43
-114	-449	17
-80	-437	-47
-40	-294	-50
-2	-72	-39
31	131	-13
59	239	-31
84	228	-64
97	135	-15
97	43	32
82	5	4
52	34	-32
14	91	0
-24	119	-21
-57	89	-67
-82	11	-39
-96	-69	-13
-100	-113	15
-95	-105	38
-80	-68	35
-50	-39	14
-16	-35	-18
20	-43	-17
52	-36	-9
74	11	15
89	85	41
94	149	-12
96	163	-44
89	120	-19
70	39	-55
34	-29	-56
-17	-53	-46
-72	-40	-93
-120	-19	-33
-145	-35	38
-135	-93	16
-99	-164	-26
-47	-194	-95
3	-145	-140
42	-28	-147
66	106	-113
83	193	-24
94	192	26
102	115	8
100	19	7
83	-42	59
48	-46	105
-1	-9	77
-52	21	3
-97	10	-48
-122	-44	-1
-128	-108	-2
-117	-135	-84
-92	-108	-116
-55	-33	-113
-12	48	-63
32	106	-66
75	131	-43
103	132	28
111	126	49
101	110	24
75	81	-64
40	17	-136
0	-67	-141
-37	-141	-103
-75	-162	-47
-100	-108	-20
-110	-11	-38
-95	78	-54
-55	94	-8
-2	23	35
52	-98	21
86	-190	29
95	-192	91
80	-96	70
54	45	26
31	150	17
19	158	-2
13	68	13
2	-53	52
-20	-139	47
-54	-147	26
-84	-93	43
-100	-35	-72
-95	-21	-121
-69	-54	-77
-39	-94	-107
-10	-85	-90
10	-5	-71
27	114	-49
44	207	-19
64	223	-31
82	155	-2
86	54	60
72	-11	13
39	-6	-46
-1	53	-62
-38	103	-39
-62	86	8
-75	-13	15
-72	-152	22
-63	-254	28
-52	-261	-48
-36	-168	-96
-15	-26	-86
12	95	-91
37	145	-63
56	121	-109
65	64	-81
61	24	13
47	25	9
27	55	16
4	81	22
-22	75	28
-49	33	49
-75	-19	26
-92	-51	-43
-96	-53	-79
-84	-41	-78
-54	-40	13
-16	-67	46
23	-112	-40
59	-137	-99
86	-113	-54
102	-31	-1
104	79	-66
94	164	-69
71	185	-52
39	134	-17
0	43	26
-37	-43	13
-68	-89	5
-89	-94	32
-94	-84	61
-88	-85	48
-71	-102	38
-47	-115	-25
-20	-95	-56
7	-21	-46
30	86	-68
49	182	-115
60	221	-128
65	181	-116
61	85	-69
52	-25	19
35	-100	36
12	-119	78
-19	-97	87
-50	-63	19
-79	-50	-1
-95	-61	-3
-91	-86	-92
-64	-97	-175
-25	-80	-156
21	-36	-130
60	24	-105
86	83	-45
93	127	-25
86	150	-27
68	149	1
44	119	26
19	63	63
-8	-4	45
-35	-66	29
-58	-106	26
-77	-111	18
-87	-88	83
-89	-55	77
-83	-41	52
-66	-52	68
-38	-82	12
4	-101	-103
62	-90	-142
121	-35	-165
162	47	-128
166	123	-34
124	162	-44
42	145	-46
-48	84	-25
-120	9	-23
-150	-47	-1
-130	-66	-7
-85	-54	0
-40	-27	-4
-24	-9	-30
-34	-6	-2
-56	-17	-2
-65	-27	-30
-42	-25	-49
8	-15	-82
65	-2	-71
103	0	16
104	-7	34
71	-12	32
30	1	81
-1	32	65
-14	65	45
-11	78	12
-6	43	-19
-13	-29	-32
-30	-118	-85
-48	-174	-124
-53	-167	-61
-39	-94	-36
-10	14	-63
20	106	-34
40	147	-12
46	127	24
42	75	-19
36	34	-101
36	32	-155
33	66	-112
24	104	54
3	109	129
-32	62	137
-68	-22	79
-94	-102	6
-99	-142	-87
-84	-125	-149
-52	-68	-106
-15	-13	-66
18	8	-43
50	-15	-34
74	-59	-52
89	-88	-59
91	-70	7
76	-11	56
48	62	39
8	110	-66
-30	103	-193
-58	45	-126
-70	-35	66
-69	-100	87
-60	-125	-3
-48	-109	-52
-37	-70	-102
-27	-29	-97
-16	7	-49
0	43	-62
20	86	-64
40	128	-22
58	157	-2
69	150	11
71	103	28
60	28	77
38	-49	149
10	-102	133
-18	-127	60
-39	-135	31
-50	-143	12
-51	-159	-33
-46	-164	-109
-38	-142	-166
-31	-78	-110
-22	15	-7
-11	105	-46
7	158	-92
28	156	-101
45	119	-142
57	74	-107
57	51	-114
46	54	-9
30	64	116
8	55	40
-16	15	3
-41	-44	12
-63	-99	33
-82	-124	64
-86	-117	64
-75	-86	63
-46	-53	47
-8	-26	21
33	-2	-18
66	28	-53
86	65	-77
90	100	-117
78	112	-110
51	93	-61
14	47	-19
-31	-4	-15
-75	-40	6
-107	-52	61
-121	-48	41
-115	-44	-17
-92	-44	-71
-58	-41	-97
-24	-17	-47
3	36	-74
28	106	-127
54	155	-28
82	145	51
105	68	10
118	-54	-69
110	-164	-132
80	-215	-137
30	-180	-106
-27	-91	-66
-76	0	-44
-108	45	-21
-118	27	30
-110	-27	112
-93	-71	216
-68	-64	278
-40	-5	294
-10	74	233
29	124	54
69	117	-134
111	57	-251
137	-19	-223
144	-66	-129
127	-62	-134
89	-15	-249
39	41	-279
-11	70	-181
-52	51	-116
-85	-8	-89
-107	-79	-43
-119	-126	30
-122	-133	124
-109	-101	179
-80	-49	120
-30	2	85
26	34	56
80	45	3
114	48	-14
121	52	-77
100	67	-88
59	88	-72
17	104	-97
-20	102	-55
-43	74	-42
-56	27	2
-63	-25	14
-70	-65	-70
-75	-86	-135
-76	-84	-100
-69	-69	-5
-52	-57	30
-27	-51	125
5	-48	138
37	-33	113
66	0	82
89	48	48
100	93	21
98	108	-34
77	81	-77
42	16	-145
-1	-61	-172
-45	-120	-130
-83	-136	-1
-103	-112	-10
-104	-70	-58
-91	-36	-35
-63	-21	-25
-32	-12	-8
0	14	-35
28	71	1
52	150	-8
71	209	-13
85	208	-30
91	127	-78
86	-12	-25
65	-157	-2
24	-243	21
-26	-243	-8
-82	-171	-36
-124	-76	-60
-143	-12	-94
-132	-2	-43
-94	-33	-30
-40	-58	9
12	-42	79
53	21	159
81	108	205
93	171	186
95	183	113
92	143	-76
80	78	-262
56	24	-294
17	1	-242
-27	5	-147
-69	15	-50
-97	8	-30
-103	-26	55
-89	-74	87
-60	-113	-2
-32	-127	-120
-12	-108	-157
2	-63	-44
10	-7	-14
20	47	-30
35	93	16
54	124	38
69	134	72
77	124	116
67	89	82
46	35	14
17	-31	-72
-14	-102	-176
-42	-161	-262
-64	-201	-298
-80	-210	-202
-88	-182	-32
-86	-117	62
-69	-31	125
-40	52	137
2	110	91
44	128	54
83	110	43
100	72	49
95	41	11
68	32	1
32	36	-36
-5	40	-46
-33	23	3
-48	-8	-4
-53	-42	-8
-50	-51	-47
-44	-24	-81
-33	30	-85
-20	89	-122
-5	115	-68
14	100	-14
30	45	0
42	-21	60
46	-68	86
46	-86	68
37	-71	48
26	-46	51
12	-27	24
-1	-25	-81
-14	-43	-163
-23	-72	-110
-29	-105	-27
-36	-127	-31
-42	-135	-52
-47	-114	-77
-48	-61	-76
-42	16	-16
-28	105	82
-6	182	108
18	221	47
36	210	26
46	153	-50
44	61	-127
33	-39	-167
15	-125	-233
-4	-182	-189
-26	-198	-18
-44	-178	91
-60	-127	106
-68	-66	127
-65	-16	77
-50	17	13
-26	26	-7
1	27	-54
24	32	-124
40	55	-193
50	95	-193
54	134	-120
57	156	-54
57	145	35
46	103	126
28	36	144
-2	-30	90
-33	-86	-38
-59	-123	-106
-71	-135	-82
-69	-125	-42
-55	-94	4
-35	-46	29
-14	7	16
9	54	19
30	81	18
50	83	-1
65	67	11
70	50	54
62	38	43
39	35	-64
11	31	-119
-20	13	-94
-46	-13	-78
-68	-33	-64
-83	-24	-11
-90	17	42
-87	71	21
-68	100	-14
-33	61	-74
14	-44	-153
58	-182	-181
89	-278	-159
94	-276	-72
76	-161	7
45	18	70
17	171	104
1	224	89
-5	150	77
-5	-4	13
-12	-149	-61
-23	-210	-54
-35	-163	-13
-42	-55	11
-29	43	-53
-6	77	-103
18	43	-26
33	-13	31
29	-33	25
13	12	-26
-7	104	-18
-16	192	10
-13	225	-16
-1	183	-2
8	90	-21
7	-16	-44
-7	-98	-66
-27	-144	-76
-46	-156	-27
-60	-137	14
-65	-88	34
-66	-6	7
-61	87	-4
-48	158	-20
-20	161	-54
20	75	-81
67	-72	-150
107	-213	-174
123	-269	-150
113	-208	-92
76	-57	-26
29	93	24
-16	156	112
-45	97	115
-62	-41	74
-70	-167	74
-75	-196	77
-77	-101	65
-71	62	15
-56	202	-95
-24	240	-145
17	165	-86
55	30	-68
85	-82	-18
93	-110	13
82	-55	13
57	35	31
27	96	57
-1	90	4
-28	25	-145
-47	-55	-171
-63	-109	-144
-72	-116	-104
-76	-87	-65
-69	-47	-59
-53	-18	-50
-26	-5	-9
7	3	23
42	23	57
69	55	79
87	90	31
87	110	-14
72	104	-36
46	79	-31
14	41	-32
-20	9	11
-49	-17	47
-76	-35	53
-93	-55	47
-100	-79	2
-92	-99	15
-70	-110	29
-36	-101	40
4	-71	-27
39	-23	-111
63	43	-70
71	121	-88
65	205	-75
50	274	-25
33	300	-43
19	249	3
9	109	11
1	-99	-26
-10	-319	-13
-22	-471	-119
-39	-498	-173
-54	-386	-93
-61	-185	-30
-55	16	37
-36	142	-50
-6	156	-129
29	91	-92
57	17	-14
74	5	80
71	70	87
59	174	75
44	243	15
32	213	-55
27	87	-89
24	-85	-40
18	-210	28
2	-235	66
-24	-153	86
-55	-26	11
-84	67	-24
-100	78	-29
-100	8	-68
-85	-83	-102
-58	-129	-112
-26	-92	-63
8	12	-5
40	120	18
65	174	10
79	150	-26
74	70	-29
46	-15	-32
3	-55	-36
-46	-38	-8
-88	15	-82
-109	61	-147
-107	66	-89
-86	29	14
-51	-25	31
-13	-60	13
21	-52	-23
54	-5	-4
81	53	87
101	86	83
109	74	65
104	20	60
85	-48	-15
50	-97	-113
8	-110	-135
-36	-89	-139
-79	-59	-164
-110	-51	-64
-126	-76	21
-118	-121	21
-88	-154	31
-38	-142	14
17	-69	-2
63	42	-7
89	153	-4
89	210	22
71	191	84
47	109	77
29	10	-3
16	-53	-51
5	-47	-53
-10	15	-5
-32	89	-48
-55	117	-103
-71	70	-64
-67	-41	-89
-47	-165	-109
-18	-240	-102
12	-223	-88
32	-119	-62
41	23	-55
44	144	-22
52	194	37
64	168	42
72	92	26
67	14	24
44	-34	-39
4	-46	-46
-44	-35	-68
-83	-29	-52
-107	-36	36
-110	-49	46
-96	-48	85
-67	-18	115
-33	35	83
9	92	12
50	119	-23
86	110	-46
107	70	-58
107	21	-54
86	-15	-125
46	-36	-163
6	-54	-160
-26	-87	-97
-50	-134	-35
-64	-179	-27
-80	-199	15
-96	-171	20
-111	-103	26
-118	-20	32
-106	45	-5
-71	80	-75
-25	91	-145
25	99	-129
67	121	-115
93	150	-52
104	157	39
99	117	20
82	35	18
56	-59	40
21	-121	-2
-19	-123	-15
-56	-80	-8
-84	-33	-4
-89	-29	65
-76	-76	69
-48	-139	52
-20	-163	96
6	-106	112
23	19	112
38	156	60
54	231	-18
69	209	-87
82	114	-125
79	15	-151
57	-22	-181
21	12	-186
-20	76	-127
-54	94	-34
-71	28	-12
-78	-97	6
-77	-210	4
-76	-232	-5
-76	-141	26
-66	4	12
-39	106	0
6	97	-53
62	-24	-113
107	-168	-100
127	-226	-89
114	-142	-16
77	42	97
33	221	53
1	282	4
-18	190	17
-24	1	9
-32	-166	-12
-44	-218	-92
-60	-137	-127
-71	9	-117
-65	116	-69
-44	127	-37
-12	53	-5
19	-22	40
42	-28	19
57	57	16
64	179	6
68	241	-29
66	186	-39
54	23	-11
27	-166	7
-15	-286	8
-64	-276	26
-105	-161	26
-125	-18	21
-121	70	-19
-96	64	-49
-60	-3	-37
-20	-71	-24
16	-80	-13
48	-16	1
77	79	22
96	150	22
105	157	-12
97	104	-86
71	27	-94
33	-31	-78
-11	-50	-155
-51	-43	-144
-79	-36	-55
-95	-52	20
-98	-85	22
-89	-115	-12
-71	-115	6
-49	-77	-2
-25	-17	30
-2	41	64
16	76	55
28	86	-7
37	88	-63
39	104	-123
36	147	-179
26	205	-109
12	256	-71
-1	254	-26
-13	171	47
-17	1	49
-16	-222	78
-14	-434	115
-14	-565	118
-16	-556	54
-17	-408	-43
-6	-170	-113
18	68	-143
54	221	-111
94	249	-71
117	171	-70
115	58	-144
85	-15	-145
35	-14	-42
-16	41	21
-56	95	12
-80	96	-23
-91	30	0
-93	-64	14
-93	-131	13
-88	-125	14
-75	-51	-20
-50	45	-46
-15	115	-52
21	125	-18
54	93	74
74	56	174
82	58	202
77	103	173
61	164	62
40	196	-80
12	165	-175
-20	69	-198
-51	-59	-171
-74	-177	-117
-85	-248	-32
-81	-258	-38
-64	-215	-43
-40	-139	-26
-10	-53	-51
20	22	-46
49	78	-76
74	104	-56
86	104	29
84	86	82
67	66	87
39	57	49
7	58	28
-20	56	22
-39	34	19
-49	-20	-53
-54	-96	-109
-60	-167	-105
-66	-199	-170
-70	-175	-200
-64	-102	-120
-47	-11	-43
-18	67	10
17	112	42
48	127	52
64	134	61
61	150	35
41	168	13
11	162	8
-17	100	55
-35	-25	95
-38	-187	82
-31	-322	32
-24	-368	-2
-23	-300	-22
-28	-142	-80
-35	31	-82
-34	145	-86
-18	166	-171
15	110	-219
54	43	-127
84	22	-21
94	72	19
82	157	29
52	214	17
21	187	47
-2	70	61
-12	-89	30
-15	-216	0
-21	-260	-34
-36	-208	-115
-56	-103	-118
-75	-5	-115
-78	47	-108
-60	51	-29
-29	35	20
11	33	81
48	52	32
74	81	-36
87	82	-17
87	41	-5
76	-26	8
52	-90	-9
22	-113	-32
-16	-86	-20
-50	-31	10
-75	11	29
-85	17	16
-82	-5	10
-71	-26	-11
-54	-6	-26
-36	59	-45
-12	142	-78
20	191	-46
54	166	-67
84	67	-72
91	-63	-62
70	-164	-98
22	-191	-60
-36	-142	-59
-89	-59	-16
-114	-2	15
-110	-1	-14
-84	-53	-6
-46	-114	-16
-15	-139	21
3	-102	77
9	-13	74
14	82	49
22	143	22
35	145	0
53	103	-27
69	43	-43
81	7	15
75	6	-3
56	27	-84
24	47	-131
-10	41	-142
-43	4	-118
-65	-54	-132
-71	-102	-116
-67	-119	-59
-53	-98	-16
-35	-48	26
-16	8	74
4	53	127
25	79	160
49	87	127
69	88	49
82	85	-42
81	81	-117
64	65	-149
35	34	-156
1	-14	-111
-28	-68	-11
-53	-112	43
-69	-132	28
-82	-125	-54
-85	-93	-130
-80	-48	-133
-64	-3	-98
-39	40	-85
-7	79	-10
24	110	86
44	132	95
57	138	68
57	121	38
49	81	39
36	22	-17
23	-45	-20
12	-104	-15
0	-145	-20
-12	-160	28
-26	-144	46
-39	-101	48
-53	-33	2
-65	38	3
-71	92	-44
-67	108	-129
-46	75	-130
-10	1	-75
40	-90	-34
86	-160	-38
119	-178	-54
123	-142	-105
97	-69	-171
46	6	-92
-12	52	60
-61	52	85
-93	17	102
-103	-27	40
-97	-51	-40
-83	-38	-64
-61	1	-56
-33	48	-63
0	80	-104
41	80	-98
82	57	-87
107	26	-88
107	8	-124
86	11	-61
47	31	39
5	48	70
-31	44	103
-52	15	127
-64	-35	97
-69	-84	82
-72	-108	64
-74	-97	32
-65	-55	-40
-48	-1	-151
-19	47	-123
16	76	-63
50	86	-69
75	85	-71
89	84	-57
90	86	0
79	85	49
58	75	45
28	47	-24
-9	8	-76
-50	-34	-72
-85	-71	-69
-108	-97	-48
-115	-113	-1
-105	-118	25
-85	-109	58
-54	-75	87
-21	-12	69
14	69	26
50	141	-30
81	164	-72
100	120	-115
102	15	-147
89	-103	-100
60	-183	-16
27	-184	5
-2	-118	-13
-26	-25	-40
-44	33	-84
-60	22	-118
-75	-41	-48
-85	-109	10
-83	-128	18
-64	-70	53
-28	40	56
17	157	40
57	228	13
85	241	-32
89	210	-34
76	166	39
52	123	35
31	71	1
14	-9	9
0	-127	11
-14	-256	24
-32	-337	38
-49	-322	14
-60	-207	-50
-58	-40	-193
-42	100	-244
-17	149	-84
8	98	-36
25	-4	-66
32	-80	-116
29	-78	-80
24	-5	47
19	88	34
14	129	-48
7	91	-112
-7	-6	-71
-29	-104	-76
-52	-141	-92
-70	-107	-14
-77	-28	-9
-66	40	-38
-42	65	9
-10	54	22
24	47	14
52	81	55
75	161	58
83	244	45
80	279	26
66	221	30
44	74	5
17	-111	-30
-11	-263	-33
-34	-330	-11
-52	-301	5
-60	-210	-50
-64	-108	-63
-58	-36	-70
-47	-11	-52
-28	-14	-29
-4	-26	-46
20	-19	1
42	7	77
56	45	81
58	85	48
52	110	11
40	114	-49
25	99	-81
5	66	-115
-17	24	-139
-46	-22	-103
-77	-57	-43
-107	-82	4
-122	-83	37
-118	-71	39
-93	-49	0
-48	-25	-48
0	3	-40
44	32	-5
74	62	-56
91	92	-53
94	109	2
91	106	-2
81	85	1
63	45	37
38	6	65
6	-28	84
-27	-45	82
-57	-48	39
-78	-46	-25
-86	-46	-63
-86	-56	-100
-75	-68	-174
-56	-78	-164
-30	-69	-163
6	-41	-142
45	3	-18
81	51	30
100	92	42
100	117	36
77	123	22
36	115	31
-7	97	-23
-45	64	-79
-75	15	-64
-88	-60	-19
-88	-148	9
-79	-222	46
-60	-241	22
-39	-181	-36
-14	-44	-80
13	120	-80
40	237	-32
68	247	-6
93	130	11
113	-66	-10
115	-256	-45
98	-345	-144
57	-296	-198
4	-143	-172
-52	25	-127
-91	119	-19
-105	98	66
-94	-8	95
-65	-120	65
-36	-157	78
-10	-91	98
9	44	95
25	171	91
44	228	27
65	195	-21
84	115	-11
88	45	-7
75	26	-53
44	53	-37
6	85	-2
-31	77	-45
-61	13	-104
-85	-78	-128
-103	-147	-126
-115	-158	-132
-119	-109	-30
-109	-34	21
-80	26	12
-35	51	46
16	50	8
59	53	-82
86	83	-114
89	131	-14
76	164	-12
51	143	-28
26	56	37
0	-76	20
-26	-196	1
-50	-259	-7
-75	-238	2
-91	-157	18
-93	-59	30
-77	6	43
-44	21	1
-4	4	-52
36	-16	-49
66	-3	-47
86	39	-59
92	96	-55
91	134	-86
81	139	-119
64	118	-111
41	85	-76
11	58	-18
-20	32	50
-47	-9	46
-65	-78	58
-71	-167	58
-69	-241	-10
-63	-260	-10
-50	-196	-27
-30	-68	-38
-3	72	-12
35	171	-30
78	193	-39
115	143	-17
135	66	1
128	15	-20
91	13	-30
33	41	11
-28	62	77
-82	39	35
-115	-25	-52
-129	-93	-83
-126	-107	-95
-112	-45	-76
-89	68	-107
-53	171	-158
-10	187	-115
39	88	-23
78	-92	26
99	-263	27
90	-337	-13
56	-276	-15
10	-116	10
-33	51	18
-58	138	23
-68	105	-24
-66	-13	-83
-65	-135	-124
-67	-183	-91
-71	-127	9
-65	-4	103
-41	116	130
-3	171	24
44	153	-70
86	93	-25
111	47	-24
117	49	-71
107	88	-78
90	127	-119
66	121	-98
37	61	-14
1	-23	19
-39	-92	-39
-81	-114	-44
-109	-98	64
-116	-76	80
-104	-81	35
-72	-117	-14
-35	-159	-39
2	-162	-25
34	-94	27
61	35	87
84	186	76
100	301	22
107	353	-56
99	325	-111
77	233	-169
40	99	-138
-1	-59	-39
-40	-224	3
-75	-368	-20
-103	-444	1
-123	-418	20
-130	-286	-6
-123	-85	-33
-91	105	-186
-40	208	-196
18	194	-70
68	96	-4
99	-7	49
102	-44	56
82	6	112
53	101	104
25	168	45
5	149	5
-11	49	-41
-26	-69	-41
-44	-140	-59
-59	-126	-74
-64	-47	-67
-51	35	-61
-21	68	-63
18	39	-42
54	-15	-30
75	-39	22
75	-6	28
59	69	19
35	138	22
10	153	-7
-14	98	-9
-33	5	-82
-55	-80	-159
-77	-117	-190
-96	-109	-120
-107	-83	-75
-106	-64	-53
-92	-66	-5
-65	-63	13
-35	-29	48
-4	49	37
25	143	32
50	208	20
77	196	1
98	98	21
113	-46	64
115	-175	91
101	-229	87
69	-190	59
27	-91	34
-18	11	13
-55	62	-27
-79	47	-45
-89	-11	-88
-85	-60	-114
-74	-64	-129
-53	-16	-143
-24	53	-98
11	99	4
50	99	82
82	55	94
96	17	-4
82	19	-124
46	70	-127
3	132	-154
-35	145	-143
-52	63	-88
-49	-111	-76
-37	-307	-36
-28	-433	15
-29	-418	29
-40	-260	14
-46	-31	13
-36	165	16
-5	244	40
39	199	49
81	84	52
101	-12	60
92	-26	41
61	37	0
22	123	-14
-10	158	28
-30	110	-25
-39	-1	-48
-48	-111	-26
-57	-155	-31
-65	-120	-18
-66	-34	-60
-53	46	-58
-27	83	26
6	77	22
36	58	-51
56	63	-92
63	93	-155
59	123	-87
49	113	-7
34	50	-19
13	-47	22
-12	-131	35
-46	-162	-1
-78	-130	-26
-105	-65	-39
-118	-14	-13
-115	-3	14
-99	-27	2
-69	-59	-2
-33	-66	-67
8	-42	-177
48	-2	-209
83	29	-95
104	43	47
104	52	41
89	76	-24
61	113	-99
33	135	-150
11	105	-90
-3	-6	-37
-16	-169	-55
-35	-316	11
-63	-364	123
-95	-274	155
-111	-80	120
-102	131	99
-63	265	67
-3	262	13
61	154	-12
110	15	-54
129	-67	-120
121	-61	-172
93	14	-96
55	98	28
18	134	45
-18	106	-23
-50	34	-23
-79	-38	-25
-97	-91	-96
-99	-116	-140
-80	-127	-118
-45	-135	-24
-5	-124	34
30	-86	60
54	-13	85
66	70	86
74	128	76
78	134	32
78	88	-44
69	26	-163
48	-14	-197
13	-12	-97
-30	15	-37
-67	31	75
-91	3	106
-97	-67	36
-88	-141	26
-71	-169	-27
-52	-124	-100
-31	-28	-149
-6	74	-123
23	130	-5
51	124	50
72	78	8
75	34	16
58	27	-41
22	54	-147
-19	87	-136
-54	90	-94
-76	49	-11
-79	-16	58
-69	-70	96
-55	-92	106
-42	-74	66
-34	-43	30
-27	-22	6
-16	-25	17
3	-39	51
27	-47	44
57	-33	38
83	-7	54
97	14	-36
96	13	-130
79	-15	-106
48	-46	-40
12	-62	-12
-22	-49	-124
-54	-14	-250
-74	22	-208
-86	39	-193
-86	33	-184
-75	20	-92
-51	15	-43
-18	25	-28
21	38	-2
61	31	-8
94	-5	-43
114	-60	1
111	-105	69
92	-113	97
56	-69	99
14	2	76
-28	58	34
-60	68	14
-81	21	4
-91	-54	34
-91	-114	63
-83	-121	18
-67	-70	-4
-47	10	24
-22	79	69
8	105	13
36	92	-84
60	58	-135
75	38	-162
77	41	-135
68	62	-49
49	74	24
24	54	26
-7	5	-13
-40	-57	-36
-71	-102	-20
-94	-112	-19
-101	-89	-28
-88	-47	-55
-55	-12	11
-13	8	96
26	18	87
51	26	76
57	44	26
44	69	-13
20	96	-75
-4	110	-128
-22	113	-150
-30	103	-155
-33	78	-111
-33	32	-106
-38	-38	-81
-40	-129	14
-41	-224	61
-32	-280	71
-12	-272	71
17	-186	20
50	-42	-41
79	105	-97
97	203	-88
101	224	-50
91	174	-36
69	96	-3
39	28	29
7	-4	37
-28	-16	1
-57	-26	-26
-83	-53	2
-97	-84	56
-99	-92	72
-89	-57	45
-65	13	-4
-32	76	-113
11	87	-203
53	25	-189
90	-77	-95
107	-155	18
103	-148	49
80	-37	59
44	125	62
11	258	43
-13	279	-25
-24	170	-41
-30	-27	-39
-37	-224	-134
-54	-341	-134
-79	-351	-103
-97	-268	-18
-102	-157	38
-83	-62	10
-40	-5	8
10	27	30
56	61	26
85	106	-29
91	153	-51
79	177	-98
56	162	-119
32	113	-125
7	45	-101
-20	-12	-57
-46	-49	-63
-72	-64	-27
-94	-70	32
-100	-72	43
-88	-69	57
-59	-53	70
-21	-19	9
17	27	40
51	74	41
75	104	30
90	117	29
97	119	-60
93	110	-77
77	99	-99
46	72	-87
8	27	-30
-34	-40	63
-69	-115	107
-95	-169	68
-104	-182	81
-101	-147	29
-84	-84	-28
-56	-19	-14
-22	21	-59
18	33	-76
57	29	-50
92	31	-85
114	50	-92
117	82	-114
105	106	-110
77	103	-56
37	65	6
-8	13	42
-54	-32	49
-95	-42	41
-124	-12	55
-136	49	13
-125	113	-151
-91	147	-141
-36	130	-100
27	56	-87
81	-58	-46
117	-187	-85
123	-283	-84
103	-314	-54
63	-265	-32
21	-156	-18
-12	-28	-33
-34	62	-44
-44	85	-26
-56	39	-16
-74	-28	2
-100	-74	-11
-122	-64	-7
-129	-17	6
-109	32	-24
-63	36	-4
-6	-11	37
49	-77	72
85	-104	93
98	-54	95
95	60	91
86	189	46
78	257	-5
69	227	-48
57	116	-78
32	-13	-120
-4	-92	-109
-47	-90	-27
-81	-35	17
-96	16	47
-91	16	42
-63	-38	24
-27	-106	5
10	-126	-48
41	-72	-112
69	39	-157
89	150	-128
101	201	-58
103	169	-91
89	79	-128
60	-16	-7
19	-74	80
-28	-76	65
-76	-49	17
-111	-31	-28
-130	-41	21
-130	-72	-20
-112	-97	-58
-78	-90	-26
-35	-45	-22
8	19	22
45	71	-5
72	96	-6
86	96	32
87	93	25
75	104	-19
54	127	-113
26	137	-160
-4	100	-199
-33	3	-184
-54	-137	-101
-65	-270	-2
-67	-345	87
-58	-322	87
-44	-215	75
-26	-64	84
-10	74	80
7	154	39
22	168	-32
33	132	-83
41	87	-110
40	52	-74
30	32	-28
12	14	2
-11	-21	14
-34	-68	9
-52	-112	-15
-62	-130	-19
-65	-110	-25
-60	-59	-100
-51	-2	-111
-34	41	-75
-15	64	-11
7	77	19
30	98	12
48	134	-20
64	169	-39
72	183	7
76	150	37
70	76	116
58	-18	228
36	-95	211
8	-135	53
-20	-145	-135
-40	-151	-278
-47	-173	-324
-39	-210	-362
-22	-237	-261
-8	-218	-38
1	-135	10
5	-8	42
10	119	27
27	194	-38
52	197	-13
75	140	3
77	70	83
47	28	149
-8	29	130
-80	55	89
-135	74	2
-160	58	-74
-145	5	-60
-106	-61	-24
-59	-108	14
-21	-114	49
4	-78	39
20	-11	49
38	59	8
64	116	-58
94	140	-106
117	131	-150
123	83	-157
107	10	-123
72	-65	-82
25	-119	-69
-21	-131	-23
-62	-107	-14
-92	-61	-9
-107	-30	-6
-107	-28	5
-94	-54	24
-66	-79	21
-35	-70	16
-5	-20	-12
21	58	-23
39	129	-32
52	159	-12
60	136	36
61	81	32
52	22	15
31	-13	27
0	-22	39
-35	-20	72
-65	-26	29
-84	-45	-39
-86	-58	-126
-75	-42	-218
-57	13	-247
-34	93	-202
-10	155	-86
21	158	43
52	80	187
86	-55	151
107	-191	59
113	-264	4
98	-232	-72
62	-101	-103
20	72	-103
-19	210	-2
-44	244	47
-55	154	51
-54	-29	39
-45	-230	-4
-36	-364	-85
-23	-374	-227
-8	-253	-202
7	-53	-107
20	149	-84
25	272	-43
24	282	6
18	189	49
13	50	7
10	-68	-11
11	-121	3
9	-100	-34
-1	-35	-19
-24	26	-26
-50	44	41
-70	17	113
-77	-38	166
-65	-85	196
-42	-95	141
-17	-64	134
0	-6	80
9	53	-56
15	96	-195
21	116	-345
34	118	-385
44	108	-211
49	91	-115
39	63	-51
16	21	26
-14	-33	51
-37	-90	106
-48	-134	87
-44	-151	61
-30	-130	-14
-17	-77	-62
-8	-8	-57
-7	55	-44
-5	93	-22
2	95	-2
18	66	26
42	20	46
64	-15	24
77	-27	-38
71	-6	-59
44	35	-91
6	72	-63
-38	85	-68
-76	64	-28
-96	14	46
-97	-47	37
-80	-101	-6
-51	-129	-74
-18	-127	-85
13	-98	-133
39	-49	-163
59	11	-79
74	71	-24
84	119	-32
86	140	-14
82	126	46
66	81	144
41	11	145
9	-57	118
-27	-110	68
-62	-137	-29
-89	-143	-54
-102	-137	-113
-100	-127	-132
-84	-115	-72
-54	-91	-54
-20	-45	-24
17	17	-11
48	86	-9
68	139	7
74	161	1
63	138	13
41	90	18
14	32	18
-16	-14	13
-40	-37	5
-61	-43	10
-75	-41	17
-83	-43	12
-85	-50	-80
-77	-56	-202
-61	-52	-186
-35	-27	-108
-2	14	-64
34	61	-9
66	100	-39
89	120	-40
101	117	36
100	93	20
87	55	-43
60	9	-68
22	-38	-42
-26	-83	12
-77	-116	62
-116	-131	105
-133	-124	110
-124	-95	112
-90	-52	70
-38	-10	37
13	19	37
57	33	-39
84	42	-155
94	61	-195
89	105	-140
75	162	-158
57	207	-173
37	200	-155
20	114	-111
5	-37	5
-5	-209	37
-20	-332	91
-34	-355	136
-49	-270	101
-59	-125	102
-58	6	87
-41	68	45
-11	54	9
23	5	-81
53	-20	-178
69	17	-278
71	105	-288
61	183	-144
44	197	-80
27	121	-40
4	-4	42
-25	-119	56
-62	-164	82
-99	-127	84
-128	-48	74
-139	22	103
-126	41	102
-95	25	65
-49	6	-54
-1	20	-171
42	70	-183
75	121	-149
94	130	-112
101	72	-61
91	-25	-24
66	-109	-8
29	-126	35
-11	-71	55
-48	13	72
-75	66	90
-88	43	85
-87	-43	67
-76	-141	62
-58	-180	61
-34	-127	15
-7	-6	-63
28	122	-172
64	198	-176
96	198	-86
117	147	-7
119	90	15
103	61	-16
69	45	-13
28	11	14
-16	-76	-2
-55	-192	-37
-87	-289	-46
-108	-297	-63
-113	-189	-66
-105	-11	-72
-80	147	-19
-42	196	1
4	114	-51
44	-44	-46
76	-176	-51
90	-190	-2
87	-77	19
71	99	-76
48	229	-132
24	239	-92
1	126	-66
-22	-36	-18
-43	-156	66
-63	-174	96
-76	-102	98
-79	-6	49
-70	48	20
-50	36	-21
-20	-16	-34
14	-48	-6
47	-21	10
75	61	-8
89	150	-37
92	193	-16
82	160	-77
62	68	-147
36	-27	-144
8	-90	-133
-16	-101	-89
-39	-82	-32
-57	-59	-19
-77	-52	17
-92	-56	24
-103	-49	16
-101	-20	16
-84	31	31
-50	79	48
-4	95	14
44	76	-9
87	27	-28
113	-19	-12
115	-48	13
97	-55	-16
55	-51	-40
5	-50	-3
-49	-54	11
-96	-60	-38
-127	-58	-58
-134	-46	-71
-115	-33	-55
-77	-26	-50
-26	-30	-51
26	-29	-24
66	-1	14
90	68	64
99	168	86
95	261	117
85	299	124
71	247	91
52	112	-12
31	-66	-116
1	-226	-176
-34	-318	-246
-71	-322	-253
-103	-263	-167
-121	-183	-45
-121	-117	16
-99	-78	32
-59	-53	-45
-10	-22	-116
41	31	-81
83	99	-8
109	155	39
118	178	40
107	155	32
86	100	28
55	39	-1
18	-4	-48
-20	-21	-39
-60	-23	-69
-93	-22	-67
-114	-32	41
-118	-47	113
-101	-56	103
-66	-50	46
-18	-23	16
30	15	-54
69	52	-93
93	82	-75
96	103	-12
84	117	46
59	124	-18
34	115	-112
8	74	-69
-15	0	-3
-39	-97	-33
-65	-186	-84
-94	-237	-166
-117	-223	-184
-125	-152	-108
-113	-49	-38
-77	45	7
-23	104	64
36	123	108
90	112	119
120	96	130
126	86	168
107	79	203
79	57	90
44	8	-27
18	-65	-123
-5	-141	-223
-25	-191	-215
-45	-190	-223
-65	-142	-161
-82	-70	-137
-83	-9	-125
-67	21	-66
-37	22	-32
2	12	86
40	17	104
68	48	101
87	98	98
93	137	54
89	145	9
74	114	-38
44	58	-41
5	10	-69
-43	-13	-80
-90	0	-52
-124	26	-23
-135	38	5
-123	9	26
-88	-64	59
-42	-153	77
5	-212	36
44	-206	-24
70	-122	-84
83	10	-67
82	134	-11
69	193	-38
52	160	-106
31	49	-90
10	-78	-58
-12	-165	-78
-31	-168	-54
-48	-101	-46
-62	-11	-8
-70	53	85
-65	56	137
-49	18	132
-22	-23	132
8	-23	26
32	24	-148
48	94	-234
50	143	-275
41	139	-155
25	93	-50
2	28	-32
-23	-15	72
-45	-27	93
-60	-24	54
-66	-28	5
-60	-55	-51
-45	-93	-58
-28	-113	-66
-13	-98	-62
-4	-52	-16
5	-8	72
15	5	85
33	-20	16
56	-56	11
79	-65	10
91	-24	16
89	55	-27
68	127	-97
38	143	-91
4	88	-92
-26	-12	-99
-48	-102	-100
-62	-137	-14
-68	-107	36
-69	-43	45
-64	11	-6
-50	24	-101
-32	6	-130
-10	-15	-145
10	-4	-136
25	43	-107
35	99	-64
43	131	-36
50	115	-11
52	65	6
47	10	62
27	-16	90
-6	-4	96
-47	21	110
-85	31	95
-105	0	98
-101	-65	68
-76	-131	-7
-37	-164	-63
4	-140	-111
37	-77	-135
63	0	-59
82	51	-2
94	65	21
99	53	33
92	38	-36
66	40	-75
24	62	-68
-26	80	-79
-75	66	-80
-102	6	-27
-105	-89	-10
-83	-182	-22
-45	-222	13
-6	-180	21
28	-55	22
49	106	18
63	243	10
70	291	17
71	228	-31
66	77	-55
51	-101	-30
28	-228	-12
-7	-257	-20
-44	-190	-45
-78	-72	-12
-99	24	14
-105	55	-47
-96	15	-133
-72	-54	-152
-44	-96	-126
-15	-74	-122
9	10	-162
28	105	-74
40	160	46
46	140	44
46	65	38
39	-17	30
28	-58	46
15	-35	84
0	29	135
-16	84	113
-29	83	98
-40	17	91
-51	-81	7
-58	-160	-78
-63	-173	-140
-59	-112	-190
-45	-4	-243
-22	104	-176
10	174	-78
44	187	-15
76	150	34
98	86	52
106	16	46
97	-42	42
69	-82	68
28	-99	21
-21	-94	-21
-62	-79	-67
-91	-62	-131
-95	-66	-95
-80	-87	-30
-48	-112	-2
-12	-112	-2
19	-64	-34
42	26	-35
54	135	56
57	215	87
54	238	87
42	190	38
24	101	-27
2	13	-80
-23	-44	-141
-44	-70	-171
-57	-90	-182
-60	-127	-110
-57	-188	-16
-50	-243	22
-42	-251	12
-32	-188	6
-17	-65	-6
7	68	-34
35	161	-60
64	175	-24
85	131	94
89	76	119
75	57	30
46	96	-33
16	160	-47
-12	192	25
-29	145	22
-38	17	-52
-43	-145	-41
-50	-274	-37
-59	-309	-33
-65	-243	-76
-63	-109	-167
-47	28	-131
-19	109	-38
17	121	-52
50	81	3
74	38	16
83	21	-7
78	41	74
64	75	33
46	91	-17
29	68	-17
8	11	-22
-18	-56	-56
-49	-106	-91
-82	-118	-60
-107	-95	13
-115	-55	72
-97	-19	47
-57	5	31
-6	21	18
42	37	-13
78	62	-25
90	92	-26
80	114	-35
57	116	-25
27	90	28
0	45	24
-24	-9	-4
-43	-59	-34
-58	-95	-24
-66	-117	13
-66	-117	-38
-59	-98	-86
-45	-56	-114
-30	-1	-154
-15	54	-186
0	89	-148
13	81	-90
26	34	-16
37	-37	93
44	-100	125
42	-119	102
29	-82	45
4	-2	-3
-26	84	-51
-53	129	-81
-69	101	-110
-71	0	-132
-59	-138	-64
-36	-257	20
-8	-304	90
22	-253	86
49	-118	49
69	48	42
85	187	15
90	250	-12
89	228	-62
79	149	-99
64	61	-55
42	13	-4
16	15	38
-14	54	26
-42	88	-5
-61	80	8
-69	16	1
-63	-81	-21
-48	-167	-97
-30	-206	-155
-15	-174	-110
-4	-88	-124
4	15	-289
11	96	-298
23	126	-100
36	109	31
44	61	82
40	15	94
18	-13	105
-13	-20	107
-47	-16	82
-72	-20	11
-84	-35	-24
-80	-60	-15
-69	-82	12
-58	-80	41
-48	-55	42
-36	-12	75
-12	33	26
21	69	-36
61	87	-42
96	89	-18
111	83	-10
105	71	-63
80	56	-145
42	30	-140
7	-5	-60
-20	-47	-31
-40	-84	20
-55	-97	54
-68	-74	29
-77	-20	-1
-74	48	16
-59	106	-5
-33	123	-63
-2	89	-68
28	13	-67
49	-76	-55
61	-139	19
63	-157	69
57	-120	66
41	-55	74
16	0	14
-16	18	-30
-48	-7	-42
-71	-58	-54
-80	-103	-101
-68	-111	-196
-42	-72	-179
-12	-8	-63
17	58	-42
34	103	-53
42	121	-42
43	126	-32
41	135	10
35	153	-7
24	159	-7
10	132	-21
-8	57	-42
-25	-54	-43
-39	-171	-86
-44	-250	-95
-45	-259	-99
-41	-204	-98
-35	-114	8
-27	-34	104
-15	10	106
1	13	116
23	3	105
44	8	87
60	40	38
68	92	-31
67	135	-8
58	147	65
44	113	97
25	51	100
2	-11	93
-24	-52	20
-55	-65	-125
-83	-60	-255
-103	-49	-257
-108	-41	-254
-95	-31	-232
-66	-2	-170
-30	45	-132
7	106	-64
41	147	-42
66	139	-18
83	77	-11
89	-22	24
81	-114	86
58	-157	111
25	-129	133
-14	-54	87
-48	18	51
-68	43	18
-70	-2	5
-58	-90	8
-37	-168	-26
-18	-179	-38
-4	-102	-35
2	36	-11
8	174	-24
17	252	-52
33	241	-14
54	150	-13
75	28	-38
84	-77	-51
76	-130	-55
46	-128	14
4	-89	41
-46	-34	14
-91	10	-25
-117	26	-51
-118	4	-30
-98	-54	-23
-60	-134	-30
-21	-202	-83
12	-217	-90
30	-157	-21
35	-27	21
33	125	35
30	236	-8
34	259	-69
39	186	-108
41	60	-107
33	-57	-82
9	-115	-53
-24	-108	-7
-60	-59	76
-85	-12	140
-91	5	85
-72	0	45
-37	-6	0
8	9	-68
52	41	-81
85	74	-114
100	82	-129
96	61	-20
78	32	69
47	14	-6
14	21	-140
-16	36	-123
-43	33	-35
-63	-8	-10
-80	-81	8
-89	-152	-67
-92	-182	-126
-85	-151	-47
-65	-74	-31
-36	8	-10
1	62	21
36	74	1
66	63	14
82	55	-2
85	68	-42
78	99	-18
60	115	14
39	101	22
15	46	6
-10	-23	-88
-32	-82	-81
-47	-112	-49
-50	-115	-75
-41	-106	-24
-27	-94	40
-12	-78	78
-1	-40	84
5	28	71
13	121	24
25	207	-27
42	241	-41
61	201	-39
71	92	-2
64	-39	12
33	-140	-25
-15	-171	-38
-67	-133	-6
-112	-65	-17
-136	-18	-72
-133	-30	-91
-104	-94	-89
-59	-178	-71
-5	-227	-78
44	-207	-62
86	-119	-55
110	5	-38
111	117	4
91	179	6
51	174	82
4	121	104
-40	49	39
-71	-11	2
-86	-42	-57
-84	-47	-93
-70	-35	-84
-53	-17	-67
-35	0	-23
-20	16	34
-1	28	24
15	35	42
32	32	11
44	24	-56
52	15	-126
54	19	-142
46	41	-58
36	71	-29
21	90	34
7	74	46
-5	16	72
-14	-64	71
-19	-136	-2
-20	-163	-14
-20	-130	-104
-22	-53	-183
-24	26	-189
-28	74	-40
-30	71	144
-23	34	160
-7	-5	99
16	-17	3
42	5	-36
62	43	-103
66	71	-178
56	65	-272
31	25	-279
-1	-31	-108
-34	-79	2
-65	-105	75
-88	-109	64
-101	-98	6
-101	-83	-63
-88	-61	-91
-59	-27	39
-20	17	150
24	71	155
63	119	147
90	157	87
102	182	-22
97	195	-151
83	195	-178
64	162	-37
46	80	9
29	-58	-8
8	-225	-23
-18	-359	-41
-49	-404	-44
-83	-326	-82
-107	-161	-66
-112	15	-36
-92	117	-13
-50	106	12
4	18	19
54	-64	-13
86	-61	-13
98	47	-4
91	208	18
69	317	32
43	298	-21
16	142	-39
-15	-76	-46
-48	-250	-30
-86	-308	-9
-115	-242	-19
-125	-115	-30
-112	-6	-64
-75	38	-90
-28	27	-86
18	7	-43
50	21	29
68	75	59
71	135	39
68	161	43
60	127	65
50	53	49
33	-19	34
5	-60	38
-28	-61	-5
-60	-43	-58
-78	-36	-90
-75	-49	-108
-47	-69	-135
-7	-69	-141
34	-32	-91
68	32	-34
84	99	-10
79	130	13
56	118	6
25	74	-60
-7	25	-102
-34	-5	-67
-52	-13	1
-60	-14	11
-61	-24	72
-60	-47	107
-56	-77	12
-53	-95	-75
-48	-94	-98
-36	-78	-49
-18	-58	20
7	-44	-12
33	-27	-105
54	2	-74
66	50	-72
66	109	-85
56	157	-20
38	168	-31
20	129	-1
2	54	38
-16	-33	40
-33	-107	48
-47	-157	19
-58	-181	30
-61	-187	41
-56	-174	37
-45	-129	78
-29	-45	46
-9	68	-106
10	183	-222
30	252	-253
49	237	-241
63	137	-200
72	-6	-101
69	-134	52
52	-194	98
28	-173	48
-3	-102	96
-31	-33	142
-49	-15	119
-56	-51	0
-52	-116	-113
-45	-157	-108
-32	-137	-85
-19	-56	-62
-1	53	-36
18	144	-30
38	188	-41
54	179	-6
61	143	13
58	106	43
44	84	103
24	66	87
1	32	21
-23	-27	-18
-45	-101	-17
-64	-156	-37
-77	-163	-28
-77	-115	16
-61	-32	77
-31	45	87
6	84	43
39	74	-19
56	40	-140
56	18	-207
41	29	-213
25	70	-197
13	110	-149
11	119	-129
15	77	-86
17	-1	-37
11	-83	-55
-8	-136	-57
-35	-143	-18
-63	-117	19
-86	-79	54
-97	-48	60
-95	-35	81
-80	-31	110
-52	-21	98
-18	9	60
22	63	8
54	136	2
74	210	-16
77	261	-49
64	261	-68
43	187	-61
23	38	16
6	-164	52
-8	-356	65
-25	-470	92
-46	-444	105
-70	-278	93
-86	-28	3
-81	204	-108
-51	324	-142
1	280	-85
58	115	-87
103	-85	-273
122	-210	-320
112	-209	-154
80	-94	-149
38	51	-137
0	140	-84
-30	122	-27
-49	16	91
-63	-106	160
-71	-170	169
-76	-141	26
-67	-44	-72
-48	63	-82
-19	128	-44
17	134	88
48	111	130
72	99	112
84	121	120
86	158	61
79	169	34
65	116	3
42	3	-87
12	-126	-158
-24	-212	-155
-64	-212	-91
-97	-139	-76
-113	-46	-120
-109	6	-179
-85	-13	-143
-47	-77	-56
-6	-131	-30
26	-120	-11
46	-28	6
51	111	39
42	237	78
26	287	78
4	248	51
-18	131	-5
-34	-10	-32
-40	-138	-18
-38	-224	-21
-31	-258	-23
-25	-247	7
-22	-195	9
-20	-117	-25
-14	-26	-25
1	57	-15
26	116	30
56	144	60
78	147	7
83	144	-54
67	148	-62
37	150	-37
6	131	-19
-18	67	-43
-27	-36	-100
-30	-150	-95
-34	-223	-71
-44	-223	-53
-57	-150	-35
-64	-47	-32
-56	25	-35
-31	33	-2
3	-15	3
33	-70	6
49	-79	21
46	-15	3
34	90	16
20	180	16
16	202	20
16	141	21
16	35	3
8	-60	-39
-7	-103	-52
-26	-87	-34
-41	-50	-26
-47	-31	-28
-44	-48	-39
-40	-83	-10
-37	-95	24
-34	-57	46
-24	23	28
-4	108	-48
23	152	-121
52	134	-94
69	72	-77
66	6	-135
44	-27	-162
11	-20	-105
-26	6	-44
-54	16	-36
-71	-13	48
-78	-67	110
-75	-123	123
-63	-145	90
-44	-125	-44
-17	-75	-202
16	-19	-190
44	24	-36
68	52	40
81	76	33
86	104	-39
81	136	-39
69	161	-51
48	166	-115
18	142	-70
-21	93	-11
-61	25	49
-87	-57	74
-93	-145	72
-76	-232	59
-42	-292	33
-10	-309	28
16	-256	-36
26	-142	-83
28	3	-81
29	138	-85
37	219	-63
48	225	-27
58	164	33
54	68	72
34	-31	26
2	-107	29
-34	-151	-22
-59	-163	-111
-72	-145	-124
-70	-106	-142
-58	-47	-143
-43	15	-68
-28	68	100
-14	104	126
1	117	84
14	114	39
29	104	4
38	96	34
42	87	42
40	70	40
30	42	14
15	4	35
-7	-32	3
-30	-60	-45
-50	-71	-116
-63	-72	-243
-64	-70	-263
-53	-68	-194
-30	-61	-104
-3	-44	-72
21	-11	-24
36	32	24
43	71	53
44	88	85
44	83	32
46	58	-15
46	32	-22
43	13	6
31	3	29
11	-7	12
-20	-29	-24
-47	-60	-24
-69	-96	-5
-82	-112	2
-79	-101	9
-64	-58	22
-41	-1	52
-13	56	28
17	102	4
41	135	-35
57	166	-100
60	195	-165
48	215	-252
30	209	-206
6	147	-45
-14	21	23
-27	-152	1
-34	-326	28
-37	-449	80
-45	-474	85
-52	-390	87
-55	-231	80
-44	-54	78
-18	78	106
24	135	107
67	127	91
97	91	22
104	68	-64
86	85	-158
55	135	-292
21	183	-276
-3	196	-187
-18	154	-131
-25	65	-27
-30	-40	4
-39	-135	24
-49	-192	7
-55	-202	-31
-54	-168	-25
-45	-100	-16
-33	-17	16
-22	62	19
-12	117	48
-1	136	51
14	119	47
32	81	41
48	45	-27
50	28	-110
35	29	-163
2	30	-96
-37	11	-16
-70	-40	16
-85	-108	21
-78	-159	4
-50	-163	18
-16	-107	34
18	-14	35
44	80	48
63	135	40
74	143	-13
77	120	-51
74	93	-55
60	85	-59
39	95	-67
12	98	-99
-18	70	-68
-45	8	-24
-69	-68	-14
-89	-121	15
-101	-125	-44
-103	-94	-95
-91	-61	-103
-59	-70	-63
-16	-135	3
29	-224	23
66	-273	46
87	-233	21
91	-95	-35
81	89	-88
69	233	-105
58	267	-50
48	183	-20
31	31	53
2	-98	199
-37	-143	260
-79	-95	281
-103	2	176
-102	76	39
-76	87	-24
-28	43	-182
21	-6	-306
59	-9	-398
77	49	-376
78	139	-194
66	204	-107
44	197	-3
15	113	10
-17	-13	-51
-48	-127	-68
-71	-188	-95
-83	-191	-103
-79	-155	-92
-64	-110	-10
-46	-77	52
-33	-56	105
-24	-41	152
-19	-19	178
-7	12	143
13	42	87
39	68	-2
64	87	-82
78	103	-70
77	119	-8
60	128	51
37	124	27
14	93	34
-4	39	17
-19	-20	-43
-31	-54	-76
-47	-48	-139
-65	-5	-150
-80	42	-118
-83	49	-61
-66	-13	-16
-32	-140	0
16	-280	-10
63	-362	-46
97	-333	-59
111	-187	-54
100	15	-21
70	186	13
30	252	41
-13	193	72
-54	53	54
-88	-84	28
-109	-149	25
-112	-120	34
-95	-38	41
-58	37	2
-11	60	-57
35	32	-106
67	-4	-119
82	-2	-129
75	50	-127
58	128	-76
39	175	-34
25	158	1
14	77	11
3	-24	-11
-14	-88	-2
-36	-91	32
-58	-43	53
-76	7	81
-80	23	80
-68	-5	40
-44	-51	2
-13	-78	-14
21	-57	-66
52	4	-100
74	74	-59
84	117	18
84	121	45
71	99	48
49	72	11
20	58	-129
-11	52	-160
-41	28	-102
-67	-29	-20
-88	-118	-49
-100	-207	-78
-101	-252	-63
-89	-228	-111
-64	-135	-112
-29	-16	-84
14	83	-9
52	129	38
85	122	19
99	98	-6
95	88	10
74	121	33
43	177	106
11	215	140
-17	186	59
-34	66	-90
-44	-120	-227
-48	-314	-266
-50	-444	-233
-52	-457	-109
-53	-354	-53
-50	-179	5
-35	0	16
-8	120	-43
28	157	-5
62	130	3
85	83	33
87	55	97
68	69	114
34	106	112
-5	135	74
-37	119	16
-59	51	-32
-69	-47	-111
-72	-137	-137
-68	-182	-64
-59	-163	20
-44	-92	46
-18	1	35
18	80	55
61	123	47
101	130	5
124	116	-35
125	96	-77
100	82	-57
54	70	-37
-3	51	-79
-55	18	-84
-95	-29	-24
-113	-78	36
-114	-114	45
-102	-123	55
-83	-107	22
-62	-70	-27
-39	-30	-80
-16	9	-133
10	50	-94
33	102	-31
51	171	-2
59	244	18
58	284	9
53	256	-44
48	128	-22
46	-76	-1
38	-300	-64
21	-457	-103
-12	-482	-108
-55	-366	-59
-93	-159	74
-115	44	115
-102	164	78
-59	174	64
-1	112	-25
52	49	-72
86	43	-128
94	95	-160
80	149	-144
55	147	-111
32	57	-32
12	-85	-19
-9	-207	22
-32	-245	37
-57	-183	-26
-80	-74	-36
-89	12	-62
-84	23	-103
-59	-30	-51
-29	-90	-27
4	-93	-4
31	-14	-8
52	108	27
67	209	103
77	231	59
83	170	20
77	72	-26
58	-3	-21
28	-21	-34
-5	7	-132
-39	36	-113
-62	26	-41
-71	-28	1
-70	-97	40
-57	-134	51
-35	-112	17
-6	-42	38
23	35	31
49	83	-10
67	86	-10
70	57	-7
59	26	-4
40	14	-10
15	15	-13
-10	18	-28
-35	0	-26
-58	-36	-3
-85	-79	-22
-108	-108	-66
-121	-109	-81
-116	-92	-117
-92	-65	-130
-50	-43	-74
-3	-21	-53
37	13	-26
63	74	15
77	162	26
79	257	-1
77	323	-27
74	324	-47
71	243	-38
65	88	22
52	-99	23
31	-261	29
6	-356	28
-24	-362	3
-53	-300	-24
-77	-213	-102
-89	-145	-173
-87	-124	-168
-71	-131	-51
-46	-136	3
-16	-96	63
11	-5	126
29	109	107
37	197	82
37	215	2
29	168	-54
19	77	-67
7	0	-35
-5	-29	-26
-18	-11	-16
-27	25	8
-33	37	-64
-37	13	-95
-36	-32	-35
-32	-62	9
-25	-48	-57
-11	9	-88
9	88	-69
34	150	-115
57	171	-61
72	158	38
74	122	57
60	81	-2
34	34	-28
6	-23	-55
-23	-101	-87
-46	-179	-99
-65	-232	-149
-83	-223	-128
-94	-145	-62
-95	-32	22
-78	70	46
-40	118	20
13	99	91
65	38	142
107	-11	120
121	-13	101
107	38	41
78	106	-40
38	139	-61
5	108	-49
-22	12	-30
-40	-106	-48
-56	-196	-116
-69	-226	-98
-76	-186	-3
-71	-109	42
-53	-28	21
-24	27	-35
10	56	-55
40	71	-58
62	90	-61
69	119	-52
65	143	-13
53	144	76
35	105	134
17	28	108
-3	-62	52
-22	-139	-14
-42	-174	-90
-59	-158	-182
-71	-107	-244
-77	-45	-150
-67	-3	-68
-45	11	-65
-11	5	-66
26	0	-99
59	13	-88
84	53	-6
93	106	-25
86	145	-34
70	153	18
47	118	-2
18	60	52
-14	5	28
-49	-23	-11
-85	-24	24
-110	-15	56
-120	-22	62
-111	-65	3
-84	-137	28
-46	-210	61
-10	-241	52
20	-200	38
40	-101	-14
52	25	-69
57	124	-117
57	162	-165
51	129	-149
35	59	-102
10	-5	-53
-21	-32	-14
-53	-16	-29
-75	15	-27
-81	28	-38
-71	0	-41
-50	-60	-7
-23	-121	11
9	-147	15
38	-109	6
65	-24	21
84	79	86
94	154	79
91	177	31
75	147	28
49	81	27
19	17	-27
-11	-27	-83
-36	-44	-80
-52	-43	-92
-60	-41	-82
-61	-43	-80
-56	-45	-93
-48	-32	-61
-36	0	-42
-20	48	-32
1	98	-39
22	121	-20
44	106	15
61	51	-17
68	-21	-12
61	-89	36
40	-126	45
12	-125	69
-20	-98	95
-46	-61	34
-61	-36	4
-62	-30	-36
-55	-38	-165
-44	-48	-180
-31	-49	-106
-20	-32	-38
-7	5	-43
6	52	-84
23	109	-66
40	161	-47
57	196	-13
68	197	13
69	149	68
59	51	125
37	-77	168
6	-195	158
-30	-263	52
-64	-253	-75
-89	-168	-193
-98	-45	-173
-87	67	-105
-58	129	-104
-17	129	-111
26	85	-74
63	29	-42
84	-10	-21
86	-24	-7
70	-18	5
42	-10	10
10	-5	-41
-26	-3	-18
-57	3	37
-84	13	28
-101	15	30
-108	-1	70
-106	-38	56
-95	-84	-1
-72	-117	-89
-41	-118	-149
-1	-85	-115
42	-35	-49
81	8	-50
107	24	-44
115	21	-60
103	13	-103
77	17	-26
40	40	28
5	62	22
-26	65	16
-51	33	0
-69	-20	21
-81	-64	52
-81	-72	69
-70	-33	55
-48	28	37
-20	78	11
14	80	-76
44	34	-113
69	-28	-94
85	-66	-58
87	-48	-31
81	19	-26
64	101	-1
42	147	1
13	131	11
-16	64	-27
-41	-23	-41
-60	-86	24
-68	-110	82
-65	-98	56
-53	-82	-3
-36	-75	-42
-18	-78	-137
1	-72	-197
17	-35	-219
32	33	-175
44	108	-33
55	150	45
56	136	91
48	74	122
28	-5	57
0	-56	-31
-31	-59	-128
-57	-22	-102
-78	21	-43
-88	39	-21
-87	17	37
-79	-33	20
-63	-81	8
-41	-106	-38
-15	-98	-50
18	-71	-80
48	-38	-80
74	-8	2
89	19	69
87	45	151
72	62	168
46	64	141
17	44	56
-12	6	-32
-35	-32	-116
-52	-51	-158
-58	-40	-158
-56	-15	-160
-47	7	-132
-32	4	-165
-16	-24	-151
1	-52	-68
16	-54	-11
29	-15	32
39	49	24
44	106	9
42	118	11
32	69	4
10	-18	22
-18	-107	57
-48	-157	78
-75	-152	109
-88	-106	118
-86	-48	38
-70	-8	-74
-42	7	-172
-11	6	-233
21	10	-229
50	31	-153
72	68	-84
87	108	-10
93	130	58
90	131	24
81	110	31
63	76	24
39	31	5
7	-16	41
-31	-65	59
-68	-110	69
-102	-138	35
-120	-134	-36
-119	-89	-81
-101	-8	-67
-67	88	-7
-28	168	18
9	202	-9
40	179	-75
67	99	-108
92	-7	-74
107	-110	-27
115	-174	63
104	-185	101
72	-150	95
23	-93	41
-29	-49	-62
-72	-36	-95
-99	-54	-83
-101	-78	-76
-89	-75	-46
-69	-26	19
-50	57	24
-29	137	-30
-5	174	-76
21	148	-64
48	75	-30
63	4	-41
57	-23	-17
32	4	36
-1	51	52
-28	66	48
-36	9	3
-25	-114	-102
-10	-245	-179
-2	-312	-95
-12	-269	-29
-32	-135	-17
-48	28	37
-45	140	-3
-16	162	-34
27	109	-13
68	36	-76
87	4	-129
79	30	-65
49	85	-16
12	121	-41
-22	95	-40
-45	14	-71
-60	-82	-53
-74	-137	9
-83	-130	42
-82	-70	83
-66	1	74
-37	44	47
4	57	10
43	52	-46
71	61	-51
86	91	-13
86	124	-17
79	131	-8
67	95	-3
49	21	5
23	-49	12
-16	-77	-16
-60	-48	-40
-100	13	-98
-121	51	-84
-118	25	-56
-90	-71	-44
-45	-196	-8
0	-282	0
36	-273	18
58	-159	-19
69	14	-57
75	169	-63
80	241	-75
83	207	-82
83	104	-64
74	-11	-41
50	-78	20
16	-77	76
-27	-32	63
-70	17	66
-107	35	49
-129	24	13
-138	7	-30
-129	15	-64
-106	56	-86
-71	104	-76
-29	116	-57
18	59	-27
62	-54	52
97	-182	69
115	-257	11
116	-233	-50
96	-121	-182
61	25	-192
20	127	-72
-15	132	-72
-40	48	-25
-50	-74	-15
-46	-160	18
-37	-162	91
-24	-84	105
-14	22	172
-6	95	167
-1	103	72
6	58	-117
11	10	-246
17	1	-190
21	38	-161
19	91	-209
16	113	-177
6	76	-116
-5	-12	-48
-22	-100	20
-39	-145	20
-54	-124	13
-65	-58	61
-63	11	101
-47	47	75
-18	40	59
20	18	48
56	12	26
85	41	8
94	91	28
86	132	31
61	135	26
29	89	15
-5	20	4
-37	-41	-61
-62	-70	-206
-80	-67	-200
-87	-52	-150
-86	-46	-90
-72	-64	-34
-51	-95	-33
-23	-116	31
9	-105	95
40	-56	84
67	12	41
85	79	61
91	116	39
86	117	-46
71	85	-96
44	43	-108
9	9	-98
-28	-8	-59
-60	-11	-26
-80	-17	4
-80	-37	7
-60	-74	14
-28	-116	29
8	-141	56
34	-130	42
44	-75	-3
38	6	16
19	85	-28
-2	135	-53
-21	149	6
-30	130	19
-34	101	-64
-36	82	-124
-41	70	-104
-47	51	7
-50	6	71
-48	-72	41
-40	-169	20
-31	-245	-12
-20	-268	-92
-11	-224	-151
4	-128	-125
23	-18	-149
51	68	-121
83	114	-64
111	118	-25
122	101	-16
110	80	-59
77	65	-45
30	51	7
-17	35	61
-55	12	82
-83	-14	61
-96	-35	28
-102	-50	-6
-99	-59	-70
-84	-67	-74
-54	-72	-14
-12	-64	0
36	-32	-27
80	27	-65
105	99	-40
110	157	-3
92	175	-1
57	150	-15
15	88	-23
-30	17	2
-68	-37	28
-101	-65	51
-121	-77	59
-126	-89	30
-112	-110	21
-84	-137	23
-46	-157	6
-6	-145	-51
28	-97	-76
57	-24	-58
81	52	-90
101	106	-104
115	127	-112
123	110	-90
119	77	-51
96	36	-98
52	5	-112
-4	-16	-6
-67	-28	80
-128	-31	87
-169	-29	71
-182	-22	-5
-162	-16	-110
-110	-12	-96
-35	-13	-52
46	-19	-38
111	-17	45
147	-6	78
144	19	115
111	53	53
64	86	-30
20	110	-42
-10	121	-105
-26	123	-114
-36	113	-144
-48	83	-110
-65	18	-54
-80	-89	9
-84	-218	48
-68	-330	43
-37	-368	56
-1	-297	-50
29	-122	-90
46	98	-33
52	274	12
54	338	15
55	266	-13
56	103	-57
49	-71	-84
29	-182	-66
-7	-195	-64
-53	-129	-26
-96	-33	4
-119	35	-6
-119	54	-28
-93	30	-18
-49	-12	-11
5	-50	-47
57	-70	-60
99	-69	-28
124	-48	69
128	-6	91
113	50	30
83	106	-39
45	135	-80
7	119	-69
-26	57	-11
-56	-28	20
-84	-96	-14
-106	-119	-28
-121	-93	-28
-120	-39	-14
-103	3	14
-68	16	17
-26	3	-3
14	-8	-8
47	12	-20
70	69	-63
86	138	-115
96	181	-118
101	166	-91
93	91	-49
66	-15	-25
23	-112	-34
-35	-166	-22
-90	-167	-7
-128	-135	2
-139	-91	-11
-123	-60	-35
-84	-40	-21
-36	-28	38
10	-5	84
50	29	80
79	68	49
99	103	34
104	119	0
96	121	-53
74	110	-89
40	97	-95
2	83	-97
-32	59	-93
-57	16	-16
-68	-51	59
-66	-136	54
-56	-211	17
-43	-246	9
-27	-218	-1
-12	-128	-46
9	-4	-68
32	106	-47
57	174	-22
76	175	36
81	131	16
68	75	-39
36	32	-56
-3	15	-130
-46	6	-204
-77	-19	-254
-94	-78	-194
-94	-157	-83
-83	-223	-10
-60	-236	65
-36	-178	111
-13	-62	97
10	72	50
29	185	21
48	241	-11
65	240	-28
81	188	-26
90	106	-74
89	11	-18
74	-83	41
41	-160	10
-9	-200	54
-68	-184	36
-123	-121	7
-159	-35	-32
-161	25	-86
-129	25	-48
-72	-36	-17
-8	-118	-13
48	-162	-16
85	-119	2
97	6	32
96	161	6
87	268	-24
82	268	-42
78	162	-99
66	3	-112
44	-130	-62
4	-175	6
-51	-125	21
-107	-26	-21
-149	64	-80
-163	104	-52
-145	91	-22
-101	52	-39
-42	21	40
18	4	90
70	-9	87
107	-32	86
129	-64	2
130	-85	-104
116	-69	-142
85	-13	-124
44	55	-130
4	93	-108
-31	66	-2
-54	-17	7
-68	-112	24
-72	-165	37
-75	-143	-14
-70	-60	9
-65	34	-2
-51	91	-20
-27	88	-24
3	47	-14
34	13	-13
57	16	-93
67	54	-138
59	96	-134
40	100	-119
12	50	-44
-17	-29	13
-43	-103	37
-63	-131	76
-72	-110	137
-71	-62	188
-57	-15	103
-33	7	-27
-3	14	-100
28	32	-140
52	80	-113
69	149	-116
77	204	-105
77	210	19
68	143	4
55	27	-47
34	-98	-22
8	-180	-11
-28	-196	-42
-65	-159	-58
-93	-103	-63
-107	-70	-100
-98	-72	-77
-71	-102	-59
-31	-125	14
15	-116	57
58	-69	79
97	3	76
124	70	41
136	113	39
128	123	-10
96	106	5
36	77	5
-38	41	-11
-108	7	-18
-161	-27	-54
-178	-52	-97
-161	-63	-86
-122	-50	-44
-77	-19	-50
-35	18	-38
-3	43	-38
22	50	-43
51	43	-4
82	41	40
111	63	71
130	102	67
128	135	29
106	130	17
64	61	-6
14	-59	-63
-38	-195	-97
-84	-290	-88
-121	-305	-34
-143	-235	-19
-148	-116	-40
-126	-7	-32
-86	51	-40
-31	55	-76
25	26	-89
66	11	-27
91	31	30
97	89	36
91	149	43
81	174	13
67	150	-9
53	81	-59
31	4	-109
0	-49	-106
-34	-66	-110
-61	-58	-62
-77	-48	-4
-75	-51	0
-58	-65	-11
-36	-75	-36
-11	-56	-65
13	-7	-75
36	56	-106
58	110	-43
78	131	69
85	117	140
77	79	135
50	32	65
10	-3	-4
-34	-29	-34
-75	-51	-35
-104	-76	-49
-117	-102	-42
-115	-116	-68
-101	-111	-77
-75	-82	-66
-38	-37	-84
4	12	-167
44	51	-157
80	78	-56
99	97	-62
105	114	-67
99	127	-15
86	124	24
68	95	30
44	33	51
13	-49	65
-25	-131	68
-69	-187	56
-111	-201	36
-140	-170	15
-151	-106	-3
-136	-31	-15
-101	33	-52
-47	75	-47
13	79	-40
67	49	-35
107	-8	-6
123	-69	-11
111	-110	-7
78	-110	7
32	-66	26
-10	0	10
-39	53	19
-49	63	32
-50	22	-12
-43	-47	-90
-40	-104	-105
-37	-109	-37
-31	-57	-38
-16	29	-62
12	106	-90
44	140	-70
74	128	-17
90	88	-12
90	56	28
74	51	52
46	70	77
16	85	52
-17	68	26
-48	16	-15
-79	-54	-89
-100	-109	-40
-111	-123	28
-105	-96	-28
-82	-45	-107
-44	0	-190
1	25	-249
42	30	-165
77	33	-90
100	43	-25
110	61	98
105	76	181
83	71	112
44	42	-4
-4	-2	-126
-52	-45	-175
-95	-72	-135
-117	-78	-88
-122	-63	24
-111	-46	61
-91	-29	57
-65	-18	87
-36	-11	154
-4	-9	160
32	-13	63
66	-19	35
94	-23	-21
106	-12	-74
101	15	-91
81	53	-164
49	85	-189
18	88	-248
-12	57	-164
-36	-4	19
-52	-70	55
-61	-122	18
-61	-139	-24
-54	-124	-40
-39	-88	-82
-24	-42	-103
-7	2	-55
5	40	1
17	68	30
31	82	56
46	76	26
58	55	-13
59	39	12
46	41	-7
16	63	-8
-22	82	0
-59	65	-8
-84	-16	22
-90	-148	28
-78	-276	37
-54	-334	22
-29	-270	4
-2	-95	-12
22	117	-21
44	272	-44
65	298	-100
78	193	-99
78	28	-76
64	-100	-36
39	-131	24
10	-64	64
-15	35	57
-35	93	-3
-47	68	-59
-55	-21	-63
-62	-114	-55
-61	-148	-59
-54	-100	-71
-30	-4	-72
7	85	-61
52	125	-67
98	108	-41
124	67	-4
129	43	38
106	60	48
62	100	27
6	126	30
-50	108	37
-96	41	7
-124	-44	-2
-133	-114	-21
-123	-137	-109
-101	-113	-76
-75	-66	25
-46	-27	53
-23	-14	46
-3	-27	64
16	-54	-18
33	-79	-107
50	-86	-130
60	-78	-199
60	-55	-209
48	-28	-144
26	0	-87
0	17	-1
-25	17	97
-44	-2	121
-56	-35	112
-60	-64	90
-58	-76	80
-47	-54	66
-25	-10	28
7	41	-22
45	84	-104
83	98	-268
111	92	-347
121	76	-186
113	67	-14
85	71	74
42	82	86
-3	88	59
-50	77	59
-89	48	9
-119	3	-46
-130	-51	-76
-128	-105	-97
-108	-149	-94
-71	-165	-2
-30	-149	95
16	-93	65
58	-17	61
96	55	1
125	93	-34
147	81	24
155	35	40
144	-13	18
110	-29	-75
53	-6	-159
-16	35	-238
-89	57	-207
-148	25	-61
-183	-50	19
-189	-134	16
-167	-171	-13
-125	-135	-33
-71	-37	14
-19	72	61
31	143	68
69	150	82
93	106	42
99	62	-2
89	56	-16
67	95	-9
38	145	10
10	161	3
-15	106	24
-33	-7	49
-42	-137	-17
-42	-229	-70
-32	-243	-52
-18	-182	-71
1	-88	-95
18	-6	-107
32	20	-118
40	-1	-60
46	-44	-13
50	-64	13
52	-31	44
50	45	52
39	131	56
20	174	52
-11	138	-3
-40	32	-70
-65	-108	-93
-80	-218	-149
-80	-248	-184
-69	-189	-77
-53	-71	19
-36	48	-4
-15	118	0
11	123	8
40	84	-2
68	39	-33
83	24	-38
81	41	-8
52	68	-9
8	76	-9
-44	39	-43
-88	-23	-53
-116	-86	17
-122	-115	80
-111	-100	74
-87	-54	103
-56	-8	149
-21	17	112
17	20	-15
57	17	-125
93	27	-182
119	56	-181
124	95	-141
113	119	-64
85	109	66
48	67	98
6	12	103
-31	-30	30
-61	-41	-97
-87	-19	-91
-103	20	-97
-107	48	-130
-96	47	-186
-72	3	-179
-39	-71	-100
-3	-154	-54
31	-210	-36
55	-215	-56
69	-160	3
76	-57	59
72	53	17
64	131	42
50	143	24
28	89	-34
0	-3	-48
-31	-87	-48
-60	-121	-58
-83	-93	-48
-93	-21	-6
-88	58	-4
-68	109	27
-34	122	24
4	109	33
44	96	57
78	89	86
103	89	96
114	77	32
111	35	-23
96	-31	-115
67	-108	-198
29	-162	-202
-16	-182	-92
-56	-167	3
-89	-139	57
-106	-118	116
-107	-108	96
-91	-101	64
-64	-78	-7
-36	-31	-77
-8	35	-103
12	98	-99
28	135	-63
39	138	-53
48	114	-19
53	82	13
53	55	21
46	38	12
27	25	-21
1	4	-48
-31	-22	-76
-59	-46	-23
-75	-51	49
-70	-36	43
-48	-11	-13
-16	8	-56
20	5	-40
45	-13	-61
57	-27	-65
52	-17	-56
40	27	-62
24	85	-30
8	126	-1
-7	121	49
-26	66	72
-47	-21	60
-71	-101	44
-91	-138	43
-101	-122	36
-98	-60	54
-84	19	15
-60	89	-90
-31	129	-147
5	130	-143
46	93	-86
92	23	-78
131	-62	-62
152	-138	-45
141	-173	-30
100	-147	5
34	-66	15
-32	33	2
-85	102	-61
-104	106	-108
-98	41	-84
-77	-57	-78
-56	-143	-33
-41	-176	2
-26	-151	-30
-6	-94	7
24	-34	51
58	6	22
87	32	-75
98	59	-92
86	94	-77
63	128	-86
34	135	14
13	101	62
-2	28	43
-18	-49	14
-39	-97	-75
-68	-88	-64
-96	-32	-60
-111	38	-91
-105	91	-100
-75	100	-77
-31	76	-2
15	34	78
52	-1	139
77	-20	109
86	-28	84
87	-31	-5
78	-39	-84
59	-50	-74
29	-64	-48
-7	-79	-21
-44	-90	-50
-75	-99	-79
-89	-100	-72
-84	-87	-18
-59	-55	16
-25	-11	28
14	35	39
47	71	56
69	90	42
82	96	17
79	96	32
62	98	7
36	100	-13
3	89	-24
-34	58	-62
-69	5	-112
-99	-53	-119
-115	-99	-105
-112	-111	-105
-95	-86	-53
-60	-40	-6
-21	8	-8
17	35	6
46	43	51
62	43	80
67	58	70
63	99	46
56	153	20
47	188	-27
40	169	-85
28	78	-111
10	-70	-101
-17	-226	-126
-51	-330	-157
-83	-344	-123
-102	-271	-140
-100	-159	-116
-76	-62	-41
-36	-22	-19
7	-35	45
41	-60	51
60	-50	-1
62	14	-6
55	112	-13
46	194	-41
38	209	-5
31	154	58
18	55	55
-1	-34	11
-28	-72	-10
-53	-58	-6
-72	-20	3
-75	4	-34
-62	-4	-49
-42	-30	-17
-18	-44	9
2	-19	34
24	40	45
47	106	42
75	140	51
101	128	31
117	83	-63
116	34	-125
93	12	-111
51	18	-76
2	29	-99
-43	20	-28
-80	-24	-5
-102	-89	-84
-109	-145	-56
-108	-161	-49
-95	-130	-30
-74	-72	-28
-45	-17	-24
-13	17	-13
18	29	-14
42	29	-16
61	43	-14
72	79	19
80	126	-2
77	168	-27
65	179	1
44	145	32
9	64	46
-31	-49	41
-68	-173	5
-95	-271	-46
-104	-313	-86
-94	-280	-50
-68	-173	32
-37	-21	62
-4	132	18
25	240	-12
49	268	19
69	223	32
85	115	55
90	-10	17
82	-126	-36
61	-206	-36
28	-242	-35
-10	-232	-15
-44	-181	-52
-69	-102	-138
-79	-19	-195
-71	43	-202
-49	68	-186
-18	57	-224
16	28	-111
46	11	22
66	29	31
72	78	24
61	129	-56
36	153	-44
-2	122	-21
-43	52	-7
-83	-26	18
-111	-81	-6
-123	-95	-58
-118	-77	14
-99	-50	86
-70	-36	50
-42	-39	69
-17	-40	49
5	-22	49
24	23	-16
44	80	-45
65	121	-24
81	126	-43
89	93	-34
81	41	-67
60	-2	-85
34	-22	-52
4	-22	-35
-20	-18	-4
-38	-29	32
-52	-57	31
-64	-89	56
-71	-103	87
-69	-87	103
-51	-43	67
-14	11	-8
34	56	-80
85	81	-98
120	88	-61
131	86	-64
118	83	-43
87	75	18
46	56	29
5	21	-17
-32	-28	-37
-64	-79	-63
-91	-115	-91
-110	-125	-139
-118	-107	-192
-111	-65	-167
-91	-11	-105
-55	45	-30
-16	93	15
23	114	52
56	104	65
81	56	65
94	-14	30
96	-81	-12
86	-119	-7
61	-112	-26
27	-70	-68
-12	-24	-101
-48	-9	-69
-76	-37	-3
-88	-94	15
-87	-142	-20
-71	-143	-4
-46	-88	34
-14	6	48
22	95	79
52	145	90
75	153	112
83	136	102
72	134	14
51	155	-58
22	182	-123
-5	174	-209
-31	103	-135
-52	-32	-56
-69	-190	-121
-85	-304	-136
-93	-332	-70
-93	-263	-16
-78	-137	-27
-50	-7	-1
-11	85	40
30	127	26
68	131	38
101	121	40
125	103	-42
136	67	-123
129	6	-150
100	-70	-139
43	-138	-92
-31	-163	27
-108	-131	91
-167	-61	35
-193	3	51
-181	24	14
-136	-2	-42
-76	-45	-57
-15	-51	-60
33	9	-39
65	119	-6
86	223	105
98	252	187
104	181	166
101	37	112
84	-104	-32
50	-176	-273
8	-150	-338
-35	-57	-292
-70	27	-278
-86	48	-114
-84	-9	14
-66	-102	34
-48	-167	59
-32	-154	88
-19	-66	121
-4	49	104
18	137	78
44	161	40
72	125	4
90	68	-27
90	29	-58
71	25	-69
38	38	-35
2	41	12
-25	12	18
-40	-40	0
-44	-96	-36
-43	-120	-43
-42	-102	-34
-41	-56	-33
-42	-6	-33
-37	22	-54
-25	28	-65
-6	24	-55
16	24	-35
32	40	-34
39	61	-26
33	71	11
23	58	5
8	24	11
-5	-18	52
-17	-52	75
-28	-69	86
-39	-72	85
-50	-64	52
-54	-59	24
-50	-50	-18
-36	-37	-83
-10	-13	-138
20	23	-229
52	57	-213
76	88	-70
91	103	-13
94	106	-2
86	103	32
70	95	0
46	86	22
17	74	87
-21	58	56
-63	43	45
-106	25	16
-138	-1	-43
-152	-49	-77
-140	-125	-126
-102	-222	-178
-45	-306	-190
19	-341	-201
74	-297	-219
111	-176	-76
128	-19	46
126	106	5
113	150	-19
86	100	-22
51	-11	10
6	-113	41
-46	-153	53
-100	-114	55
-142	-25	68
-161	52	74
-153	80	46
-116	53	46
-61	8	-27
0	-7	-104
54	30	-65
97	109	-88
121	183	-156
124	211	-94
109	174	-14
76	90	38
30	0	54
-19	-57	45
-57	-69	-2
-83	-56	-49
-89	-41	-68
-80	-44	-77
-62	-61	-51
-45	-71	-26
-28	-54	19
-10	-7	49
13	53	100
44	103	130
78	122	115
102	109	77
109	81	36
95	51	-3
63	31	-68
22	15	-95
-14	-6	-139
-42	-39	-147
-58	-80	-46
-66	-107	2
-71	-114	26
-69	-92	43
-59	-51	20
-38	-7	-30
-7	25	-104
27	43	-96
56	53	-21
71	60	17
74	67	-21
63	69	-32
46	60	-45
26	38	-74
2	4	-106
-25	-32	-140
-59	-59	-90
-91	-66	-44
-116	-52	-1
-124	-17	22
-113	26	38
-83	62	79
-40	72	86
2	41	78
41	-24	29
69	-105	-44
85	-166	-59
89	-171	-56
81	-120	-138
62	-33	-209
38	41	-188
11	62	-117
-16	17	-8
-37	-68	-5
-54	-147	-19
-64	-172	15
-66	-135	15
-57	-60	10
-36	10	29
-6	46	74
28	48	80
58	40	38
75	45	7
72	76	15
55	109	-93
28	120	-206
1	93	-242
-23	33	-185
-42	-25	-16
-54	-59	86
-63	-57	97
-67	-37	46
-64	-21	31
-54	-25	2
-36	-39	-16
-14	-39	32
9	-8	14
30	48	10
52	106	16
71	137	-46
89	126	-67
97	81	-9
86	33	44
59	4	24
15	1	18
-32	4	32
-72	-9	40
-95	-50	10
-96	-107	-48
-83	-149	-2
-59	-149	-15
-35	-97	-158
-10	-17	-182
16	61	-30
44	113	8
68	129	-8
83	121	1
81	104	-30
60	86	-51
28	55	-109
-7	4	-98
-37	-68	-93
-57	-144	-70
-65	-189	9
-65	-182	36
-62	-119	33
-55	-28	78
-46	57	109
-33	106	19
-14	115	-84
12	97	-141
41	71	-92
68	52	-47
89	36	-70
94	13	-33
82	-20	26
46	-56	83
-1	-81	155
-52	-91	173
-96	-90	95
-116	-93	-12
-112	-111	-125
-91	-134	-149
-58	-141	-172
-29	-109	-193
-6	-34	-201
14	58	-113
32	131	-22
52	153	-58
74	120	-125
86	61	-177
85	18	-42
65	10	104
33	31	131
-4	53	132
-37	48	121
-61	12	70
-81	-33	-38
-90	-52	-129
-91	-32	-158
-80	14	-80
-52	53	-9
-10	53	37
40	13	109
84	-39	102
110	-62	76
110	-35	34
91	27	-2
58	81	-60
29	79	-171
10	10	-211
-5	-99	-131
-20	-188	-20
-44	-210	-26
-72	-153	-61
-98	-52	-24
-104	39	39
-86	76	78
-40	50	97
16	-5	77
65	-48	30
96	-43	0
99	9	-18
82	84	-45
56	143	-91
34	162	-77
17	131	-22
3	66	44
-12	-11	22
-33	-79	-36
-57	-126	-55
-82	-144	-45
-94	-131	-51
-92	-92	-111
-71	-34	-99
-37	22	-60
1	66	-42
38	85	-56
62	89	-26
69	93	22
58	117	49
33	163	72
2	205	57
-29	206	55
-45	129	17
-49	-28	-51
-44	-230	-97
-36	-393	-129
-33	-456	-45
-37	-380	19
-42	-195	-25
-43	16	-30
-30	166	-48
0	202	-25
37	137	24
75	36	37
101	-26	31
111	-8	41
105	67	36
84	149	-3
56	169	-24
23	115	-86
-10	17	-101
-45	-67	24
-78	-94	66
-100	-64	9
-109	-19	-88
-100	-4	-229
-77	-37	-197
-44	-88	-93
-13	-102	-59
12	-46	-84
30	66	-59
42	175	-19
51	208	-63
58	130	-84
59	-29	-86
48	-190	-48
27	-268	-4
-5	-235	31
-36	-118	24
-58	4	11
-65	59	64
-56	34	96
-35	-32	83
-8	-69	64
16	-33	54
35	72	65
47	188	59
50	243	-13
43	205	-150
30	95	-276
11	-23	-208
-12	-90	-64
-30	-79	-36
-44	-21	20
-55	26	126
-61	15	149
-65	-59	127
-63	-157	72
-53	-218	0
-32	-206	-41
-1	-120	-90
36	-5	-107
72	92	-72
100	139	-17
115	150	-25
111	150	-41
93	161	-39
63	171	-41
26	154	-35
-15	74	-31
-55	-71	-15
-90	-238	-21
-114	-355	-42
-125	-361	-32
-118	-250	5
-95	-71	-23
-57	94	-40
-12	171	26
31	151	54
63	70	16
82	1	-19
83	-6	-49
75	53	-89
57	137	-124
40	183	-103
20	163	-25
-4	84	32
-29	-13	74
-56	-84	47
-77	-116	-44
-82	-123	-80
-67	-131	-22
-38	-147	-24
-5	-151	-105
22	-114	-106
36	-30	-40
42	82	-51
41	177	-42
42	211	14
46	177	53
46	99	83
37	21	61
14	-27	31
-17	-47	-101
-48	-65	-175
-68	-108	-134
-75	-164	-124
-68	-205	-78
-55	-188	-10
-42	-101	-8
-24	25	-23
-5	133	-10
24	174	8
53	139	43
78	65	47
86	4	32
75	-5	3
46	27	-4
12	63	46
-17	59	106
-36	8	137
-44	-63	81
-47	-106	-9
-50	-87	-100
-50	-19	-148
-49	55	-139
-39	86	-159
-20	51	-105
7	-22	1
33	-90	-19
52	-101	-30
64	-51	-19
59	30	-7
46	94	33
28	101	16
8	52	-4
-10	-24	-17
-25	-83	3
-38	-97	-5
-53	-65	-45
-70	-15	-34
-92	27	-10
-107	45	19
-112	43	19
-94	35	16
-52	35	9
7	48	-62
69	62	-71
117	59	-91
139	32	-198
127	-22	-231
94	-86	-174
46	-144	-67
4	-182	51
-28	-192	94
-48	-173	128
-59	-129	125
-66	-72	48
-64	-15	34
-54	29	54
-32	57	60
1	67	-41
36	69	-133
66	72	-135
83	81	-150
83	91	-137
69	94	-135
49	83	-116
25	51	-49
2	8	34
-22	-32	60
-49	-59	16
-76	-67	19
-98	-60	44
-107	-47	64
-103	-36	45
-80	-24	0
-43	-5	-2
-2	25	-16
36	67	-19
65	111	-11
81	144	30
82	153	53
74	129	-36
57	80	-84
37	13	-98
13	-53	-111
-14	-108	-62
-40	-137	-20
-63	-138	31
-77	-116	38
-80	-78	2
-70	-43	12
-48	-20	11
-19	-17	-44
13	-25	-74
42	-30	-38
64	-21	-23
77	12	-16
77	61	-9
66	110	-17
44	135	-17
12	120	-48
-25	61	-17
-57	-30	37
-81	-125	-20
-88	-196	-60
-77	-216	-68
-50	-175	-77
-18	-85	-45
12	28	13
36	134	84
50	212	81
54	253	25
47	260	-84
35	233	-166
16	165	-159
-4	53	-143
-23	-104	-114
-38	-274	-71
-44	-416	-19
-48	-460	10
-50	-391	1
-52	-223	-32
-53	-20	-21
-48	130	-4
-29	179	11
5	129	74
49	43	78
92	-3	69
118	32	83
120	132	26
98	233	-59
59	261	-173
20	183	-183
-16	31	-79
-43	-123	43
-64	-209	63
-82	-196	-11
-91	-115	-19
-90	-23	-49
-72	28	-68
-40	24	-70
3	-6	-62
42	-22	4
69	5	82
78	62	102
71	125	95
53	149	63
34	127	-2
15	70	-98
-4	8	-202
-24	-35	-136
-48	-57	-25
-69	-65	-13
-85	-75	-12
-89	-88	-41
-78	-94	-43
-55	-82	-16
-25	-43	-34
5	11	-33
31	65	13
53	101	44
69	113	56
81	104	26
82	79	-20
76	44	4
57	0	1
31	-48	12
-3	-98	-7
-37	-130	-56
-67	-134	-88
-89	-109	-66
-97	-64	-43
-91	-21	-90
-70	10	-18
-43	23	66
-10	31	79
22	43	14
46	58	-85
64	68	-110
74	57	-80
74	20	-105
64	-32	-116
46	-71	-65
18	-80	-71
-18	-50	-118
-55	-5	-95
-91	30	43
-111	39	44
-117	31	-19
-105	30	-38
-80	58	-17
-42	106	38
4	148	32
54	131	36
105	43	31
143	-102	51
162	-241	57
154	-308	61
119	-273	70
63	-160	-15
4	-30	-45
-46	43	-12
-83	33	-72
-100	-42	-97
-108	-119	-78
-107	-140	-81
-100	-84	-55
-85	19	-22
-57	115	-31
-21	159	-42
21	139	-24
54	96	-34
80	68	-37
85	86	-56
77	132	-90
58	169	-80
35	150	-47
9	63	-11
-19	-62	39
-47	-176	87
-71	-229	47
-87	-202	-18
-88	-119	-53
-74	-23	-51
-45	49	-17
-10	81	6
29	82	34
64	79	32
94	87	16
113	108	-10
121	127	-77
110	120	-123
81	81	-60
37	11	-6
-15	-66	-40
-66	-134	-44
-111	-173	-22
-138	-179	9
-150	-162	5
-144	-125	-45
-121	-78	-84
-85	-27	-81
-35	21	-32
21	60	-7
77	86	-3
121	94	26
143	89	24
142	77	16
117	62	43
75	46	62
24	23	106
-25	-5	109
-68	-41	53
-99	-74	23
-111	-96	-27
-107	-97	-132
-83	-72	-222
-45	-37	-284
-1	2	-273
36	34	-189
59	61	-68
66	85	21
57	115	39
40	149	69
20	175	47
4	183	5
-11	153	-4
-24	79	-15
-39	-28	-57
-54	-148	-60
-67	-248	-12
-76	-308	17
-74	-312	46
-61	-263	74
-40	-181	107
-10	-85	109
26	6	49
66	74	-16
102	108	-71
125	113	-97
128	94	-131
109	68	-135
67	43	-121
16	27	-129
-32	12	-72
-67	-12	-2
-83	-46	44
-83	-88	17
-72	-113	-17
-62	-101	-15
-52	-44	18
-41	43	6
-23	126	-16
5	162	20
39	135	28
75	60	28
97	-21	36
101	-60	43
84	-41	53
50	21	71
13	82	33
-22	93	-5
-46	43	6
-59	-45	-7
-62	-124	-72
-58	-148	-130
-48	-106	-153
-33	-26	-150
-16	48	-166
4	84	-194
19	76	-108
30	44	-14
30	23	44
23	24	37
10	42	3
-6	52	20
-20	39	21
-31	-2	84
-40	-55	94
-49	-92	27
-54	-102	-71
-53	-85	-166
-44	-60	-238
-26	-42	-221
-4	-32	-111
18	-22	-43
34	7	66
42	58	44
42	120	-24
36	166	-25
30	173	20
24	128	107
18	38	95
8	-69	37
-6	-164	-5
-26	-215	-38
-46	-213	-69
-65	-166	-56
-77	-95	43
-77	-29	97
-63	17	49
-41	40	49
-11	55	38
22	79	-32
51	119	-129
75	161	-186
89	174	-138
93	141	-90
83	53	-52
60	-52	-18
27	-130	-9
-15	-139	-33
-56	-80	-48
-89	4	-35
-101	45	0
-91	2	17
-59	-109	40
-16	-223	102
26	-251	103
60	-157	61
82	26	-5
94	204	-64
99	275	-103
99	202	-116
88	30	-61
61	-136	-38
17	-200	-40
-36	-139	-19
-87	1	-55
-120	115	-56
-129	130	5
-117	41	17
-93	-85	3
-66	-159	-3
-41	-133	-26
-17	-25	-48
12	93	-31
44	159	-21
74	150	-15
90	100	-32
87	64	-32
67	70	-8
42	98	13
22	93	39
9	18	13
-2	-116	9
-21	-246	-28
-48	-292	-47
-83	-219	-45
-105	-57	-90
-103	109	-80
-72	195	-68
-22	168	-38
29	57	42
65	-54	103
80	-104	93
76	-67	51
62	16	13
46	87	-75
33	99	-160
15	43	-179
-12	-36	-167
-49	-102	-126
-85	-121	-40
-109	-100	14
-112	-61	14
-94	-32	1
-59	-16	4
-20	-3	38
14	21	55
42	61	74
60	104	109
74	128	57
81	121	-89
77	85	-168
63	36	-152
39	-9	-155
8	-37	-111
-23	-53	-62
-48	-64	-9
-63	-78	101
-67	-91	144
-61	-90	109
-47	-66	37
-25	-15	-66
-1	57	-128
25	132	-166
46	195	-169
63	221	-119
71	197	-63
72	119	12
63	2	77
46	-131	65
21	-242	32
-10	-296	41
-44	-278	27
-75	-200	-13
-93	-102	-66
-94	-21	-44
-79	16	32
-51	15	18
-23	5	-40
4	14	-40
23	59	-47
36	119	-60
42	160	-51
48	150	-40
51	85	-18
48	-8	-23
40	-89	-84
22	-122	-101
-4	-105	11
-37	-57	35
-67	-12	40
-92	11	36
-100	11	-18
-86	3	-19
-53	-2	-55
-8	1	-41
37	7	-30
74	11	-21
91	10	-13
92	19	-23
80	39	-3
61	72	26
42	98	57
19	97	64
-10	58	86
-45	-11	75
-81	-84	28
-104	-137	-49
-108	-153	-155
-85	-137	-142
-46	-101	-118
-1	-53	-168
33	-1	-84
56	56	17
65	113	24
71	151	21
79	158	4
85	117	-32
81	45	-72
54	-32	-68
8	-84	-58
-51	-89	-18
-109	-54	17
-142	-11	24
-143	11	31
-112	-7	-1
-60	-56	-24
-4	-107	-43
41	-127	-45
70	-100	-55
82	-31	-108
78	49	-45
64	120	22
44	161	22
27	174	87
9	168	41
-4	140	-34
-17	93	-84
-28	11	-128
-42	-100	-81
-58	-223	-62
-77	-308	-26
-87	-318	0
-84	-237	43
-62	-88	105
-23	67	100
26	169	84
74	180	16
110	114	-64
124	23	-90
115	-33	-128
86	-27	-180
42	29	-210
-1	85	-188
-42	93	-70
-71	35	-25
-92	-62	-3
-100	-144	37
-99	-169	9
-86	-124	38
-65	-40	17
-36	36	23
-3	76	48
25	71	11
49	55	25
62	55	9
68	81	-39
65	117	-58
57	132	-7
42	108	-3
18	43	11
-14	-34	49
-49	-93	15
-78	-120	6
-91	-121	-54
-82	-119	-76
-52	-121	-36
-15	-126	-17
24	-112	-17
51	-58	-17
65	28	37
69	122	32
72	185	-17
72	195	-45
72	154	-89
62	85	-107
36	25	-64
-2	-4	-11
-53	-1	-8
-103	25	-2
-141	57	14
-158	80	14
-150	74	-9
-115	26	-52
-56	-75	-71
12	-214	-42
81	-353	-22
129	-426	-81
144	-379	-106
123	-209	-52
77	30	-12
23	237	-8
-17	313	-16
-31	231	11
-27	43	72
-16	-137	74
-17	-215	-15
-35	-154	-106
-60	-12	-103
-79	117	-50
-74	154	-71
-44	93	-141
1	-2	-55
41	-50	61
66	-8	24
72	98	69
65	194	108
54	211	65
43	135	-5
33	13	-55
14	-88	-54
-14	-113	-91
-47	-74	-115
-77	-18	-69
-91	1	15
-85	-33	46
-63	-91	41
-32	-121	-2
3	-87	-92
34	-2	-176
60	93	-181
80	143	-102
86	131	-38
80	74	-61
57	17	-65
26	-9	0
-6	-2	45
-34	14	38
-51	6	-1
-60	-40	49
-66	-101	86
-72	-145	32
-79	-144	-9
-76	-100	-43
-60	-33	-56
-30	23	-4
9	50	51
49	54	74
80	53	95
94	64	46
96	85	12
90	103	-3
78	94	-43
60	53	-66
36	-5	-135
0	-61	-121
-44	-93	-77
-91	-90	-51
-128	-59	-10
-150	-19	-72
-147	14	-86
-118	28	-42
-76	17	-19
-21	0	49
31	-14	64
77	-2	16
102	45	-6
107	118	-28
90	190	-74
59	211	-47
20	150	-50
-15	-5	0
-41	-215	43
-58	-413	-42
-64	-519	-51
-62	-490	-62
-54	-340	-46
-42	-130	8
-22	53	7
5	153	-42
35	161	-63
64	112	-93
85	68	-119
91	66	-81
81	103	0
55	147	65
23	154	78
-14	116	101
-45	45	117
-70	-12	63
-85	-32	-25
-89	-6	-100
-79	36	-148
-56	56	-156
-23	33	-71
15	-24	23
51	-77	38
79	-89	22
91	-41	-31
90	45	-83
81	125	-70
65	158	-35
50	126	-32
31	47	-25
8	-43	-42
-27	-103	-86
-65	-118	-39
-103	-99	-12
-127	-68	-31
-130	-51	-17
-109	-47	-2
-68	-45	-22
-20	-28	7
27	11	22
65	61	-64
87	103	-71
96	115	-8
93	97	-4
77	57	-7
50	16	79
19	-13	132
-17	-30	98
-48	-39	76
-72	-53	35
-86	-69	-51
-87	-86	-115
-77	-89	-172
-55	-69	-171
-28	-35	-131
7	10	-97
41	45	-42
69	72	8
85	88	66
81	99	66
60	106	74
28	100	93
-5	68	43
-36	6	8
-55	-76	-48
-68	-151	-160
-77	-189	-221
-81	-173	-234
-82	-112	-209
-72	-39	-215
-50	4	-210
-15	3	-36
28	-36	79
70	-71	116
106	-68	149
124	-11	130
124	79	129
102	154	125
64	171	126
16	120	99
-36	21	91
-82	-72	49
-112	-118	-33
-124	-102	-106
-119	-35	-169
-101	45	-192
-76	117	-179
-47	162	-123
-17	183	-51
16	173	-16
55	126	-24
95	29	-6
128	-103	40
145	-233	61
137	-308	81
103	-281	81
48	-159	59
-11	4	34
-62	122	-17
-97	131	-77
-112	30	-115
-109	-121	-125
-94	-231	-66
-70	-230	-25
-40	-114	-16
-6	51	-14
30	183	-17
63	226	-24
87	177	-89
95	93	-71
87	36	11
64	40	40
33	88	-1
0	127	-36
-31	117	-33
-55	43	-58
-71	-62	-99
-78	-157	-64
-75	-196	3
-59	-179	-9
-35	-121	2
-10	-52	-10
14	9	-48
32	59	-2
44	102	-11
49	136	-3
51	154	-12
46	145	-42
34	110	-25
13	53	-66
-17	-2	-86
-48	-52	-55
-76	-88	11
-90	-115	56
-86	-136	16
-69	-149	-25
-43	-144	-23
-15	-115	-10
13	-64	-35
36	-8	-47
56	33	-27
68	49	-31
75	47	-31
66	38	-43
46	40	-8
16	48	17
-17	51	7
-47	33	25
-67	-11	-10
-74	-65	-53
-67	-105	-59
-51	-107	18
-27	-69	78
-2	-9	68
23	45	43
44	76	-58
60	80	-181
69	71	-231
70	66	-211
64	68	-111
49	72	0
26	62	38
-7	32	68
-45	-11	54
-81	-52	16
-104	-76	-36
-111	-81	-66
-100	-77	-42
-76	-78	-30
-43	-89	11
-10	-96	49
21	-84	70
45	-37	34
66	36	-27
81	108	-44
85	150	-70
77	141	-71
57	93	-30
28	25	-31
-2	-26	-11
-29	-51	-28
-52	-54	-12
-67	-53	37
-79	-66	20
-84	-93	41
-85	-116	22
-71	-113	-13
-47	-72	-31
-14	0	-56
22	85	-103
50	155	-102
67	194	-70
69	188	-41
65	142	-10
57	62	-31
50	-33	-13
39	-121	-25
20	-179	-3
-9	-186	72
-46	-143	70
-79	-74	59
-98	-16	90
-93	3	77
-66	-22	-28
-29	-65	-98
8	-78	-116
33	-26	-102
45	91	-65
51	233	-96
56	332	-125
63	345	-97
67	257	-118
62	103	-98
40	-67	-28
4	-204	-40
-35	-287	-24
-65	-324	24
-78	-326	-3
-63	-307	-7
-36	-254	-8
-3	-165	-3
25	-44	3
41	79	-35
46	169	-8
44	202	46
40	174	67
31	112	68
19	50	25
4	16	-54
-17	9	-118
-35	14	-143
-50	10	-81
-58	-13	-36
-59	-43	-30
-59	-62	-8
-59	-58	-1
-60	-30	11
-57	8	4
-47	40	22
-20	58	43
19	70	30
65	82	17
104	98	37
121	113	49
114	112	-4
82	85	-97
35	32	-138
-13	-29	-145
-55	-83	-163
-87	-108	-102
-103	-107	-30
-104	-86	63
-94	-57	77
-65	-35	11
-27	-16	-9
18	2	-26
59	23	12
89	48	16
101	65	-5
99	75	-4
86	65	-14
66	46	-30
44	20	-51
16	-8	-54
-20	-33	-67
-58	-58	-76
-95	-81	-61
-116	-97	-41
-112	-99	-1
-86	-84	37
-44	-53	90
1	-13	134
34	26	132
55	60	131
63	84	152
62	103	101
58	114	-30
50	116	-173
38	104	-313
20	72	-320
-4	31	-202
-33	-5	-153
-61	-18	-129
-85	-3	-93
-99	22	-54
-95	23	-43
-75	-32	-47
-36	-150	-4
11	-296	33
57	-393	54
89	-390	97
99	-257	91
89	-34	21
64	183	1
41	305	1
24	278	19
12	127	83
2	-62	57
-20	-196	-62
-46	-212	-123
-75	-125	-82
-86	1	-99
-78	89	-162
-46	100	-163
-5	51	-91
27	-5	10
42	-15	35
41	33	75
32	115	110
24	174	97
24	174	75
24	118	82
20	35	90
1	-30	61
-29	-59	-10
-62	-56	-152
-87	-48	-203
-95	-57	-163
-87	-82	-105
-67	-104	-16
-45	-95	53
-27	-49	63
-5	18	12
22	80	-49
52	110	-97
85	106	-136
106	84	-78
106	67	29
85	66	34
49	82	1
9	92	8
-24	74	-10
-50	19	-92
-65	-67	-102
-78	-159	-23
-82	-229	-7
-75	-249	14
-55	-212	58
-23	-125	27
18	-12	-18
57	92	-50
88	157	-48
106	166	-38
107	124	-21
95	58	24
72	-4	107
38	-37	99
-4	-42	-33
-51	-31	-134
-92	-30	-160
-120	-48	-162
-130	-80	-184
-120	-102	-123
-96	-89	-37
-63	-33	35
-29	52	55
6	131	14
38	174	29
68	162	44
93	97	47
107	7	38
111	-77	12
96	-122	0
69	-125	0
31	-89	-6
-10	-40	-12
-49	-4	34
-84	2	31
-108	-22	-40
-118	-54	-34
-113	-70	-27
-93	-49	-43
-61	13	-56
-24	96	-78
13	169	-27
44	200	-61
66	181	-147
76	121	-103
72	42	-90
58	-33	-49
37	-101	-12
16	-158	-42
-4	-209	7
-23	-241	45
-38	-235	51
-52	-175	67
-60	-68	64
-59	51	36
-44	140	11
-14	160	-83
27	109	-179
68	21	-179
94	-48	-86
97	-58	-9
77	-11	28
44	64	120
6	110	130
-24	94	61
-45	21	-18
-60	-68	-69
-74	-127	-130
-84	-130	-168
-84	-79	-127
-70	-11	-36
-39	39	-12
3	54	-23
41	49	-27
67	51	-10
72	72	-11
61	110	-52
41	131	0
25	115	20
16	49	28
10	-44	14
2	-124	-1
-16	-160	-16
-40	-140	-66
-63	-89	-52
-79	-34	-8
-79	-4	17
-62	-1	42
-37	-6	68
-7	-1	63
22	26	22
46	61	-43
66	85	-55
75	79	-25
72	40	-43
54	-8	-35
23	-42	-30
-12	-45	-32
-42	-24	-22
-60	5	13
-67	20	28
-63	15	-64
-56	1	-130
-50	-4	-192
-39	12	-122
-20	43	-47
10	68	7
51	67	109
93	29	77
120	-35	45
123	-100	-35
100	-134	-81
56	-126	-84
5	-86	-88
-38	-36	-70
-66	-7	-89
-77	-9	-69
-71	-35	6
-59	-56	59
-49	-46	53
-44	7	32
-44	90	-4
-42	169	-18
-36	199	-42
-17	157	-54
14	50	-47
46	-81	-46
74	-184	-89
80	-215	-53
64	-170	20
30	-74	-3
-11	18	-16
-44	61	-31
-64	41	47
-68	-21	65
-64	-82	-21
-55	-101	-50
-45	-62	-68
-35	12	-52
-19	86	-18
7	128	-20
37	124	-24
64	92	-35
83	58	-91
84	41	-97
67	43	-36
38	45	19
5	28	47
-25	-15	42
-48	-68	38
-61	-110	11
-65	-116	-4
-56	-88	-47
-40	-38	-43
-16	11	6
8	41	-5
29	53	-25
41	58	-39
46	64	-31
48	75	-55
50	82	-62
52	76	-60
49	51	-39
37	13	-25
10	-28	-14
-29	-59	29
-71	-84	29
-101	-99	0
-109	-108	-34
-91	-104	-56
-51	-80	-76
-6	-34	-61
33	24	-40
58	74	-51
68	93	-34
69	79	-3
65	41	16
57	7	26
44	-7	15
23	-4	8
-5	-5	-23
-40	-33	-12
-68	-90	16
-86	-153	2
-87	-181	-11
-77	-150	-39
-57	-61	-26
-34	41	-33
-10	109	-45
18	113	39
46	65	38
74	15	15
93	7	10
98	54	-57
84	130	-78
54	171	-94
19	139	-112
-21	27	-76
-53	-110	-45
-83	-207	-25
-102	-212	49
-114	-129	41
-112	-8	-12
-96	86	-59
-65	112	-108
-22	77	-96
22	17	-114
62	-18	-94
89	-8	-54
97	33	32
92	77	98
75	88	41
55	54	-18
34	-9	-81
13	-84	-83
-14	-147	-46
-44	-190	-6
-77	-207	-7
-105	-195	18
-116	-152	61
-106	-81	35
-70	6	-6
-20	82	-51
36	125	-49
81	133	-15
107	120	26
113	109	52
99	121	59
77	148	-12
49	158	-116
23	123	-145
-1	31	-104
-27	-97	-88
-49	-206	-120
-70	-250	-87
-83	-209	-34
-83	-105	12
-66	10	22
-38	88	12
-3	105	10
33	80	-1
63	48	3
83	37	13
86	55	-1
74	78	24
46	80	59
9	43	65
-34	-19	59
-74	-82	9
-105	-119	-38
-120	-118	-62
-116	-92	-89
-93	-59	-115
-54	-39	-109
-12	-27	-66
29	-14	-42
61	16	-6
79	62	60
87	110	65
86	143	80
81	147	66
71	121	11
57	82	-27
31	43	-74
-6	13	-61
-50	-18	-54
-94	-58	-66
-124	-113	-60
-131	-173	-81
-110	-216	-72
