File Name: not saved
Channel 2: 'Channel 2', 30940 values, raw ADC, no filters.
Channel 3: 'Channel 3', 30940 values, raw ADC, no filters.
Channel 4: 'Channel 4', 30940 values, raw ADC, no filters.

-285	31	51
-408	-28	34
-401	-111	14
-312	-178	5
-208	-199	-11
-134	-170	-28
-94	-110	-46
-56	-49	-61
4	-5	-63
92	26	-80
172	62	-82
209	110	-40
175	165	23
86	195	63
-17	183	69
-90	124	36
-113	43	-24
-99	-30	-82
-78	-72	-103
-76	-85	-93
-97	-88	-106
-121	-102	-96
-122	-130	-60
-90	-157	-8
-31	-145	19
31	-86	28
78	18	39
102	126	49
105	198	52
94	209	34
64	165	13
15	98	-14
-57	36	-38
-133	-2	-66
-182	-28	-57
-175	-57	-58
-97	-98	-49
22	-137	-12
144	-157	-19
216	-140	-23
222	-96	-23
178	-47	-24
130	-21	-18
117	-23	-3
147	-38	5
191	-36	-6
199	3	-21
139	75	-30
12	145	-32
-142	181	-38
-264	162	-35
-314	96	-33
-280	19	-18
-191	-37	-7
-93	-55	-2
-20	-51	-7
20	-41	-13
38	-41	-6
59	-44	-13
91	-31	-15
133	6	-4
169	62	-4
181	113	-24
159	128	-31
105	94	-27
25	25	-26
-70	-45	-20
-169	-94	15
-256	-107	49
-311	-103	9
-319	-104	-48
-271	-121	-103
-178	-145	-139
-56	-143	-151
64	-94	-125
171	2	-44
250	116	35
302	203	85
317	230	112
291	190	116
216	114	87
100	36	19
-42	-14	-55
-181	-38	-121
-280	-57	-173
-321	-97	-185
-310	-162	-161
-258	-230	-112
-189	-263	-42
-115	-232	24
-34	-131	51
54	8	28
147	136	-4
223	213	-34
261	224	-58
245	181	-64
179	118	-41
83	64	-7
-16	33	17
-91	18	29
-134	2	4
-148	-28	-9
-139	-74	-4
-114	-124	0
-77	-160	11
-28	-168	28
29	-139	53
84	-80	70
126	2	72
151	87	68
162	158	1
159	198	-81
149	199	-136
126	159	-168
89	89	-143
35	9	-103
-31	-63	-17
-98	-114	29
-154	-141	11
-189	-148	-6
-207	-137	-25
-208	-117	-45
-191	-82	-69
-157	-36	-63
-99	18	-42
-24	65	-38
54	96	-20
122	102	-5
166	85	0
188	60	-12
191	38	-26
175	26	-3
130	22	39
42	15	91
-84	-9	120
-229	-53	72
-333	-105	-10
-354	-148	-94
-273	-157	-182
-123	-120	-224
23	-42	-179
103	55	-80
89	138	-9
18	179	21
-41	163	24
-32	101	4
50	23	-19
164	-32	-40
241	-41	-38
241	-4	-43
172	56	-30
84	97	3
27	93	7
19	35	-10
36	-48	-21
40	-122	-4
5	-153	-7
-55	-130	-6
-104	-74	-9
-106	-15	1
-56	19	16
14	22	10
65	9	17
69	-8	12
37	-13	-4
1	-16	-16
-10	-23	-19
16	-45	-16
58	-74	-30
85	-92	-43
71	-88	-51
22	-64	-46
-47	-37	1
-108	-20	67
-140	-21	104
-139	-22	63
-110	-1	-13
-68	55	-88
-30	137	-155
-10	204	-173
-17	215	-140
-47	153	-37
-89	32	69
-118	-103	103
-120	-198	78
-92	-225	4
-49	-190	-75
-22	-124	-143
-21	-62	-165
-38	-26	-137
-45	-5	-67
-13	16	32
65	51	95
167	97	128
242	131	100
254	135	16
190	105	-61
78	50	-114
-27	-1	-151
-84	-32	-157
-72	-37	-88
-16	-29	-21
39	-22	-3
60	-25	12
37	-34	7
-14	-36	-15
-56	-19	-22
-64	17	-42
-36	66	-68
12	116	-72
46	152	-62
46	169	-38
11	158	-5
-43	123	6
-87	60	-10
-104	-17	-21
-88	-101	-17
-50	-166	-22
-12	-195	-30
13	-186	-27
23	-149	-16
24	-104	-7
26	-76	13
32	-68	63
39	-70	121
43	-60	130
44	-26	77
44	32	1
51	94	-65
65	130	-136
80	119	-176
77	70	-115
46	3	-27
-8	-51	8
-81	-72	13
-144	-66	22
-190	-43	8
-205	-28	-8
-193	-26	-46
-157	-27	-90
-98	-14	-91
-27	31	-70
52	101	-38
122	171	9
166	209	47
178	185	57
165	93	48
144	-39	23
132	-174	-23
125	-263	-58
105	-278	-64
41	-222	-54
-74	-114	-30
-216	0	-25
-333	83	-59
-371	113	-93
-304	96	-94
-150	51	-80
33	10	-38
180	-4	37
259	14	89
269	53	85
240	98	51
189	122	11
127	117	-55
40	77	-107
-71	11	-106
-193	-64	-99
-277	-134	-72
-281	-181	-36
-195	-192	-14
-43	-166	-15
106	-106	-14
202	-22	-10
207	70	-2
135	153	9
28	215	6
-69	238	24
-124	219	41
-128	150	36
-83	41	11
-3	-88	-7
89	-205	-4
166	-274	-11
187	-272	-30
132	-192	-54
12	-68	-82
-136	61	-94
-243	145	-100
-258	161	-115
-169	110	-101
-19	30	-68
120	-38	-38
192	-69	-19
175	-57	-11
96	-24	7
2	6	43
-69	14	76
-114	0	78
-141	-24	51
-166	-43	-3
-182	-55	-66
-166	-63	-117
-107	-78	-140
-10	-97	-81
87	-113	19
149	-106	74
151	-65	85
107	10	55
64	103	16
53	187	-54
89	240	-114
143	244	-126
178	206	-105
169	131	-23
110	37	33
28	-58	20
-46	-138	0
-95	-184	-5
-122	-183	-14
-141	-135	-29
-157	-55	-28
-161	28	-29
-138	81	-66
-79	83	-90
7	44	-79
96	-9	-68
153	-39	-57
167	-29	-10
139	20	36
92	74	23
44	94	18
-1	62	29
-53	-15	69
-120	-99	103
-198	-157	111
-259	-162	104
-264	-121	32
-194	-54	-56
-47	12	-150
129	64	-232
284	106	-245
366	143	-174
360	177	-59
288	199	51
183	189	93
81	143	68
-5	64	51
-83	-28	-6
-161	-115	-81
-237	-179	-135
-300	-215	-144
-325	-229	-76
-308	-219	13
-248	-190	35
-165	-131	-16
-78	-53	-66
2	35	-75
69	110	-70
126	153	-76
163	161	-38
175	142	38
154	115	80
110	90	94
69	65	110
52	32	100
74	-22	68
113	-90	37
139	-152	-19
118	-181	-78
36	-166	-121
-81	-109	-110
-194	-35	-69
-249	27	-62
-229	60	-48
-136	64	-42
-2	53	-51
127	38	-62
223	24	-68
261	5	-43
239	-27	-15
163	-65	12
44	-98	36
-93	-105	57
-223	-79	60
-306	-31	24
-325	11	13
-275	23	-19
-177	-5	-61
-67	-56	-81
21	-97	-72
75	-94	-21
104	-36	4
130	57	10
172	149	1
219	202	-14
244	201	-46
212	157	-67
111	96	-59
-37	53	-48
-191	36	-16
-296	34	-19
-316	25	-7
-252	-13	29
-138	-75	35
-23	-135	33
50	-162	16
69	-130	-20
50	-49	-60
28	52	-46
28	131	-27
67	157	-57
123	123	-77
167	55	-108
167	-18	-155
107	-68	-178
12	-90	-127
-89	-93	-55
-142	-95	-18
-132	-110	62
-67	-127	155
17	-131	234
74	-102	237
81	-36	139
44	48	-22
-3	126	-209
-20	169	-334
8	170	-328
72	138	-202
132	95	-63
158	57	44
132	29	98
82	5	86
36	-25	54
17	-65	21
18	-106	-11
11	-133	-24
-31	-127	-31
-110	-96	-19
-187	-52	0
-217	-23	-3
-172	-19	-47
-61	-36	-80
55	-55	-55
120	-51	-14
96	-15	56
0	45	83
-107	103	72
-172	137	24
-169	139	-41
-124	122	-76
-92	104	-85
-109	93	-43
-177	82	-14
-252	50	-10
-273	-17	-9
-205	-118	7
-58	-222	22
123	-278	25
280	-258	15
373	-154	-33
394	-3	-71
365	139	-87
314	218	-75
257	204	-55
194	106	-42
116	-36	-7
13	-167	13
-107	-246	42
-230	-249	32
-321	-180	-3
-358	-67	-51
-320	53	-91
-208	149	-95
-54	200	-110
98	202	-76
203	177	-19
240	142	34
214	113	82
158	89	94
111	50	51
99	-15	-43
111	-114	-122
120	-225	-155
91	-311	-143
12	-334	-109
-99	-281	-36
-207	-162	46
-276	-13	87
-291	121	93
-262	206	86
-209	237	98
-150	221	74
-97	177	31
-48	116	-52
-4	46	-126
32	-29	-162
54	-97	-180
58	-138	-145
48	-135	-93
34	-87	-74
30	-18	-80
39	38	-62
48	48	-87
49	12	-83
38	-44	-24
25	-79	38
24	-55	89
50	22	103
102	121	120
158	189	77
194	189	13
194	120	-61
156	25	-140
89	-37	-172
12	-32	-123
-60	39	-51
-123	126	11
-167	165	99
-187	108	130
-176	-39	101
-137	-222	49
-84	-358	22
-35	-386	-21
-8	-288	-99
-6	-108	-136
-14	74	-111
-6	181	-72
31	180	-50
89	85	-4
151	-41	28
191	-135	8
195	-157	-47
166	-113	-32
111	-46	4
41	3	40
-54	13	119
-169	-1	99
-289	-8	50
-371	22	-25
-372	88	-114
-272	163	-165
-98	213	-209
85	212	-186
201	170	-54
216	106	65
144	59	117
50	40	171
-3	43	224
6	47	207
48	28	94
69	-16	-35
33	-81	-176
-49	-142	-291
-121	-183	-353
-122	-196	-322
-27	-179	-192
133	-136	-86
277	-72	-44
336	1	-46
273	70	-14
115	119	44
-70	122	79
-221	88	76
-288	25	44
-279	-31	9
-227	-55	-31
-162	-34	-37
-106	13	-17
-61	56	48
-18	70	123
34	45	138
93	0	91
149	-44	23
186	-69	-47
194	-76	-130
166	-81	-182
104	-92	-179
22	-103	-123
-60	-93	-31
-121	-48	36
-143	23	61
-126	90	93
-90	104	163
-56	45	201
-50	-61	127
-77	-153	1
-114	-163	-105
-133	-67	-197
-108	91	-263
-32	219	-260
64	239	-185
153	121	-50
201	-71	10
201	-233	2
166	-260	4
115	-127	-1
63	93	10
14	286	38
-35	341	100
-84	228	110
-116	-1	68
-116	-231	4
-75	-358	-54
-4	-334	-71
56	-195	-69
78	-18	-43
44	120	-12
-21	178	39
-79	170	51
-87	132	-11
-31	99	-88
69	80	-174
172	55	-209
229	11	-184
216	-53	-132
130	-120	-60
2	-159	-21
-129	-156	12
-234	-113	67
-277	-60	110
-257	-23	147
-180	-15	194
-70	-19	191
32	-16	116
106	13	-2
132	68	-150
131	131	-230
116	178	-221
107	192	-192
104	179	-175
84	147	-171
33	109	-125
-51	68	-63
-137	18	-10
-185	-47	74
-163	-121	169
-76	-178	231
31	-192	190
107	-151	112
109	-62	1
41	37	-140
-55	112	-210
-130	132	-204
-145	100	-132
-97	33	-64
-18	-41	-8
56	-102	2
93	-147	-25
87	-175	-4
49	-192	45
3	-189	72
-36	-154	45
-55	-83	7
-53	15	3
-34	106	-36
-4	162	-74
25	164	-62
48	121	-52
60	63	-20
65	26	26
69	31	89
80	64	91
90	96	65
89	90	19
59	35	-78
-8	-51	-136
-103	-141	-159
-204	-196	-109
-277	-210	-22
-299	-185	13
-259	-142	-5
-168	-97	-9
-48	-47	-26
78	15	-45
186	102	-30
256	202	-20
269	291	1
216	336	6
104	319	29
-34	239	35
-147	125	6
-186	17	11
-134	-64	19
-16	-110	7
105	-138	-24
171	-168	-29
156	-206	4
83	-244	-23
7	-252	-59
-17	-213	-99
25	-122	-111
97	-9	-98
144	90	-76
128	137	50
46	118	129
-55	51	102
-136	-29	-5
-166	-79	-84
-157	-79	-95
-137	-32	-139
-137	28	-154
-159	65	-144
-184	61	-141
-187	14	-176
-151	-53	-179
-85	-110	-118
-7	-126	-37
60	-98	70
109	-37	113
136	31	144
144	84	140
133	111	74
106	113	-8
64	103	-65
21	93	-89
-14	88	-104
-30	82	-16
-31	63	119
-22	28	155
-6	-29	81
14	-93	0
42	-145	-60
78	-171	-100
109	-160	-112
124	-115	-76
113	-43	10
80	38	46
33	114	19
-12	171	-22
-46	200	-34
-67	190	1
-79	140	25
-77	66	41
-54	-20	68
-15	-89	55
31	-119	-14
50	-105	-76
18	-47	-154
-63	25	-211
-166	85	-222
-228	102	-151
-208	64	-39
-101	-19	-23
52	-121	-21
175	-205	-21
219	-241	-16
169	-210	-9
64	-129	-38
-35	-29	-24
-93	54	-8
-107	93	-2
-109	87	35
-125	53	95
-156	31	106
-164	41	109
-113	95	100
8	165	61
172	211	-9
324	208	-118
409	144	-142
404	43	-126
322	-54	-116
192	-117	-99
46	-130	-57
-96	-113	-47
-228	-99	-44
-337	-114	-32
-394	-165	-19
-389	-231	3
-311	-273	11
-184	-269	13
-55	-211	4
40	-117	9
87	-17	35
105	64	112
119	117	168
156	143	139
203	154	60
237	158	-32
224	150	-127
148	130	-204
20	97	-199
-130	57	-111
-262	24	-2
-348	4	52
-360	-8	46
-296	-19	-19
-170	-39	-131
-8	-67	-193
143	-94	-164
251	-94	-82
291	-54	36
271	24	86
216	127	59
163	223	40
125	283	43
106	289	33
88	236	-13
55	134	-74
2	5	-105
-61	-127	-161
-128	-242	-244
-186	-313	-210
-234	-329	-40
-262	-283	182
-260	-191	298
-212	-76	309
-109	34	164
24	113	-43
154	147	-196
224	134	-325
213	92	-326
131	36	-192
17	-17	-7
-79	-56	46
-129	-83	10
-134	-97	-3
-116	-108	-3
-89	-109	13
-51	-100	22
11	-72	38
112	-28	21
236	29	-5
338	84	-25
368	114	-48
297	114	-42
139	83	-15
-48	41	19
-197	13	1
-259	10	-13
-232	29	-26
-156	45	-21
-91	35	42
-77	-15	107
-117	-96	139
-172	-174	86
-194	-214	24
-147	-189	-71
-32	-101	-176
104	25	-208
211	153	-153
245	248	-39
201	296	3
111	295	-16
26	255	-22
-23	190	-39
-36	105	-53
-38	9	-23
-67	-95	-23
-131	-187	-48
-221	-252	9
-285	-270	138
-287	-238	274
-211	-167	323
-70	-83	234
91	-14	70
231	21	-132
319	23	-335
346	7	-494
330	-3	-468
274	11	-223
201	50	-41
114	98	64
32	133	145
-36	135	161
-84	102	119
-108	41	-4
-125	-21	-190
-153	-68	-339
-205	-95	-390
-274	-104	-324
-335	-107	-107
-345	-104	152
-273	-86	240
-110	-35	194
120	58	98
358	186	20
545	313	65
614	379	130
544	337	196
346	171	242
69	-78	181
-206	-329	65
-419	-489	-30
-506	-498	-119
-459	-368	-198
-307	-173	-268
-105	-14	-238
69	46	-106
171	10	-16
180	-55	115
115	-63	209
19	25	192
-64	181	87
-109	312	-66
-111	327	-219
-85	194	-349
-45	-32	-371
-11	-234	-275
15	-312	-119
31	-227	8
36	-37	41
27	154	1
3	250	-12
-29	221	24
-55	110	53
-53	1	74
-10	-51	134
69	-44	183
165	-18	150
239	-16	65
257	-54	-5
207	-105	-58
106	-124	-112
-12	-87	-118
-107	-13	-14
-156	54	95
-161	74	106
-143	35	60
-134	-31	-91
-141	-79	-180
-159	-83	-204
-163	-48	-268
-124	-4	-200
-37	21	-66
86	30	57
216	45	84
322	93	60
373	169	40
351	235	42
265	236	98
123	147	158
-41	-14	183
-194	-184	93
-300	-294	-12
-325	-306	-155
-273	-235	-249
-168	-129	-249
-52	-46	-162
34	-6	-8
70	11	116
71	45	207
65	121	195
72	221	139
93	299	65
94	301	-51
44	209	-201
-63	59	-298
-201	-87	-257
-318	-167	-219
-358	-162	-193
-309	-94	-92
-193	-21	18
-53	10	105
62	-9	162
139	-54	149
182	-78	115
203	-47	20
206	34	-127
187	124	-211
138	168	-252
71	129	-225
12	11	-154
-12	-138	-14
10	-261	118
62	-306	137
107	-261	117
111	-160	55
69	-55	-20
4	5	-89
-46	-1	-130
-58	-56	-64
-24	-115	37
36	-130	57
96	-71	-26
126	56	-123
111	210	-165
48	332	-130
-59	366	-14
-191	294	70
-310	134	118
-371	-52	196
-344	-200	281
-234	-260	281
-80	-217	183
50	-109	14
110	9	-197
90	84	-350
35	96	-475
13	66	-418
61	33	-132
158	34	57
245	72	78
254	123	41
163	141	13
14	95	24
-111	-7	71
-145	-130	162
-79	-211	278
34	-217	278
117	-144	150
120	-32	-72
50	65	-268
-37	114	-345
-89	106	-322
-83	72	-183
-43	50	49
-20	63	163
-42	106	133
-102	145	105
-159	141	24
-172	74	21
-128	-47	54
-51	-185	70
19	-294	42
51	-334	-57
41	-300	-141
0	-204	-201
-47	-89	-218
-85	11	-195
-97	66	-109
-75	77	-65
-12	51	-49
89	18	-56
200	1	-11
288	19	96
314	72	135
263	144	184
162	207	213
46	227	155
-28	183	-3
-54	84	-157
-47	-47	-228
-41	-162	-245
-51	-219	-235
-69	-199	-125
-72	-115	11
-42	-6	107
11	79	222
50	111	248
44	93	82
-8	50	-193
-77	22	-358
-117	31	-412
-102	71	-454
-52	115	-333
-4	124	-55
-2	76	98
-49	-25	149
-108	-144	181
-137	-242	147
-110	-278	101
-42	-246	57
25	-159	42
64	-46	32
72	57	3
78	131	3
107	165	22
161	163	49
191	137	126
148	99	179
11	58	126
-191	21	40
-377	-7	-53
-468	-30	-111
-425	-54	-128
-274	-82	-130
-93	-119	-85
52	-161	-51
119	-200	-63
117	-215	-57
86	-194	-30
68	-131	-27
79	-31	-51
116	80	-104
162	174	-136
208	230	-141
244	237	-101
260	201	4
242	145	152
175	98	370
54	71	497
-89	67	450
-212	62	263
-264	34	-50
-225	-36	-398
-103	-144	-641
50	-256	-639
171	-322	-470
222	-300	-129
191	-179	213
112	7	346
27	192	274
-31	307	101
-46	313	-39
-31	215	-201
-12	69	-302
-12	-64	-291
-40	-141	-201
-93	-154	-92
-151	-133	-25
-190	-114	24
-194	-122	32
-162	-150	32
-101	-167	6
-33	-143	7
26	-70	64
66	32	167
90	132	233
105	200	265
115	228	234
122	227	110
115	215	61
88	203	49
40	178	-4
-17	122	-131
-74	26	-273
-114	-99	-381
-138	-227	-445
-149	-311	-462
-144	-329	-336
-130	-282	-97
-101	-192	24
-56	-89	112
2	7	138
68	94	142
136	179	201
197	265	209
239	338	175
248	370	113
216	325	55
149	198	-45
64	6	-136
-6	-200	-172
-43	-364	-124
-53	-444	-67
-70	-426	-51
-130	-338	-15
-253	-215	-38
-392	-102	-42
-489	-19	-40
-463	28	-47
-303	49	-16
-54	63	-4
181	76	82
310	90	205
301	103	263
195	106	204
77	97	54
9	75	-122
2	45	-278
13	15	-377
-6	-8	-368
-63	-15	-209
-122	-4	-40
-117	22	77
-23	53	124
127	84	126
258	96	100
301	92	78
242	74	164
127	53	276
35	43	326
15	50	216
59	77	13
116	108	-233
123	129	-560
63	112	-771
-33	43	-653
-120	-74	-315
-156	-210	-93
-142	-320	118
-107	-359	308
-79	-309	343
-59	-189	316
-38	-46	170
-4	61	34
37	100	-160
52	75	-306
24	19	-219
-43	-20	-40
-112	-20	87
-130	13	149
-81	43	147
21	39	71
124	-6	36
182	-65	-16
175	-99	-55
121	-81	-22
54	-11	60
-6	66	88
-63	113	-6
-128	112	-86
-193	78	-139
-237	49	-174
-225	58	-157
-143	106	2
-31	166	188
57	195	189
69	171	83
-3	109	-52
-113	43	-195
-197	9	-312
-199	13	-309
-126	20	-192
-25	-15	-85
51	-113	19
75	-253	82
63	-368	80
56	-391	54
82	-294	35
131	-113	34
171	66	21
167	162	29
110	130	32
33	1	46
-26	-141	63
-37	-209	68
-10	-162	120
33	-30	188
66	106	143
82	162	-28
93	108	-198
107	-24	-340
121	-151	-350
114	-192	-254
69	-120	-126
-5	31	-7
-85	183	22
-134	266	90
-136	244	155
-109	143	139
-85	28	84
-87	-43	45
-108	-37	13
-112	30	-103
-60	115	-206
51	164	-113
180	148	33
267	71	104
254	-32	164
150	-115	124
-1	-149	-11
-132	-123	-187
-197	-61	-338
-198	-2	-357
-169	21	-214
-148	-3	-76
-142	-58	-25
-134	-114	-2
-91	-131	7
-5	-105	57
95	-46	141
164	10	215
169	34	169
114	19	63
37	-15	-38
-8	-33	-178
-2	-15	-263
40	41	-241
78	110	-128
68	157	7
8	162	141
-78	129	233
-144	84	194
-160	45	58
-121	23	-76
-55	10	-167
-1	-11	-246
20	-39	-282
10	-66	-183
-10	-72	37
-12	-51	170
16	-13	225
75	20	210
140	26	125
190	1	20
195	-39	-139
141	-74	-249
41	-87	-247
-92	-86	-128
-208	-92	3
-267	-116	132
-240	-152	201
-121	-176	135
44	-157	12
203	-87	-88
284	18	-168
261	120	-156
141	181	-8
-21	183	104
-159	136	115
-221	75	25
-195	22	-93
-112	-11	-227
-20	-29	-312
38	-54	-200
47	-87	-13
22	-117	68
-13	-124	91
-34	-95	79
-40	-31	34
-42	46	41
-53	109	56
-72	143	87
-83	147	90
-62	136	17
-1	125	-26
86	115	-25
169	97	-4
211	54	32
198	-14	77
137	-92	138
50	-145	79
-29	-152	-97
-85	-98	-226
-107	-7	-284
-95	84	-310
-55	135	-190
1	126	7
52	64	4
69	-27	-103
28	-116	-185
-76	-175	-171
-204	-201	-77
-303	-187	20
-308	-143	70
-202	-76	81
-23	2	91
151	75	56
234	119	17
187	118	-31
36	72	-43
-136	4	19
-244	-49	101
-236	-53	168
-120	5	163
42	102	94
190	191	24
279	228	-37
306	188	-99
291	89	-147
257	-29	-143
214	-118	-138
158	-157	-182
87	-152	-120
11	-133	-11
-46	-128	-17
-69	-143	-17
-58	-163	85
-35	-162	159
-32	-131	65
-66	-86	-41
-128	-50	-103
-185	-45	-166
-195	-61	-231
-148	-71	-282
-56	-34	-115
35	57	67
84	178	100
70	278	99
11	301	61
-55	236	37
-89	106	44
-74	-23	109
-22	-98	175
31	-91	143
57	-16	90
44	76	44
6	136	-25
-29	140	-179
-35	99	-280
0	38	-245
55	-13	-222
106	-36	-172
122	-40	-111
90	-35	66
16	-36	205
-75	-49	163
-158	-71	100
-213	-104	-4
-235	-139	-114
-234	-175	-190
-223	-201	-180
-201	-207	-109
-168	-179	-25
-109	-116	40
-15	-30	52
101	58	7
216	122	-10
290	150	-12
291	141	-25
215	114	-8
89	88	-16
-36	72	21
-108	70	82
-100	60	144
-28	35	212
62	-13	190
118	-68	37
119	-114	-138
76	-131	-268
27	-116	-362
8	-77	-270
20	-32	-3
39	3	225
29	33	285
-19	61	216
-84	101	71
-116	150	-158
-85	190	-368
2	197	-387
93	152	-239
124	60	-148
71	-49	-114
-38	-143	-27
-139	-186	-21
-168	-174	6
-106	-121	43
5	-62	38
100	-21	58
131	-4	22
94	4	-14
34	26	-33
2	79	-49
19	154	-37
70	228	75
109	265	201
100	248	251
39	171	243
-39	58	194
-89	-64	95
-85	-163	-125
-28	-229	-282
43	-251	-295
93	-242	-356
90	-207	-323
33	-151	-90
-64	-75	81
-172	19	174
-256	119	215
-290	204	174
-256	244	104
-157	213	11
-14	105	-108
133	-61	-176
245	-233	-201
294	-357	-168
276	-388	-70
213	-320	-39
129	-191	-49
30	-57	-48
-79	28	-35
-205	50	1
-321	30	72
-392	12	133
-375	33	116
-240	96	57
-32	177	-4
175	231	-106
282	233	-170
245	183	-163
96	119	-64
-92	75	32
-210	55	46
-221	41	30
-144	-9	-1
-55	-116	-43
-25	-258	-71
-64	-373	-43
-125	-401	-28
-133	-313	15
-45	-139	45
120	45	58
296	166	89
406	187	90
417	135	64
350	71	17
254	57	-69
169	106	-192
95	181	-312
12	215	-372
-99	170	-219
-215	47	-8
-299	-94	130
-300	-188	243
-217	-194	285
-95	-125	222
6	-30	98
40	36	13
17	57	-40
-19	51	-124
-16	55	-217
41	93	-235
127	153	-219
190	191	-243
192	166	-170
136	71	24
53	-55	163
-15	-155	199
-57	-171	99
-88	-103	-17
-124	11	-51
-174	96	-27
-212	102	3
-205	23	19
-132	-90	58
-10	-164	37
119	-145	13
207	-24	-20
234	150	-77
214	298	-182
182	344	-294
166	261	-303
167	72	-231
161	-158	-118
121	-352	-31
36	-448	46
-83	-421	81
-208	-297	81
-304	-124	103
-347	38	143
-329	138	163
-252	155	117
-136	93	56
-15	-11	-36
71	-116	-126
86	-174	-164
22	-158	-90
-95	-69	34
-193	59	76
-216	185	68
-133	261	-19
19	264	-57
159	196	-15
212	88	4
147	-24	15
0	-107	20
-136	-149	38
-185	-158	62
-116	-148	109
26	-129	167
161	-101	155
223	-51	28
192	25	-96
111	112	-204
38	178	-278
12	189	-214
27	124	-39
44	5	66
28	-129	19
-33	-217	12
-109	-227	44
-159	-157	-3
-156	-48	-56
-105	43	-22
-34	83	-95
29	64	-238
74	24	-246
109	0	-197
151	19	-161
202	76	-118
244	141	-52
245	186	-69
198	193	-97
106	168	-16
-4	124	85
-91	80	173
-126	30	222
-108	-28	199
-54	-96	140
4	-159	54
41	-184	-69
46	-157	-165
27	-70	-201
-3	40	-120
-24	135	49
-28	180	185
-12	162	229
12	101	84
27	22	-98
17	-54	-203
-22	-132	-296
-77	-216	-325
-131	-305	-295
-162	-376	-142
-165	-390	-39
-145	-320	-17
-124	-169	5
-115	24	34
-115	201	150
-113	319	265
-89	357	335
-40	334	276
14	279	123
47	224	-41
35	162	-205
-21	85	-310
-96	-11	-269
-147	-115	-137
-141	-201	-13
-79	-254	29
18	-263	19
111	-248	-3
166	-217	-41
172	-177	11
143	-119	102
96	-34	175
46	70	119
6	160	-10
-19	198	-117
-23	166	-234
1	84	-278
43	-2	-199
89	-39	42
105	-15	305
75	51	488
-1	106	488
-85	108	311
-138	56	63
-130	-16	-262
-65	-57	-576
18	-49	-636
81	-6	-438
98	28	-266
82	17	-119
65	-36	3
80	-94	85
125	-102	87
176	-36	38
197	81	90
160	195	202
72	250	324
-27	225	419
-107	143	383
-144	54	103
-144	-8	-221
-118	-42	-460
-83	-72	-634
-47	-126	-646
-17	-203	-424
-2	-269	-82
-4	-277	99
-27	-198	140
-46	-52	147
-33	101	97
33	192	59
138	181	38
236	76	57
263	-68	117
194	-192	152
44	-246	84
-120	-224	-15
-231	-152	-96
-260	-60	-223
-243	16	-328
-241	72	-295
-298	103	-121
-392	113	106
-442	109	375
-366	92	546
-141	77	450
167	71	155
431	89	-131
535	115	-368
439	127	-527
216	100	-387
-26	24	-71
-177	-83	40
-202	-184	38
-142	-240	-26
-69	-230	-119
-35	-166	-109
-39	-83	-42
-41	-14	49
-6	31	90
69	59	104
153	101	91
197	165	99
184	239	103
133	282	41
86	252	37
75	138	64
96	-31	34
123	-186	-15
118	-263	-45
66	-226	-26
-17	-98	-40
-99	51	-99
-148	150	-124
-150	149	-88
-114	63	-34
-57	-49	64
2	-112	186
57	-77	230
99	48	133
115	203	-82
96	298	-229
42	270	-332
-28	112	-352
-88	-117	-230
-109	-326	10
-91	-427	167
-53	-390	130
-34	-245	39
-65	-68	-64
-141	55	-119
-227	93	-170
-264	62	-147
-221	16	-142
-85	14	-167
98	64	-150
263	138	-90
350	171	48
326	122	72
210	-13	33
46	-182	5
-93	-308	-42
-167	-338	-44
-154	-260	44
-76	-118	91
21	22	61
89	110	26
96	128	4
42	105	41
-35	76	72
-108	69	113
-141	87	87
-134	115	38
-112	128	-16
-94	119	-72
-101	93	-125
-124	58	-187
-139	24	-207
-126	-17	-257
-80	-69	-181
-15	-135	69
49	-200	264
95	-237	260
121	-221	126
135	-145	-67
148	-32	-211
154	85	-311
141	170	-239
107	204	0
49	191	101
-5	144	122
-41	89	79
-52	37	20
-45	-4	19
-42	-38	13
-50	-63	32
-58	-72	34
-51	-59	17
-10	-22	-24
58	29	-76
124	81	-89
159	110	-80
151	111	-43
111	96	0
78	82	-8
72	92	-12
96	132	22
128	191	59
140	233	103
112	215	135
48	121	140
-37	-41	87
-122	-223	-13
-195	-354	-77
-250	-376	-145
-279	-269	-254
-269	-77	-244
-211	121	-154
-114	226	-109
0	181	-49
93	-6	40
138	-253	19
140	-448	-105
131	-501	-157
143	-390	-128
188	-166	-48
237	68	60
230	219	211
131	241	340
-50	153	315
-262	18	123
-408	-90	-207
-436	-140	-455
-350	-131	-558
-205	-96	-582
-89	-59	-365
-40	-31	-37
-51	-1	135
-61	43	202
-21	96	194
76	137	199
178	143	122
216	112	-10
159	65	-59
15	39	-111
-136	55	-150
-225	102	-90
-212	138	22
-123	115	67
-19	21	106
51	-112	102
74	-222	117
76	-240	196
92	-158	246
129	-13	204
164	115	53
159	163	-32
95	116	-97
-4	17	-200
-87	-64	-189
-115	-84	-31
-84	-37	17
-23	27	-27
26	57	-40
44	31	-7
46	-29	43
64	-64	15
116	-41	-43
183	45	-166
226	147	-257
207	206	-279
131	190	-186
44	110	-9
-5	19	89
14	-32	102
76	-23	66
120	22	25
94	63	-23
-4	64	-47
-132	26	-70
-215	-25	-54
-210	-54	-27
-127	-47	26
-30	-23	44
13	0	8
-27	0	-2
-119	-19	-47
-196	-36	-78
-193	-39	-97
-96	-26	-1
56	-20	208
191	-32	418
242	-60	418
198	-76	160
81	-48	-158
-52	22	-490
-158	99	-673
-206	115	-575
-195	28	-235
-140	-159	120
-53	-375	323
40	-510	335
125	-490	127
167	-306	-64
148	-39	-180
66	193	-239
-56	296	-166
-178	247	-118
-264	110	-64
-288	-16	21
-248	-54	48
-162	1	49
-50	90	56
60	128	65
154	72	97
209	-46	207
214	-153	210
169	-163	74
94	-53	-115
25	128	-217
-2	289	-207
24	350	-301
81	291	-341
122	160	-258
110	29	-81
33	-46	97
-76	-63	134
-169	-62	101
-208	-93	45
-193	-160	-6
-157	-233	-41
-136	-251	-32
-144	-186	4
-159	-55	56
-136	81	90
-54	156	75
75	150	41
205	90	-19
280	38	-34
279	34	5
215	81	36
130	130	81
69	130	65
42	57	-10
32	-59	-21
16	-159	0
-17	-187	65
-49	-129	192
-54	-21	292
-19	76	260
41	120	91
91	110	-86
102	84	-207
66	79	-259
17	112	-230
-8	162	-190
14	187	-200
79	160	-246
144	84	-341
175	-5	-328
151	-76	-133
84	-115	-27
-4	-147	-51
-90	-203	-40
-170	-297	38
-253	-401	160
-333	-451	326
-392	-393	410
-394	-211	366
-310	36	140
-139	252	-194
64	345	-479
237	287	-688
306	115	-675
257	-78	-309
116	-194	92
-60	-190	239
-205	-89	243
-290	38	149
-308	116	113
-280	111	83
-223	35	62
-147	-56	75
-48	-113	116
65	-112	139
172	-56	53
254	15	-17
280	77	-98
250	106	-147
179	113	-149
99	114	-113
41	123	-30
13	150	-11
11	179	-1
17	195	-2
19	170	-5
10	88	10
-7	-50	22
-30	-218	32
-51	-365	12
-63	-434	14
-54	-386	54
-12	-218	85
63	11	56
160	221	-7
245	333	-48
285	317	-76
258	202	-62
165	58	59
35	-41	242
-82	-66	312
-156	-34	164
-172	4	-75
-143	11	-291
-104	-21	-471
-82	-54	-511
-92	-43	-295
-126	35	20
-162	153	208
-166	251	242
-113	273	161
2	202	61
143	74	-64
271	-47	-192
333	-108	-208
299	-95	-147
178	-48	-71
16	-25	1
-123	-64	24
-201	-153	-14
-205	-242	-68
-161	-263	-14
-106	-195	142
-63	-59	101
-41	80	-65
-26	150	-185
-14	122	-319
-5	17	-389
-15	-99	-300
-49	-167	-68
-93	-159	87
-119	-100	114
-103	-48	127
-49	-48	116
12	-105	118
41	-174	72
17	-199	21
-47	-142	8
-114	-18	32
-136	120	102
-104	208	173
-31	214	196
49	158	99
99	88	-31
111	48	-166
92	55	-275
59	80	-327
23	80	-254
-21	27	-79
-66	-61	41
-108	-144	101
-123	-179	108
-101	-151	113
-40	-84	89
40	-23	60
107	1	-39
149	-4	-189
156	-4	-254
143	41	-209
123	149	-74
100	287	38
72	398	120
39	424	134
9	343	90
-5	171	8
7	-34	16
39	-211	205
71	-311	389
83	-311	408
65	-230	238
30	-108	-24
-4	9	-301
-20	85	-609
-15	101	-748
-3	61	-501
5	-4	-209
2	-65	-108
-5	-93	-32
-1	-82	79
18	-41	156
41	1	181
52	28	215
39	38	182
4	38	91
-34	45	-35
-59	54	-134
-63	52	-101
-57	23	-11
-64	-44	9
-102	-130	-16
-169	-205	-57
-239	-233	-56
-269	-206	-44
-231	-138	-1
-116	-58	65
48	4	130
204	46	213
302	77	164
302	110	20
206	147	-120
44	163	-190
-123	129	-294
-254	30	-335
-314	-117	-173
-302	-261	-31
-231	-337	86
-126	-301	173
-16	-157	178
84	44	137
155	228	46
191	327	-51
188	316	-170
154	218	-229
106	92	-176
63	-3	-71
37	-36	18
30	-15	55
28	29	130
20	47	172
-4	17	171
-42	-60	140
-72	-149	39
-77	-204	-66
-42	-198	-216
25	-124	-332
102	-6	-300
151	117	-239
151	207	-215
90	244	-161
-4	225	-64
-88	163	20
-118	77	79
-82	-17	76
-1	-102	38
64	-167	8
61	-198	-21
-33	-191	-30
-185	-151	-13
-321	-87	140
-366	-18	359
-288	43	482
-111	92	463
84	130	304
216	161	84
245	171	-189
184	147	-489
103	68	-622
53	-50	-501
65	-183	-341
114	-274	-36
149	-281	211
129	-194	281
52	-43	296
-48	107	61
-123	201	-170
-136	213	-378
-85	163	-422
3	95	-279
86	50	-99
130	40	33
123	45	103
77	31	129
7	-17	59
-60	-80	-3
-107	-118	-66
-117	-100	-96
-89	-30	-84
-27	44	-22
53	65	67
132	-9	130
184	-168	120
193	-344	61
148	-449	48
52	-421	54
-71	-256	72
-194	-11	49
-280	218	43
-299	350	48
-248	350	28
-151	244	16
-54	102	13
-10	-15	-8
-37	-66	-53
-119	-58	-101
-200	-23	-206
-217	4	-276
-140	6	-260
5	-7	-179
154	-21	-49
229	-17	78
196	-2	156
85	17	171
-36	29	123
-86	33	41
-37	43	-44
71	65	-121
175	97	-168
202	118	-155
148	106	-85
46	55	-47
-34	-25	-33
-53	-99	-30
-16	-139	-39
34	-136	-22
50	-109	56
18	-82	150
-31	-77	185
-50	-88	207
-4	-85	265
97	-40	278
211	52	164
284	166	44
281	251	-23
212	266	-177
99	200	-375
-19	85	-373
-121	-29	-341
-200	-95	-403
-253	-104	-336
-275	-71	-121
-259	-33	53
-205	-17	65
-118	-16	46
-20	-17	44
69	0	41
139	30	42
184	54	42
211	47	31
209	0	5
171	-70	-23
91	-127	-54
-20	-136	-14
-136	-96	7
-229	-28	-76
-272	22	-141
-271	19	-149
-243	-35	-109
-205	-116	-101
-159	-177	-67
-89	-185	-12
12	-137	74
132	-58	209
231	18	246
258	78	204
192	120	78
51	161	-74
-95	200	-202
-182	221	-256
-170	189	-179
-79	83	-85
28	-84	0
85	-254	40
58	-349	44
-27	-317	87
-126	-159	138
-182	56	170
-173	233	145
-110	295	52
-23	233	-52
56	106	-145
121	10	-194
162	10	-182
179	114	-105
163	254	-43
113	335	-36
47	275	-36
-7	71	-74
-21	-218	-42
12	-481	68
65	-619	169
94	-589	265
58	-413	271
-34	-182	188
-138	16	70
-191	121	-85
-152	135	-249
-29	103	-345
122	78	-325
237	98	-249
269	150	-109
225	203	57
139	213	152
53	166	131
-13	84	-1
-58	8	-103
-96	-24	-169
-122	-8	-160
-124	32	-7
-86	50	125
-16	23	150
50	-42	47
69	-111	-97
19	-135	-162
-82	-101	-272
-173	-24	-328
-201	51	-170
-142	85	-9
-20	67	98
101	15	164
172	-29	230
178	-37	307
136	-5	242
95	41	65
77	74	-107
74	71	-179
57	39	-231
2	6	-267
-93	-12	-109
-191	-3	58
-258	15	126
-264	25	95
-226	18	-34
-164	0	-112
-109	-6	-137
-76	8	-76
-59	30	5
-49	29	46
-37	-30	67
-26	-157	-9
-16	-321	-124
-6	-457	-178
13	-497	-108
49	-398	59
98	-182	199
137	79	175
141	291	29
101	380	-137
23	328	-278
-58	183	-301
-105	32	-183
-97	-55	-46
-40	-49	36
38	24	13
93	101	-112
102	130	-135
59	85	-41
-6	-5	69
-62	-100	119
-76	-153	162
-36	-144	280
40	-90	335
124	-13	260
192	60	42
226	122	-189
234	170	-311
222	204	-338
203	221	-198
169	213	102
107	177	260
16	120	174
-94	58	-7
-188	-1	-184
-236	-52	-252
-217	-103	-333
-150	-157	-254
-64	-200	-56
-1	-208	21
25	-161	105
26	-61	149
29	55	185
54	138	183
97	144	135
131	74	43
131	-32	-28
82	-104	-30
6	-98	-79
-69	-17	-124
-120	92	-133
-144	157	-82
-162	142	-56
-191	51	-67
-240	-64	-37
-274	-161	-11
-267	-210	7
-191	-232	24
-50	-251	82
113	-271	152
259	-271	138
339	-210	93
344	-71	-2
279	106	-185
160	248	-358
10	269	-420
-154	154	-345
-299	-52	-223
-400	-238	-113
-421	-306	0
-358	-226	178
-231	-40	338
-82	155	390
34	284	339
96	324	162
109	305	-52
110	275	-247
134	252	-345
195	210	-387
266	109	-402
302	-59	-320
273	-248	-149
167	-372	-4
17	-363	38
-126	-230	83
-218	-46	138
-241	72	179
-198	62	294
-116	-61	461
-20	-203	464
67	-257	261
131	-168	-30
162	23	-287
151	217	-468
106	323	-513
42	301	-324
-17	208	-35
-52	112	100
-54	81	102
-36	109	49
-19	140	0
-19	116	37
-40	14	113
-71	-126	217
-89	-237	250
-81	-260	171
-46	-192	-36
5	-77	-242
52	35	-398
92	106	-473
118	135	-320
131	136	-66
136	130	109
132	112	152
121	69	95
107	1	-23
96	-78	-82
93	-131	-68
87	-135	-49
67	-89	-8
16	-28	64
-63	7	185
-156	-4	264
-222	-50	198
-233	-87	85
-182	-76	25
-82	-11	-118
28	75	-241
113	125	-191
145	110	-140
124	33	-140
66	-59	-113
-12	-115	-78
-87	-103	-101
-150	-33	-178
-187	43	-192
-193	87	-76
-163	68	25
-98	7	20
-18	-69	26
57	-126	84
98	-153	113
90	-153	108
36	-137	129
-46	-107	123
-125	-51	32
-181	24	-64
-201	103	-83
-187	147	-103
-149	119	-164
-90	20	-143
-15	-114	-64
68	-218	0
143	-240	21
182	-165	-9
160	-37	-30
71	74	5
-52	117	42
-159	88	68
-190	28	127
-123	-2	193
18	32	190
166	116	115
250	197	-5
230	222	-157
121	169	-294
-10	68	-336
-106	-27	-234
-125	-62	-63
-79	-30	155
-11	41	374
38	103	393
48	109	196
39	53	-79
42	-32	-319
75	-109	-468
136	-135	-492
203	-103	-267
245	-27	-8
250	58	68
219	123	86
162	142	102
94	114	184
25	49	233
-38	-31	173
-86	-101	74
-107	-144	-12
-96	-152	-129
-57	-127	-167
-7	-84	-27
35	-32	29
58	19	-38
65	72	-120
64	124	-216
61	170	-317
52	196	-422
18	190	-356
-51	147	-105
-158	66	110
-277	-34	152
-380	-141	183
-437	-240	229
-436	-320	183
-387	-368	105
-298	-372	-57
-187	-326	-229
-57	-229	-301
75	-104	-265
198	17	-157
278	98	4
289	123	84
228	102	106
116	65	149
10	53	124
-46	83	95
-31	143	57
28	204	50
76	233	45
65	211	16
-12	143	-10
-124	46	-30
-205	-58	-9
-215	-157	-32
-149	-232	-40
-41	-263	-7
52	-234	43
106	-128	129
122	31	205
128	195	228
138	295	135
144	277	-24
119	141	-184
42	-55	-317
-70	-228	-420
-175	-300	-338
-213	-248	-112
-164	-111	10
-47	32	49
81	118	24
164	122	12
188	71	-12
172	22	-39
158	14	7
169	53	36
193	114	79
203	154	75
169	148	111
96	103	271
13	50	408
-44	18	352
-58	18	93
-44	39	-196
-35	55	-479
-59	51	-674
-111	24	-631
-169	-11	-338
-194	-40	-76
-166	-53	-8
-86	-58	-35
33	-65	-141
158	-87	-157
261	-118	-68
314	-144	124
287	-140	199
172	-97	175
-18	-17	135
-239	71	51
-428	132	-15
-526	136	-75
-513	77	-48
-410	-26	-50
-261	-131	-35
-120	-202	-14
-8	-216	-19
80	-184	32
157	-133	79
230	-90	108
279	-60	124
285	-31	87
239	13	14
155	80	-45
74	140	-37
14	157	91
-20	104	185
-58	-6	120
-124	-119	-30
-218	-169	-160
-300	-116	-265
-321	17	-284
-260	155	-182
-124	218	-93
21	168	-54
117	32	-14
130	-105	-4
78	-157	37
17	-95	140
3	41	81
55	169	-61
153	209	-192
245	148	-273
284	30	-168
254	-61	-17
169	-76	69
58	-19	90
-40	51	96
-106	72	64
-126	18	25
-98	-77	8
-30	-140	-14
62	-116	4
148	0	4
198	154	-15
193	267	-20
136	275	-23
54	171	-27
-24	6	-40
-76	-147	-33
-98	-226	11
-97	-207	41
-78	-126	68
-38	-28	128
31	35	172
116	48	143
185	14	36
183	-32	-110
76	-57	-275
-121	-47	-344
-347	2	-302
-491	65	-232
-489	112	-95
-332	110	25
-97	50	120
93	-55	121
147	-175	135
44	-265	115
-140	-303	19
-296	-276	22
-329	-204	-24
-224	-109	-89
-34	-9	-208
145	85	-257
245	170	-266
258	238	-322
216	268	-235
181	241	-75
180	150	42
202	18	145
210	-115	178
175	-199	122
97	-215	108
7	-167	183
-59	-92	337
-88	-24	387
-93	25	313
-101	59	112
-133	99	-273
-180	132	-609
-208	138	-754
-187	83	-641
-112	-41	-313
-2	-190	15
99	-294	189
163	-278	246
183	-131	231
172	92	177
145	296	158
110	382	130
54	320	85
-29	149	63
-134	-41	12
-231	-171	-56
-274	-200	-108
-242	-158	-115
-134	-93	-75
15	-43	7
152	-17	52
242	13	29
269	63	19
255	129	-2
222	178	-13
191	178	-11
165	124	27
136	43	71
87	-20	68
10	-44	82
-89	-34	61
-188	-25	-6
-259	-49	-111
-280	-103	-173
-241	-152	-166
-154	-143	-193
-45	-54	-225
52	98	-227
126	257	-172
175	359	-58
222	372	58
276	312	129
340	208	106
371	96	37
326	-8	-66
172	-114	-152
-76	-232	-164
-354	-353	-85
-585	-449	16
-683	-476	39
-624	-422	56
-436	-297	63
-189	-142	84
34	-9	140
182	76	124
226	109	87
182	117	87
86	118	70
-20	124	45
-105	129	-14
-155	114	-98
-173	81	-226
-178	31	-352
-182	-21	-399
-193	-72	-313
-188	-127	-50
-140	-194	152
-32	-270	155
123	-331	87
283	-338	21
386	-263	-28
393	-106	-40
311	88	68
191	255	241
101	332	249
85	301	89
128	194	-120
179	72	-338
171	-2	-493
71	-3	-359
-88	47	-42
-248	106	280
-325	129	567
-291	103	578
-166	51	391
-7	11	56
116	11	-283
175	53	-605
170	106	-719
131	138	-441
91	125	-120
61	76	102
38	10	224
4	-41	233
-46	-65	217
-100	-74	138
-134	-77	-13
-134	-90	-201
-95	-109	-320
-31	-119	-325
34	-109	-251
87	-71	-83
124	-21	50
152	33	81
175	76	101
183	104	81
160	123	33
87	137	8
-29	142	19
-158	127	29
-247	89	43
-250	31	92
-161	-23	134
-20	-48	116
104	-22	36
139	53	-25
62	137	-55
-87	186	-32
-237	149	68
-305	18	200
-259	-175	267
-132	-358	145
6	-456	-117
81	-429	-378
68	-291	-534
-1	-113	-536
-70	12	-430
-80	23	-131
-22	-75	96
68	-209	127
136	-283	164
140	-227	204
89	-42	290
16	189	289
-34	356	194
-40	379	-9
-15	253	-226
12	60	-357
16	-94	-384
2	-133	-228
-8	-52	-97
11	82	4
56	174	68
103	160	66
115	43	46
70	-107	26
-15	-219	30
-102	-246	35
-140	-196	76
-105	-121	114
-14	-68	109
96	-55	75
167	-53	16
175	-23	-64
122	62	-90
34	180	-18
-41	282	112
-83	313	123
-79	259	46
-52	142	-37
-33	21	-134
-43	-49	-252
-93	-51	-340
-162	-2	-219
-218	53	-102
-231	75	-15
-185	51	189
-92	1	348
14	-43	274
97	-60	76
130	-43	-177
117	-4	-407
85	31	-422
58	49	-382
61	43	-226
89	21	24
117	-11	218
128	-44	313
111	-72	207
82	-98	26
59	-110	-119
57	-109	-235
72	-96	-315
78	-76	-201
53	-50	-36
-10	-23	28
-96	2	74
-161	27	52
-177	47	61
-130	54	129
-42	40	190
41	9	196
83	-31	225
63	-66	270
-5	-80	201
-82	-64	8
-126	-27	-235
-120	17	-364
-67	52	-443
-3	66	-441
39	54	-289
46	28	-91
33	-3	87
32	-22	233
67	-20	326
138	4	267
210	44	129
232	92	-34
178	133	-245
55	154	-387
-78	145	-323
-156	94	-110
-139	5	52
-47	-118	159
48	-249	198
75	-353	150
-9	-391	75
-170	-332	12
-321	-177	-59
-366	32	-158
-271	233	-184
-66	362	-137
138	380	-56
245	299	47
201	166	110
32	33	132
-165	-59	124
-300	-109	56
-314	-139	13
-224	-175	2
-97	-225	12
2	-272	0
36	-292	-31
16	-268	-75
-12	-195	-151
-16	-93	-213
21	18	-171
82	120	24
131	205	147
157	264	158
155	287	111
144	260	-25
139	175	-174
143	56	-275
143	-64	-253
124	-142	-115
82	-152	-6
25	-98	7
-20	-21	-35
-37	37	-29
-20	57	14
18	43	57
57	30	99
79	41	42
77	82	-61
59	125	-169
36	137	-176
22	108	-56
14	44	95
9	-13	162
-3	-39	95
-27	-27	-43
-64	-3	-159
-103	-5	-261
-134	-45	-233
-143	-115	4
-125	-167	101
-86	-169	160
-33	-106	238
19	-7	346
58	79	364
74	118	195
63	106	12
35	78	-225
1	65	-403
-24	87	-524
-23	116	-382
8	106	-30
57	25	118
97	-117	17
97	-261	-71
38	-330	-103
-69	-272	-192
-191	-111	-242
-273	76	-182
-278	189	-62
-199	160	37
-68	4	98
58	-196	164
135	-329	255
143	-314	274
99	-159	171
43	55	18
8	214	-94
-2	243	-186
-3	139	-233
-15	-19	-54
-48	-134	176
-87	-144	251
-107	-53	221
-91	71	93
-45	153	-14
2	145	-80
34	67	-96
39	-18	-123
34	-52	-155
40	-8	-147
61	85	-185
85	179	-264
80	228	-260
33	221	-108
-46	174	21
-117	116	52
-139	51	44
-96	-32	91
-6	-140	188
82	-260	216
130	-345	156
125	-345	142
90	-238	137
64	-53	44
69	131	-101
102	239	-208
120	225	-275
96	119	-368
23	-11	-364
-71	-90	-186
-139	-88	-7
-158	-36	34
-122	4	69
-67	-17	44
-31	-92	87
-31	-169	180
-52	-181	242
-64	-91	268
-44	69	140
15	230	49
85	312	-28
132	279	-110
142	163	-144
118	24	-138
84	-65	-201
51	-85	-362
28	-52	-501
-7	-15	-408
-62	-16	-111
-132	-62	97
-186	-133	267
-182	-187	316
-107	-198	254
29	-159	176
166	-82	33
242	15	-92
216	118	-147
97	210	-131
-58	276	-68
-186	287	24
-237	221	5
-208	71	-58
-137	-120	-78
-72	-294	-75
-47	-379	91
-54	-338	203
-71	-192	176
-67	-13	92
-40	112	-44
-13	132	-157
-7	57	-215
-28	-47	-174
-48	-101	-96
-25	-61	-34
69	62	-13
209	200	-40
336	282	-74
373	269	-89
288	179	-19
113	55	115
-75	-50	207
-182	-114	175
-166	-148	86
-55	-167	-22
67	-184	-160
114	-188	-237
51	-163	-185
-87	-107	-82
-223	-42	-33
-271	-6	-26
-205	-13	-12
-58	-46	19
100	-62	45
202	-19	55
224	82	33
184	199	-3
128	262	-43
85	231	-62
62	110	-65
41	-32	-62
3	-119	-25
-55	-112	9
-110	-23	34
-136	85	113
-115	147	243
-53	132	316
19	65	200
69	-8	-69
77	-53	-310
38	-63	-493
-23	-65	-595
-86	-82	-373
-126	-115	55
-137	-136	285
-128	-111	320
-106	-30	232
-85	86	119
-65	191	-47
-46	244	-214
-22	233	-205
7	169	-177
32	85	-192
44	-2	-138
32	-84	-90
7	-164	-99
-23	-235	14
-36	-276	124
-25	-273	151
0	-217	111
12	-136	22
-8	-70	-90
-65	-57	-218
-140	-98	-196
-195	-157	-115
-199	-186	-3
-142	-155	159
-39	-65	274
76	48	289
176	145	249
254	205	126
310	233	-81
346	247	-221
359	265	-270
336	273	-180
259	250	-75
137	174	28
-11	64	84
-141	-47	28
-227	-118	-33
-255	-126	-90
-243	-93	-132
-214	-57	-140
-195	-60	-38
-182	-109	71
-166	-176	121
-124	-212	34
-52	-185	-93
41	-96	-197
135	26	-318
206	132	-241
242	194	-97
238	205	31
200	183	170
137	158	268
60	135	340
-16	119	326
-79	98	216
-118	68	-22
-128	31	-255
-120	-13	-297
-102	-54	-289
-84	-94	-259
-62	-123	-91
-27	-140	1
33	-131	16
113	-100	19
183	-55	-34
210	-16	8
162	-2	52
44	-18	2
-101	-53	-107
-229	-86	-182
-290	-101	-150
-282	-105	-42
-229	-111	24
-173	-133	59
-144	-166	74
-143	-185	61
-143	-158	53
-111	-69	48
-31	57	37
84	180	27
194	250	39
261	249	29
260	195	13
202	131	-2
122	103	-6
64	119	-58
64	168	-97
119	202	-66
202	197	-49
260	142	-8
245	47	17
147	-69	3
-19	-189	7
-186	-286	-6
-298	-345	-74
-313	-340	-124
-244	-258	-104
-137	-107	-20
-46	69	112
-5	209	271
-8	257	385
-30	197	309
-43	62	79
-42	-84	-166
-50	-182	-399
-80	-207	-558
-137	-178	-574
-184	-135	-441
-181	-110	-248
-105	-103	-99
33	-86	24
180	-35	162
290	55	311
324	157	352
294	235	249
234	260	64
184	240	-147
164	195	-328
158	150	-315
139	106	-46
77	47	260
-38	-39	389
-191	-152	192
-345	-253	-117
-452	-304	-412
-474	-278	-664
-392	-192	-567
-229	-94	-126
-33	-23	209
132	-4	256
214	-11	232
198	-6	147
116	44	112
32	134	81
1	223	24
37	267	9
113	241	-6
170	161	-14
161	61	-52
75	-17	-51
-45	-62	-31
-150	-88	6
-194	-113	65
-173	-145	141
-109	-164	204
-28	-140	150
50	-57	90
130	65	43
214	190	-46
291	267	-116
328	276	-127
288	228	-118
157	153	-135
-43	78	-154
-245	10	-162
-382	-65	-101
-410	-159	-23
-333	-260	-39
-203	-334	-64
-78	-343	-19
5	-268	68
39	-141	81
48	-19	36
59	47	24
86	43	-23
120	0	-79
140	-31	-69
136	-10	-7
106	53	-12
64	106	-76
18	95	-102
-26	-2	-91
-78	-139	-48
-136	-246	-53
-190	-249	-58
-218	-139	-38
-198	30	-36
-130	177	-9
-32	233	8
63	199	-28
135	127	-48
178	88	-17
200	117	18
216	190	134
226	238	268
209	203	308
149	76	195
41	-95	-38
-91	-226	-290
-201	-257	-449
-249	-185	-435
-218	-61	-237
-133	41	69
-33	83	317
44	61	394
84	22	233
94	9	8
96	34	-184
100	77	-373
99	93	-472
78	58	-368
25	-20	-98
-40	-104	124
-88	-154	215
-84	-152	222
-21	-102	100
68	-37	-102
132	19	-197
116	62	-187
11	99	-250
-142	134	-302
-277	160	-140
-318	155	34
-245	94	135
-87	-20	196
93	-160	171
207	-272	160
226	-309	98
144	-257	56
15	-138	38
-107	-12	40
-175	63	42
-176	53	1
-125	-27	-56
-55	-130	-90
2	-196	-68
22	-178	-64
3	-78	1
-37	74	14
-66	213	34
-53	296	93
16	296	95
123	231	91
219	136	58
251	44	-30
182	-23	-143
33	-69	-210
-136	-105	-223
-244	-133	-211
-241	-153	-135
-130	-150	-51
25	-124	-19
149	-84	26
187	-49	28
140	-28	27
59	-17	106
2	4	234
5	57	339
53	140	322
109	228	155
126	270	-103
83	235	-363
-10	117	-552
-114	-45	-517
-198	-192	-361
-236	-273	-151
-228	-270	47
-181	-208	101
-112	-126	84
-36	-60	31
36	-18	-37
91	16	-127
129	62	-138
150	128	-40
164	197	147
175	241	298
188	244	345
192	202	321
172	137	176
129	74	-11
58	28	-203
-15	-6	-350
-78	-36	-389
-112	-68	-270
-121	-94	-97
-114	-98	-23
-104	-67	69
-97	-8	213
-89	49	324
-80	71	337
-68	39	271
-53	-45	98
-44	-148	-178
-42	-226	-408
-47	-246	-536
-58	-206	-463
-69	-120	-315
-84	-27	-132
-93	41	-20
-95	74	-4
-81	66	77
-40	38	84
22	6	125
99	-9	135
154	1	112
162	35	93
107	91	38
1	152	-5
-109	208	-36
-176	237	-20
-153	229	-15
-46	168	-23
101	51	-36
229	-111	-44
277	-291	-51
242	-441	-13
156	-510	30
74	-460	54
34	-309	170
33	-94	281
33	110	281
-11	236	103
-108	256	-132
-221	190	-341
-279	95	-511
-234	30	-447
-88	22	-205
98	45	-24
236	56	42
259	17	61
165	-74	52
4	-173	43
-159	-224	34
-260	-192	28
-292	-89	19
-274	31	18
-232	114	17
-175	129	-7
-97	99	-8
7	68	24
132	82	74
248	145	96
324	224	95
336	268	110
287	240	111
196	145	82
80	23	59
-44	-78	-28
-170	-124	-196
-279	-122	-284
-347	-99	-282
-348	-89	-266
-271	-101	-248
-137	-125	-194
8	-132	-95
115	-102	-14
162	-35	-14
154	45	-54
124	114	-74
111	145	-48
131	137	32
171	104	203
206	68	476
211	51	622
182	61	538
128	88	253
60	116	-169
-16	119	-550
-99	80	-793
-182	0	-659
-245	-103	-319
-262	-187	-98
-213	-216	10
-109	-168	58
7	-65	144
88	31	210
97	59	207
37	-22	123
-44	-194	12
-103	-384	-70
-103	-495	-150
-51	-460	-181
13	-282	-122
57	-40	-14
66	164	-19
48	249	-59
36	200	-74
41	84	-82
58	-6	-63
64	-2	17
43	99	69
4	229	48
-29	301	19
-28	260	1
9	115	11
59	-66	15
79	-196	48
46	-219	103
-28	-141	189
-106	-12	290
-140	100	306
-113	154	187
-40	140	10
33	90	-181
67	39	-351
54	11	-406
11	12	-291
-26	26	-124
-38	40	-59
-25	43	-60
-8	30	-86
-8	0	-80
-33	-46	-62
-71	-98	-37
-104	-147	3
-117	-165	17
-112	-144	37
-97	-86	36
-74	-9	28
-37	56	12
24	91	5
110	100	18
206	116	12
276	171	21
296	275	79
245	396	120
144	454	111
20	386	77
-88	156	-11
-157	-178	-96
-181	-506	-122
-166	-700	-37
-134	-685	120
-97	-482	187
-65	-186	139
-43	65	69
-28	180	-58
-13	143	-279
7	30	-430
34	-61	-471
66	-63	-438
94	25	-356
104	135	-184
92	185	-49
58	128	9
18	-8	119
-17	-153	155
-36	-233	172
-39	-213	186
-34	-125	178
-23	-34	119
-6	11	12
20	2	-83
56	-20	-150
89	0	-126
100	92	-42
69	233	125
2	356	297
-82	388	386
-148	295	350
-168	103	213
-143	-113	-3
-96	-261	-257
-59	-299	-443
-58	-227	-566
-89	-106	-549
-122	-5	-391
-130	29	-160
-96	6	29
-28	-32	118
48	-35	122
105	23	130
132	128	111
141	233	97
145	290	113
151	277	104
159	203	87
151	105	43
120	22	43
65	-30	31
-7	-58	-4
-78	-88	-28
-143	-137	-28
-189	-205	-30
-211	-264	-59
-195	-288	-131
-139	-254	-172
-44	-171	-116
74	-68	-72
179	13	8
245	43	89
262	20	134
236	-33	133
187	-81	77
132	-88	-8
75	-52	-111
-3	9	-186
-108	60	-192
-233	68	-111
-337	32	-67
-375	-28	-61
-321	-71	-52
-189	-67	-32
-38	-13	-20
66	69	-32
86	140	-44
28	170	-58
-52	147	-37
-92	93	-18
-52	43	13
52	22	43
172	35	39
254	65	48
262	88	37
206	84	23
117	51	78
26	8	118
-57	-32	89
-133	-58	19
-203	-71	-66
-250	-78	-113
-245	-80	-116
-166	-69	-72
-21	-45	1
139	-5	70
254	38	52
280	62	-33
215	50	-36
102	3	-31
-7	-54	-92
-71	-85	-74
-92	-56	4
-90	29	-47
-94	131	-143
-108	195	-204
-112	162	-265
-79	28	-282
-1	-158	-253
98	-313	-145
175	-358	-4
202	-263	172
167	-61	346
94	157	391
20	296	304
-31	301	117
-56	179	-55
-74	3	-194
-97	-138	-281
-133	-181	-196
-170	-119	-16
-185	1	59
-167	110	43
-110	144	-16
-29	93	-87
58	-15	-108
129	-120	-110
167	-174	-74
165	-155	-19
121	-78	59
57	19	151
-5	93	230
-43	116	210
-45	85	78
-18	11	-54
22	-81	-158
54	-167	-242
71	-232	-275
68	-256	-198
49	-238	-133
15	-174	-143
-36	-80	-141
-98	27	-91
-154	122	-55
-173	185	-68
-134	213	6
-39	206	128
83	181	207
175	149	249
194	116	294
127	85	278
7	50	168
-110	11	26
-176	-32	-164
-178	-69	-326
-143	-93	-412
-117	-95	-365
-128	-78	-231
-164	-53	-108
-185	-28	16
-152	-15	102
-52	-12	115
83	-17	82
195	-17	42
241	-8	-2
206	14	-24
125	41	-30
46	58	-30
5	55	-12
0	27	17
7	-13	91
-7	-42	159
-51	-43	138
-99	-7	102
-119	48	44
-83	94	-47
0	96	-74
95	43	-21
162	-43	38
175	-126	33
148	-159	-76
107	-122	-211
84	-29	-252
83	71	-215
89	132	-149
78	125	-71
36	55	-33
-28	-33	-46
-92	-103	-69
-128	-121	-59
-126	-100	-23
-96	-59	44
-53	-25	61
-16	-8	45
12	9	34
40	43	7
77	105	-18
124	173	48
175	214	243
210	194	381
210	102	374
155	-33	194
40	-167	-74
-126	-249	-356
-308	-257	-608
-466	-198	-576
-542	-107	-316
-507	-24	-124
-358	31	-5
-137	48	64
83	50	63
254	59	52
334	97	31
336	168	30
295	258	-8
245	337	-8
201	362	16
150	298	38
72	131	77
-44	-110	67
-178	-368	4
-295	-562	-90
-353	-627	-151
-340	-543	-147
-274	-346	-95
-189	-112	-62
-108	80	-38
-37	183	14
33	204	42
113	183	12
197	163	-35
251	165	-40
242	169	4
159	138	52
33	52	126
-79	-77	231
-129	-201	256
-104	-277	141
-38	-277	-29
10	-222	-158
1	-151	-279
-57	-95	-335
-116	-62	-186
-115	-27	-24
-30	35	-8
103	125	-20
221	213	-47
254	252	-53
193	218	-52
82	127	-64
-12	32	-70
-36	-14	-90
8	14	-58
75	85	5
111	145	87
95	139	221
46	59	340
9	-51	335
19	-134	176
66	-136	-25
114	-55	-215
117	70	-375
58	186	-353
-37	243	-195
-130	233	-72
-184	174	28
-193	96	160
-180	17	294
-172	-56	343
-181	-127	249
-191	-192	55
-175	-240	-164
-119	-253	-389
-31	-226	-575
52	-168	-518
100	-102	-242
97	-48	-67
55	-20	1
13	0	34
-2	25	20
20	71	28
62	124	15
93	163	-7
86	157	-4
40	91	21
-21	-16	57
-61	-131	102
-52	-210	123
6	-215	103
91	-147	58
156	-27	3
169	99	-68
121	187	-131
31	206	-104
-59	160	-69
-115	72	-40
-119	-11	44
-84	-55	91
-34	-48	111
1	-6	159
5	27	168
-16	16	98
-56	-51	-2
-99	-152	-125
-138	-238	-230
-164	-265	-261
-166	-223	-224
-134	-133	-137
-58	-41	-34
49	17	28
172	43	21
280	72	14
346	140	9
363	259	-1
325	387	0
245	454	-25
137	397	-52
10	202	-67
-132	-72	-84
-263	-334	-59
-366	-482	-21
-409	-475	41
-377	-339	176
-276	-144	316
-135	28	364
6	128	248
113	152	50
165	131	-159
162	98	-382
124	77	-472
78	63	-330
44	52	-123
36	38	41
44	28	108
52	34	64
33	49	-8
-25	61	-117
-112	37	-190
-200	-36	-181
-253	-154	-132
-249	-278	-70
-186	-355	7
-88	-348	85
7	-238	149
75	-56	131
115	143	11
138	305	-48
166	382	-65
207	365	-111
251	268	-118
269	135	-54
241	4	65
159	-94	155
37	-147	113
-89	-163	-9
-191	-160	-112
-247	-154	-166
-252	-154	-137
-214	-159	-48
-152	-154	17
-83	-119	79
-12	-49	90
50	49	-2
105	147	-72
139	210	-116
150	211	-170
123	147	-144
66	36	-27
-4	-78	84
-66	-147	82
-97	-151	43
-87	-93	26
-43	-4	9
11	75	-7
52	115	-3
75	110	38
82	80	93
98	52	145
134	57	142
196	95	62
257	154	-42
283	200	-104
245	203	-176
135	155	-185
-22	59	-87
-181	-48	-38
-302	-140	-54
-360	-187	-85
-360	-185	-115
-324	-155	-113
-282	-123	-92
-249	-116	-40
-217	-136	14
-170	-168	-1
-91	-177	21
14	-134	46
129	-38	16
214	91	-8
245	209	-17
211	278	-33
133	273	-67
54	201	-55
5	84	-30
5	-51	19
37	-178	78
67	-282	68
55	-349	42
-13	-359	32
-125	-308	4
-236	-195	-44
-295	-52	-70
-271	78	-68
-173	158	-51
-29	173	-26
110	137	8
211	88	38
258	58	30
257	64	-18
221	93	-52
156	112	-81
71	106	-96
-25	72	-89
-119	36	-41
-186	21	17
-206	35	11
-173	63	-58
-100	75	-151
-11	48	-136
63	-17	-108
115	-94	-53
140	-144	54
154	-144	134
161	-94	108
161	-21	-25
149	41	-91
116	64	-162
68	51	-203
16	24	-106
-32	11	31
-70	29	75
-104	69	86
-132	110	97
-153	121	33
-148	95	0
-102	41	31
-10	-9	32
104	-29	-8
197	-8	-27
227	45	-30
169	99	-104
39	116	-231
-114	72	-183
-239	-38	-56
-299	-190	-35
-299	-334	30
-253	-421	85
-189	-413	61
-113	-306	21
-13	-134	-33
113	41	-34
253	170	-54
355	213	-77
373	186	-51
275	122	-16
86	75	57
-119	64	91
-264	79	106
-296	82	79
-224	30	-16
-107	-81	-123
-18	-222	-200
-4	-329	-193
-53	-348	-92
-118	-261	31
-142	-96	71
-97	85	71
12	223	49
143	282	-5
258	274	-72
316	230	-98
301	179	-133
214	138	-168
64	97	-94
-117	41	8
-288	-39	70
-392	-127	79
-385	-196	70
-263	-227	45
-67	-200	37
136	-137	8
277	-61	-24
321	2	-19
283	45	-26
221	78	-26
180	112	-24
184	163	8
214	221	12
219	266	-12
160	269	-40
23	214	-54
-154	100	-22
-325	-50	-8
-433	-192	-3
-459	-289	21
-407	-309	13
-305	-259	-20
-191	-162	0
-87	-57	21
-8	18	9
44	56	-8
76	66	-41
90	80	-108
89	110	-179
78	157	-193
54	193	-120
32	181	-38
13	103	30
9	-33	115
25	-181	161
66	-287	213
122	-310	222
172	-242	147
198	-114	-56
176	17	-332
118	103	-412
40	121	-345
-16	85	-265
-22	37	-61
22	16	107
93	43	61
140	110	-70
130	178	-182
51	203	-181
-63	156	-84
-164	41	30
-206	-104	75
-178	-232	87
-112	-292	137
-49	-275	189
-26	-194	155
-43	-95	70
-71	-19	-11
-76	9	-109
-33	-6	-179
41	-28	-188
116	-22	-86
169	34	13
184	131	43
179	236	77
165	305	147
144	299	174
95	213	123
-7	61	77
-154	-114	-15
-312	-270	-136
-415	-356	-243
-415	-353	-245
-306	-265	-144
-138	-131	-23
8	1	57
74	85	47
47	103	-8
-27	66	-66
-84	19	-96
-76	-1	-66
-3	26	-30
85	85	-16
132	139	-10
107	150	-12
18	105	-11
-91	25	-11
-169	-52	-5
-182	-93	1
-130	-86	-7
-32	-46	-10
90	-2	0
209	28	29
312	41	26
373	49	-11
383	67	-45
330	93	-92
229	120	-109
111	137	-78
8	139	-15
-52	128	66
-71	102	120
-61	55	111
-52	-22	46
-57	-129	28
-78	-243	25
-104	-313	16
-125	-292	-12
-134	-176	-103
-135	2	-193
-132	154	-234
-125	201	-233
-110	112	-158
-88	-64	51
-56	-232	181
-26	-291	71
1	-211	-104
19	-47	-243
32	98	-211
41	134	4
44	45	240
34	-104	354
7	-210	239
-31	-192	70
-70	-54	-81
-96	137	-261
-99	279	-312
-83	319	-201
-56	257	-105
-28	153	-114
0	70	-86
33	35	-29
72	22	-3
114	-15	20
145	-98	40
151	-199	2
121	-270	-44
66	-254	-50
3	-152	-36
-47	-9	-20
-72	106	-24
-66	150	-24
-35	120	-12
16	61	12
81	28	39
144	41	49
192	90	28
207	125	14
178	117	0
107	58	0
18	-19	-1
-66	-69	6
-122	-69	18
-144	-27	15
-142	23	29
-134	45	22
-128	28	15
-121	-11	38
-102	-36	76
-64	-26	69
-14	21	-3
41	71	-103
81	90	-192
103	56	-202
102	-21	-150
83	-103	-72
40	-152	-38
-32	-153	-47
-131	-123	-53
-237	-100	-42
-311	-117	4
-318	-178	2
-245	-250	-12
-108	-282	-33
37	-238	-41
150	-112	-24
198	57	0
196	213	27
172	305	-21
158	312	-38
158	250	-20
155	158	0
125	66	40
58	-3	91
-35	-51	161
-122	-86	199
-177	-103	143
-182	-97	89
-143	-60	75
-74	-1	-48
10	61	-186
91	105	-174
158	113	-151
184	96	-243
159	76	-290
81	80	-229
-26	113	-176
-114	162	-144
-144	197	-133
-101	185	-67
-10	118	62
74	3	86
100	-131	52
52	-260	-37
-42	-353	-103
-126	-391	-47
-152	-368	69
-107	-279	221
-17	-140	331
67	20	364
111	158	192
113	237	-63
95	241	-256
89	183	-369
102	105	-387
117	48	-267
105	36	-78
44	60	-13
-56	83	24
-166	68	27
-242	4	54
-262	-94	61
-232	-190	30
-173	-238	65
-108	-229	71
-44	-163	81
26	-63	87
107	43	112
201	147	82
276	235	-12
301	296	-89
252	301	-116
136	236	-108
-12	86	-126
-143	-118	-120
-222	-319	-71
-236	-451	-34
-208	-460	-63
-172	-361	-100
-153	-192	-112
-153	-31	-72
-144	60	24
-95	69	94
11	29	91
153	1	24
296	23	-40
381	105	-64
381	204	-55
290	262	-11
136	249	18
-38	159	-2
-205	34	-26
-330	-76	-68
-408	-131	-96
-421	-127	-50
-372	-86	-8
-259	-30	29
-108	22	126
44	66	253
162	102	294
211	125	202
200	123	44
154	85	-172
111	22	-362
96	-41	-400
105	-70	-308
114	-53	-162
99	-2	-50
54	44	-1
-5	43	10
-51	-15	40
-61	-108	82
-40	-179	67
-3	-182	58
22	-96	26
25	49	-58
17	194	-87
20	274	-38
50	257	34
103	157	89
155	13	164
172	-115	222
140	-182	151
68	-174	1
-13	-99	-133
-61	8	-256
-62	106	-339
-20	157	-241
28	144	-108
48	75	-70
20	-29	-120
-45	-121	-154
-117	-181	-8
-156	-189	140
-143	-163	213
-90	-126	134
-26	-100	-2
10	-89	-153
-5	-82	-335
-57	-64	-299
-114	-31	-74
-127	5	117
-78	22	108
20	10	48
115	-36	10
147	-92	32
75	-136	147
-85	-143	196
-262	-106	190
-369	-28	152
-339	79	43
-166	186	-168
81	271	-333
302	301	-341
406	259	-219
363	143	-84
206	-12	26
9	-156	74
-145	-236	46
-232	-227	5
-248	-147	28
-231	-45	57
-200	20	32
-160	29	37
-103	-5	5
-20	-33	-18
72	-16	-29
149	56	-22
181	153	15
169	222	18
127	225	17
86	161	12
66	67	24
60	-8	50
55	-36	66
36	-23	35
4	-2	-21
-19	-1	-74
-15	-30	-129
24	-68	-151
82	-85	-154
128	-61	-128
147	-1	-114
127	68	-94
89	122	-24
49	147	21
26	139	61
17	121	140
12	92	188
1	58	135
-22	12	16
-48	-43	-86
-74	-99	-168
-94	-143	-279
-106	-171	-254
-112	-192	-94
-109	-215	-32
-96	-248	24
-75	-270	76
-52	-253	45
-34	-174	-48
-18	-38	-132
0	110	-120
27	213	-61
63	230	20
97	157	49
104	41	33
68	-50	-44
-10	-66	-117
-107	-8	-99
-187	87	-9
-222	152	57
-200	148	16
-138	80	0
-66	-20	0
-11	-98	10
16	-133	76
22	-127	207
15	-103	300
4	-79	233
-6	-54	109
-16	-24	-88
-22	18	-294
-22	60	-437
-15	82	-460
-8	66	-294
-10	24	-88
-23	-14	21
-39	-19	43
-37	19	36
3	71	69
86	91	78
186	45	74
268	-55	68
288	-159	59
240	-200	79
149	-142	119
53	-8	129
-4	131	84
-16	201	25
0	156	-84
14	21	-198
3	-132	-284
-30	-224	-256
-60	-211	-116
-67	-110	2
-37	20	65
16	115	105
70	147	127
103	125	60
103	93	-42
74	82	-133
24	99	-176
-30	117	-137
-88	106	-82
-135	53	-36
-170	-32	-19
-191	-110	4
-202	-151	93
-212	-137	232
-225	-89	308
-232	-33	232
-209	7	48
-138	24	-179
-14	39	-358
132	76	-426
254	145	-348
302	229	-180
255	294	-56
144	299	24
28	219	1
-37	64	-40
-29	-126	-32
27	-294	-28
77	-389	-10
72	-384	13
2	-300	71
-95	-179	71
-168	-74	84
-174	-21	86
-118	-16	72
-40	-25	80
14	-9	65
21	48	84
0	122	89
-11	165	60
26	127	-48
107	7	-151
201	-148	-167
248	-257	-145
211	-258	-58
97	-143	109
-51	31	239
-175	171	222
-240	208	115
-245	123	-46
-224	-25	-228
-204	-154	-360
-195	-198	-376
-178	-139	-257
-117	-22	-118
3	94	-30
152	161	22
283	174	62
338	168	129
292	163	221
178	168	254
44	157	204
-40	101	94
-57	-10	-74
-23	-143	-246
22	-245	-371
36	-264	-347
13	-190	-174
-25	-48	-5
-47	105	65
-29	211	72
23	241	57
77	201	-2
95	120	-51
62	34	-106
-15	-37	-122
-104	-90	-98
-177	-125	-67
-207	-144	12
-191	-149	99
-140	-131	140
-67	-97	82
11	-57	1
82	-23	-62
131	2	-108
151	27	-117
139	63	-74
107	119	13
83	183	138
81	227	229
114	224	198
167	158	121
209	51	33
203	-55	-66
136	-119	-183
25	-115	-249
-105	-62	-188
-213	2	-101
-288	27	-32
-330	-11	37
-355	-96	46
-366	-186	24
-345	-232	-36
-272	-208	-108
-134	-124	-134
38	-15	-153
192	72	-72
265	110	30
233	94	128
123	43	264
3	-18	309
-53	-71	247
-15	-112	108
89	-135	-71
195	-136	-284
237	-105	-446
195	-33	-403
96	68	-243
-5	178	-136
-65	253	-30
-80	274	83
-69	237	136
-66	162	141
-82	86	67
-101	30	-37
-102	-11	-128
-76	-63	-164
-38	-149	-104
-20	-260	-2
-42	-356	66
-92	-377	68
-131	-291	41
-120	-120	39
-43	65	47
71	177	55
179	159	10
226	28	-23
199	-133	-38
114	-227	-52
10	-182	-59
-69	-16	-75
-110	188	-48
-106	325	-68
-72	327	-68
-20	205	-52
40	31	-52
91	-101	-14
109	-138	4
76	-87	-2
-11	-2	-30
-122	51	-36
-208	51	-23
-216	19	-27
-129	-1	-34
24	19	-8
181	78	12
270	135	33
266	149	49
181	109	6
71	35	-36
-9	-22	-88
-35	-37	-140
-24	-5	-127
-11	33	-18
-22	36	109
-57	-13	259
-93	-100	352
-98	-178	221
-62	-209	-54
-2	-176	-242
57	-101	-349
96	-14	-452
107	56	-356
99	100	-50
71	130	191
18	157	219
-68	171	168
-176	156	61
-274	92	-68
-312	-21	-145
-263	-157	-218
-148	-264	-211
-11	-313	-138
78	-286	-20
87	-200	85
40	-97	143
-8	-8	150
1	50	179
81	79	213
187	91	147
257	98	91
241	103	26
139	104	-90
9	104	-234
-83	100	-326
-94	97	-301
-37	84	-233
36	52	-173
68	-6	-84
31	-87	-6
-57	-158	42
-145	-180	62
-177	-119	28
-132	22	-6
-27	198	-16
93	341	-3
169	380	13
175	287	74
111	93	144
20	-131	151
-57	-306	84
-93	-372	-22
-96	-333	-101
-94	-237	-155
-124	-148	-101
-197	-113	44
-277	-136	155
-321	-178	120
-285	-184	-15
-165	-119	-161
-6	6	-262
134	151	-241
209	258	-128
214	291	-10
184	250	16
165	171	0
169	94	-41
178	45	-92
157	28	-109
83	15	-95
-28	-15	-60
-124	-70	-7
-155	-134	49
-100	-175	115
9	-171	176
112	-115	194
159	-27	249
139	64	241
86	131	111
55	164	-57
77	160	-147
138	128	-189
190	82	-257
178	29	-242
81	-15	-168
-75	-44	-148
-228	-52	-117
-312	-48	3
-310	-47	108
-237	-61	163
-143	-101	184
-79	-143	125
-58	-164	2
-69	-131	-111
-76	-42	-187
-51	75	-242
10	174	-227
82	215	-177
132	185	-105
135	104	-25
86	19	50
3	-29	116
-92	-35	131
-166	-19	164
-195	-17	168
-168	-45	105
-76	-100	36
61	-145	-52
202	-144	-142
292	-89	-173
291	7	-92
192	96	-19
38	145	-36
-92	143	-54
-130	110	-31
-54	75	-8
91	64	-76
223	80	-145
259	92	-100
175	79	-43
18	26	4
-141	-53	42
-231	-134	48
-240	-186	54
-202	-192	26
-169	-159	8
-164	-101	-24
-163	-40	-42
-125	10	-24
-21	43	-26
128	54	-15
262	45	12
321	15	21
277	-29	19
171	-75	28
58	-104	22
-16	-112	26
-55	-104	32
-100	-96	-28
-186	-108	-135
-308	-137	-240
-415	-168	-277
-435	-165	-218
-331	-106	-85
-133	7	49
80	143	121
228	255	183
275	305	199
248	289	135
210	235	57
203	174	-48
222	129	-193
215	98	-265
138	53	-155
-16	-14	40
-186	-95	249
-295	-152	366
-281	-153	240
-152	-97	-22
20	-17	-245
150	32	-437
181	17	-546
119	-55	-412
22	-131	-70
-53	-149	147
-70	-84	144
-43	35	78
-9	136	-27
1	154	-51
-21	70	-36
-54	-65	-6
-77	-178	34
-71	-200	55
-45	-120	21
-8	11	-16
29	126	24
68	171	7
116	150	3
162	92	45
193	43	66
189	27	79
138	28	79
50	27	80
-46	6	53
-125	-19	19
-163	-27	-27
-165	-12	-76
-142	7	-84
-116	-14	-90
-89	-102	-88
-57	-242	-74
-12	-365	-42
45	-394	-28
107	-288	-30
144	-60	-24
133	202	-45
74	393	-28
-16	438	-8
-95	350	-33
-137	183	-40
-129	28	-40
-86	-57	-38
-44	-71	-6
-28	-48	12
-42	-36	-3
-61	-51	-23
-51	-77	-84
9	-84	-181
102	-51	-258
190	10	-246
225	77	-141
189	119	-22
102	135	155
7	138	308
-49	139	300
-57	144	117
-42	128	-99
-40	65	-265
-77	-56	-412
-136	-211	-309
-175	-355	41
-164	-437	225
-97	-427	178
-18	-334	103
22	-193	-2
-2	-48	-95
-70	72	-158
-116	155	-137
-88	204	-17
26	230	32
172	233	94
271	214	89
263	168	72
154	94	53
11	1	-6
-81	-97	-32
-70	-180	-115
21	-233	-136
129	-245	-62
170	-212	-35
107	-142	-29
-31	-52	-17
-189	33	-6
-290	102	25
-304	132	55
-239	134	65
-129	107	63
-21	74	42
63	41	6
112	21	-40
124	18	-46
100	27	-31
42	45	-52
-31	58	-67
-104	57	-24
-143	27	74
-140	-26	120
-89	-92	97
-10	-143	64
77	-150	-30
159	-100	-172
225	3	-256
269	127	-241
285	230	-195
255	274	-157
169	239	-66
36	139	-7
-104	5	-48
-207	-118	-140
-236	-198	-195
-189	-224	-140
-105	-198	-32
-37	-151	44
-27	-96	116
-67	-53	159
-122	-22	204
-133	7	242
-75	41	208
30	88	127
136	141	46
178	198	-16
140	243	-72
57	264	-95
-22	244	-173
-43	175	-295
-4	54	-336
60	-109	-251
93	-278	-45
62	-410	186
-22	-460	278
-106	-416	177
-139	-281	-4
-100	-104	-176
-7	57	-267
86	159	-271
136	185	-122
132	155	120
94	109	232
58	77	209
40	75	113
39	80	13
22	67	-68
-34	19	-152
-125	-56	-98
-228	-131	37
-299	-163	133
-311	-129	176
-256	-33	159
-151	101	87
-24	225	2
106	300	-151
214	305	-292
288	236	-298
310	110	-231
270	-37	-165
180	-177	-150
54	-278	-81
-62	-322	-19
-148	-312	-15
-186	-257	-1
-191	-189	19
-188	-131	77
-185	-95	142
-180	-78	194
-152	-58	215
-90	-23	155
1	33	22
89	101	-127
141	160	-268
145	190	-315
109	192	-211
70	174	-89
57	157	-13
79	143	29
114	134	53
129	117	68
104	84	57
42	33	49
-32	-21	21
-93	-65	-6
-128	-89	-32
-143	-92	-76
-151	-84	-111
-143	-71	-130
-106	-67	-87
-16	-70	-13
129	-78	92
297	-86	170
421	-90	181
446	-86	151
340	-65	110
123	-29	7
-126	21	-163
-339	70	-259
-438	103	-230
-412	109	-151
-290	86	-100
-122	51	-9
30	17	58
139	-2	11
198	-10	-69
214	-11	-127
202	-16	-151
161	-21	-90
89	-14	10
-19	8	105
-149	40	132
-275	61	152
-360	41	201
-374	-27	191
-312	-130	108
-199	-224	-50
-79	-259	-158
9	-213	-234
51	-103	-238
66	27	-120
87	123	-16
143	153	12
233	127	-35
325	81	-122
365	57	-135
321	79	-58
188	130	-13
14	179	11
-140	188	11
-215	142	-32
-194	56	-44
-105	-35	1
-2	-105	13
58	-137	5
54	-137	9
0	-126	-1
-68	-108	14
-102	-85	47
-85	-41	81
-25	22	65
42	97	-15
82	153	-84
81	160	-103
45	106	-91
2	8	-41
-29	-94	9
-47	-159	-4
-64	-163	-64
-96	-125	-104
-132	-84	-74
-155	-70	-48
-122	-95	-68
-19	-123	-70
135	-113	-94
289	-39	-91
373	79	-43
345	182	-43
212	213	-33
32	145	-25
-123	9	-8
-199	-125	63
-193	-188	164
-144	-159	274
-108	-77	268
-122	-9	164
-174	-13	-4
-223	-83	-202
-223	-168	-289
-154	-195	-246
-43	-129	-100
54	10	89
97	160	219
67	253	205
-1	270	86
-58	239	-88
-58	209	-254
6	210	-333
107	228	-389
192	212	-306
219	116	-66
176	-56	118
84	-253	163
-15	-387	120
-90	-401	37
-115	-300	-27
-95	-134	-40
-46	10	-35
16	85	0
75	91	43
124	71	94
150	79	130
144	125	112
101	190	36
13	221	-51
-100	185	-106
-214	83	-102
-289	-39	-35
-300	-134	42
-235	-174	101
-115	-163	74
18	-136	-42
120	-125	-177
162	-135	-278
143	-143	-252
96	-118	-118
57	-46	18
60	56	106
104	150	98
166	197	-4
209	189	-107
206	147	-157
152	104	-97
61	85	-4
-34	89	32
-122	88	46
-186	54	41
-229	-23	41
-242	-120	15
-214	-191	-6
-133	-191	-42
5	-107	-81
167	34	-67
310	174	-44
373	255	-70
324	236	-78
179	121	-51
-17	-45	-42
-182	-204	-6
-269	-305	39
-259	-317	65
-181	-252	60
-93	-147	62
-45	-49	52
-61	2	36
-120	1	100
-179	-37	133
-187	-71	64
-117	-69	-22
19	-15	-130
178	77	-218
287	168	-253
295	221	-261
180	211	-172
-20	145	-53
-229	45	19
-366	-49	13
-375	-118	-16
-269	-152	2
-110	-148	12
22	-118	53
77	-68	106
59	-16	118
22	31	49
21	54	-86
80	42	-178
169	2	-155
231	-43	7
226	-57	292
160	-20	450
75	64	308
27	157	-28
35	197	-358
69	154	-590
80	27	-647
22	-133	-390
-90	-258	48
-197	-290	326
-235	-222	390
-168	-90	304
-24	41	107
129	121	-82
221	137	-229
216	115	-262
133	100	-196
22	120	-76
-66	171	43
-104	219	62
-84	224	52
-26	166	63
49	60	91
118	-50	69
156	-124	-7
137	-137	-74
45	-100	-138
-110	-46	-176
-281	-15	-139
-406	-33	-34
-415	-94	32
-287	-169	60
-64	-219	45
178	-214	-4
338	-151	-55
366	-49	-150
269	51	-196
107	115	-135
-25	119	57
-76	67	308
-35	-11	428
50	-87	351
108	-122	150
93	-105	-125
2	-33	-387
-127	77	-490
-228	194	-368
-259	289	-112
-213	330	94
-127	298	186
-50	187	162
-14	30	67
-19	-124	-38
-28	-228	-100
1	-240	-111
86	-164	-60
204	-38	51
301	72	179
319	116	133
231	67	-57
64	-48	-179
-113	-178	-282
-237	-268	-311
-263	-283	-193
-208	-233	-25
-116	-143	53
-41	-52	65
-12	15	108
-20	57	116
-32	81	152
-24	94	151
3	96	108
28	85	48
21	60	-26
-23	27	-84
-83	0	-88
-120	-13	-52
-102	-12	-96
-31	-6	-145
60	-5	-182
137	-5	-111
170	1	4
169	29	132
166	83	219
195	150	175
256	208	43
319	230	-158
326	202	-290
230	129	-353
28	32	-310
-234	-66	-159
-469	-147	40
-595	-202	107
-564	-232	24
-394	-237	-26
-170	-219	-51
28	-178	-10
132	-116	58
131	-31	91
66	64	91
7	169	52
-3	265	-57
42	332	-116
115	344	-89
157	278	16
150	136	152
98	-55	169
34	-241	103
-1	-362	29
-3	-383	24
14	-311	56
23	-196	91
8	-106	63
-24	-79	-62
-43	-105	-167
-25	-137	-228
28	-116	-243
96	-18	-226
136	129	-102
129	259	61
77	301	21
5	236	-101
-52	100	-171
-86	-31	-185
-96	-92	-116
-99	-70	-6
-103	-6	119
-101	35	147
-80	18	84
-27	-41	-21
42	-93	-86
110	-77	-90
144	18	-74
135	154	-5
96	261	76
52	283	123
29	213	105
24	89	10
20	-31	-83
-6	-111	-88
-63	-149	-80
-132	-174	-84
-185	-202	-40
-189	-227	-27
-143	-216	-17
-59	-136	-4
36	4	-13
116	158	-25
172	258	-52
189	260	-70
154	170	-38
56	47	46
-101	-33	119
-275	-37	200
-410	24	241
-439	87	144
-350	89	11
-184	6	-86
-22	-133	-135
56	-256	-113
38	-301	-9
-25	-254	74
-44	-150	76
36	-51	-23
203	-9	-236
370	-32	-362
445	-84	-326
385	-110	-172
229	-75	38
75	15	120
2	121	61
22	189	-49
79	189	-176
86	127	-265
8	45	-272
-133	-13	-137
-251	-25	83
-269	0	137
-170	27	87
-4	24	29
142	-14	9
207	-59	57
172	-67	39
75	-11	54
-31	104	87
-108	228	105
-140	290	91
-142	252	35
-126	110	0
-100	-83	-14
-72	-250	-6
-49	-322	17
-39	-277	29
-45	-147	2
-60	7	-38
-68	112	-78
-57	138	-100
-28	89	-137
10	6	-151
49	-60	-114
98	-80	-63
175	-40	-25
285	33	13
406	109	9
467	153	-36
401	144	-75
178	82	-97
-152	-16	-39
-475	-125	77
-659	-215	134
-631	-260	129
-420	-253	130
-135	-192	35
85	-99	-102
160	5	-143
98	93	-138
-22	148	-129
-101	157	-104
-93	122	-39
-14	64	-10
79	6	-38
123	-27	-52
115	-23	-76
81	12	-140
72	55	-140
110	77	-69
175	59	64
212	5	239
180	-64	276
78	-111	175
-58	-112	69
-161	-67	-54
-184	0	-264
-119	59	-330
4	85	-195
130	71	-131
221	35	-122
253	2	-27
233	-15	96
170	-11	149
78	1	101
-38	11	21
-172	14	-46
-300	19	-44
-392	32	4
-419	55	46
-363	80	129
-240	92	162
-82	83	147
66	54	113
164	22	16
198	-7	-104
174	-27	-170
113	-52	-192
40	-94	-217
-24	-156	-200
-67	-215	-140
-87	-242	-84
-89	-209	-34
-86	-114	-32
-88	12	-84
-99	115	-119
-104	153	-116
-79	104	-48
1	-3	87
139	-118	240
302	-181	275
446	-162	163
502	-64	37
450	75	-66
300	203	-113
107	279	-70
-60	282	44
-170	215	141
-214	99	61
-222	-32	-38
-221	-149	-80
-225	-227	-99
-221	-248	-30
-185	-216	20
-118	-140	16
-39	-44	-36
16	48	-114
26	118	-225
4	153	-320
-16	160	-356
5	142	-261
67	112	-87
138	71	32
161	27	126
98	-22	183
-36	-71	163
-188	-113	65
-273	-141	-20
-257	-147	-63
-142	-135	0
8	-108	63
114	-68	87
138	-22	89
80	33	-38
-14	88	-203
-84	132	-280
-100	155	-181
-66	140	-76
-17	90	-47
12	9	62
3	-76	196
-27	-141	236
-49	-167	196
-35	-151	87
25	-95	-5
111	-16	-51
191	72	-84
232	164	-40
216	244	17
159	305	13
75	319	-58
0	267	-117
-44	140	-178
-49	-36	-188
-27	-215	-163
4	-343	-151
20	-375	-99
14	-311	-43
-6	-185	40
-27	-59	141
-32	18	289
-20	33	352
-4	6	255
-2	-26	85
-26	-34	-80
-65	-9	-249
-93	32	-397
-75	70	-373
-6	100	-218
91	125	-43
169	158	58
175	189	111
93	187	141
-57	114	124
-211	-47	55
-315	-263	-41
-331	-466	-144
-267	-557	-256
-165	-492	-283
-61	-282	-149
13	-10	3
65	219	39
109	333	49
157	317	109
200	227	187
216	134	219
192	97	222
122	110	133
31	131	-38
-55	112	-215
-114	33	-323
-137	-79	-349
-144	-170	-297
-144	-196	-114
-144	-154	31
-134	-77	47
-99	-5	42
-36	33	29
45	48	35
123	66	121
172	106	204
190	158	242
180	187	209
156	165	93
130	83	-36
104	-24	-173
63	-113	-248
8	-139	-215
-60	-103	-115
-122	-39	-32
-157	11	-4
-152	21	-45
-104	8	-17
-32	4	60
46	43	74
115	127	35
166	218	-99
183	268	-155
164	243	-188
107	145	-241
22	4	-222
-74	-134	-100
-157	-245	62
-207	-319	137
-215	-362	133
-186	-380	76
-133	-362	69
-68	-299	59
-5	-187	26
54	-54	-45
102	53	-130
132	104	-122
136	85	-55
109	31	115
54	-12	260
-17	0	263
-88	65	120
-143	142	-92
-165	179	-273
-144	138	-395
-85	36	-298
4	-81	70
93	-144	343
149	-120	281
138	-17	60
52	117	-222
-83	218	-479
-221	250	-543
-299	211	-351
-279	138	-12
-162	76	315
14	48	478
181	57	381
288	72	82
301	61	-157
233	0	-243
113	-105	-323
-14	-224	-319
-115	-315	-92
-176	-342	100
-193	-288	118
-172	-170	119
-117	-28	69
-41	93	43
42	164	36
121	174	-11
175	157	-39
195	128	-49
175	117	-32
128	117	-24
67	109	15
7	68	32
-35	-4	11
-58	-92	-21
-62	-163	-70
-57	-186	-131
-51	-160	-169
-50	-101	-112
-49	-41	-17
-42	-7	100
-22	6	236
13	15	268
58	45	164
99	95	15
132	143	-138
148	160	-271
145	114	-332
123	16	-215
81	-95	-31
20	-166	44
-50	-163	59
-109	-89	30
-141	10	-2
-136	80	-25
-109	81	-51
-84	16	-20
-77	-66	46
-87	-111	112
-81	-77	83
-23	33	-19
100	169	-56
251	261	-40
355	267	7
336	181	34
166	41	93
-108	-84	139
-379	-155	64
-536	-165	22
-518	-140	-32
-361	-133	-142
-158	-162	-287
-8	-219	-435
33	-260	-478
-15	-240	-412
-80	-139	-182
-101	19	92
-53	174	194
33	265	181
105	261	97
136	174	-4
131	53	-19
124	-49	-9
143	-107	47
183	-124	112
204	-125	130
166	-137	95
63	-161	22
-71	-175	-53
-174	-153	-96
-195	-79	-74
-133	32	9
-17	147	163
100	229	240
188	254	171
244	225	37
283	165	-85
313	100	-251
302	53	-413
224	35	-426
48	32	-271
-189	40	-42
-409	47	82
-529	41	135
-497	15	186
-339	-36	187
-141	-105	155
12	-175	72
72	-218	-29
62	-207	-118
42	-133	-156
68	-14	-92
143	110	-23
234	196	-11
275	213	-19
238	169	-41
138	95	-91
15	30	-161
-81	-1	-173
-138	-7	-61
-161	-15	121
-166	-56	280
-157	-127	385
-117	-201	353
-43	-233	176
53	-185	-32
133	-66	-270
164	79	-446
132	191	-472
69	228	-357
28	182	-145
40	90	-10
98	7	27
148	-33	-8
132	-29	-32
29	-13	48
-126	-13	149
-263	-44	233
-320	-87	219
-273	-105	98
-157	-78	-20
-38	-16	-79
30	41	-72
32	58	-15
-2	16	16
-35	-61	15
-43	-129	-47
-27	-151	-182
-10	-115	-309
-8	-57	-323
-18	-24	-153
-20	-45	11
8	-108	61
69	-167	75
149	-171	53
204	-97	2
206	31	-42
143	158	-40
23	236	-10
-108	235	-11
-209	174	31
-232	95	60
-164	39	86
-15	21	110
170	30	129
319	36	143
375	28	108
314	4	40
148	-19	-91
-58	-26	-205
-237	-20	-250
-329	-11	-198
-336	-19	-105
-281	-47	-26
-214	-80	8
-162	-91	-40
-123	-55	-25
-72	29	-11
8	138	26
122	233	86
244	268	128
339	233	240
374	140	196
346	32	32
254	-59	-126
107	-109	-273
-76	-129	-399
-271	-148	-419
-439	-188	-288
-533	-254	-79
-509	-313	68
-369	-326	72
-153	-261	-5
70	-130	-151
226	24	-165
288	144	-44
269	192	36
219	171	83
186	123	145
190	103	192
214	142	300
229	224	433
199	294	389
121	285	247
13	169	69
-104	-37	-221
-200	-261	-521
-266	-423	-586
-288	-469	-417
-267	-391	-289
-203	-242	-200
-104	-85	-2
4	23	125
94	63	116
142	52	102
143	29	41
105	23	-20
51	47	-14
10	91	1
-11	131	13
-5	158	12
14	162	34
31	154	61
37	140	38
24	120	46
-3	83	61
-37	15	21
-58	-71	-13
-49	-157	-47
-2	-201	-99
75	-179	-120
148	-95	-84
178	19	-11
135	109	25
21	136	28
-126	95	22
-256	18	7
-319	-44	29
-297	-55	46
-208	-11	39
-94	54	-9
-5	96	-89
40	86	-173
44	34	-206
32	-23	-140
29	-47	-52
54	-24	-9
106	25	-10
161	62	2
190	55	52
166	3	174
89	-67	289
-27	-117	253
-136	-120	104
-194	-90	-89
-175	-49	-357
-84	-29	-603
41	-41	-643
153	-61	-441
214	-67	-93
222	-34	143
194	32	235
158	108	291
125	166	411
85	186	455
17	171	338
-77	130	103
-180	74	-128
-241	6	-302
-237	-69	-459
-172	-144	-382
-86	-199	-165
-36	-214	-53
-50	-186	-26
-110	-136	-11
-158	-103	-19
-135	-111	26
-26	-159	19
127	-203	-2
258	-196	-30
299	-109	-75
228	44	-72
79	198	-72
-93	286	6
-223	267	84
-280	161	150
-262	35	145
-195	-42	100
-101	-33	54
-3	38	-15
74	115	-85
113	136	-117
111	86	-63
84	-4	-19
57	-83	25
59	-101	63
100	-49	63
154	39	69
175	116	51
132	147	7
20	125	1
-117	72	-10
-225	16	-60
-252	-31	-117
-200	-74	-163
-106	-121	-210
-17	-175	-268
30	-218	-243
41	-225	-76
44	-173	130
75	-65	281
142	62	371
230	165	326
301	205	138
321	177	-121
269	104	-371
151	31	-479
-12	-11	-400
-189	-13	-95
-333	2	252
-415	1	380
-407	-38	326
-310	-113	124
-153	-184	-103
23	-212	-282
175	-169	-409
285	-59	-332
344	75	-70
354	193	190
319	256	297
228	265	238
82	235	48
-97	193	-99
-262	150	-171
-360	103	-262
-360	31	-271
-284	-76	-196
-189	-206	-184
-136	-328	-198
-145	-403	-202
-180	-403	-144
-166	-326	41
-56	-196	134
135	-50	196
326	75	213
417	150	140
351	166	74
156	124	16
-60	45	26
-192	-36	20
-186	-94	37
-75	-98	41
44	-50	26
90	28	12
37	95	-5
-61	120	40
-113	97	85
-56	48	91
95	19	79
269	35	-23
366	99	-190
325	170	-300
157	205	-331
-69	174	-221
-262	84	-52
-354	-23	47
-333	-97	56
-231	-114	24
-102	-95	26
3	-71	42
65	-85	80
86	-137	108
83	-195	128
70	-214	97
52	-160	0
29	-43	-114
-12	95	-215
-57	201	-174
-99	243	-102
-108	221	-5
-72	166	191
-6	117	322
71	93	285
116	91	168
107	87	69
53	56	-166
-17	-2	-472
-60	-78	-550
-53	-140	-387
2	-166	-332
70	-143	-358
115	-82	-188
111	-4	9
68	65	100
20	106	184
-5	110	241
5	81	213
31	27	158
36	-36	95
-6	-100	20
-101	-159	-97
-209	-210	-126
-282	-248	-72
-271	-263	-31
-162	-247	38
14	-187	124
198	-89	123
314	27	59
314	131	25
201	194	-48
17	197	-150
-169	145	-231
-282	64	-236
-295	-17	-147
-213	-71	-23
-79	-93	128
42	-84	299
117	-60	381
131	-40	267
103	-25	62
65	-17	-179
36	-7	-403
23	8	-456
10	31	-316
-13	64	-48
-40	103	160
-49	143	251
-15	171	205
65	182	56
171	155	-84
239	91	-209
216	-1	-205
90	-94	-61
-112	-159	136
-304	-173	257
-406	-141	178
-373	-88	-2
-229	-48	-158
-48	-47	-301
92	-78	-391
151	-111	-332
149	-112	-130
135	-60	65
158	30	98
216	128	55
266	191	25
249	202	29
139	171	71
-32	129	196
-189	103	368
-262	93	423
-224	87	320
-113	56	132
-5	-9	-69
36	-98	-377
1	-177	-566
-76	-213	-479
-128	-192	-348
-112	-123	-238
-36	-34	-84
52	48	37
94	113	85
59	161	49
-32	195	-10
-132	214	-67
-176	208	-84
-141	158	-74
-40	65	-48
80	-59	1
165	-190	-6
184	-292	-23
133	-344	4
48	-332	58
-36	-264	109
-79	-157	207
-67	-28	281
-7	90	245
77	171	145
151	192	24
190	150	-116
179	63	-214
120	-24	-193
28	-77	-99
-68	-70	-28
-141	-14	-52
-168	50	-113
-132	80	-118
-43	40	-59
71	-53	-21
172	-163	-30
215	-231	-52
171	-213	-50
48	-110	-26
-110	45	-14
-241	198	3
-295	298	-2
-253	313	-28
-141	244	-39
-22	117	-18
53	-36	22
58	-176	115
1	-275	248
-77	-312	290
-133	-281	160
-140	-197	-76
-92	-88	-315
-4	18	-511
103	101	-532
199	158	-297
260	198	59
258	232	329
183	249	466
51	231	441
-96	157	249
-202	28	-19
-224	-119	-294
-162	-232	-488
-59	-258	-530
14	-192	-382
14	-68	-169
-61	45	29
-162	97	233
-213	70	310
-169	3	245
-37	-48	98
122	-39	-41
242	31	-156
272	121	-227
216	174	-179
130	158	-70
61	83	37
50	-11	72
95	-79	62
159	-99	84
201	-87	91
192	-65	107
131	-59	142
41	-55	139
-48	-30	62
-107	34	-66
-125	129	-150
-108	214	-140
-83	239	-108
-75	171	-68
-100	30	-82
-148	-130	-98
-191	-243	-143
-201	-263	-153
-165	-198	-27
-106	-96	46
-61	-20	36
-63	-9	-44
-111	-56	-99
-164	-122	-145
-172	-151	-176
-104	-120	-79
20	-43	55
144	34	95
207	62	-1
180	24	-95
90	-61	-173
0	-142	-168
-36	-167	-33
-3	-115	96
66	-12	158
123	90	125
130	141	56
90	120	22
33	50	25
-7	-24	3
-20	-55	-24
-22	-31	-27
-34	33	-3
-65	104	82
-94	148	200
-98	158	331
-57	148	352
16	142	243
89	150	67
138	161	-140
150	153	-318
143	105	-436
138	24	-410
144	-60	-273
147	-111	-182
123	-106	-120
68	-52	-76
-11	7	-77
-81	23	-59
-118	-26	-88
-119	-126	-185
-101	-222	-215
-90	-254	-64
-90	-190	142
-92	-48	268
-74	105	337
-32	206	301
17	209	163
43	124	-6
23	9	-149
-38	-68	-219
-115	-69	-176
-166	-4	-8
-173	87	120
-147	145	103
-108	149	7
-79	97	-142
-61	28	-300
-42	-35	-294
-8	-88	-92
42	-135	110
89	-194	251
117	-253	239
118	-286	64
106	-260	-109
99	-171	-271
101	-47	-360
103	59	-306
82	106	-97
31	89	61
-38	32	94
-92	-11	152
-103	-9	192
-71	26	233
-20	66	258
11	66	184
11	17	47
-9	-56	-85
-12	-108	-162
25	-100	-211
94	-31	-189
158	67	-96
169	141	-24
113	161	-31
26	116	-67
-39	40	-98
-35	-28	-140
34	-66	-121
117	-66	-70
147	-46	61
84	-22	285
-53	-4	405
-191	8	309
-260	23	74
-223	44	-160
-97	69	-395
48	90	-500
162	100	-325
211	95	-55
204	80	134
162	57	268
89	30	285
-22	-1	192
-183	-37	19
-366	-70	-158
-511	-94	-235
-549	-94	-283
-442	-62	-341
-216	-2	-308
42	83	-185
236	170	-56
306	238	112
263	256	232
169	208	294
89	96	271
52	-64	117
44	-229	-89
21	-355	-198
-40	-402	-131
-124	-368	10
-193	-268	194
-205	-152	234
-152	-63	75
-63	-22	-177
27	-24	-387
86	-37	-382
123	-35	-276
154	1	-173
197	57	-49
252	105	84
292	118	246
292	85	326
238	26	250
140	-36	116
25	-68	-50
-77	-64	-210
-141	-36	-280
-162	0	-238
-149	23	-107
-121	31	6
-95	33	49
-83	43	40
-83	76	-14
-83	115	-5
-67	153	26
-24	168	87
42	157	162
117	120	142
172	72	91
195	28	6
184	-8	-69
149	-34	-55
98	-54	10
33	-71	30
-48	-86	-11
-147	-89	-84
-243	-81	-218
-305	-57	-299
-305	-21	-197
-232	26	19
-108	81	122
16	136	135
100	180	87
122	194	-80
100	169	-215
66	101	-229
54	0	-156
69	-99	-85
94	-166	71
100	-170	184
67	-110	170
2	-13	152
-69	80	160
-122	125	96
-135	102	-77
-112	13	-198
-66	-102	-267
-20	-203	-264
13	-260	-137
25	-261	-2
12	-225	49
-20	-174	13
-62	-125	-59
-100	-84	-173
-117	-44	-254
-103	-12	-145
-63	7	75
-14	-8	159
24	-61	138
36	-139	104
24	-198	3
6	-196	-88
6	-108	-86
33	58	-48
79	247	-4
118	392	90
128	438	155
103	382	171
59	250	147
28	94	151
38	-32	111
86	-109	-40
142	-134	-143
163	-130	-171
113	-114	-217
-4	-96	-279
-157	-81	-263
-279	-65	-203
-325	-52	-50
-277	-42	75
-160	-36	118
-28	-23	155
72	0	174
111	35	119
96	78	-20
60	112	-87
34	126	-88
30	114	-113
44	84	-132
52	45	-68
41	10	-43
14	-17	-101
-16	-37	-181
-26	-52	-233
-6	-66	-125
34	-72	-9
84	-69	152
125	-52	288
159	-17	260
188	29	155
215	90	9
234	154	-141
212	213	-291
128	244	-210
-28	233	75
-228	159	242
-408	34	188
-500	-106	80
-459	-223	-50
-299	-268	-192
-82	-228	-252
104	-123	-156
184	0	11
147	88	17
37	114	-5
-60	81	-18
-76	22	-65
16	-26	-39
162	-40	-23
285	-24	-51
301	-2	-55
178	-2	-39
-39	-41	-9
-281	-112	87
-443	-192	205
-481	-257	281
-388	-289	279
-191	-280	119
40	-223	-41
259	-123	-211
416	10	-407
484	158	-521
446	282	-479
306	344	-331
93	313	-201
-135	190	-14
-308	10	151
-378	-161	217
-333	-264	310
-221	-273	343
-104	-201	213
-41	-102	46
-43	-26	-70
-75	-2	-117
-80	-14	-133
-25	-23	-90
83	9	-41
188	93	-133
241	198	-235
210	283	-198
118	324	-118
22	320	16
-32	299	206
-22	279	279
34	257	187
90	181	61
110	14	-66
80	-247	-237
11	-531	-323
-68	-725	-236
-135	-726	-65
-174	-508	58
-182	-153	106
-157	190	138
-107	379	142
-40	356	126
26	183	102
77	-12	68
104	-101	34
114	-47	-5
121	92	-30
131	197	-2
141	183	78
128	48	136
74	-122	213
-16	-218	196
-107	-176	52
-153	-18	-91
-124	158	-193
-30	260	-305
77	244	-444
138	143	-485
120	42	-408
36	2	-306
-52	34	-256
-92	88	-133
-56	106	29
24	55	119
91	-40	208
89	-125	242
5	-150	215
-126	-108	138
-245	-39	48
-304	2	-86
-285	-19	-206
-198	-91	-171
-79	-163	-21
51	-190	143
169	-149	263
257	-63	271
292	22	127
258	68	3
154	59	-107
9	15	-252
-115	-37	-269
-166	-69	-111
-122	-82	-12
-10	-78	-84
102	-69	-129
143	-61	-171
89	-42	-215
-37	-8	-150
-168	41	-2
-236	93	68
-209	130	87
-107	140	104
22	123	93
124	89	109
169	45	110
158	0	112
111	-50	101
46	-102	83
-24	-144	56
-94	-163	15
-160	-138	-13
-205	-78	-47
-215	3	-50
-179	67	-76
-101	96	-120
-4	84	-133
87	56	-89
154	53	-9
188	100	39
196	193	58
179	287	14
137	332	-58
69	282	-83
-16	136	-31
-101	-63	95
-161	-251	186
-174	-354	135
-141	-345	36
-84	-233	-72
-32	-69	-301
-8	81	-445
-3	174	-261
14	200	82
66	182	320
159	155	330
257	139	160
308	129	-120
269	96	-361
144	15	-420
-21	-121	-355
-160	-278	-255
-217	-412	-92
-188	-466	29
-104	-433	8
-19	-330	-14
34	-205	-58
49	-101	1
41	-29	183
29	30	285
4	116	300
-42	244	196
-113	392	-8
-182	502	-234
-202	507	-325
-138	398	-300
6	194	-263
169	-22	-134
269	-177	85
253	-235	137
122	-216	115
-50	-184	70
-187	-192	6
-229	-257	13
-180	-329	8
-103	-353	33
-53	-294	40
-66	-170	12
-120	-44	4
-166	20	-9
-164	-2	-6
-112	-68	35
-38	-107	74
17	-62	60
34	62	3
18	206	-128
-8	284	-219
-22	251	-236
-18	127	-167
1	-12	24
29	-84	187
68	-46	201
127	68	85
201	193	26
269	258	-5
311	243	-61
296	174	-22
222	113	65
115	93	107
9	110	59
-63	131	-30
-98	109	-147
-101	37	-273
-94	-61	-341
-92	-140	-250
-98	-164	-67
-104	-136	63
-104	-84	149
-89	-44	150
-61	-32	62
-24	-39	-36
22	-37	-77
77	-9	-81
128	40	-84
166	89	-64
172	104	-38
144	80	-40
87	28	-48
20	-20	29
-39	-38	138
-83	-28	174
-110	-3	90
-127	11	-24
-133	4	-118
-121	-21	-135
-76	-47	-17
4	-54	-9
97	-38	-86
175	-7	-106
204	24	-133
182	50	-198
126	62	-192
66	56	-54
25	26	52
-12	-35	39
-69	-122	0
-177	-214	-48
-316	-268	-107
-439	-250	-118
-473	-154	-118
-383	-15	-67
-190	92	-32
32	98	22
187	-22	85
228	-218	115
167	-388	140
71	-425	108
21	-286	43
42	-22	-3
107	251	-19
148	400	6
107	357	91
-12	155	124
-161	-90	149
-264	-252	224
-276	-265	200
-191	-153	43
-67	0	-168
38	104	-310
91	122	-386
95	85	-414
81	67	-300
80	115	-105
97	221	49
116	325	89
115	362	32
85	298	-10
39	157	-44
5	13	-46
-3	-78	65
14	-96	195
34	-79	249
28	-72	279
-7	-109	249
-56	-173	102
-87	-209	-114
-64	-179	-265
17	-70	-348
135	72	-405
250	187	-353
313	227	-160
296	180	49
200	90	175
50	6	191
-103	-33	96
-215	-29	-19
-258	-7	-111
-223	0	-158
-135	-27	-160
-40	-78	-84
14	-130	35
3	-162	83
-63	-163	40
-141	-138	4
-176	-100	49
-125	-54	76
8	1	65
175	63	60
311	131	42
351	189	-78
280	224	-203
137	223	-153
-17	185	-82
-126	116	-129
-168	24	-75
-161	-80	79
-141	-183	49
-141	-265	-42
-163	-309	-91
-182	-289	-141
-173	-204	-129
-121	-77	-44
-40	56	55
41	153	99
102	192	89
122	174	-2
111	127	-100
74	76	-157
14	31	-164
-68	-11	-89
-169	-63	41
-266	-127	158
-333	-186	196
-333	-212	150
-256	-186	96
-123	-114	94
35	-30	53
182	24	7
300	29	-16
388	-3	-72
454	-34	-181
483	-25	-268
452	26	-259
334	92	-160
133	125	-31
-106	93	63
-313	3	136
-417	-99	191
-393	-157	213
-277	-139	179
-129	-60	66
-15	32	-64
38	93	-200
49	103	-297
58	80	-261
90	65	-109
137	90	20
171	145	96
158	195	95
97	195	8
19	129	-11
-36	18	-32
-46	-81	-3
-21	-125	138
9	-93	225
11	-8	171
-14	85	-14
-45	143	-194
-51	150	-321
-19	117	-232
25	68	53
46	28	200
8	-4	67
-87	-35	-162
-197	-74	-412
-269	-112	-593
-253	-136	-471
-143	-137	-155
29	-111	54
209	-74	100
337	-41	91
373	-26	54
310	-20	65
175	-5	137
12	28	234
-121	74	285
-188	101	256
-176	82	144
-114	8	-19
-53	-99	-171
-39	-188	-257
-92	-215	-184
-184	-159	4
-260	-46	164
-270	65	176
-195	121	90
-71	93	-72
37	1	-248
80	-103	-341
40	-160	-302
-48	-143	-116
-125	-66	13
-143	19	41
-92	59	42
7	34	63
107	-41	61
184	-109	116
228	-116	173
244	-42	155
242	84	109
216	191	3
163	215	-88
83	134	-175
4	-13	-136
-40	-152	33
-29	-205	141
29	-151	198
90	-26	230
102	90	121
36	130	-88
-82	84	-294
-188	-5	-453
-219	-55	-478
-148	-16	-362
-7	100	-135
128	227	87
188	272	172
141	195	155
27	16	71
-97	-173	-32
-166	-282	-118
-165	-265	-137
-117	-152	-8
-67	-14	183
-46	74	322
-48	82	292
-45	41	103
-11	9	-107
54	28	-265
124	98	-400
162	171	-435
144	202	-256
85	158	-108
13	62	-39
-38	-34	110
-59	-85	210
-61	-72	326
-65	-25	430
-79	16	340
-88	15	69
-69	-21	-222
-11	-67	-383
74	-86	-457
151	-56	-364
182	5	-137
157	66	17
97	90	68
40	63	76
19	0	40
37	-68	19
54	-107	12
33	-102	19
-52	-63	39
-172	-27	64
-267	-19	86
-278	-55	58
-181	-126	-1
-20	-192	-82
132	-213	-134
188	-165	-150
117	-58	-74
-42	65	53
-215	154	161
-307	169	233
-275	105	207
-148	-4	169
9	-107	45
107	-164	-188
110	-155	-360
29	-99	-334
-82	-32	-248
-161	17	-193
-174	34	-44
-126	30	64
-40	20	84
51	22	87
140	40	159
229	75	246
317	126	166
388	195	15
411	279	-144
357	354	-325
216	382	-383
24	319	-235
-165	147	-49
-288	-101	54
-316	-362	62
-259	-540	-6
-165	-573	-65
-86	-460	-109
-50	-257	-131
-54	-56	-164
-71	68	-114
-67	90	45
-30	46	221
33	2	505
96	15	755
133	95	712
139	209	352
121	295	-165
92	305	-623
64	235	-925
42	106	-873
21	-23	-550
0	-117	-75
-22	-154	113
-42	-143	209
-59	-109	213
-69	-66	141
-75	-26	82
-66	16	-3
-40	60	-32
10	98	-6
79	121	87
145	117	141
186	88	167
175	43	161
117	-1	7
30	-32	-162
-54	-43	-202
-105	-42	-133
-118	-43	-60
-107	-49	40
-101	-66	149
-111	-88	155
-132	-105	53
-137	-106	-100
-101	-81	-244
-18	-28	-349
86	50	-345
172	135	-145
199	204	69
157	230	213
66	194	271
-29	103	172
-97	-14	84
-128	-119	-32
-141	-178	-193
-166	-179	-268
-217	-137	-235
-283	-91	-112
-325	-74	-56
-307	-108	-53
-215	-177	-58
-69	-253	-53
79	-296	-3
198	-281	30
256	-212	99
263	-108	210
238	-1	306
194	85	315
138	130	205
69	133	-3
-2	104	-226
-68	56	-350
-105	12	-371
-102	-11	-315
-66	3	-188
-15	54	-50
33	127	35
71	194	110
103	236	196
138	241	242
175	215	177
198	183	83
190	151	24
143	124	-103
72	89	-225
4	32	-190
-38	-45	-123
-51	-129	-112
-54	-189	-76
-68	-206	-18
-105	-176	69
-145	-117	155
-162	-58	107
-132	-19	-24
-57	-1	-126
30	16	-121
97	48	-64
110	102	7
77	159	76
25	193	130
-11	183	124
-8	127	77
24	50	17
60	-25	-52
70	-68	-93
44	-77	-252
-1	-51	-377
-39	-7	-311
-36	37	-65
20	71	113
112	79	127
202	48	96
237	-23	-4
175	-123	-80
7	-222	-160
-228	-281	-211
-459	-279	-189
-603	-227	-33
-602	-157	133
-452	-114	196
-217	-118	189
5	-149	133
137	-165	91
154	-118	39
93	4	43
31	166	76
32	307	39
102	368	-129
188	325	-265
224	195	-317
166	37	-303
37	-107	-182
-88	-205	-62
-143	-259	31
-104	-281	32
-5	-281	8
76	-260	-6
84	-212	-17
12	-141	-19
-90	-63	-14
-149	-1	-2
-119	37	33
-7	58	130
139	85	299
262	137	419
333	214	337
346	291	140
325	340	-69
283	339	-262
215	292	-407
110	229	-405
-41	174	-275
-210	137	-154
-351	102	-89
-417	39	-18
-388	-64	113
-287	-195	184
-169	-308	112
-72	-346	-32
-23	-289	-165
-2	-149	-261
19	22	-217
63	157	46
123	218	308
171	201	304
178	139	164
135	72	-2
60	28	-164
-16	2	-243
-68	-30	-188
-93	-84	3
-99	-160	61
-99	-229	46
-95	-258	24
-71	-225	-48
-16	-140	-105
80	-39	-93
188	43	10
273	86	87
302	104	102
262	114	54
170	143	-71
58	190	-204
-40	233	-184
-115	244	-54
-167	207	-43
-211	131	-29
-248	42	61
-272	-35	-10
-263	-100	-132
-221	-162	-211
-145	-240	-217
-61	-334	-63
9	-412	93
63	-433	123
113	-359	57
175	-196	-1
254	3	-38
328	169	-59
359	243	-79
318	215	-39
196	134	10
22	67	74
-157	62	205
-296	117	268
-377	169	229
-397	143	102
-378	5	-48
-324	-214	-207
-231	-411	-331
-94	-479	-254
81	-356	-20
251	-84	136
381	229	119
417	445	0
354	481	-190
216	345	-356
48	122	-371
-99	-67	-188
-208	-151	-23
-273	-121	31
-311	-39	113
-321	14	120
-307	1	115
-252	-68	129
-153	-134	138
-29	-144	137
92	-85	65
180	12	-11
222	89	-44
226	109	-35
211	75	-26
198	28	19
190	14	75
178	53	34
147	123	-47
90	177	-77
13	173	-8
-63	104	110
-119	-2	210
-147	-101	250
-138	-157	96
-109	-166	-234
-63	-153	-569
-7	-137	-679
49	-130	-559
109	-119	-363
151	-80	-159
166	-6	33
144	85	126
90	154	112
20	174	93
-46	133	112
-88	59	135
-100	-8	104
-85	-39	83
-54	-28	77
-20	1	52
13	17	8
33	2	5
36	-32	45
14	-56	116
-26	-45	175
-70	8	155
-99	88	86
-89	163	3
-36	210	-61
41	228	-111
105	221	-116
120	194	-67
66	142	-16
-40	49	-83
-162	-89	-122
-257	-257	-65
-287	-407	-70
-255	-482	-160
-177	-451	-177
-85	-311	-129
-10	-119	-184
39	47	-144
56	126	-68
54	96	-42
46	-11	-24
40	-136	-38
42	-213	-12
58	-212	14
85	-137	68
110	-33	100
124	51	111
118	88	129
90	68	138
54	31	147
28	10	163
29	37	166
49	110	87
75	203	-22
81	268	-144
54	268	-248
5	204	-269
-48	98	-202
-76	0	-115
-68	-56	-37
-39	-54	-7
-10	-19	-14
-2	13	-38
-22	14	-86
-59	-24	-84
-90	-70	-33
-100	-95	61
-92	-66	173
-75	8	271
-63	103	302
-54	177	167
-31	202	-58
27	177	-206
120	117	-302
226	51	-356
297	-4	-282
290	-47	-173
191	-77	-141
21	-100	-168
-153	-107	-124
-272	-93	54
-291	-54	233
-218	-11	352
-102	9	452
-1	-18	378
40	-96	150
28	-190	-160
0	-254	-460
2	-236	-621
54	-127	-615
135	31	-374
193	177	11
178	241	319
80	197	464
-66	64	397
-191	-92	219
-235	-203	-5
-180	-233	-244
-63	-185	-341
45	-103	-320
85	-32	-243
41	0	-86
-48	-1	111
-113	-7	147
-97	4	152
7	44	166
154	95	112
268	129	49
283	131	-17
179	110	26
2	82	28
-183	68	7
-307	79	-61
-340	92	-162
-300	79	-227
-229	15	-290
-167	-89	-246
-125	-203	-118
-85	-281	43
-18	-274	152
89	-173	267
222	4	343
334	202	321
394	358	232
366	422	76
269	380	-108
128	244	-292
-16	59	-352
-139	-121	-240
-226	-263	-72
-271	-341	-23
-272	-356	-86
-225	-326	-179
-133	-263	-233
-16	-189	-144
90	-111	-61
153	-37	-35
151	23	62
99	66	193
36	89	288
2	99	349
18	103	281
72	111	130
122	120	-81
131	123	-309
81	106	-359
-5	62	-276
-85	-7	-153
-117	-82	-42
-94	-130	-8
-39	-131	-64
5	-75	-151
10	26	-131
-25	138	2
-78	230	100
-102	266	121
-78	239	129
-10	154	82
72	38	30
126	-75	4
131	-159	-34
85	-192	-50
13	-181	-35
-47	-134	-3
-75	-79	0
-67	-32	-26
-44	-3	-36
-26	10	-32
-26	24	2
-40	48	161
-43	92	326
-12	142	279
58	189	112
151	210	-62
229	196	-306
249	150	-496
191	80	-456
65	4	-277
-89	-68	-202
-222	-129	-118
-288	-178	-40
-277	-224	-1
-202	-263	74
-97	-297	97
-1	-309	84
54	-289	17
50	-219	-22
-13	-95	-71
-115	66	-106
-218	236	-51
-264	362	32
-224	406	121
-82	345	199
119	193	249
295	-9	204
363	-197	103
276	-319	-43
69	-351	-178
-158	-312	-257
-296	-249	-232
-263	-201	-72
-66	-183	130
210	-175	306
462	-134	345
597	-30	209
583	133	13
439	310	-201
223	431	-389
-28	452	-402
-277	356	-246
-494	183	-114
-639	-1	-95
-667	-142	-92
-561	-216	-114
-350	-229	-170
-104	-203	-183
89	-166	-59
175	-120	46
166	-57	6
125	27	-30
125	120	21
196	202	116
302	240	112
363	225	79
312	173	17
142	105	-22
-87	47	30
-269	6	65
-339	-28	118
-277	-68	135
-143	-120	97
-24	-166	29
25	-188	-13
2	-167	20
-46	-105	39
-60	-20	34
-4	63	-11
103	123	-82
211	162	-210
268	181	-318
251	189	-255
180	182	-104
94	152	51
34	97	171
16	25	278
29	-35	373
46	-60	403
48	-39	256
27	9	-97
-20	47	-435
-84	36	-646
-159	-37	-687
-235	-150	-536
-288	-251	-193
-296	-283	109
-234	-233	221
-104	-112	224
59	21	102
198	106	32
254	113	-34
207	37	-102
67	-77	-56
-99	-177	34
-236	-216	89
-296	-178	51
-273	-75	21
-194	59	38
-94	169	54
-2	211	55
75	158	52
134	23	7
184	-151	-28
222	-292	-63
238	-345	-96
222	-286	-48
169	-149	49
85	-1	79
-18	85	39
-115	81	8
-187	6	-106
-215	-66	-275
-192	-72	-282
-126	13	-120
-38	151	30
43	270	162
97	312	242
121	253	194
122	145	48
124	55	-164
132	38	-363
139	92	-409
133	169	-240
104	200	-38
53	148	101
-1	30	166
-38	-99	149
-58	-178	134
-75	-183	135
-101	-126	95
-147	-51	1
-191	5	-61
-205	34	-104
-163	49	-102
-71	68	45
39	88	248
120	90	389
141	49	337
107	-36	116
46	-131	-174
-3	-189	-412
-24	-168	-485
-28	-69	-452
-39	56	-320
-74	147	-123
-123	147	2
-151	57	54
-119	-78	119
-10	-190	97
154	-232	68
326	-184	65
446	-75	12
476	50	-47
409	155	-54
263	215	-70
86	233	-181
-92	203	-197
-243	135	-136
-358	30	-57
-439	-98	3
-486	-222	-10
-496	-304	58
-455	-322	130
-362	-275	92
-223	-189	41
-58	-98	21
95	-36	-78
195	-7	-234
222	7	-223
182	29	-76
107	76	34
49	135	116
42	188	246
97	206	350
184	189	352
254	145	235
266	99	66
196	53	-129
54	1	-341
-111	-74	-454
-258	-179	-371
-337	-289	-257
-328	-359	-200
-237	-336	-116
-88	-204	-27
78	11	56
222	238	110
312	393	109
339	420	61
302	313	29
222	123	47
116	-80	81
4	-223	95
-98	-270	123
-174	-229	149
-212	-136	119
-200	-40	33
-148	26	-69
-69	51	-144
4	48	-186
48	43	-126
59	53	22
46	89	102
35	135	65
39	168	12
58	157	-69
71	95	-134
56	-3	-77
5	-106	40
-72	-171	168
-141	-176	241
-176	-122	193
-162	-39	-32
-112	32	-323
-49	68	-494
7	63	-552
51	34	-524
91	6	-353
131	3	-104
175	26	24
210	68	97
221	115	155
200	150	268
150	165	326
78	145	260
-4	89	152
-92	-6	-55
-184	-119	-209
-273	-218	-185
-338	-271	34
-356	-257	192
-306	-186	269
-190	-90	238
-41	-11	56
98	29	-105
180	33	-282
191	26	-384
148	33	-432
88	57	-356
47	84	-171
36	81	-31
35	33	60
8	-48	91
-64	-136	106
-177	-190	131
-277	-196	124
-314	-157	106
-251	-95	85
-97	-29	59
90	27	51
248	72	28
326	108	28
317	124	15
254	116	12
184	77	57
139	24	87
120	-19	32
97	-33	-45
42	-18	-58
-45	1	-60
-147	-11	-117
-225	-66	-180
-248	-147	-107
-217	-203	-57
-148	-190	-72
-70	-87	22
-11	74	152
33	233	168
66	326	51
101	330	-74
131	266	-157
147	183	-225
132	123	-229
82	95	-153
14	72	-103
-56	26	-86
-104	-53	-99
-125	-144	-144
-119	-207	-116
-95	-214	-18
-65	-171	41
-28	-113	22
12	-79	2
52	-79	-2
86	-90	32
103	-71	140
102	-1	317
90	99	462
76	179	439
56	179	321
29	91	70
-22	-47	-268
-100	-160	-517
-179	-178	-569
-223	-95	-500
-186	50	-376
-54	176	-201
147	225	-24
346	183	161
469	87	247
446	-4	261
280	-52	207
25	-54	98
-232	-43	-23
-412	-52	-170
-474	-94	-273
-435	-155	-279
-342	-198	-219
-249	-199	-136
-185	-156	-13
-148	-86	91
-109	-23	105
-37	12	82
67	7	105
194	-23	133
292	-56	134
333	-70	155
291	-50	121
180	10	-16
46	98	-145
-68	186	-166
-115	237	-157
-80	227	-141
14	153	12
122	37	184
181	-69	264
155	-127	240
38	-117	135
-125	-59	-6
-272	3	-201
-343	30	-376
-308	1	-437
-188	-61	-393
-32	-119	-292
101	-134	-153
175	-94	-45
193	-21	45
172	47	101
144	77	111
118	57	102
92	10	77
56	-37	56
10	-55	41
-37	-45	29
-68	-17	24
-77	7	36
-68	17	49
-52	16	57
-41	18	37
-29	39	13
-3	76	-13
46	121	-55
111	155	-60
171	170	-30
189	166	16
154	149	127
80	133	230
-5	121	213
-64	112	65
-89	86	-128
-92	40	-287
-94	-27	-400
-112	-99	-327
-134	-147	-50
-133	-150	176
-89	-101	240
3	-24	143
106	40	-3
174	51	-132
175	-9	-221
107	-125	-186
0	-252	-93
-110	-326	-39
-191	-318	-40
-235	-224	-112
-243	-88	-120
-217	30	-19
-160	86	-32
-66	75	-111
41	27	-167
135	-14	-136
172	-20	10
131	6	101
36	36	70
-62	51	-1
-96	41	-34
-40	27	-64
69	26	-71
167	41	-47
178	57	-41
84	43	-95
-68	-13	-115
-202	-102	-37
-241	-178	78
-177	-202	249
-54	-158	428
52	-61	461
94	38	249
67	106	-47
16	125	-301
-14	112	-468
-4	89	-472
35	78	-184
69	72	204
86	59	306
94	29	179
114	-12	-61
158	-38	-213
200	-33	-226
205	1	-165
139	40	-62
11	52	-13
-134	22	-19
-241	-42	-40
-267	-103	-35
-223	-128	-46
-141	-101	7
-64	-33	54
-13	43	71
26	106	97
71	142	79
132	163	58
187	170	-3
203	166	-37
156	136	-28
50	65	-41
-70	-37	-40
-168	-151	-33
-208	-228	-18
-199	-238	47
-163	-175	120
-124	-68	149
-88	38	79
-37	110	-53
44	131	-127
157	124	-153
269	109	-87
346	102	75
346	92	213
268	63	214
131	6	115
-23	-78	-32
-150	-153	-211
-231	-190	-271
-267	-175	-251
-279	-126	-318
-280	-79	-390
-279	-62	-327
-268	-84	-211
-234	-114	-86
-162	-114	-7
-51	-51	45
87	67	112
228	202	147
342	301	164
401	331	142
383	282	85
283	182	-36
116	62	-140
-76	-49	-209
-256	-149	-163
-361	-232	13
-375	-292	235
-291	-311	387
-141	-267	338
16	-163	126
144	-30	-151
214	76	-341
238	106	-412
239	53	-344
234	-41	-211
218	-114	-120
171	-109	-62
74	-21	-36
-75	99	45
-232	180	131
-347	169	142
-378	77	155
-318	-45	109
-202	-121	52
-81	-111	38
8	-33	28
58	57	30
89	103	34
120	87	55
155	41	59
172	22	49
151	68	45
93	161	-3
22	239	-98
-14	233	-138
8	112	-109
74	-86	-86
135	-275	-96
138	-375	-77
57	-342	-30
-76	-207	-40
-200	-46	-55
-248	64	-81
-190	93	-78
-57	59	-39
90	20	-13
188	22	-34
210	83	-76
167	170	-24
95	236	93
39	236	362
17	169	632
24	62	599
41	-41	278
48	-110	-200
28	-141	-619
-22	-147	-873
-95	-145	-778
-176	-143	-312
-243	-133	190
-267	-102	338
-232	-41	225
-139	32	16
-16	102	-186
100	142	-198
169	143	-228
172	113	-303
126	62	-302
52	10	-198
-18	-41	-35
-74	-87	144
-114	-131	276
-149	-163	301
-178	-173	276
-195	-150	152
-191	-94	93
-160	-24	74
-107	41	55
-45	80	65
14	86	77
69	68	78
115	43	37
154	23	-45
178	11	-170
183	2	-272
166	-13	-197
130	-28	-27
84	-40	-24
36	-41	-18
-10	-31	-16
-56	-23	-137
-97	-26	-274
-123	-42	-374
-116	-54	-360
-66	-39	-245
15	15	-79
106	98	130
166	171	183
172	190	130
127	125	81
49	-2	-13
-32	-144	21
-88	-236	59
-109	-236	116
-106	-153	235
-91	-40	350
-80	43	371
-71	65	228
-67	32	58
-56	-12	-133
-32	-20	-282
9	20	-320
66	93	-217
128	158	-103
182	183	-18
212	165	54
204	126	12
166	103	-30
111	110	31
66	140	47
44	159	-47
45	137	-139
46	67	-169
18	-35	-162
-49	-138	-165
-144	-218	-113
-222	-257	-9
-245	-260	26
-190	-231	29
-79	-179	50
42	-108	51
132	-23	33
162	60	26
138	124	25
85	153	42
20	137	64
-46	88	51
-121	26	-11
-206	-27	-52
-276	-63	-75
-302	-80	-87
-260	-92	-6
-164	-102	134
-52	-114	256
20	-125	299
25	-122	199
-18	-102	-44
-53	-58	-325
-27	1	-493
74	68	-517
208	126	-479
291	149	-362
262	123	-185
119	45	-50
-90	-61	21
-262	-164	63
-333	-218	128
-281	-201	253
-147	-123	410
0	-15	458
115	78	340
175	128	81
208	135	-172
229	130	-326
242	141	-361
234	183	-233
180	244	-20
80	287	71
-47	277	57
-160	191	-42
-226	44	-151
-233	-124	-140
-195	-272	-165
-147	-358	-181
-100	-370	-115
-67	-309	6
-33	-207	187
13	-92	338
83	12	343
171	89	222
262	139	59
334	177	-137
354	205	-328
306	221	-378
192	211	-246
28	161	-129
-134	63	-85
-254	-59	-40
-295	-174	4
-260	-242	-11
-187	-241	-82
-116	-184	-35
-79	-107	81
-64	-47	259
-44	-20	464
13	-14	527
103	-1	360
194	30	60
237	75	-218
204	99	-513
111	78	-621
3	9	-449
-68	-79	-150
-86	-138	79
-69	-137	143
-62	-77	145
-91	7	158
-139	71	112
-174	98	-71
-159	99	-205
-92	108	-218
-6	153	-194
57	233	-149
77	305	-24
79	327	86
97	270	64
151	137	33
207	-26	16
208	-181	12
101	-291	61
-113	-354	152
-350	-375	233
-506	-362	200
-496	-322	34
-321	-246	-110
-76	-131	-230
140	1	-297
237	126	-208
214	215	-79
138	257	-8
91	243	-7
113	191	-32
184	111	-48
242	17	-24
231	-82	30
141	-166	51
9	-215	29
-110	-214	3
-177	-153	41
-185	-53	134
-156	53	205
-113	137	207
-71	180	100
-28	181	-89
20	153	-290
69	112	-435
104	65	-437
107	24	-279
84	-4	-100
42	-4	37
6	25	113
-18	63	208
-31	76	343
-46	17	352
-67	-122	203
-89	-314	-22
-99	-474	-235
-82	-517	-387
-43	-402	-447
5	-161	-363
42	112	-105
60	308	87
59	354	260
48	266	471
34	121	501
21	13	304
12	5	8
11	77	-222
21	166	-470
44	198	-536
77	144	-312
107	33	-145
118	-72	-145
104	-115	-119
70	-87	-66
26	-16	13
-23	48	64
-79	74	72
-139	66	127
-201	50	113
-241	50	117
-226	66	175
-148	70	170
-20	33	117
106	-54	41
172	-169	-90
145	-263	-244
36	-301	-302
-102	-275	-243
-206	-212	-182
-232	-149	-85
-184	-106	40
-94	-82	84
-7	-50	56
55	17	-22
94	123	-66
128	247	-66
170	345	-1
216	388	78
248	358	87
241	270	80
188	157	76
93	37	87
-26	-66	71
-147	-153	20
-240	-221	-23
-287	-268	-54
-272	-296	-60
-200	-297	-70
-96	-268	-85
10	-208	-95
84	-123	-94
114	-23	-54
113	77	32
107	150	127
116	183	132
138	169	57
151	125	2
131	81	-38
72	59	-112
-8	70	-127
-76	91	-5
-108	92	81
-105	41	108
-87	-44	101
-80	-136	-10
-86	-183	-139
-92	-157	-234
-72	-68	-265
-19	40	-243
49	113	-147
102	126	16
102	85	58
52	30	-50
-20	-3	-119
-74	-5	-89
-91	11	31
-75	13	205
-54	-13	340
-58	-56	362
-80	-83	149
-91	-63	-173
-61	-1	-427
11	79	-593
92	132	-585
136	136	-341
111	93	-12
35	33	152
-35	-11	203
-42	-25	222
32	-18	255
147	-16	241
221	-36	129
190	-77	37
51	-118	-54
-133	-138	-108
-267	-123	-115
-288	-70	-44
-195	7	110
-50	98	125
70	185	6
121	248	-145
107	256	-270
80	183	-254
78	26	-115
105	-185	7
132	-380	66
119	-485	61
51	-453	53
-40	-301	80
-113	-108	99
-133	39	137
-110	77	202
-78	11	192
-71	-89	70
-91	-135	-18
-98	-76	-50
-46	72	-141
83	241	-233
251	344	-232
382	341	-219
397	243	-280
266	109	-320
36	0	-238
-214	-59	-61
-392	-72	45
-456	-72	87
-419	-81	125
-331	-94	96
-242	-99	63
-174	-78	51
-121	-32	57
-56	23	44
28	65	37
119	91	48
189	101	43
214	106	30
200	106	-6
162	89	-25
128	48	-45
110	-19	-58
98	-84	-83
75	-116	-138
23	-96	-149
-44	-32	-136
-110	33	-74
-137	63	39
-112	35	142
-39	-27	248
54	-88	303
134	-100	271
179	-54	278
178	23	274
150	89	103
116	108	-248
92	83	-569
86	38	-719
86	18	-765
84	40	-656
65	94	-300
28	150	118
-26	168	297
-93	138	306
-161	64	176
-224	-31	104
-262	-123	135
-267	-192	84
-219	-222	44
-119	-198	34
13	-118	70
147	-2	60
234	112	48
245	170	48
175	131	-13
42	-4	-132
-98	-189	-244
-207	-342	-242
-248	-393	-181
-221	-315	-101
-149	-144	-6
-68	39	28
-16	161	26
2	179	-13
-8	115	-37
-24	23	11
-24	-35	62
-7	-32	168
24	19	300
52	83	362
77	119	256
93	114	61
110	64	-97
135	-4	-249
151	-79	-308
139	-140	-227
80	-176	-95
-27	-176	-63
-150	-131	-77
-240	-52	-114
-252	39	-179
-174	112	-134
-31	138	-69
115	119	-129
207	68	-190
207	27	-131
122	13	1
-1	32	271
-107	62	569
-150	80	712
-120	72	684
-40	47	419
54	23	-75
124	14	-602
156	19	-915
144	22	-882
102	6	-664
36	-30	-282
-43	-74	-32
-120	-100	37
-180	-97	102
-195	-61	149
-161	-11	149
-77	33	112
28	64	50
110	74	-19
144	70	-50
119	46	16
57	2	124
-12	-64	272
-63	-141	347
-86	-196	326
-88	-204	187
-81	-143	13
-66	-31	-148
-36	102	-291
16	209	-278
85	261	-178
150	256	-77
175	206	-20
148	144	5
66	85	-6
-33	33	-14
-118	-15	-26
-156	-64	-34
-134	-107	-32
-68	-134	-45
22	-138	-55
105	-127	-62
162	-114	-48
175	-117	-11
147	-133	85
94	-144	170
46	-121	203
36	-43	109
69	85	-30
125	236	-171
155	354	-330
107	393	-349
-31	320	-238
-217	143	-91
-380	-89	-35
-443	-309	15
-383	-446	45
-228	-459	24
-55	-349	-24
63	-163	-78
104	24	-23
89	143	19
68	162	77
72	95	186
98	0	294
113	-56	250
94	-33	113
44	54	1
0	150	-182
-13	185	-309
4	117	-302
15	-35	-199
-29	-209	-92
-140	-320	-7
-279	-319	24
-375	-206	14
-357	-41	-2
-223	101	-5
-28	169	71
148	150	61
236	85	-40
231	20	-145
175	-2	-197
131	20	-208
121	70	-135
132	115	155
123	131	425
72	119	402
-13	88	164
-93	51	-141
-124	16	-394
-101	-17	-483
-42	-51	-376
12	-84	-144
38	-100	39
40	-89	163
44	-46	297
72	16	384
126	80	379
188	125	231
222	139	2
210	126	-161
152	91	-296
61	49	-376
-38	4	-312
-130	-35	-195
-202	-68	-138
-240	-97	-92
-239	-111	-84
-198	-113	-9
-129	-98	44
-50	-66	9
29	-13	44
99	60	37
164	147	65
216	226	140
250	265	129
228	237	59
130	128	-44
-32	-39	-113
-227	-215	-174
-380	-340	-194
-445	-373	-112
-393	-311	-6
-264	-195	36
-117	-91	36
-5	-39	3
44	-49	-9
45	-89	38
31	-105	34
33	-63	34
57	31	31
89	142	4
111	224	-7
119	241	8
117	192	60
115	104	80
117	10	61
111	-68	36
82	-127	-7
28	-160	-96
-35	-169	-158
-75	-150	-157
-70	-98	-135
-18	-25	-19
63	51	137
130	108	240
160	132	250
137	129	152
86	114	-30
34	106	-238
9	105	-377
22	98	-420
57	64	-378
89	0	-273
86	-81	-140
28	-143	-19
-85	-156	83
-224	-112	166
-345	-29	182
-407	47	162
-372	81	136
-247	56	103
-63	-7	39
115	-65	-54
229	-83	-77
253	-43	-27
199	28	-21
118	97	13
63	123	98
66	98	91
113	44	28
151	-4	-6
130	-15	-44
22	12	-163
-144	53	-330
-312	76	-314
-412	46	-207
-408	-24	-224
-314	-110	-200
-174	-164	-38
-50	-154	40
30	-80	81
72	26	120
110	110	87
170	135	44
258	85	-39
333	-18	-81
346	-133	-89
273	-209	-26
110	-219	112
-84	-154	234
-241	-29	305
-308	117	274
-271	243	93
-165	300	-127
-38	267	-241
61	145	-311
116	-29	-268
133	-196	-72
130	-298	75
111	-298	97
81	-211	61
33	-90	-31
-20	2	-138
-59	23	-177
-59	-18	-121
-20	-82	-25
35	-109	44
65	-76	85
36	6	80
-49	87	83
-153	126	119
-215	115	115
-195	81	43
-96	68	-17
37	106	-64
148	170	-114
191	210	-119
165	171	-105
104	41	-79
44	-135	-48
12	-273	-8
-1	-300	96
-14	-189	248
-31	13	351
-42	210	299
-23	319	93
40	294	-195
132	161	-457
211	-11	-570
231	-138	-460
171	-176	-172
46	-127	55
-88	-32	158
-181	41	155
-202	62	107
-162	17	42
-104	-60	-83
-70	-131	-160
-86	-163	-150
-140	-138	-96
-198	-78	81
-225	-6	376
-201	43	486
-130	54	326
-36	34	40
58	0	-262
139	-16	-576
206	-2	-735
258	45	-565
296	106	-154
306	153	143
270	157	271
186	103	298
57	10	218
-85	-94	235
-202	-174	240
-273	-209	134
-295	-198	-80
-290	-160	-244
-282	-120	-356
-285	-93	-501
-269	-78	-470
-211	-58	-276
-89	-21	-99
83	41	47
242	110	120
328	156	110
301	157	117
181	106	102
28	22	140
-85	-61	231
-113	-112	263
-64	-115	260
8	-79	174
57	-19	-1
60	38	-197
38	86	-356
27	121	-336
53	149	-172
107	171	29
148	183	276
138	189	419
74	179	381
-19	155	225
-91	108	-3
-101	38	-256
-51	-61	-455
24	-179	-460
72	-283	-280
58	-344	-93
-20	-326	30
-133	-236	78
-229	-105	7
-269	6	-39
-232	51	-42
-128	24	-35
6	-43	5
139	-89	12
234	-74	27
273	7	20
252	109	-4
186	168	-12
103	150	-11
33	68	14
6	-20	2
28	-58	-12
82	-17	-6
133	78	-37
147	166	-52
100	198	-48
2	158	-25
-107	79	6
-182	11	12
-191	-4	6
-149	26	-24
-91	61	-30
-68	60	-24
-109	1	3
-206	-95	36
-310	-182	48
-369	-218	28
-345	-191	11
-241	-127	56
-81	-60	86
100	-24	76
259	-16	17
381	-14	-30
439	16	-114
425	83	-251
336	170	-306
187	238	-273
18	244	-189
-119	171	-138
-185	30	-39
-178	-138	116
-123	-286	163
-72	-364	170
-65	-355	121
-104	-271	57
-157	-154	-4
-184	-52	-44
-158	-3	-10
-81	-17	-38
16	-68	-124
97	-107	-239
142	-88	-278
158	4	-163
163	141	31
170	268	232
181	325	370
178	283	301
143	171	-18
79	44	-387
-12	-29	-615
-100	-18	-615
-177	68	-407
-225	180	-58
-253	253	229
-256	253	385
-235	169	338
-183	30	174
-97	-127	70
6	-270	-49
109	-375	-80
179	-426	-54
194	-416	8
154	-340	44
78	-214	20
1	-64	12
-52	63	-25
-69	132	-19
-63	126	-30
-56	66	-36
-62	-5	-23
-84	-37	-12
-93	-12	0
-70	67	42
2	161	118
107	223	137
211	233	115
276	192	62
276	131	7
215	80	-72
121	52	-113
21	45	-67
-56	39	-2
-114	22	66
-152	-11	44
-181	-46	-37
-184	-74	-85
-148	-78	-116
-60	-66	-137
62	-44	-165
178	-18	-175
244	4	-150
231	26	-131
154	43	-98
56	59	-36
-14	65	34
-37	54	90
-36	32	89
-52	3	75
-118	-21	58
-221	-40	37
-299	-58	-6
-295	-87	-81
-175	-126	-124
13	-171	-172
181	-200	-176
234	-196	-113
140	-153	-27
-48	-81	-1
-222	-5	-6
-273	52	65
-168	84	129
41	93	158
237	96	208
317	96	222
245	88	81
76	56	-93
-93	-6	-184
-185	-83	-268
-176	-148	-312
-104	-167	-262
-41	-131	-82
-23	-58	106
-44	12	216
-59	46	149
-28	43	-7
51	25	-13
140	35	-10
182	95	-94
140	190	-186
30	265	-221
-92	264	-328
-158	159	-368
-129	-27	-150
-17	-222	178
118	-340	419
207	-334	464
201	-219	341
98	-54	65
-51	84	-211
-177	138	-363
-217	106	-334
-154	27	-174
-17	-43	51
123	-66	164
201	-39	118
182	15	55
81	57	-22
-41	75	-24
-128	68	1
-137	63	-24
-82	85	-83
-4	131	-113
54	190	-123
72	219	-90
58	194	-46
40	100	-31
29	-40	-3
18	-190	-28
-14	-298	-39
-72	-326	-20
-143	-270	3
-186	-152	39
-169	-19	93
-97	76	163
-10	103	185
41	63	127
26	-11	22
-35	-81	-88
-85	-111	-186
-64	-98	-205
34	-54	-151
171	-7	-24
265	31	65
260	57	119
149	84	126
-14	119	36
-147	157	-30
-193	174	-117
-143	150	-192
-37	70	-194
66	-45	-147
127	-162	-141
132	-230	-181
93	-228	-176
31	-160	-86
-40	-59	56
-109	23	161
-162	62	213
-181	48	232
-149	14	221
-65	-11	164
44	8	59
135	67	-99
175	148	-172
152	215	-205
83	244	-303
1	221	-308
-66	147	-245
-110	38	-77
-135	-92	188
-155	-229	382
-167	-348	425
-158	-425	315
-116	-424	94
-39	-330	-242
54	-159	-460
143	45	-457
210	211	-316
254	287	-140
280	256	66
291	148	200
274	27	142
205	-44	90
79	-45	34
-91	1	24
-253	50	-11
-364	56	-91
-387	18	-180
-330	-39	-273
-236	-65	-233
-145	-36	-63
-80	41	100
-23	124	152
52	168	164
160	147	110
277	76	58
358	3	16
351	-33	-18
249	-21	-67
87	27	-111
-72	68	-54
-172	74	1
-189	31	123
-147	-33	201
-87	-95	182
-41	-121	98
-20	-109	-83
-13	-71	-232
-1	-31	-357
13	-4	-349
19	6	-198
0	2	-90
-42	-11	-22
-93	-25	15
-120	-39	43
-106	-46	93
-58	-42	140
0	-20	115
37	14	77
39	49	100
13	69	82
-8	58	6
-3	14	-31
34	-50	-8
78	-110	-49
94	-145	-201
57	-139	-327
-29	-92	-302
-122	-16	-218
-175	66	-140
-150	124	8
-47	138	161
80	92	257
172	-6	265
181	-125	199
100	-225	124
-23	-260	45
-126	-218	-59
-150	-113	-142
-78	6	-165
52	85	-197
181	100	-234
242	59	-192
210	9	-76
96	-8	13
-53	35	52
-181	119	38
-247	195	-17
-237	215	-55
-172	159	-32
-81	56	52
-2	-42	190
44	-84	352
56	-56	416
42	6	292
23	48	54
7	27	-198
-2	-60	-412
-14	-167	-508
-32	-218	-403
-54	-167	-149
-62	-17	34
-36	166	61
36	298	58
150	318	46
266	221	34
345	68	-2
346	-61	-56
269	-107	-93
138	-63	-105
-6	22	-75
-117	85	-43
-181	77	-11
-203	2	-26
-203	-98	-62
-198	-173	-60
-187	-190	-9
-156	-164	53
-97	-117	74
-21	-82	74
44	-57	65
74	-33	20
52	11	-16
-3	71	25
-59	121	74
-87	132	108
-68	88	65
-18	6	-37
41	-74	-147
86	-109	-251
106	-85	-193
100	-23	-13
74	36	77
33	56	-5
-16	27	-87
-61	-28	-153
-83	-71	-177
-63	-72	-210
-4	-31	-230
74	29	-149
132	70	-84
136	70	4
78	29	78
-23	-29	174
-116	-71	212
-169	-84	181
-173	-64	117
-145	-37	8
-125	-24	-69
-124	-40	-99
-131	-80	-50
-117	-116	-18
-50	-125	60
69	-91	130
210	-20	121
324	68	51
359	152	-37
302	209	-82
170	236	-152
-5	228	-154
-180	193	-82
-307	123	8
-360	25	48
-325	-92	10
-211	-196	-39
-50	-258	-78
114	-247	-91
229	-163	-60
269	-38	-23
234	78	-26
150	136	-11
63	121	-8
-2	51	-24
-40	-29	-7
-71	-78	-5
-107	-74	-37
-149	-30	-31
-177	21	-1
-169	51	96
-117	50	263
-31	28	354
59	7	300
132	4	81
174	29	-171
183	77	-426
167	131	-581
129	179	-471
71	203	-188
4	188	12
-57	119	82
-90	-2	79
-86	-159	1
-57	-304	-10
-40	-389	-21
-61	-379	-36
-123	-273	-10
-189	-116	-36
-206	28	-121
-140	105	-160
-2	97	-104
144	31	21
234	-34	160
221	-47	205
121	8	261
6	109	279
-62	203	124
-47	238	-80
24	193	-248
86	85	-364
85	-38	-372
6	-138	-233
-109	-189	-75
-188	-191	-7
-182	-163	4
-87	-117	29
52	-59	65
175	18	142
234	117	271
219	228	281
158	310	193
83	327	55
16	255	-89
-40	100	-236
-92	-92	-331
-140	-258	-201
-174	-343	-43
-182	-326	-9
-159	-235	-41
-115	-118	-99
-70	-27	-154
-39	10	-135
-16	6	-68
24	-5	-39
99	5	-5
202	48	30
295	104	50
319	137	64
236	123	76
49	64	84
-175	-11	127
-366	-70	149
-448	-93	124
-411	-81	65
-292	-59	-11
-157	-45	-108
-56	-35	-209
-7	-8	-200
11	56	-92
29	160	94
68	261	268
125	311	316
183	261	170
226	119	-79
245	-67	-226
245	-227	-408
216	-296	-507
154	-263	-345
45	-178	-116
-87	-103	-7
-202	-89	13
-248	-131	41
-194	-191	57
-60	-203	130
91	-137	189
180	-12	171
164	125	51
61	218	-8
-62	244	5
-126	218	29
-96	179	116
2	157	125
107	150	56
148	134	-111
107	82	-278
15	-9	-412
-72	-114	-444
-115	-186	-332
-106	-194	-145
-78	-138	31
-65	-47	96
-76	33	115
-89	79	144
-67	88	175
6	80	111
110	79	68
206	83	59
238	80	16
195	46	5
95	-14	24
-12	-85	11
-81	-133	3
-93	-137	41
-60	-104	86
-24	-59	111
-12	-40	119
-31	-58	144
-68	-102	36
-91	-126	-167
-82	-101	-291
-40	-18	-315
10	96	-265
36	195	-162
20	241	-74
-34	225	-127
-96	163	-202
-127	89	-147
-109	20	-90
-50	-37	-18
14	-99	48
45	-170	102
24	-242	137
-34	-283	103
-100	-271	78
-130	-196	30
-117	-78	22
-72	37	22
-20	113	-15
15	131	-25
42	106	-18
68	69	5
104	38	34
131	15	44
126	-14	40
69	-58	62
-22	-109	44
-103	-139	-10
-123	-122	-44
-59	-53	-96
59	39	-164
166	113	-211
202	134	-209
149	101	-151
46	53	-4
-34	35	216
-42	71	411
22	142	419
100	197	240
124	192	49
57	114	-163
-79	4	-437
-211	-83	-602
-272	-104	-534
-227	-64	-319
-105	-15	-159
20	-9	37
94	-71	195
98	-174	224
69	-250	161
69	-241	56
135	-129	2
245	41	-53
343	198	-17
346	274	-18
231	253	-20
16	166	22
-215	68	24
-372	5	23
-410	-25	5
-342	-46	-62
-234	-92	-145
-159	-166	-162
-148	-241	-115
-185	-273	2
-213	-234	77
-178	-125	65
-67	10	-2
86	121	-54
226	179	-57
302	183	-22
301	164	98
238	155	242
155	168	294
89	189	213
59	183	65
68	126	-122
102	9	-314
135	-136	-406
135	-263	-320
77	-330	-136
-47	-305	-3
-221	-196	113
-378	-39	114
-459	120	19
-411	233	-39
-236	274	-65
4	233	21
222	137	120
340	21	180
338	-77	171
252	-133	36
140	-153	-164
55	-150	-306
1	-148	-297
-48	-157	-144
-123	-167	95
-219	-164	201
-299	-136	127
-304	-93	-44
-204	-50	-145
-12	-33	-171
209	-41	-145
387	-52	55
462	-31	215
421	43	130
287	162	-21
104	274	-112
-85	323	-211
-244	266	-205
-342	119	-35
-365	-58	28
-312	-195	-134
-206	-242	-272
-97	-196	-252
-29	-107	-116
-27	-30	63
-70	1	271
-107	-4	425
-85	-5	387
11	33	232
145	122	-30
248	228	-239
262	300	-324
182	298	-280
46	210	-77
-63	65	61
-103	-89	21
-67	-207	-47
-2	-263	-46
35	-254	3
20	-195	40
-28	-108	82
-63	-14	94
-39	66	35
39	120	19
139	139	67
202	127	26
196	93	-66
125	53	-80
26	18	-111
-55	-12	-225
-95	-37	-302
-96	-66	-265
-79	-93	-280
-66	-108	-263
-71	-97	-150
-92	-60	-9
-120	-8	115
-150	39	152
-164	68	164
-148	76	126
-84	75	111
23	83	104
151	103	51
253	124	6
286	128	32
234	97	93
123	38	104
7	-30	121
-65	-86	152
-80	-124	113
-61	-158	-16
-52	-196	-113
-79	-253	-186
-121	-299	-294
-139	-296	-314
-95	-211	-182
13	-49	-33
139	145	11
229	305	22
240	372	3
184	340	2
100	224	56
22	81	101
-46	-45	100
-125	-140	50
-237	-208	72
-370	-263	129
-471	-308	188
-477	-322	150
-354	-287	17
-138	-200	-112
97	-90	-217
258	11	-221
306	72	-167
262	96	-56
183	103	-31
126	126	-125
113	171	-280
121	228	-397
113	254	-265
70	228	-58
8	155	87
-42	63	140
-56	-1	90
-45	-14	-46
-37	14	-149
-58	55	-112
-113	68	65
-161	41	346
-162	-13	567
-95	-60	600
23	-71	377
140	-44	-20
207	7	-463
198	48	-794
132	62	-857
52	43	-680
-4	4	-289
-27	-38	32
-38	-76	249
-55	-106	369
-89	-139	416
-113	-167	316
-91	-180	142
1	-153	4
150	-77	-141
309	39	-194
405	166	-147
398	265	-31
280	309	61
97	289	91
-88	225	69
-223	139	42
-281	48	24
-289	-45	9
-278	-148	18
-282	-254	-10
-304	-352	-17
-321	-401	74
-299	-376	195
-212	-268	221
-66	-105	126
107	61	-65
259	179	-300
355	219	-497
380	200	-523
340	162	-289
258	142	-63
153	155	94
35	166	209
-91	131	190
-214	23	107
-315	-140	-39
-363	-306	-144
-340	-399	-215
-247	-380	-179
-114	-264	60
8	-117	302
75	-4	353
81	36	196
49	24	-12
25	17	-230
46	68	-395
117	183	-371
198	318	-109
241	395	95
208	361	137
107	211	154
-15	4	103
-101	-179	65
-115	-278	6
-62	-271	-84
16	-186	-141
74	-69	-157
78	28	-137
38	84	-70
-14	99	28
-44	76	108
-42	34	108
-16	-14	96
7	-49	160
7	-53	187
-20	-24	162
-67	27	87
-117	62	-40
-158	53	-290
-175	-12	-524
-159	-101	-549
-100	-163	-432
4	-148	-171
133	-43	65
253	106	173
321	233	215
302	269	174
221	203	41
111	70	-115
36	-57	-161
26	-117	-65
67	-90	80
104	-7	294
72	65	464
-48	83	360
-237	24	113
-405	-78	-173
-485	-175	-414
-438	-230	-541
-290	-218	-463
-112	-159	-183
37	-69	-7
123	21	56
164	91	95
192	130	76
234	131	128
275	104	208
285	65	207
234	38	141
109	36	-6
-49	56	-162
-195	65	-311
-285	26	-359
-303	-85	-215
-267	-246	-25
-205	-393	68
-139	-449	80
-75	-370	44
-6	-169	8
64	72	9
125	253	49
158	310	130
150	247	196
101	132	189
36	51	142
-13	55	72
-34	124	-75
-22	195	-207
4	193	-263
27	99	-242
36	-45	-221
33	-162	-176
31	-183	-26
34	-104	126
44	27	240
52	131	339
50	164	376
39	122	248
24	48	-28
20	-4	-300
28	-12	-452
46	10	-446
56	17	-254
49	-17	3
19	-93	145
-28	-174	82
-77	-214	-81
-112	-199	-251
-128	-139	-375
-125	-72	-353
-107	-27	-131
-76	-4	169
-32	19	324
24	75	340
86	170	235
143	281	71
175	354	-77
170	345	-104
130	236	2
65	45	59
1	-160	49
-56	-320	-31
-102	-386	-116
-143	-352	-132
-178	-245	-12
-195	-115	164
-173	-13	258
-96	37	246
16	29	101
126	-8	-153
182	-48	-460
154	-54	-615
58	-16	-535
-52	57	-331
-117	137	-82
-112	184	100
-63	171	155
-28	96	140
-59	-24	102
-159	-148	108
-269	-233	132
-318	-251	144
-255	-203	159
-97	-109	119
86	-4	57
214	84	-50
253	145	-135
221	181	-149
180	207	-112
190	229	13
254	241	87
326	225	34
343	162	-37
271	48	-81
128	-95	-97
-21	-229	-74
-119	-309	-27
-145	-305	-1
-134	-225	-17
-141	-99	-38
-207	21	-19
-310	92	162
-392	101	403
-385	65	463
-258	28	321
-48	24	53
170	67	-302
306	138	-634
320	191	-696
222	187	-522
68	105	-326
-71	-30	-154
-156	-177	60
-177	-276	155
-156	-297	115
-112	-240	24
-56	-140	-39
14	-44	15
101	15	142
198	31	289
276	28	354
306	35	302
269	71	133
172	135	-71
51	198	-238
-58	228	-333
-122	200	-308
-136	121	-158
-117	12	2
-91	-88	50
-83	-149	59
-105	-157	76
-147	-119	61
-189	-61	15
-202	-11	-15
-169	17	-83
-87	18	-171
29	3	-222
142	-15	-208
222	-16	-147
237	-2	-83
189	17	-23
90	29	19
-24	17	27
-128	-16	-22
-198	-61	-45
-217	-100	8
-178	-118	138
-86	-108	302
49	-72	398
194	-25	305
310	27	129
358	81	-51
325	137	-330
223	193	-504
95	240	-378
-24	261	-169
-111	238	-101
-176	168	-3
-240	51	126
-312	-83	225
-375	-209	315
-392	-295	249
-337	-329	-4
-206	-313	-242
-44	-258	-313
93	-181	-268
155	-92	-90
139	-4	141
88	76	302
56	137	218
85	173	18
170	179	-157
269	150	-332
328	100	-352
