File Name: not saved
Channel 2: 'Channel 2', 51280 values, raw ADC, no filters.
Channel 3: 'Channel 3', 51280 values, raw ADC, no filters.
Channel 4: 'Channel 4', 51280 values, raw ADC, no filters.

111	106	-37
103	97	-37
80	70	-27
45	28	-19
3	-17	-11
-38	-60	-7
-77	-93	-9
-105	-109	-17
-118	-108	-32
-115	-92	-44
-98	-67	-39
-67	-38	-31
-28	-11	-27
14	14	-20
56	35	-20
90	53	-19
109	68	-20
113	77	-17
98	75	-15
67	56	-13
24	24	-11
-22	-20	-15
-68	-64	-15
-106	-98	-16
-126	-115	-17
-129	-109	-17
-108	-88	-22
-65	-55	-25
-11	-23	-29
46	6	-28
92	30	-20
120	47	-18
123	62	-19
105	70	-20
72	71	-25
34	63	-25
-6	51	-25
-45	33	-32
-79	15	-32
-104	-4	-26
-113	-26	-24
-104	-49	-20
-74	-72	-20
-32	-88	-23
8	-87	-22
36	-62	-21
49	-18	-21
54	35	-17
56	88	-17
68	119	-20
86	129	-21
98	116	-20
92	88	-20
60	51	-20
9	14	-19
-49	-26	-22
-98	-66	-26
-124	-101	-25
-125	-126	-26
-110	-131	-27
-87	-113	-24
-59	-76	-24
-29	-27	-27
9	19	-27
49	55	-26
87	78	-24
113	86	-20
116	85	-19
99	76	-19
63	57	-18
23	28	-15
-18	-11	-13
-53	-51	-16
-83	-88	-20
-105	-109	-21
-115	-112	-27
-112	-97	-32
-89	-69	-37
-51	-32	-42
-3	7	-38
43	45	-32
81	84	-25
102	111	-22
109	127	-16
104	124	-12
86	101	-15
57	58	-18
19	3	-23
-24	-55	-24
-67	-110	-25
-104	-152	-21
-123	-178	-21
-124	-179	-24
-104	-158	-24
-70	-115	-24
-32	-54	-20
13	10	-21
54	66	-23
87	103	-21
110	119	-24
116	115	-23
107	98	-24
81	77	-23
45	54	-18
4	33	-13
-36	7	-10
-74	-20	-13
-100	-49	-17
-114	-74	-20
-115	-85	-31
-98	-79	-34
-66	-56	-36
-23	-24	-33
21	13	-28
61	50	-25
94	84	-22
111	108	-21
113	117	-21
100	109	-24
75	78	-22
36	28	-20
-6	-30	-18
-50	-81	-17
-89	-111	-24
-115	-115	-37
-123	-97	-40
-113	-72	-39
-87	-53	-33
-51	-48	-25
-10	-54	-20
31	-56	-14
66	-45	-18
94	-14	-18
110	31	-19
110	75	-16
95	98	-13
63	89	-13
22	51	-12
-22	-4	-15
-63	-54	-12
-94	-87	-12
-111	-92	-17
-112	-76	-22
-97	-48	-30
-70	-22	-30
-34	0	-23
8	19	-10
49	41	8
84	67	11
106	92	-1
115	106	-23
104	104	-45
81	83	-66
45	48	-74
4	6	-66
-39	-32	-51
-77	-62	-32
-106	-84	-25
-122	-94	-26
-120	-95	-26
-102	-84	-20
-68	-60	-18
-27	-23	-16
18	20	-8
59	60	-7
90	90	-12
107	104	-17
109	103	-15
96	87	-17
68	63	-12
32	31	-9
-10	-6	-12
-53	-44	-14
-89	-84	-17
-113	-110	-10
-119	-121	-12
-111	-109	-21
-86	-80	-25
-47	-37	-26
-4	9	-23
40	50	-22
77	82	-21
104	101	-23
114	108	-30
107	105	-39
87	90	-42
53	58	-30
15	14	-15
-25	-40	-5
-60	-97	-6
-86	-142	-11
-98	-166	-12
-96	-159	-30
-81	-122	-54
-54	-65	-59
-22	-2	-52
12	52	-42
40	93	-40
63	112	-25
77	115	-10
81	106	-7
72	86	-10
54	59	-22
26	24	-27
-12	-19	-24
-53	-69	-18
-95	-119	-18
-126	-157	-13
-141	-171	-12
-135	-158	-8
-110	-118	-3
-69	-56	-8
-20	7	-16
35	62	-22
86	98	-21
131	108	-20
161	99	-18
171	77	-20
154	51	-22
113	24	-27
50	0	-28
-16	-25	-26
-74	-53	-24
-113	-80	-19
-129	-99	-18
-128	-102	-16
-115	-87	-21
-97	-53	-26
-71	-8	-28
-34	34	-31
13	69	-30
69	93	-20
122	105	-20
158	109	-25
162	108	-23
135	100	-21
83	81	-22
17	50	-21
-46	9	-25
-97	-34	-30
-126	-68	-27
-135	-88	-24
-125	-87	-12
-101	-69	3
-69	-43	6
-32	-15	-8
6	9	-24
42	28	-42
76	43	-60
100	57	-63
113	64	-54
107	65	-32
86	57	-10
48	35	-2
4	3	1
-42	-35	-4
-80	-71	-9
-106	-102	-21
-117	-118	-29
-113	-121	-34
-96	-108	-43
-64	-84	-45
-26	-49	-43
18	-8	-36
62	31	-30
95	67	-20
113	92	-12
111	103	-8
94	96	-15
60	77	-25
23	48	-23
-15	15	-18
-52	-16	-16
-84	-43	-16
-106	-64	-16
-116	-77	-30
-111	-77	-36
-89	-65	-32
-51	-48	-30
-7	-25	-19
38	-5	-15
75	8	-15
98	17	-13
107	23	-14
102	31	-16
86	39	-19
60	46	-22
26	41	-19
-15	22	-19
-56	-19	-15
-93	-63	-14
-113	-99	-15
-117	-111	-18
-102	-93	-20
-71	-52	-21
-33	2	-22
8	45	-23
44	77	-24
77	90	-25
99	94	-21
107	93	-23
104	86	-21
85	74	-19
51	46	-21
8	8	-21
-36	-35	-19
-76	-75	-21
-104	-103	-23
-116	-119	-23
-113	-122	-24
-95	-118	-30
-65	-103	-30
-27	-74	-29
16	-31	-31
56	23	-25
90	72	-24
110	108	-23
113	114	-20
97	94	-19
68	55	-19
32	13	-20
-11	-19	-21
-50	-40	-18
-86	-53	-17
-111	-67	-19
-124	-80	-17
-118	-84	-20
-95	-71	-27
-56	-32	-38
-10	26	-40
38	91	-32
78	143	-17
104	169	0
114	164	17
109	134	12
90	90	-14
61	39	-39
22	-13	-59
-19	-71	-68
-60	-129	-59
-93	-179	-38
-111	-212	-24
-113	-213	-14
-97	-182	-8
-71	-121	-17
-38	-50	-30
-6	16	-40
25	68	-40
53	100	-36
81	115	-30
105	116	-27
119	108	-26
116	90	-22
88	61	-19
35	25	-13
-36	-17	-15
-106	-53	-13
-156	-81	-10
-170	-90	-10
-143	-84	-10
-89	-62	-16
-22	-35	-16
36	-5	-22
71	26	-24
86	53	-19
86	76	-17
83	88	-15
82	87	-15
81	72	-16
71	43	-19
46	9	-22
5	-29	-25
-43	-59	-26
-87	-84	-26
-118	-95	-30
-129	-92	-30
-126	-79	-27
-114	-51	-26
-93	-16	-21
-63	27	-22
-20	67	-22
38	104	-22
106	127	-24
166	134	-23
197	124	-23
188	95	-18
135	45	-18
58	-21	-22
-23	-92	-31
-89	-154	-46
-124	-195	-51
-132	-203	-47
-117	-180	-35
-96	-130	-22
-70	-72	-15
-43	-18	-12
-11	24	-15
27	51	-15
66	68	-3
99	77	7
113	80	13
107	74	19
84	58	16
48	30	9
9	-4	4
-28	-36	-12
-60	-62	-33
-89	-75	-42
-107	-78	-54
-115	-72	-68
-104	-57	-70
-77	-37	-64
-36	-7	-62
8	27	-52
44	66	-36
70	98	-19
81	115	-8
81	114	-15
71	93	-19
55	60	-22
30	18	-22
-6	-26	-17
-49	-71	-14
-96	-111	-4
-128	-137	4
-141	-143	6
-128	-125	-10
-95	-84	-32
-44	-28	-42
11	29	-50
64	77	-46
111	106	-33
147	124	-21
161	137	-31
150	148	-52
111	155	-44
51	150	-21
-16	121	-3
-72	61	8
-100	-28	28
-91	-131	42
-50	-233	37
2	-304	17
41	-334	-21
54	-309	-40
35	-229	-40
0	-102	-34
-29	51	-28
-31	206	-22
-3	327	-23
42	384	-39
78	362	-49
81	269	-46
36	133	-37
-39	-5	-27
-116	-114	-37
-170	-175	-43
-182	-191	-42
-156	-179	-43
-105	-160	-32
-60	-145	-4
-34	-136	22
-31	-121	33
-42	-92	26
-44	-46	-4
-24	12	-51
27	70	-86
105	118	-93
194	150	-80
269	156	-48
302	143	-1
283	112	34
207	69	45
101	25	34
-8	-14	0
-93	-42	-38
-136	-56	-44
-147	-58	-40
-141	-55	-44
-141	-44	-37
-148	-27	-35
-153	3	-31
-136	45	-40
-86	93	-43
-6	131	-30
79	139	-9
137	110	20
151	48	32
110	-26	29
34	-89	19
-55	-124	13
-134	-131	-8
-182	-130	-34
-203	-137	-48
-195	-161	-67
-173	-192	-81
-132	-205	-94
-75	-171	-99
-3	-83	-85
81	43	-60
162	171	-31
216	259	7
223	274	30
172	225	26
72	130	-2
-54	31	-23
-172	-51	-34
-244	-104	-48
-247	-136	-40
-180	-161	-30
-64	-175	-24
66	-174	-26
182	-133	-25
258	-52	-19
285	60	-18
279	171	-13
245	243	-4
197	250	2
135	187	-3
59	85	-17
-25	-18	-35
-118	-92	-37
-194	-123	-36
-236	-125	-33
-232	-116	-25
-177	-117	-11
-97	-125	-1
-10	-131	-1
61	-114	-6
103	-64	-5
116	9	-9
111	91	-18
105	154	-21
97	185	-42
91	180	-57
72	143	-49
39	92	-39
-20	31	-32
-96	-32	-5
-175	-94	9
-242	-147	4
-277	-182	-3
-270	-182	-9
-221	-145	-25
-135	-79	-25
-27	6	-11
89	84	-10
198	143	-12
284	171	-11
340	178	12
354	166	32
320	143	26
240	113	2
122	68	-17
-14	14	-14
-154	-55	-18
-271	-126	-57
-347	-191	-93
-375	-236	-112
-343	-248	-122
-258	-223	-105
-129	-164	-77
17	-84	-43
148	4	-12
236	84	4
254	141	4
209	173	-13
123	180	-30
34	169	-42
-25	147	-40
-49	113	-28
-50	64	-7
-57	-2	22
-94	-85	24
-161	-170	3
-232	-240	-24
-269	-273	-22
-243	-260	-16
-147	-202	-14
0	-113	-2
158	-11	-3
283	84	-6
354	159	-10
368	207	-18
335	231	-25
275	229	-27
196	204	-18
107	161	-15
7	103	-25
-104	35	-38
-212	-40	-37
-305	-127	-23
-363	-224	-21
-373	-317	-24
-328	-380	-23
-231	-384	-23
-99	-299	-23
44	-127	1
175	99	26
261	319	41
280	466	61
240	492	60
148	393	44
39	209	-2
-52	7	-51
-107	-153	-107
-118	-238	-145
-95	-249	-134
-55	-212	-90
-17	-160	-28
12	-107	29
27	-55	68
24	4	56
2	76	20
-41	156	-35
-92	229	-83
-133	268	-115
-143	265	-178
-111	208	-199
-39	104	-155
47	-28	-99
117	-171	-11
143	-299	33
116	-388	27
49	-416	70
-30	-379	117
-87	-279	155
-93	-141	113
-36	-2	21
86	109	-74
250	174	-206
423	203	-254
569	213	-202
642	233	-120
608	265	-8
451	300	52
193	305	39
-116	251	21
-420	124	18
-647	-47	-4
-765	-214	-8
-766	-322	-11
-675	-339	-4
-530	-268	4
-370	-156	5
-223	-49	13
-92	11	-11
23	18	-21
121	-4	-20
188	-23	-26
212	-16	-24
180	14	-23
95	47	-22
-15	52	-26
-108	16	-18
-137	-59	-5
-88	-150	26
27	-229	40
159	-272	13
256	-263	5
283	-198	1
248	-71	-25
193	103	-46
167	298	-52
206	468	-35
285	565	-31
351	557	-27
340	445	-15
216	279	9
12	131	28
-203	55	-11
-347	68	-38
-380	130	-35
-308	179	-30
-181	152	-15
-53	31	-15
39	-157	-44
93	-343	-78
121	-460	-74
120	-487	-41
84	-419	-6
0	-301	10
-111	-178	-4
-202	-77	-26
-224	-5	-37
-143	47	-34
12	85	-7
175	99	7
269	71	0
248	-8	7
131	-133	18
-31	-270	35
-176	-368	42
-279	-393	15
-340	-334	-16
-378	-223	-44
-399	-96	-64
-379	8	-81
-296	72	-82
-141	117	-31
52	165	29
216	237	61
302	323	78
279	395	82
175	410	78
44	345	34
-53	214	-48
-92	43	-177
-74	-113	-309
-23	-221	-345
40	-257	-263
104	-238	-105
165	-190	35
212	-137	140
234	-102	155
211	-86	46
135	-80	-82
24	-66	-153
-87	-32	-138
-152	28	-120
-141	110	-134
-59	190	-138
60	244	-80
166	257	-34
206	221	-17
162	145	2
50	59	74
-77	-4	174
-156	-31	248
-143	-14	300
-39	24	255
101	65	141
209	85	-44
216	76	-235
111	46	-360
-69	11	-383
-247	-11	-310
-340	-20	-194
-314	-19	-60
-191	-28	10
-46	-59	49
44	-119	52
41	-198	29
-42	-270	38
-144	-309	22
-201	-296	34
-174	-233	69
-75	-151	77
51	-78	48
153	-42	22
204	-39	-3
216	-40	-24
226	-6	-11
262	81	-19
317	205	-25
355	321	-4
324	368	21
189	323	46
-43	197	29
-304	52	-8
-500	-50	-11
-558	-80	-1
-438	-41	-6
-176	15	-13
141	46	-20
395	26	-6
486	-29	-8
393	-87	-16
151	-122	-18
-128	-129	-13
-341	-133	-14
-401	-148	-35
-311	-176	-28
-135	-190	-35
24	-162	-36
86	-83	-35
36	32	-36
-81	138	-14
-175	203	-18
-183	212	-35
-91	188	-44
59	157	-46
193	134	-48
256	117	-34
230	82	-23
141	16	-34
31	-67	-41
-70	-125	-49
-157	-122	-57
-232	-51	-53
-294	52	-1
-325	123	38
-308	114	39
-218	17	53
-77	-117	35
90	-224	-30
225	-248	-60
302	-182	-62
320	-70	-54
297	23	-1
259	52	119
216	21	178
175	-31	130
115	-63	51
25	-48	-25
-84	1	-119
-182	47	-223
-236	55	-282
-213	18	-276
-110	-40	-203
41	-84	-103
184	-79	-34
261	-24	2
239	58	57
136	125	44
21	139	-18
-30	88	-77
33	-18	-110
191	-129	-97
351	-199	-88
397	-186	6
253	-92	113
-59	50	97
-437	174	17
-720	219	-45
-809	160	-93
-683	17	-186
-433	-134	-316
-190	-227	-353
-42	-215	-268
1	-116	-107
11	10	63
85	93	145
253	95	171
474	34	174
639	-34	164
639	-56	115
439	-18	72
91	48	46
-279	92	41
-550	68	40
-647	-8	49
-573	-96	53
-389	-132	19
-166	-86	8
29	28	1
169	163	5
249	261	8
276	296	13
258	275	8
204	233	-13
135	190	-23
72	147	-42
38	79	-60
33	-36	-69
39	-189	-74
26	-344	-78
-23	-441	-62
-105	-445	-33
-189	-358	-23
-232	-213	-23
-207	-70	-7
-120	34	1
-3	86	18
100	109	5
161	129	-18
172	158	-24
157	182	-21
137	174	-5
140	124	-14
172	32	-16
224	-68	-4
271	-149	-3
287	-191	-35
245	-200	-64
129	-192	-76
-46	-178	-76
-236	-150	-27
-373	-80	18
-388	43	20
-260	207	25
-28	358	41
199	437	48
311	402	29
237	261	-17
1	77	-70
-288	-74	-102
-503	-137	-97
-548	-109	-90
-434	-34	-49
-250	28	13
-116	33	32
-99	-15	31
-174	-80	-1
-252	-116	-86
-236	-101	-164
-102	-53	-210
95	-5	-214
249	9	-211
290	-19	-211
215	-66	-153
99	-110	-35
27	-122	53
49	-108	29
140	-72	20
230	-32	72
249	22	105
188	93	139
93	177	155
24	247	150
26	257	147
81	179	134
139	11	104
157	-182	10
124	-316	-98
68	-316	-151
32	-168	-201
29	56	-261
44	243	-251
40	282	-111
1	145	47
-65	-117	119
-117	-379	224
-117	-519	264
-66	-481	171
6	-290	39
52	-43	-138
44	159	-295
-13	252	-401
-84	244	-382
-129	187	-211
-126	141	-43
-84	139	65
-21	171	115
42	209	79
98	214	9
139	179	-1
169	106	42
171	14	107
147	-78	133
100	-155	119
57	-198	60
38	-196	-35
45	-147	-115
61	-62	-155
44	17	-140
-27	58	-93
-142	41	-57
-259	-7	-33
-328	-43	-18
-331	-27	-7
-289	50	8
-259	149	45
-271	205	38
-321	168	0
-357	39	7
-321	-132	-5
-194	-264	4
6	-301	24
208	-232	19
346	-93	24
392	48	52
346	143	99
242	179	90
94	170	29
-81	145	-57
-260	117	-138
-402	87	-195
-448	41	-211
-353	-16	-164
-140	-77	-83
107	-124	-35
280	-157	-23
314	-181	-28
216	-206	-31
85	-238	-16
26	-254	7
98	-230	52
252	-145	106
383	-13	140
392	120	119
260	201	64
58	191	-19
-85	102	-127
-83	-16	-233
57	-92	-319
242	-71	-289
342	36	-152
283	190	2
77	312	112
-174	342	219
-360	262	245
-420	112	163
-354	-48	100
-229	-148	-11
-104	-157	-130
-16	-88	-217
54	8	-259
137	80	-157
248	100	-24
363	74	28
429	39	18
393	35	-7
239	70	-25
-3	122	-24
-264	147	-32
-470	112	-52
-569	15	-53
-548	-109	-36
-424	-208	-33
-244	-249	-82
-53	-235	-101
93	-204	-91
169	-199	-51
163	-233	101
94	-286	310
5	-300	432
-52	-234	381
-42	-86	186
30	97	-76
116	243	-379
151	294	-592
86	241	-509
-68	128	-217
-254	19	-2
-383	-29	100
-402	-4	96
-303	69	-12
-143	148	-104
1	191	-101
84	188	-3
120	149	60
167	90	66
280	22	69
452	-48	19
623	-120	20
678	-182	36
544	-215	43
225	-208	79
-174	-166	61
-503	-109	48
-647	-64	9
-563	-49	-53
-321	-66	-147
-44	-97	-211
140	-118	-160
189	-113	-58
137	-84	-6
72	-33	-14
78	28	-2
171	101	8
302	179	12
380	251	2
320	296	22
100	290	38
-216	223	41
-526	98	60
-714	-48	3
-714	-170	-49
-545	-230	-44
-267	-200	-28
6	-102	9
201	32	58
292	156	63
302	223	45
291	218	8
302	145	-62
346	39	-103
392	-57	-60
381	-105	7
277	-89	6
91	-26	-68
-132	41	-104
-304	66	-134
-358	20	-174
-280	-94	-147
-104	-228	-97
83	-320	-75
194	-330	-57
172	-244	-10
32	-95	42
-152	67	126
-279	194	224
-267	260	241
-103	268	158
147	241	36
371	206	-129
458	179	-306
359	160	-435
115	134	-398
-177	88	-201
-402	7	-42
-486	-103	64
-428	-222	117
-291	-312	135
-156	-336	167
-74	-274	154
-54	-141	91
-67	19	53
-74	147	26
-50	197	-51
-5	157	-92
42	62	-96
66	-30	-81
65	-78	-82
41	-80	-168
5	-75	-193
-31	-112	-200
-55	-218	-261
-61	-359	-210
-41	-460	-109
4	-436	42
61	-259	215
113	19	264
145	298	224
161	461	145
175	469	45
204	350	-57
254	196	-110
295	100	-72
285	89	30
204	126	84
54	132	55
-111	57	-13
-243	-98	-72
-299	-260	-93
-286	-343	-107
-242	-300	-47
-200	-152	38
-167	23	70
-113	150	77
-10	190	51
144	173	35
301	155	13
383	171	-19
326	215	-39
140	233	-30
-102	174	-30
-296	25	-56
-357	-167	-59
-279	-330	-68
-122	-408	-35
31	-384	19
120	-301	59
142	-202	91
145	-113	56
189	-15	-13
294	128	-119
425	326	-215
521	535	-236
506	670	-179
370	660	-67
130	474	22
-130	169	61
-343	-149	112
-465	-379	124
-494	-466	55
-473	-437	1
-450	-351	-66
-448	-270	-144
-448	-213	-124
-407	-157	1
-279	-68	134
-72	56	134
156	174	41
302	224	-63
287	162	-132
104	6	-194
-160	-175	-210
-355	-300	-91
-366	-308	30
-172	-210	53
127	-66	-42
363	47	-181
401	85	-295
214	48	-328
-87	-19	-182
-325	-62	54
-369	-55	91
-198	-4	13
82	61	-1
314	114	-30
397	143	74
330	158	272
204	174	411
117	196	409
114	214	234
158	204	13
170	150	-246
103	56	-470
-27	-54	-535
-144	-145	-442
-183	-196	-227
-122	-196	-16
-12	-166	87
82	-123	133
113	-90	201
99	-76	292
94	-70	301
139	-70	194
234	-64	63
317	-48	-94
330	-19	-251
251	23	-282
107	80	-209
-33	149	-79
-128	212	-32
-172	247	-38
-197	225	-13
-229	139	8
-260	9	42
-253	-120	56
-165	-191	102
0	-167	87
186	-47	49
302	121	33
295	272	-19
154	345	-63
-56	310	-78
-259	179	-63
-392	-7	-67
-447	-202	-52
-447	-374	-20
-425	-492	-7
-397	-546	-16
-356	-516	-38
-276	-394	-48
-151	-201	-21
12	37	21
193	256	26
360	400	24
493	438	30
561	379	34
536	268	22
383	156	-9
95	75	-47
-276	14	-40
-626	-52	-30
-840	-147	-84
-821	-265	-79
-561	-377	-37
-142	-434	-5
269	-413	49
527	-320	91
565	-189	100
411	-56	12
187	57	-105
19	155	-171
-18	239	-195
57	301	-197
164	331	-162
205	301	-83
139	215	-34
4	106	-15
-114	17	-57
-136	-13	-116
-42	17	-80
111	70	8
229	93	127
226	52	245
90	-42	285
-115	-131	213
-288	-153	61
-328	-78	-83
-191	74	-201
83	230	-279
405	321	-231
647	301	-74
719	193	50
580	44	135
269	-75	137
-126	-130	56
-491	-119	-62
-706	-78	-225
-708	-44	-314
-503	-44	-295
-159	-77	-255
216	-113	-136
541	-124	57
723	-85	118
740	4	111
592	123	100
310	237	79
-51	290	50
-420	247	39
-704	85	87
-822	-174	80
-751	-470	-5
-526	-715	-133
-244	-829	-231
-19	-766	-249
71	-548	-98
18	-243	120
-111	60	242
-229	296	213
-261	437	82
-190	505	-48
-50	519	-176
99	487	-276
206	395	-287
245	230	-189
215	8	-76
126	-203	8
2	-317	43
-123	-270	52
-211	-80	89
-236	149	100
-185	278	103
-83	212	103
29	-35	100
111	-334	69
150	-524	9
162	-485	-24
180	-232	-37
228	102	-16
291	345	26
334	383	79
314	233	77
219	10	-8
77	-134	-104
-68	-120	-179
-166	24	-215
-193	187	-175
-162	250	-41
-98	170	30
-33	7	21
18	-133	54
49	-162	40
61	-69	22
53	79	15
34	188	9
17	211	18
24	166	21
77	117	63
171	122	10
278	189	-87
346	258	-111
326	244	-90
195	110	-30
-21	-122	-35
-258	-358	-88
-428	-490	-137
-473	-460	-163
-375	-294	-115
-173	-80	-43
64	80	-30
259	116	-51
342	43	-35
288	-74	-25
115	-148	-15
-129	-127	-37
-366	-27	-34
-526	103	32
-550	179	81
-437	154	69
-231	27	33
-16	-149	29
128	-296	10
166	-346	-26
114	-280	-17
37	-126	8
3	43	60
31	157	128
85	171	138
90	99	123
1	-11	78
-160	-84	-4
-306	-76	-158
-321	16	-325
-159	141	-328
131	227	-315
414	211	-315
529	88	-193
411	-98	-62
118	-268	-72
-190	-346	-67
-358	-305	51
-310	-163	204
-100	15	308
132	161	210
259	229	34
232	215	-172
116	156	-339
27	87	-334
48	45	-145
169	42	11
300	60	47
326	81	74
205	83	60
-24	63	87
-243	31	62
-342	1	38
-281	-15	48
-110	-13	30
72	-1	41
184	7	39
192	3	48
131	-13	62
69	-31	74
56	-33	64
99	-13	45
162	29	38
198	69	25
184	85	-13
128	50	-74
66	-26	-80
25	-113	-69
7	-164	-57
-18	-135	-49
-88	-21	-90
-226	147	-114
-415	298	-101
-589	351	-58
-699	265	-28
-684	51	-30
-556	-224	-34
-361	-454	-34
-168	-547	-16
-32	-466	4
42	-254	16
81	-7	7
118	158	-9
172	179	-28
229	62	-62
261	-103	-72
253	-209	-19
216	-183	30
181	-32	62
175	165	106
190	305	122
189	318	91
137	209	-32
29	45	-128
-88	-77	-147
-152	-105	-135
-117	-49	-41
0	38	100
129	98	196
200	114	183
172	114	40
86	142	-163
9	209	-341
3	268	-465
59	252	-341
115	110	-110
94	-124	-19
-22	-357	29
-173	-460	93
-249	-370	155
-174	-130	134
36	130	32
266	262	-63
373	193	-154
270	-44	-219
5	-312	-189
-290	-460	-78
-466	-427	36
-456	-242	101
-305	-18	139
-135	138	89
-56	186	-34
-88	169	-148
-165	161	-241
-185	197	-210
-96	250	-100
63	236	13
205	96	89
237	-158	81
159	-418	74
42	-557	74
2	-489	124
99	-229	174
308	101	130
519	356	52
612	437	-61
531	353	-137
300	193	-185
16	70	-138
-225	46	-37
-351	98	-30
-374	145	-11
-343	112	34
-318	-19	59
-333	-199	65
-385	-339	63
-433	-368	57
-425	-269	57
-314	-99	20
-97	58	-23
182	136	-44
446	118	-70
590	40	-89
547	-28	-93
331	-41	-66
30	18	-63
-209	115	-66
-271	203	-37
-127	235	-1
139	197	25
373	115	33
446	29	13
291	-19	9
-18	-17	37
-350	22	-5
-553	60	-65
-571	60	-93
-432	8	-109
-236	-82	-78
-80	-171	-62
-12	-222	-92
-11	-207	-115
-18	-138	-98
26	-43	8
136	47	196
279	112	308
400	154	278
439	185	195
385	218	70
251	244	-112
86	236	-312
-64	171	-387
-177	38	-302
-245	-132	-186
-281	-294	-100
-291	-384	-63
-273	-368	-19
-202	-250	25
-71	-74	9
100	97	-57
260	210	-133
335	241	-142
272	198	-86
81	108	-31
-163	-4	-2
-344	-127	56
-355	-254	86
-177	-368	81
124	-439	81
405	-433	28
536	-329	-27
450	-143	-56
184	65	-110
-137	223	-84
-383	276	24
-447	221	129
-333	103	192
-121	-7	186
71	-55	141
158	-34	11
116	19	-147
5	57	-267
-93	43	-303
-107	-6	-292
-33	-53	-183
69	-58	-15
123	-6	45
74	76	85
-62	140	119
-217	153	136
-295	103	124
-255	13	80
-117	-85	16
34	-157	-66
121	-188	-140
110	-175	-168
33	-119	-105
-35	-22	-12
-35	104	37
37	231	44
133	321	32
191	339	11
170	275	3
84	155	10
-10	29	14
-63	-55	24
-54	-75	15
-10	-39	-10
36	15	-4
63	57	12
80	74	53
114	79	133
176	92	136
253	121	42
299	151	5
271	148	-34
169	82	-125
17	-54	-187
-128	-228	-176
-237	-384	-164
-303	-466	-198
-333	-446	-165
-336	-331	-104
-291	-161	-92
-173	5	-67
22	114	-3
253	145	47
417	104	96
428	28	102
253	-32	76
-30	-39	21
-278	22	-91
-350	131	-177
-186	237	-194
141	286	-105
467	256	-23
598	159	-40
436	41	-75
30	-47	-65
-459	-89	-12
-829	-104	49
-950	-140	123
-812	-223	145
-515	-340	92
-210	-426	30
-22	-417	-22
14	-277	-72
-47	-49	-92
-106	165	-71
-80	269	-26
55	223	14
249	74	28
401	-68	24
432	-110	-10
302	-30	-83
67	108	-135
-188	207	-151
-352	195	-142
-342	87	-96
-156	-41	-56
150	-102	-27
450	-65	2
636	26	21
648	94	26
495	79	38
251	-1	52
9	-74	32
-139	-58	20
-172	57	4
-109	208	-27
-15	287	1
57	230	90
85	53	138
71	-144	113
41	-246	74
10	-198	41
-13	-37	1
-35	135	-58
-57	225	-54
-69	201	-33
-53	106	-141
-2	31	-261
71	23	-294
131	76	-231
144	129	-68
100	119	97
17	31	130
-60	-100	87
-94	-209	30
-76	-260	-56
-34	-264	-77
-12	-271	-111
-39	-313	-109
-105	-379	-65
-168	-420	-36
-181	-379	-12
-130	-237	4
-42	-34	32
20	155	26
4	268	2
-105	296	-22
-262	274	-38
-392	257	-35
-426	260	-17
-337	258	3
-157	201	12
45	63	0
191	-117	-2
242	-264	11
206	-296	2
122	-188	11
42	6	7
-3	185	-5
-3	264	23
24	219	77
54	96	93
65	-19	35
42	-64	-46
-10	-42	-136
-83	1	-179
-152	1	-189
-204	-65	-134
-217	-174	-28
-188	-260	43
-116	-275	64
-7	-211	16
121	-96	-9
253	18	-55
360	100	-74
414	138	-35
405	150	35
334	151	108
238	142	121
151	119	65
98	80	-50
68	42	-134
31	26	-201
-47	47	-186
-172	92	-97
-296	123	-19
-360	112	6
-313	45	-13
-162	-41	-52
34	-98	-74
189	-68	-60
248	56	-42
216	240	9
147	410	65
96	487	155
85	427	222
86	227	160
52	-57	40
-32	-349	-66
-126	-569	-164
-160	-666	-214
-80	-628	-193
82	-486	-124
210	-298	-89
180	-127	-12
-80	-21	137
-487	22	168
-869	24	75
-991	29	-99
-743	59	-256
-165	106	-320
534	128	-373
1053	86	-272
1190	-20	-23
918	-152	134
378	-235	211
-178	-215	213
-526	-96	190
-574	64	233
-410	174	233
-207	169	117
-137	56	-65
-245	-100	-208
-452	-196	-266
-581	-175	-279
-511	-38	-228
-215	140	-96
198	274	35
558	301	105
723	230	103
645	121	55
398	41	10
106	25	-38
-93	49	-46
-139	71	-44
-61	57	-33
67	5	1
167	-43	-28
196	-48	-74
163	5	-40
96	88	23
28	145	40
-28	139	7
-84	66	-27
-156	-27	-30
-242	-88	-4
-317	-84	39
-344	-21	54
-289	51	44
-158	85	-2
18	49	-99
180	-37	-181
268	-138	-160
266	-212	-80
188	-234	-16
93	-202	22
27	-130	36
16	-38	70
41	64	111
59	161	98
24	225	77
-71	237	46
-194	188	-32
-291	94	-109
-312	-7	-113
-249	-68	-56
-131	-72	-52
-17	-33	-113
52	4	-142
59	2	-147
14	-48	-76
-56	-117	16
-129	-153	29
-179	-130	41
-189	-61	59
-137	0	38
-3	7	-7
204	-48	-46
451	-126	-81
653	-154	-87
724	-96	-63
623	25	-41
346	123	-39
-12	110	-45
-366	-37	-44
-610	-263	-42
-697	-437	-18
-645	-454	20
-497	-286	25
-307	-12	15
-102	239	0
90	354	-15
245	312	-6
346	183	4
368	84	32
302	83	37
184	165	7
52	250	-7
-42	247	-22
-79	131	-42
-70	-40	-48
-52	-174	-47
-57	-194	-75
-93	-107	-111
-130	19	-125
-137	93	-75
-89	67	79
7	-26	216
114	-115	265
196	-118	205
229	-20	53
216	132	-130
188	254	-352
159	277	-494
135	193	-419
105	52	-244
59	-69	-100
9	-122	6
-18	-93	69
3	-16	101
74	64	129
164	120	173
216	138	168
189	132	83
69	109	-27
-96	68	-93
-247	6	-137
-337	-80	-115
-354	-173	-26
-321	-257	61
-277	-307	104
-234	-322	69
-177	-314	-12
-86	-292	-104
36	-272	-122
148	-241	-64
193	-192	7
132	-119	8
-10	-35	-15
-159	38	-15
-223	79	20
-158	77	90
-4	51	93
139	32	52
175	51	-26
72	115	-106
-102	203	-162
-225	277	-189
-194	299	-158
3	247	-84
262	131	-3
446	-20	40
428	-166	49
189	-263	47
-177	-292	36
-530	-245	10
-720	-130	-5
-686	18	-2
-455	165	2
-122	277	-21
193	339	-40
406	345	-42
470	313	-50
394	252	-53
229	174	-54
44	76	-28
-89	-42	6
-138	-167	30
-99	-273	57
-4	-332	69
94	-316	54
161	-227	20
186	-90	-24
195	51	-74
223	158	-107
280	201	-113
346	182	-69
360	122	-9
276	44	26
77	-30	72
-197	-92	133
-452	-136	149
-595	-163	106
-572	-174	37
-407	-167	-40
-170	-148	-118
40	-116	-217
145	-69	-246
135	-7	-196
54	68	-216
-12	149	-218
-1	211	-101
106	235	5
267	202	-5
402	124	-55
438	31	-79
333	-43	-84
120	-77	-81
-133	-75	-52
-325	-69	-10
-393	-95	24
-321	-160	38
-149	-240	71
51	-286	158
204	-253	242
257	-131	271
204	47	129
77	221	-80
-68	328	-234
-170	343	-327
-194	279	-262
-130	174	-84
-20	57	18
82	-55	53
114	-166	68
52	-273	30
-79	-362	29
-210	-404	45
-262	-376	29
-198	-274	13
-43	-128	-31
117	22	-87
192	135	-112
132	204	-88
-30	235	-36
-208	244	28
-300	243	89
-253	225	138
-101	187	152
68	130	85
151	72	19
100	36	-30
-56	30	-98
-232	41	-148
-328	41	-160
-306	8	-120
-183	-55	-64
-28	-119	-24
89	-148	16
137	-123	67
136	-55	102
132	14	91
169	51	36
241	48	-49
314	31	-162
334	41	-251
270	96	-257
139	179	-154
-3	233	-2
-97	204	105
-114	74	155
-70	-118	118
-30	-297	70
-41	-390	-2
-115	-362	-65
-195	-238	-78
-209	-84	-104
-95	31	-88
129	84	-30
373	91	32
523	103	24
481	156	-7
263	244	-35
-38	319	-57
-274	312	-58
-343	188	-71
-231	-38	-69
-18	-296	-72
171	-497	-55
245	-580	-64
188	-527	-104
55	-375	-83
-76	-183	-38
-145	-9	-26
-157	118	16
-155	202	84
-173	256	124
-216	290	109
-245	305	26
-213	282	-46
-110	211	-156
29	93	-227
135	-52	-150
150	-196	-64
60	-304	-16
-86	-348	4
-212	-317	5
-255	-222	7
-188	-87	11
-42	51	10
125	161	12
252	215	22
299	214	53
266	166	104
175	94	121
69	23	95
-24	-27	53
-81	-50	-6
-95	-42	-74
-75	-15	-106
-37	21	-90
-8	48	-54
-3	49	-50
-30	20	-57
-82	-34	-38
-139	-87	-13
-182	-106	-9
-189	-62	-12
-160	41	-5
-105	171	4
-46	281	8
-9	318	-9
1	265	-37
-11	142	-54
-22	3	-57
-12	-103	-49
29	-152	-14
81	-147	17
118	-120	0
111	-97	1
60	-83	38
-3	-53	79
-28	17	84
31	133	20
172	267	-64
346	357	-152
468	350	-231
462	227	-203
313	24	-108
65	-185	-37
-186	-322	4
-351	-348	54
-370	-279	131
-256	-170	159
-60	-89	125
144	-65	49
320	-92	-87
445	-123	-233
502	-119	-287
476	-78	-251
331	-33	-192
54	-37	-138
-321	-112	-56
-713	-227	9
-968	-305	11
-989	-272	33
-757	-106	38
-363	135	26
22	336	58
250	386	84
238	244	78
46	-27	32
-194	-297	-16
-325	-438	-61
-278	-390	-83
-80	-196	-70
165	37	-53
344	200	-44
409	244	-21
365	213	20
272	178	9
171	195	-9
85	257	10
-2	301	42
-97	261	42
-175	112	22
-205	-90	16
-160	-258	-18
-54	-312	-43
58	-244	-23
126	-109	22
124	15	52
85	74	34
56	78	-6
83	78	-65
149	127	-179
210	231	-245
211	336	-133
142	369	-14
50	283	-17
5	103	-47
47	-102	-40
167	-242	-12
297	-273	2
346	-210	-1
280	-109	-12
107	-30	-13
-107	-1	2
-288	-7	22
-393	-12	46
-412	3	81
-360	35	103
-261	57	54
-141	45	-20
-28	8	-86
60	-31	-174
100	-36	-180
91	1	-77
57	55	30
36	81	84
49	43	84
91	-53	43
117	-176	16
78	-265	2
-39	-289	-22
-195	-240	-33
-314	-148	-51
-317	-61	-49
-189	-6	-42
16	15	-49
196	25	-46
256	46	-28
167	81	-23
-24	110	-48
-214	110	-60
-305	79	-78
-260	23	-103
-119	-23	-110
24	-46	-69
89	-49	10
45	-60	112
-66	-110	224
-166	-194	256
-173	-277	201
-61	-290	87
125	-189	-26
308	25	-126
395	282	-207
346	475	-223
178	521	-223
-38	385	-252
-231	128	-237
-337	-140	-200
-328	-309	-141
-217	-326	-85
-40	-214	-40
143	-47	29
275	85	53
308	133	80
221	97	87
41	25	71
-165	-27	65
-298	-31	47
-291	10	61
-130	70	49
120	121	21
351	150	2
466	157	-33
409	150	-44
216	126	-55
-16	83	-77
-177	16	-60
-200	-54	-24
-86	-103	16
101	-97	85
258	-25	164
306	90	182
216	202	59
25	257	-94
-194	233	-249
-351	132	-332
-387	3	-306
-300	-115	-175
-142	-191	31
-1	-217	100
64	-213	106
34	-192	91
-48	-171	52
-114	-145	22
-108	-120	-5
-27	-104	-47
80	-113	-118
143	-167	-115
120	-259	-66
25	-352	11
-91	-387	84
-152	-317	113
-130	-137	107
-44	110	32
49	327	-60
93	420	-157
69	336	-252
4	108	-265
-64	-171	-116
-111	-379	45
-133	-432	69
-145	-319	57
-164	-101	30
-173	118	-7
-141	257	-24
-34	298	-12
155	273	14
382	252	16
583	278	-5
679	340	-32
620	390	-52
395	379	-48
44	282	-21
-344	132	-7
-683	-12	2
-878	-110	-11
-873	-144	-27
-686	-147	-9
-370	-143	21
-37	-153	39
208	-159	28
311	-125	-4
279	-41	-36
181	79	-40
104	179	-12
100	207	13
164	143	46
244	14	120
275	-113	196
237	-180	191
151	-160	57
74	-76	-112
42	18	-257
58	59	-381
85	21	-375
80	-86	-223
30	-216	-18
-32	-307	123
-56	-306	168
-5	-189	105
111	33	22
239	309	-30
310	559	-103
283	694	-144
169	643	-155
9	390	-112
-143	-11	-77
-253	-451	-47
-317	-790	-7
-336	-935	7
-302	-843	22
-205	-590	3
-42	-282	-10
138	-38	-26
263	72	-60
245	53	-72
58	-28	-60
-249	-95	-9
-565	-96	22
-736	-29	26
-686	67	10
-434	147	3
-88	183	8
213	183	-6
375	174	14
371	186	22
239	224	-3
49	275	-40
-123	313	-46
-243	313	-15
-287	271	44
-233	197	145
-81	113	196
152	43	164
399	5	81
569	1	-45
584	20	-203
423	53	-302
139	74	-280
-170	70	-198
-386	31	-58
-451	-33	58
-374	-107	57
-214	-173	-2
-52	-211	-48
68	-223	-85
138	-202	-84
175	-166	-52
202	-113	-24
216	-49	-9
212	24	6
179	102	33
123	170	57
66	211	81
31	210	87
28	165	74
49	84	65
80	-15	82
100	-112	70
97	-196	40
65	-254	7
6	-283	-30
-79	-274	-46
-170	-222	-50
-248	-127	-76
-276	-13	-134
-241	93	-163
-151	161	-201
-45	169	-204
26	129	-122
37	68	-48
1	23	-45
-40	13	-64
-36	32	-85
23	57	-164
104	54	-169
143	12	-92
100	-56	15
-8	-118	85
-113	-141	70
-128	-109	20
-15	-33	4
197	51	19
407	117	14
506	150	-1
461	158	-13
280	166	29
50	189	75
-162	224	93
-321	241	76
-426	205	55
-500	86	46
-539	-107	24
-511	-334	12
-392	-530	-29
-202	-618	-78
-2	-562	-105
129	-371	-79
154	-111	-17
100	123	5
49	257	-7
74	259	-9
175	164	-38
288	41	-77
308	-31	-97
186	-21	-97
-39	48	-67
-262	121	-27
-366	140	11
-317	92	9
-169	3	-1
-33	-66	-4
21	-77	-7
4	-22	2
-9	55	13
58	106	14
212	104	1
382	62	-40
455	22	-76
380	13	-94
180	34	-57
-36	55	5
-176	40	4
-200	-11	-1
-151	-68	-16
-104	-85	-13
-102	-41	-21
-120	33	-34
-100	78	-24
5	35	-64
167	-87	-44
308	-217	20
346	-258	97
268	-149	144
130	83	137
30	332	95
21	461	-35
66	400	-178
67	163	-255
-67	-131	-203
-335	-348	-144
-637	-405	-147
-805	-311	-66
-743	-152	22
-465	-27	46
-114	-1	10
144	-57	-49
216	-134	-54
124	-167	-43
-6	-129	-42
-54	-46	-23
35	34	-7
211	72	-12
373	64	-6
439	37	1
414	20	-10
351	28	-1
318	53	17
321	77	-3
310	80	9
203	67	79
-15	50	100
-291	43	70
-500	50	4
-526	62	-58
-338	71	-122
-6	66	-198
318	60	-172
501	59	-68
476	68	-10
268	83	-12
-33	85	0
-329	60	8
-529	7	19
-598	-57	48
-523	-106	82
-330	-111	130
-68	-57	123
192	41	45
346	153	-77
331	223	-178
132	211	-227
-153	98	-199
-386	-91	-113
-422	-292	-44
-211	-432	-17
165	-441	-52
539	-311	-84
716	-91	-35
606	130	3
266	261	13
-124	272	43
-382	186	67
-408	72	86
-235	-3	72
-5	-17	58
142	-6	46
139	-25	4
26	-102	-40
-99	-209	-76
-151	-272	-82
-122	-227	-76
-77	-72	-77
-88	115	-32
-184	228	41
-311	191	64
-374	17	7
-296	-191	-68
-77	-313	-122
200	-268	-177
419	-84	-173
496	131	-82
429	260	11
271	236	14
109	106	18
-9	-23	57
-78	-47	53
-121	57	32
-166	224	-6
-197	340	-28
-188	307	-36
-112	123	-30
9	-144	-23
111	-374	-18
123	-478	-15
8	-427	4
-193	-263	39
-390	-69	45
-463	85	45
-354	162	50
-89	164	52
231	112	38
476	35	-22
563	-39	-99
491	-96	-127
324	-113	-170
151	-84	-177
29	-2	-107
-40	104	-20
-105	202	28
-197	253	30
-312	233	14
-405	152	-11
-412	38	-28
-307	-64	-50
-119	-127	-53
77	-144	-62
197	-128	-71
216	-102	-25
163	-77	13
113	-54	22
126	-25	35
216	19	48
330	76	70
387	135	43
328	179	-9
158	198	-75
-54	189	-136
-222	164	-157
-262	131	-138
-174	100	-32
-13	63	44
128	13	10
172	-53	-35
101	-136	-89
-44	-215	-133
-182	-272	-77
-245	-280	18
-195	-229	45
-56	-118	16
121	38	21
278	213	24
371	384	-32
389	515	-72
327	568	-46
194	526	0
-4	362	-18
-252	88	-46
-506	-257	-70
-713	-596	-60
-814	-843	-46
-779	-927	-48
-610	-820	-38
-337	-563	-27
-38	-245	3
232	30	23
429	187	39
518	205	69
488	127	81
344	22	51
114	-55	58
-144	-86	81
-366	-84	61
-474	-79	44
-442	-86	6
-281	-84	-52
-69	-43	-120
111	48	-158
206	170	-124
210	260	-72
170	265	-62
163	171	-62
238	33	-36
393	-59	-19
561	-32	-35
636	129	-56
536	351	-62
237	511	-66
-189	515	-54
-598	335	-9
-828	50	34
-775	-210	32
-458	-326	9
1	-261	2
405	-76	0
581	115	6
482	208	22
184	174	54
-132	62	97
-311	-36	98
-285	-57	65
-110	2	0
82	81	-72
171	105	-134
123	38	-178
1	-98	-134
-91	-227	-75
-82	-277	-57
18	-212	-50
139	-66	-50
195	88	-43
157	183	-40
60	189	13
-22	129	100
-46	52	138
-24	6	129
-2	1	47
-29	20	-51
-102	34	-175
-172	18	-271
-178	-29	-241
-98	-99	-115
28	-173	-30
129	-242	-21
144	-300	7
71	-339	35
-39	-345	87
-117	-301	99
-117	-209	53
-51	-84	-20
39	36	-121
108	117	-162
141	140	-163
161	117	-119
183	81	-28
205	67	14
182	92	-15
67	138	-62
-149	178	-24
-412	171	81
-635	97	138
-707	-37	112
-595	-202	51
-338	-344	-10
-36	-412	-55
203	-371	-42
326	-208	-8
334	38	-7
287	301	-60
245	497	-111
238	552	-136
253	445	-127
245	231	-45
184	3	28
65	-137	38
-84	-138	7
-216	-27	26
-300	106	39
-312	162	32
-253	90	30
-139	-74	14
11	-233	14
166	-286	-8
284	-196	-35
329	-14	-51
276	154	-52
143	208	-60
-22	114	-62
-155	-78	-53
-198	-263	-53
-147	-351	-54
-34	-309	-57
77	-177	-35
137	-27	-7
132	85	48
77	138	123
4	160	196
-65	177	240
-129	201	168
-188	208	31
-239	174	-124
-255	96	-271
-210	3	-313
-100	-52	-213
44	-38	-38
167	32	36
216	101	68
175	105	54
86	18	-11
9	-127	-59
4	-248	-106
71	-274	-108
167	-182	-100
213	-23	-67
163	114	-43
21	152	-50
-148	77	-54
-255	-47	-54
-248	-127	-62
-132	-100	-74
30	35	-62
163	198	9
212	290	64
184	246	51
132	78	15
109	-141	-48
129	-309	-77
159	-368	-78
122	-313	-84
-28	-210	-58
-285	-132	21
-561	-119	110
-731	-150	191
-714	-168	221
-500	-122	172
-178	4	90
125	171	-51
306	312	-217
322	369	-316
225	319	-282
105	193	-188
39	43	-103
42	-71	-35
81	-122	-20
100	-111	-26
68	-51	-12
-4	23	24
-72	96	43
-97	147	57
-61	163	65
13	135	90
91	68	100
154	-17	95
191	-95	114
215	-128	116
239	-105	45
253	-39	-76
234	34	-158
163	70	-218
45	47	-224
-83	-24	-117
-170	-103	3
-164	-141	21
-50	-107	-2
139	-14	-1
339	95	21
462	164	34
451	162	42
291	106	23
27	38	-42
-273	7	-72
-532	32	-84
-692	84	-80
-743	110	-56
-700	61	-37
-595	-63	-30
-445	-227	-43
-258	-355	-33
-46	-393	-2
166	-344	46
340	-240	59
417	-147	38
374	-103	-11
249	-103	-82
114	-97	-119
60	-40	-149
130	77	-103
286	221	-13
425	325	53
431	335	62
242	248	21
-91	106	4
-446	-28	-12
-669	-107	-28
-672	-119	-51
-465	-94	-81
-152	-63	-76
140	-47	-36
333	-34	-2
404	-9	22
391	37	38
346	92	39
297	123	20
230	113	-8
119	60	-41
-41	-5	-71
-222	-57	-55
-372	-85	-23
-442	-98	11
-412	-119	36
-311	-159	28
-184	-198	-15
-84	-196	-60
-29	-115	-94
-10	41	-79
9	236	24
51	391	155
127	448	186
209	385	86
253	240	11
229	76	-63
129	-48	-179
-2	-107	-215
-107	-118	-140
-115	-113	-62
-6	-121	-115
187	-136	-175
369	-136	-176
444	-94	-134
358	-10	-41
131	87	21
-133	154	41
-325	158	-8
-354	105	-27
-223	28	-31
-5	-25	-66
175	-22	-22
234	27	67
151	85	150
-14	106	143
-170	66	64
-248	-28	-19
-237	-139	-86
-180	-222	-131
-134	-251	-143
-132	-227	-83
-158	-174	-23
-162	-117	-4
-101	-62	-2
29	-9	-2
190	54	6
319	122	22
363	171	36
328	177	65
252	123	52
196	32	19
192	-55	3
223	-93	-30
226	-71	-48
141	-15	-50
-63	21	-18
-350	-7	-13
-631	-110	-49
-822	-249	-101
-850	-353	-116
-719	-368	-78
-470	-277	-39
-180	-112	-9
76	74	5
254	228	3
324	311	-21
288	313	-19
184	233	-2
65	74	8
0	-141	16
24	-359	-4
131	-512	-16
249	-536	-8
284	-403	-5
171	-153	-3
-65	126	1
-318	333	4
-434	418	17
-319	405	26
9	355	29
413	339	7
696	364	-26
740	386	-60
547	339	-78
244	197	-84
-5	-1	-99
-104	-175	-64
-65	-248	-4
-3	-206	47
-31	-106	60
-185	-34	7
-403	-45	-63
-571	-125	-112
-589	-199	-173
-448	-182	-188
-207	-53	-105
39	137	-2
231	290	39
358	327	48
432	231	49
462	64	28
425	-74	3
300	-123	-22
101	-78	-44
-110	0	-54
-241	43	-27
-237	14	-16
-115	-75	-44
38	-169	-60
120	-223	-80
87	-214	-111
-29	-166	-135
-138	-106	-102
-163	-54	-3
-96	-9	120
4	44	260
57	108	343
26	165	300
-54	181	135
-115	137	-74
-99	43	-280
-20	-69	-419
54	-158	-382
52	-201	-209
-32	-203	-63
-135	-187	22
-161	-168	37
-53	-150	8
137	-118	16
306	-56	20
324	34	32
169	130	21
-85	201	-13
-285	230	-46
-318	215	-101
-178	169	-128
27	108	-103
149	32	-20
104	-57	53
-84	-159	63
-289	-249	36
-389	-292	12
-325	-268	11
-153	-163	-2
18	-6	12
98	162	53
75	294	90
14	362	113
-4	352	54
46	267	-39
121	120	-101
138	-67	-148
56	-247	-144
-104	-362	-50
-251	-356	42
-297	-225	52
-213	-15	39
-47	175	13
107	250	-21
184	162	-54
178	-41	-103
133	-248	-117
116	-332	-82
157	-238	-32
238	-8	-3
310	239	-9
335	382	-35
299	358	-53
216	202	-59
113	11	-50
6	-117	-18
-91	-135	15
-174	-72	-9
-217	4	-41
-214	35	-52
-165	8	-57
-95	-39	-43
-41	-56	-13
-17	-8	46
-14	93	93
5	202	69
67	267	-5
162	256	-77
245	168	-119
266	27	-154
196	-134	-140
66	-286	-81
-59	-398	-15
-124	-444	41
-108	-394	45
-44	-259	40
14	-57	26
36	154	6
37	309	10
58	365	29
121	313	35
204	190	10
245	41	-7
175	-91	-43
-15	-189	-67
-284	-254	-86
-525	-286	-106
-654	-287	-82
-651	-244	-40
-552	-159	3
-434	-55	21
-350	28	34
-300	57	47
-236	28	24
-101	-31	-8
107	-61	-32
337	-21	-71
506	96	-91
549	247	-65
446	364	-63
245	393	-37
38	318	13
-104	181	31
-163	39	54
-158	-60	79
-139	-106	90
-142	-122	50
-163	-135	-11
-170	-167	-52
-126	-200	-95
-20	-205	-151
115	-159	-137
231	-63	-35
275	45	57
238	130	104
154	163	52
84	150	-61
72	121	-160
123	99	-233
197	91	-247
236	76	-172
210	32	-15
133	-40	76
60	-98	107
40	-93	172
83	4	184
154	166	142
184	310	42
139	338	-84
24	195	-178
-95	-70	-245
-145	-345	-245
-96	-482	-168
25	-407	-28
139	-156	47
161	136	48
55	319	49
-152	299	65
-380	106	54
-550	-141	13
-619	-304	-32
-569	-307	-72
-428	-179	-91
-223	-25	-79
6	52	-46
212	13	-18
341	-97	-8
346	-179	-16
216	-160	-7
12	-35	-18
-172	129	-19
-222	244	29
-94	252	91
162	157	116
419	17	81
548	-102	42
484	-166	-11
273	-185	-67
31	-182	-110
-130	-175	-105
-170	-158	-47
-145	-103	-76
-152	-9	-143
-245	100	-169
-392	169	-138
-496	162	-49
-448	78	-36
-245	-35	-25
29	-105	5
214	-92	31
212	-6	111
28	90	205
-206	130	241
-321	84	180
-221	-21	55
63	-118	-62
380	-144	-168
558	-79	-263
496	35	-242
237	136	-106
-87	171	0
-303	143	-4
-310	93	2
-118	76	-4
167	113	-34
407	180	-44
516	215	-71
458	181	-59
272	65	-53
36	-75	-34
-180	-173	-15
-318	-174	13
-366	-86	54
-332	41	61
-250	137	31
-163	154	-5
-101	92	7
-85	-12	4
-105	-106	5
-139	-157	22
-159	-157	12
-142	-121	-34
-81	-71	-77
23	-21	-116
153	20	-138
279	40	-131
355	22	-42
346	-37	85
238	-131	124
49	-215	109
-141	-240	13
-259	-175	-85
-232	-33	-140
-75	123	-162
139	228	-109
285	233	-62
281	157	-27
120	63	-13
-119	16	-22
-313	33	-13
-372	63	-7
-273	25	1
-77	-132	-6
131	-378	-19
277	-595	-2
338	-648	32
333	-470	32
280	-93	4
192	332	-15
44	633	-44
-162	688	-59
-389	507	-57
-569	225	-46
-614	-12	-4
-484	-107	29
-210	-62	32
111	26	32
351	55	35
432	-20	21
343	-164	-7
163	-287	-52
-4	-321	-102
-68	-246	-142
-7	-107	-182
124	26	-168
241	115	-123
254	158	-41
151	182	61
-28	201	122
-191	199	116
-269	134	39
-252	-17	-28
-174	-224	-97
-110	-408	-158
-97	-471	-164
-128	-368	-70
-153	-127	57
-118	149	102
-16	337	84
111	372	53
202	261	22
219	91	-14
186	-37	-44
166	-58	-51
205	26	-49
292	151	-43
354	244	-20
296	260	51
85	200	112
-225	101	89
-491	6	17
-595	-64	-49
-491	-118	-117
-263	-167	-187
-67	-216	-190
-15	-248	-102
-123	-237	-11
-285	-167	42
-350	-52	63
-225	65	47
63	139	29
384	142	-2
600	82	-31
628	-3	-35
506	-60	-32
346	-59	-21
238	-2	-43
193	82	-75
151	147	-83
39	163	-13
-167	120	87
-409	45	130
-569	-28	100
-561	-69	-7
-381	-65	-118
-122	-28	-211
96	21	-237
199	48	-149
196	35	-35
156	-19	19
151	-94	24
192	-158	20
226	-183	38
171	-153	59
-14	-71	94
-285	28	142
-545	114	142
-654	140	124
-561	91	65
-291	-35	-43
46	-199	-162
318	-352	-260
435	-427	-266
388	-393	-189
245	-252	-88
107	-45	12
44	149	56
74	265	49
145	269	19
191	183	-108
151	64	-222
31	-16	-238
-130	-28	-160
-261	14	-58
-311	57	-24
-277	45	1
-193	-41	18
-111	-176	24
-52	-289	31
-13	-318	65
36	-231	90
120	-54	52
216	143	24
284	294	24
277	356	18
190	334	7
62	265	7
-31	192	15
-34	142	14
44	115	1
154	96	-18
211	68	-31
172	32	-27
59	0	29
-64	-12	116
-128	7	168
-109	49	185
-44	100	164
-2	135	82
-23	138	-80
-98	109	-264
-170	48	-336
-181	-21	-335
-118	-83	-291
-24	-119	-185
31	-124	-107
16	-108	-68
-53	-86	-32
-111	-83	-7
-101	-105	4
-28	-151	24
48	-190	81
54	-192	111
-35	-132	108
-166	-11	116
-230	135	83
-139	250	81
98	275	130
380	194	171
536	28	122
459	-160	14
147	-298	-114
-275	-345	-246
-626	-301	-326
-775	-216	-353
-682	-154	-256
-423	-156	-127
-115	-217	-11
132	-289	43
275	-308	33
336	-230	9
346	-63	-51
334	138	-72
296	301	-78
216	370	-52
107	336	-32
-14	236	17
-102	131	135
-131	64	183
-105	48	118
-57	62	-16
-29	72	-107
-43	58	-204
-93	24	-236
-141	-5	-131
-159	-8	26
-121	24	152
-37	77	222
68	120	255
166	132	155
221	106	21
214	53	-113
143	-8	-224
28	-62	-235
-98	-101	-124
-191	-122	7
-215	-131	43
-161	-127	78
-48	-111	97
68	-85	109
143	-51	97
158	-18	30
127	12	-39
94	41	-123
101	78	-192
162	132	-181
252	203	-113
324	279	-61
335	341	-15
273	359	13
158	312	12
24	190	4
-88	8	5
-170	-194	20
-224	-358	23
-258	-430	-8
-277	-379	-5
-281	-213	56
-267	3	108
-231	183	106
-182	252	3
-124	171	-149
-65	-28	-255
-4	-268	-269
50	-456	-198
85	-533	-89
86	-488	-14
54	-364	52
15	-222	111
2	-98	85
50	-5	17
154	78	-48
259	166	-89
292	252	-111
200	305	-124
-8	290	-104
-253	192	-69
-416	41	-17
-423	-97	40
-271	-156	75
-48	-96	107
133	61	117
190	252	68
115	388	13
-18	406	-13
-117	294	-44
-129	83	-36
-66	-151	-21
11	-334	-1
49	-413	34
33	-376	32
-4	-249	15
-20	-89	-44
10	48	-105
64	121	-151
104	117	-161
103	63	-123
71	4	-76
45	-13	-19
57	32	8
104	123	1
148	215	-32
138	261	-25
56	233	-8
-70	136	28
-178	13	82
-209	-86	112
-142	-127	121
-16	-104	54
104	-45	-76
154	16	-203
117	48	-225
17	48	-169
-84	31	-24
-132	17	184
-110	23	278
-35	48	233
48	80	86
97	104	-96
83	106	-234
11	79	-264
-87	17	-245
-169	-67	-222
-199	-165	-126
-161	-246	-52
-59	-288	-34
71	-276	-24
193	-216	-21
269	-133	18
287	-56	109
245	-5	149
166	25	52
67	53	-30
-24	100	-96
-103	158	-192
-158	195	-226
-185	174	-157
-189	72	-18
-168	-81	72
-135	-229	111
-99	-304	133
-71	-278	110
-48	-179	46
-19	-71	-21
29	-23	-58
104	-51	-44
193	-123	17
261	-168	96
274	-131	159
216	-17	155
95	122	110
-50	207	11
-180	193	-150
-255	89	-262
-273	-38	-284
-262	-114	-233
-255	-101	-128
-258	-9	-32
-259	106	8
-225	194	-11
-136	233	-11
-9	233	9
105	215	32
136	186	66
64	124	80
-83	5	52
-203	-161	13
-203	-319	-18
-31	-384	-79
262	-298	-84
560	-77	-23
709	188	17
633	362	38
346	357	80
-19	183	109
-300	-48	80
-393	-192	6
-291	-154	-88
-85	54	-172
97	309	-235
159	452	-201
87	386	-96
-50	134	-12
-170	-178	24
-203	-403	32
-152	-444	20
-61	-320	-5
13	-121	-1
48	43	21
58	121	22
78	131	18
125	135	30
194	186	31
242	269	4
239	327	-51
172	283	-75
78	119	-86
0	-117	-110
-26	-330	-100
0	-424	-62
47	-368	-42
78	-205	6
66	-25	66
18	85	110
-46	90	145
-105	10	133
-159	-97	59
-222	-175	-101
-298	-196	-268
-375	-173	-395
-417	-125	-391
-385	-82	-275
-263	-62	-136
-90	-69	23
81	-102	98
181	-145	133
189	-185	155
128	-191	167
52	-138	130
16	-25	40
35	130	-22
80	272	-83
107	345	-122
87	316	-100
24	200	20
-50	56	150
-99	-43	191
-103	-45	107
-74	43	-39
-28	171	-147
21	260	-252
84	247	-257
166	128	-98
253	-55	91
302	-226	141
259	-318	107
96	-305	70
-156	-214	-25
-409	-95	-124
-547	-1	-177
-496	40	-132
-271	42	-11
28	34	65
266	51	60
350	99	13
271	161	-28
111	197	-59
-18	178	-70
-40	104	-67
38	4	-24
150	-74	14
204	-94	8
164	-50	9
62	26	18
-24	88	19
-27	96	0
58	43	-29
175	-36	-40
234	-98	-32
172	-96	-17
1	-17	13
-204	110	57
-350	236	63
-375	298	29
-281	250	-20
-126	88	-51
26	-147	-66
127	-384	-81
175	-538	-84
189	-547	-75
179	-403	-19
147	-157	32
66	98	28
-63	260	-10
-221	269	-21
-345	139	-43
-374	-50	-94
-281	-201	-93
-91	-233	-74
118	-144	-19
252	1	19
252	113	1
118	129	-59
-84	56	-106
-262	-42	-98
-332	-87	-76
-257	-40	-45
-57	74	1
198	183	12
423	222	-39
558	171	-100
569	75	-155
470	5	-158
290	11	-55
65	88	72
-170	171	107
-400	180	98
-610	76	79
-757	-112	38
-798	-297	-20
-699	-391	-77
-445	-351	-76
-93	-207	-36
273	-43	32
524	59	133
579	66	242
431	8	280
162	-45	178
-88	-34	-11
-210	54	-208
-152	178	-378
32	268	-462
242	274	-373
373	189	-160
369	61	-4
258	-36	49
105	-63	100
-16	-24	104
-78	34	81
-92	53	68
-81	6	57
-69	-97	7
-55	-196	-66
-31	-237	-74
6	-192	-54
44	-79	-21
62	49	-2
57	145	29
43	179	55
48	161	44
86	122	22
147	86	6
189	61	-8
181	26	-26
111	-38	-13
4	-136	1
-91	-241	2
-144	-312	3
-148	-311	-16
-133	-230	-30
-135	-96	-62
-174	53	-103
-237	177	-120
-285	256	-132
-277	291	-103
-200	289	-17
-67	253	81
78	180	175
190	72	196
231	-47	108
187	-147	-11
71	-184	-126
-75	-150	-178
-194	-54	-144
-235	40	-133
-174	74	-126
-34	9	-118
120	-139	-117
212	-312	-120
188	-432	-89
48	-434	-17
-141	-313	10
-295	-113	-1
-333	88	-24
-253	211	-27
-98	233	22
40	162	129
94	64	209
50	-2	140
-53	-3	7
-147	44	-111
-173	97	-238
-120	106	-316
-21	55	-240
77	-30	-72
136	-103	-4
151	-112	36
147	-45	64
155	68	52
195	183	45
266	250	35
336	249	39
373	195	32
358	123	29
279	57	39
158	7	46
20	-40	41
-95	-93	41
-162	-141	32
-172	-167	26
-134	-140	28
-80	-62	19
-35	43	49
-18	129	66
-20	154	-11
-22	112	-116
9	26	-209
78	-48	-276
169	-75	-241
251	-43	-104
288	14	48
266	50	152
191	31	190
85	-41	152
-36	-120	21
-175	-153	-96
-328	-96	-161
-487	41	-263
-619	207	-282
-675	330	-165
-610	345	-59
-422	238	-10
-168	35	42
82	-187	62
262	-354	57
337	-410	83
324	-340	96
262	-185	77
188	-9	22
111	112	-15
19	131	-49
-93	44	-93
-200	-112	-89
-266	-268	-39
-248	-359	6
-144	-342	19
1	-229	45
119	-69	63
155	64	4
110	114	-92
34	69	-138
2	-32	-163
58	-124	-173
184	-143	-111
310	-64	4
346	81	62
242	225	66
22	301	93
-236	283	87
-432	190	65
-489	83	38
-405	27	1
-226	48	-30
-30	126	-84
109	203	-127
166	222	-144
143	156	-140
89	27	-109
42	-103	-61
29	-174	-35
50	-151	-28
82	-46	-20
92	81	-16
62	168	-14
-4	163	-16
-72	62	-3
-107	-97	9
-81	-254	35
0	-339	56
95	-322	65
158	-206	64
154	-35	14
98	122	-32
32	208	-84
13	194	-109
65	98	-86
169	-33	-30
262	-135	44
291	-168	101
237	-121	134
126	-19	175
28	99	201
-11	198	123
23	261	-11
87	290	-142
126	289	-249
99	265	-318
11	215	-294
-96	142	-167
-180	52	-65
-215	-43	-28
-226	-131	-45
-241	-213	-59
-277	-292	-48
-325	-379	-46
-353	-470	-10
-325	-531	37
-245	-527	56
-132	-416	45
-36	-206	12
24	50	-19
52	278	-11
74	396	18
107	377	38
161	250	47
221	93	54
276	-20	21
331	-36	-16
389	28	-33
435	118	-61
428	171	-67
302	153	-55
26	74	-95
-370	-25	-112
-769	-97	-27
-1020	-122	77
-1025	-114	149
-783	-97	160
-405	-91	152
-45	-91	90
169	-76	-103
209	-19	-279
151	77	-276
105	190	-260
145	278	-266
269	299	-166
409	240	-45
478	110	29
451	-57	48
342	-224	57
221	-356	46
129	-426	38
82	-416	34
54	-310	30
22	-124	65
-16	112	123
-38	342	209
-19	505	216
45	565	149
127	522	52
178	421	-79
165	312	-236
80	228	-364
-61	156	-361
-229	47	-302
-393	-142	-171
-533	-420	-24
-619	-713	52
-621	-914	97
-505	-920	94
-262	-701	66
72	-332	14
411	53	-25
656	316	-29
728	384	-26
606	283	-22
346	122	-30
63	4	-48
-137	-16	-47
-206	35	-33
-158	81	-9
-69	53	31
-22	-53	62
-59	-176	87
-164	-225	87
-267	-150	103
-308	32	104
-241	233	22
-89	358	-48
90	352	-109
225	240	-161
277	96	-147
260	0	-81
206	-12	14
163	34	72
144	89	91
139	101	60
115	67	17
44	17	-40
-66	-8	-118
-194	10	-183
-291	50	-211
-325	76	-205
-288	53	-207
-200	-6	-113
-98	-68	57
-15	-101	130
31	-87	90
44	-50	29
40	-29	-56
40	-55	-112
57	-120	-85
90	-182	-20
132	-195	58
164	-127	84
172	7	65
144	166	29
85	294	-11
9	350	-24
-55	337	-22
-78	269	-28
-40	183	-61
47	100	-72
153	32	-43
219	-29	1
209	-82	10
111	-130	-19
-30	-173	-36
-151	-203	-33
-191	-222	-34
-137	-225	-46
-33	-217	8
38	-199	62
-5	-174	38
-183	-148	-4
-456	-127	-32
-705	-131	-30
-827	-166	-46
-762	-226	-71
-523	-286	-51
-191	-311	-27
143	-257	8
401	-102	19
544	130	-3
569	373	-37
505	548	-45
363	568	-36
172	410	-45
-16	129	-30
-156	-164	-22
-199	-353	-2
-140	-362	48
-10	-216	99
130	-6	111
219	147	66
240	166	8
214	59	-71
188	-93	-147
191	-183	-206
216	-150	-164
226	-2	-51
175	185	12
61	324	93
-81	364	205
-189	311	275
-230	204	191
-201	91	10
-140	-10	-188
-86	-105	-372
-47	-200	-446
-14	-270	-334
37	-277	-115
104	-187	-1
151	-19	64
132	166	72
26	279	9
-128	268	-18
-262	154	0
-304	10	-32
-230	-69	-111
-79	-45	-65
70	52	51
148	140	123
139	139	95
83	38	42
46	-105	-7
67	-190	-100
139	-154	-148
216	1	-111
242	205	-53
201	357	-86
113	397	-140
25	313	-134
-36	150	-104
-77	-44	-29
-121	-226	-14
-195	-384	5
-286	-502	36
-351	-563	48
-341	-536	91
-241	-411	68
-87	-219	43
49	-24	21
107	105	1
79	130	5
18	74	25
18	-1	21
138	-27	-2
358	15	1
575	95	13
636	145	14
439	114	12
-13	7	20
-581	-129	22
-1043	-218	14
-1213	-219	8
-1010	-137	-6
-518	-20	-32
82	71	-37
558	114	-36
756	119	-44
671	127	-60
410	171	-45
143	254	-22
-10	345	-33
-23	392	-49
42	370	-59
100	265	-41
93	110	-17
24	-61	-27
-62	-209	-40
-124	-306	-38
-152	-338	-48
-177	-308	-67
-223	-235	-50
-288	-145	11
-337	-70	91
-321	-23	175
-216	-7	166
-48	-7	66
129	-2	-54
261	17	-198
322	51	-309
326	90	-275
296	123	-130
250	149	-11
191	170	76
116	190	70
42	189	4
1	140	-64
21	24	-106
101	-142	-102
194	-311	-85
234	-408	-30
172	-376	36
29	-222	108
-132	-5	196
-221	179	255
-191	261	207
-60	229	35
89	125	-178
180	30	-351
170	-12	-454
74	2	-355
-54	27	-93
-166	16	64
-237	-43	129
-274	-119	162
-291	-157	149
-277	-120	77
-214	-25	-50
-85	77	-142
83	131	-204
242	122	-219
342	77	-141
355	55	22
310	94	170
250	189	237
211	291	285
175	340	260
87	299	129
-100	170	-62
-377	-4	-228
-659	-173	-308
-822	-300	-309
-773	-379	-206
-515	-407	-100
-142	-388	-32
186	-322	38
359	-209	66
342	-69	41
206	65	-7
62	158	-22
2	190	-26
42	161	-37
125	87	-39
164	-8	-16
102	-116	3
-60	-237	-11
-260	-368	-18
-412	-481	-19
-456	-538	1
-383	-497	16
-228	-341	6
-48	-99	21
107	165	70
211	372	99
266	467	83
288	437	29
288	318	-30
273	170	-77
248	50	-110
216	-4	-106
188	11	-41
175	77	7
175	160	0
172	221	-10
140	235	-23
62	192	-30
-49	110	-15
-152	11	9
-187	-61	24
-117	-86	53
50	-57	77
250	4	56
397	64	11
429	99	-43
331	95	-90
152	68	-138
-30	43	-171
-152	35	-166
-193	43	-79
-182	49	-9
-170	38	-14
-194	4	-16
-263	-34	-44
-358	-53	-46
-434	-41	-32
-463	-4	-28
-420	37	-9
-300	58	8
-115	57	8
106	43	1
301	37	2
407	43	-2
374	48	-3
216	28	-29
-5	-30	-32
-190	-117	-15
-243	-188	-24
-141	-205	-82
53	-157	-128
226	-74	-133
283	-23	-103
204	-49	-32
54	-156	24
-62	-281	67
-76	-346	26
6	-296	-107
94	-148	-200
91	15	-144
-46	95	-16
-257	30	37
-426	-149	48
-436	-345	57
-262	-446	40
7	-383	32
226	-179	14
269	71	-12
113	261	-32
-152	333	-43
-369	295	-25
-416	213	-15
-260	168	-9
22	193	8
309	282	44
498	384	82
553	438	107
506	415	118
407	301	85
292	125	12
166	-83	-88
9	-272	-166
-163	-403	-183
-317	-446	-116
-399	-403	-17
-378	-300	5
-277	-178	-31
-153	-82	-82
-69	-19	-106
-45	24	-72
-58	85	-9
-65	173	108
-41	266	228
-3	317	255
10	275	168
-24	147	8
-84	-25	-141
-108	-154	-306
-42	-179	-408
115	-97	-318
295	38	-170
399	138	-76
359	149	-5
195	76	24
3	-16	27
-102	-56	10
-53	-14	5
111	86	46
296	174	108
380	201	152
313	147	166
124	53	171
-90	-23	127
-236	-52	-10
-275	-44	-185
-229	-46	-254
-160	-96	-253
-120	-196	-297
-134	-309	-283
-185	-376	-109
-239	-362	39
-262	-274	48
-239	-151	57
-161	-35	42
-32	49	13
122	108	18
260	153	16
336	183	39
308	187	65
179	136	66
-9	32	65
-163	-92	24
-216	-171	-4
-143	-153	-9
8	-30	-42
148	142	-56
194	273	-47
111	282	-55
-57	154	-63
-234	-58	-57
-330	-253	-47
-310	-330	-32
-185	-256	-34
-7	-74	1
169	121	60
317	236	106
421	225	151
470	115	85
439	-13	-22
306	-77	-114
57	-39	-208
-269	77	-199
-585	200	-101
-786	257	-9
-797	209	10
-614	65	7
-308	-118	-13
2	-281	-60
213	-375	-92
261	-387	-75
161	-330	-37
-20	-233	16
-185	-125	64
-253	-19	66
-186	72	87
9	147	78
276	190	77
535	201	61
681	171	0
656	106	-62
461	20	-128
164	-71	-179
-108	-150	-188
-245	-196	-140
-187	-204	-97
19	-173	-64
259	-113	-28
396	-31	-16
358	57	-12
172	142	-22
-55	212	-16
-213	258	2
-243	266	22
-177	231	35
-105	158	6
-108	64	-13
-206	-18	-20
-341	-65	-28
-428	-65	-23
-403	-26	12
-278	31	39
-118	80	100
2	106	115
49	114	28
63	110	-40
106	109	-90
216	103	-127
375	81	-128
498	30	-40
496	-54	4
333	-148	-53
59	-224	-67
-208	-251	-68
-357	-223	-68
-350	-149	2
-216	-53	106
-56	34	143
38	100	79
33	134	9
-43	140	-39
-121	118	-105
-138	63	-141
-76	-18	-125
44	-111	-96
169	-194	-99
250	-248	-60
261	-261	-27
192	-251	-16
57	-237	-5
-124	-238	-19
-311	-249	-51
-451	-233	-99
-497	-166	-91
-429	-37	-79
-262	121	-61
-46	250	-30
161	296	5
311	244	69
395	139	150
423	43	161
409	21	72
354	82	-44
238	180	-151
56	241	-204
-169	205	-162
-379	71	-19
-491	-98	100
-459	-218	134
-280	-224	100
-22	-111	37
228	63	-6
401	214	-2
449	277	20
386	233	37
242	123	72
58	3	46
-138	-77	-30
-324	-104	-139
-459	-109	-194
-518	-123	-157
-474	-175	-154
-336	-249	-153
-152	-309	-130
18	-306	-138
124	-212	-101
162	-40	16
165	166	79
182	340	63
236	429	46
310	405	3
346	284	-17
306	105	-11
171	-79	-4
-5	-222	8
-141	-298	10
-181	-300	12
-110	-242	12
16	-144	21
115	-33	22
122	65	20
32	134	8
-103	164	9
-203	166	38
-213	157	48
-134	159	26
-17	187	-4
71	225	-11
89	244	-15
52	211	-21
8	106	-41
3	-57	-59
44	-224	-70
104	-334	-88
129	-348	-66
91	-263	-42
4	-130	-22
-85	-11	-11
-120	43	-72
-87	20	-138
-7	-52	-147
75	-127	-123
118	-168	-21
128	-166	119
133	-137	179
167	-110	149
223	-97	69
262	-93	-34
219	-80	-116
69	-50	-126
-168	-6	-20
-412	37	52
-563	66	-28
-569	83	-151
-435	96	-249
-240	120	-307
-68	158	-267
20	199	-122
30	227	7
13	228	45
13	200	50
46	149	36
77	76	35
51	-15	56
-53	-125	86
-213	-236	100
-350	-312	124
-382	-317	186
-281	-234	182
-93	-87	115
104	69	52
234	166	-22
270	171	-114
254	103	-209
245	20	-282
283	-16	-289
353	17	-222
395	91	-173
352	147	-122
214	138	-37
33	60	21
-117	-38	38
-172	-100	39
-134	-97	62
-55	-46	51
-6	-3	48
-23	-12	52
-86	-79	40
-136	-149	44
-118	-152	47
-14	-48	53
148	139	46
306	331	40
411	431	11
428	388	-35
343	215	-62
172	-15	-52
-70	-224	-45
-339	-348	-51
-572	-384	-23
-692	-353	-8
-639	-292	-23
-425	-223	-31
-128	-149	-24
120	-71	-2
216	6	22
138	62	28
-28	88	16
-144	85	-22
-101	67	-55
113	56	-66
395	51	-62
583	43	-47
569	8	-21
358	-50	14
68	-109	16
-139	-120	-1
-172	-49	-11
-46	90	-43
116	247	-98
184	341	-132
93	312	-139
-119	155	-124
-345	-66	-81
-480	-260	-39
-468	-348	-25
-350	-297	-16
-199	-137	-12
-95	64	-5
-58	233	2
-75	323	35
-107	313	101
-128	221	141
-132	68	116
-120	-110	14
-91	-274	-117
-39	-390	-223
34	-421	-282
118	-356	-252
188	-213	-101
226	-27	63
236	150	117
233	279	63
236	339	-3
244	338	-59
234	291	-86
180	224	-57
75	148	13
-50	72	58
-142	6	38
-157	-49	13
-98	-90	-13
-10	-116	-27
44	-133	-36
33	-147	15
-24	-159	71
-71	-160	67
-49	-135	48
52	-75	-13
180	26	-80
258	143	-118
233	248	-99
107	300	-56
-43	268	-52
-133	149	-41
-110	-38	-37
1	-247	-24
119	-421	-35
150	-506	-24
52	-474	47
-134	-326	137
-308	-105	219
-371	131	198
-285	331	100
-94	450	-30
98	475	-152
197	416	-227
162	290	-244
36	116	-147
-95	-83	-80
-151	-277	-87
-115	-427	-71
-29	-497	-42
24	-460	-24
-12	-345	-36
-132	-190	-52
-279	-56	-39
-366	17	-31
-347	28	-48
-231	17	-25
-70	32	2
64	105	-2
147	219	8
177	331	22
197	389	46
237	370	76
301	299	110
363	213	124
389	150	87
354	108	12
263	51	-60
138	-53	-119
0	-213	-165
-133	-386	-136
-266	-502	-42
-385	-502	8
-470	-381	-18
-501	-187	-42
-456	-5	-81
-339	97	-101
-174	113	-65
-9	83	4
119	65	98
201	93	164
239	150	132
255	181	29
265	134	-62
268	13	-144
252	-138	-209
202	-237	-211
120	-230	-122
22	-114	-60
-63	56	-58
-108	205	-52
-97	279	-74
-36	277	-46
46	235	8
122	190	82
159	168	130
150	152	112
105	117	70
52	55	23
18	-25	-9
9	-84	-65
8	-96	-95
-13	-58	-60
-69	6	-8
-159	63	60
-241	93	149
-267	94	156
-210	85	74
-70	77	-45
98	64	-168
241	27	-239
312	-55	-227
302	-177	-111
241	-313	-12
155	-411	6
69	-437	-20
-13	-383	-48
-104	-263	-42
-205	-133	-21
-290	-29	13
-342	18	11
-347	11	-27
-321	-32	-72
-299	-79	-95
-296	-105	-82
-300	-98	-72
-263	-59	-50
-143	-7	-2
61	41	68
294	72	127
455	84	89
467	84	15
321	84	-19
97	96	-51
-85	116	-24
-141	131	56
-68	126	116
57	89	57
137	22	-80
111	-54	-182
1	-111	-243
-122	-123	-217
-190	-71	-127
-177	29	-27
-125	155	12
-87	261	13
-94	309	24
-115	274	42
-99	161	66
-12	7	70
123	-139	74
236	-226	72
256	-226	46
172	-142	-4
46	-12	-55
-32	115	-100
-8	197	-122
104	208	-98
221	155	-53
253	58	-23
169	-50	17
14	-139	39
-109	-184	34
-123	-174	25
-15	-117	6
145	-34	-17
253	36	-44
226	58	-47
60	20	-10
-180	-65	10
-393	-149	-8
-506	-175	-32
-478	-107	-39
-332	49	-37
-123	239	-59
92	390	-101
262	438	-70
346	368	-39
332	206	-27
225	22	60
75	-124	174
-58	-200	222
-126	-208	113
-115	-186	-66
-56	-170	-211
-12	-186	-316
-29	-233	-371
-97	-281	-280
-162	-289	-59
-137	-215	129
14	-51	167
265	174	63
506	386	-64
620	495	-126
516	438	-186
202	218	-190
-204	-102	-53
-569	-407	60
-765	-582	76
-757	-578	40
-603	-432	12
-411	-234	-15
-273	-86	-12
-221	-31	14
-209	-49	29
-153	-61	37
8	-3	39
272	140	29
561	323	23
763	453	30
794	467	41
639	356	44
368	174	13
83	3	-31
-112	-104	-43
-185	-134	-31
-168	-119	-28
-121	-94	-27
-103	-85	-6
-121	-84	3
-148	-71	11
-148	-39	15
-103	2	-48
-32	22	-101
29	8	-138
64	-42	-160
80	-92	-134
111	-105	-93
191	-61	-35
314	21	-16
430	96	-24
476	116	0
385	57	38
148	-60	79
-191	-182	140
-545	-237	144
-797	-183	111
-895	-22	61
-812	197	-8
-589	399	-111
-306	505	-197
-38	492	-181
138	353	-118
205	150	-1
178	-46	59
107	-167	45
40	-192	44
9	-139	41
13	-58	30
23	-7	17
19	-19	-10
-6	-92	-77
-26	-187	-167
-10	-258	-227
61	-259	-237
172	-178	-198
285	-32	-101
350	135	32
346	268	133
296	325	179
237	282	188
208	162	112
203	7	2
187	-124	-120
119	-190	-222
-21	-179	-215
-188	-118	-124
-315	-61	-61
-333	-53	-51
-233	-110	-15
-60	-198	13
106	-261	32
192	-242	22
186	-120	12
127	69	6
83	261	-41
90	372	-50
144	358	-11
205	233	20
225	53	1
192	-98	-35
125	-166	-25
62	-127	11
13	-7	11
-48	132	-9
-158	228	-24
-339	215	-22
-572	80	41
-787	-162	127
-905	-437	151
-879	-660	96
-708	-741	4
-435	-628	-87
-117	-356	-159
171	-12	-196
387	277	-140
502	416	-70
498	373	-28
395	225	-16
234	64	-40
96	-6	-39
56	40	-8
144	152	25
318	241	55
470	233	102
494	122	104
328	-36	48
17	-156	-20
-319	-170	-89
-536	-81	-172
-547	65	-211
-378	190	-153
-131	244	-62
68	221	-49
151	150	-62
123	71	-52
46	4	-36
-10	-53	16
-18	-118	96
6	-184	155
34	-236	110
46	-244	23
56	-188	-49
85	-80	-136
139	51	-147
189	169	-75
191	244	19
123	277	43
6	275	12
-105	253	-7
-157	210	-45
-124	137	-51
-43	28	-41
28	-110	-60
44	-253	-60
2	-370	-39
-55	-433	3
-80	-439	32
-46	-389	22
26	-297	19
88	-170	42
107	-21	64
85	136	51
56	282	16
62	380	-57
120	405	-170
210	345	-223
280	237	-196
295	112	-102
228	17	-7
95	-25	22
-72	-27	22
-239	-18	14
-375	-30	15
-473	-75	-3
-518	-139	-28
-507	-194	-39
-426	-208	-24
-292	-169	-3
-126	-86	-2
32	17	-5
144	105	-8
188	155	-8
162	150	-8
98	90	1
35	-17	3
15	-151	5
49	-282	9
123	-373	-2
203	-390	-19
240	-320	-30
206	-171	-41
99	15	-35
-48	188	-25
-185	299	-8
-263	329	-5
-262	288	-35
-191	206	-48
-80	119	-38
23	42	23
83	-20	104
87	-77	141
51	-127	135
6	-157	91
-14	-145	9
14	-83	-76
87	20	-163
175	125	-223
242	180	-209
250	154	-176
200	40	-147
124	-122	-127
81	-272	-82
110	-355	-78
212	-333	-61
328	-213	-8
360	-33	2
244	150	8
-37	273	-11
-394	310	-4
-714	254	31
-879	148	63
-844	45	86
-654	5	116
-393	49	110
-159	153	37
14	254	-16
139	279	-93
242	198	-163
330	29	-160
380	-143	-82
351	-233	7
238	-187	19
81	-38	30
-46	121	39
-83	191	19
-24	119	3
68	-57	-16
124	-243	-28
96	-337	-33
2	-294	-12
-88	-154	18
-106	-6	-9
-27	68	-88
107	44	-115
231	-36	-125
276	-105	-136
234	-100	-83
136	-22	-21
32	89	13
-43	174	24
-84	200	35
-104	168	23
-119	106	22
-128	43	59
-126	-11	87
-109	-62	91
-88	-122	59
-67	-174	-15
-46	-196	-115
-3	-173	-165
88	-103	-141
228	-18	-75
375	44	-13
476	55	9
459	20	-19
312	-37	-105
68	-86	-156
-186	-104	-129
-375	-102	-38
-459	-92	81
-448	-89	177
-380	-86	217
-300	-68	164
-230	-29	74
-169	30	-64
-113	88	-170
-59	126	-240
-13	142	-213
24	152	-71
64	171	16
121	205	56
199	233	24
276	213	-7
302	124	-72
240	-28	-165
84	-189	-165
-109	-292	-113
-258	-291	-13
-285	-187	16
-164	-31	16
55	110	47
288	183	46
430	183	45
429	145	31
287	106	23
53	89	14
-202	77	12
-431	44	10
-588	-29	12
-647	-132	4
-607	-229	-24
-473	-279	-13
-276	-268	-12
-57	-209	-18
131	-133	-23
262	-61	-30
340	6	-16
381	87	-6
407	186	-10
422	287	-34
401	345	-80
320	331	-83
171	228	-60
-14	76	-56
-175	-66	-20
-262	-150	17
-255	-158	26
-179	-123	-14
-89	-93	-65
-33	-101	-104
-31	-144	-114
-63	-192	-97
-91	-207	-75
-75	-168	-32
-12	-89	-2
85	11	32
175	104	39
237	183	44
254	244	22
232	276	-30
184	268	-36
123	202	-48
67	72	-25
27	-94	4
13	-242	19
26	-316	17
49	-287	0
57	-171	-8
15	-22	-9
-86	88	-28
-236	110	-51
-378	45	-32
-452	-68	-27
-417	-170	-22
-270	-201	-18
-62	-148	-16
135	-35	-8
258	85	8
275	154	32
204	143	44
89	61	42
-22	-47	-23
-111	-133	-145
-176	-154	-218
-224	-111	-238
-248	-29	-198
-232	45	-80
-153	84	68
-19	80	172
135	49	173
245	28	151
262	32	61
190	64	-77
71	106	-173
-14	133	-198
-10	136	-141
79	113	-45
188	79	60
229	43	91
147	9	46
-34	-26	13
-234	-65	4
-336	-101	9
-279	-115	-45
-77	-89	-124
171	-21	-121
342	71	-124
355	154	-143
209	193	-108
-18	170	-16
-222	95	43
-320	1	61
-300	-75	55
-210	-100	24
-124	-74	-4
-91	-16	-21
-101	36	-12
-110	47	-2
-59	6	19
66	-78	7
240	-164	1
383	-212	12
423	-190	-35
339	-91	-59
156	55	-81
-43	201	-97
-194	287	-50
-250	278	-3
-226	164	36
-167	-25	79
-119	-237	112
-99	-413	86
-86	-504	37
-52	-495	9
11	-392	-53
81	-233	-112
111	-64	-149
70	74	-147
-40	158	-116
-170	187	-55
-256	171	-13
-248	140	-16
-137	116	-16
28	106	-26
195	117	-24
300	130	-7
323	130	13
269	103	16
175	45	3
83	-35	18
21	-119	37
22	-182	74
94	-205	103
216	-175	70
342	-91	4
395	33	-89
314	171	-156
90	286	-155
-213	345	-71
-489	329	24
-639	241	40
-611	106	5
-450	-19	-46
-256	-92	-107
-148	-84	-152
-156	-2	-140
-245	101	-92
-303	168	2
-245	142	68
-40	18	42
242	-164	-32
488	-330	-149
613	-408	-209
565	-368	-177
383	-232	-48
126	-64	52
-124	63	64
-321	115	31
-434	97	14
-446	49	8
-351	11	12
-166	1	56
58	5	55
244	3	37
324	-20	20
272	-48	-9
137	-51	-16
2	-6	-8
-49	81	-12
6	170	-6
127	222	0
234	205	-19
251	139	-20
175	68	-17
60	32	-72
-26	41	-119
-48	65	-125
-20	51	-96
5	-36	31
-9	-189	171
-65	-352	182
-125	-449	120
-144	-420	35
-121	-273	-83
-81	-65	-174
-65	117	-245
-87	206	-211
-109	181	-122
-82	77	-75
21	-35	-36
158	-96	2
241	-79	78
198	-2	167
22	85	180
-197	137	106
-337	129	7
-299	69	-112
-93	-16	-203
172	-92	-179
351	-137	-64
346	-148	16
184	-126	27
-31	-83	32
-162	-20	-21
-139	54	-52
8	131	-33
172	187	-42
253	204	-54
198	169	-55
41	91	-17
-143	-2	38
-291	-82	60
-364	-119	55
-370	-111	9
-317	-68	-48
-210	-16	-92
-58	31	-156
125	69	-183
280	103	-154
346	131	-75
279	153	-9
110	155	65
-72	131	138
-170	84	135
-126	28	91
22	-19	-6
171	-44	-92
210	-55	-143
102	-62	-157
-106	-72	-77
-294	-84	17
-363	-79	75
-290	-47	52
-124	3	-19
44	41	-52
158	36	-50
209	-30	-21
237	-130	-19
278	-199	-28
325	-178	-30
329	-35	-32
242	182	-16
59	372	-7
-159	435	9
-333	301	39
-403	13	22
-366	-329	-9
-281	-578	-39
-224	-645	-71
-223	-527	-66
-248	-313	-57
-231	-126	-13
-110	-48	50
105	-79	120
346	-138	144
502	-135	61
488	-19	-40
299	183	-138
8	381	-221
-260	475	-189
-415	424	-25
-401	267	131
-262	92	183
-78	-15	152
63	-23	65
107	34	-67
64	86	-203
-15	72	-306
-64	-12	-298
-37	-121	-160
76	-188	-8
241	-164	77
396	-57	79
478	85	32
454	202	-10
322	248	-36
117	215	-21
-93	137	-17
-251	43	-5
-319	-37	27
-292	-92	33
-211	-126	7
-121	-138	-6
-74	-133	-19
-75	-104	-54
-104	-55	-70
-116	-3	-85
-70	38	-82
37	51	-26
172	35	-3
275	4	4
301	-22	16
234	-25	11
113	1	-16
-2	43	-71
-60	80	-71
-54	94	-60
-18	72	-30
1	29	-3
-23	-18	1
-83	-39	-2
-124	-21	-21
-111	32	-29
-36	95	-48
51	130	-50
92	114	-40
44	37	1
-76	-77	37
-198	-181	6
-249	-242	-51
-189	-238	-68
-46	-185	-42
107	-119	-10
193	-83	34
181	-96	34
102	-150	27
10	-211	57
-40	-237	98
-40	-206	85
-13	-123	19
12	-19	-58
21	71	-140
29	127	-159
45	139	-68
60	126	74
37	102	100
-55	81	-4
-214	62	-105
-383	41	-196
-473	15	-241
-425	-18	-221
-253	-49	-137
-48	-72	-66
83	-80	-32
91	-66	11
14	-40	32
-41	-4	97
28	35	166
241	74	186
502	105	135
671	129	64
626	150	-20
375	171	-127
27	200	-182
-262	236	-143
-364	269	-30
-279	291	20
-92	286	29
61	248	46
99	174	47
21	84	38
-105	-12	6
-197	-88	-15
-218	-129	-35
-172	-125	-69
-102	-82	-86
-39	-21	-62
10	28	-32
52	36	-41
91	-8	-28
102	-103	-3
62	-221	-32
-32	-326	-74
-141	-402	-98
-200	-435	-107
-165	-434	-92
-30	-405	-53
141	-344	-43
285	-243	-52
341	-94	-44
314	87	-14
245	258	56
190	372	130
162	395	159
132	333	143
71	232	84
-28	145	-24
-126	106	-133
-156	106	-203
-79	101	-187
79	43	-111
229	-78	-40
269	-226	-4
147	-337	17
-103	-358	49
-370	-280	89
-549	-145	63
-574	-19	-19
-475	54	-81
-329	64	-123
-214	43	-169
-167	30	-150
-165	47	-48
-166	80	0
-141	99	1
-94	78	22
-50	27	30
-27	-31	15
-12	-68	-12
27	-70	-30
105	-50	-34
203	-30	-42
269	-22	-40
253	-17	-33
151	8	-35
11	66	-17
-75	155	12
-40	239	52
118	281	79
328	261	87
481	189	68
496	95	45
361	13	62
139	-38	56
-69	-64	14
-181	-82	-49
-176	-99	-93
-95	-115	-99
-8	-116	-116
26	-97	-101
5	-60	-46
-38	-24	17
-50	0	41
-10	11	7
71	27	-26
139	61	-78
150	106	-133
84	140	-150
-29	120	-118
-134	26	-61
-188	-123	-19
-176	-269	16
-128	-344	22
-89	-305	26
-84	-159	11
-104	34	-17
-108	200	-41
-52	279	-82
81	265	-85
263	191	-46
429	106	-24
506	44	31
462	1	104
302	-47	116
72	-129	70
-170	-235	-22
-378	-326	-124
-516	-361	-194
-584	-297	-176
-581	-147	-75
-505	42	13
-363	204	78
-176	282	101
19	257	103
182	160	79
274	51	-20
280	-16	-95
216	-3	-150
116	74	-215
14	166	-227
-72	211	-147
-136	164	-42
-184	15	-30
-224	-191	-22
-256	-379	19
-278	-481	47
-285	-456	71
-269	-319	81
-221	-126	103
-128	47	77
13	150	33
190	169	13
370	137	-40
513	103	-62
569	95	-24
527	113	22
390	137	29
203	134	-16
18	100	-90
-132	44	-161
-223	7	-198
-248	1	-159
-213	22	-60
-125	46	3
-7	44	58
116	14	82
199	-34	47
216	-66	22
165	-63	-8
83	-32	-31
18	3	-17
10	8	26
52	-24	57
106	-75	51
122	-112	24
68	-110	-8
-34	-66	-46
-141	-1	-52
-205	51	-26
-207	76	-20
-172	76	-51
-133	77	-90
-114	92	-100
-100	118	-124
-52	131	-125
44	103	-99
172	15	-70
281	-112	5
319	-229	90
271	-281	137
179	-242	105
101	-113	-6
64	61	-84
47	221	-116
-16	316	-121
-172	320	-36
-415	244	111
-634	120	133
-711	-12	55
-572	-121	14
-246	-181	-46
134	-188	-89
417	-149	-123
495	-84	-90
373	-24	-5
157	2	30
-34	-22	29
-124	-85	-48
-126	-158	-112
-94	-194	-157
-83	-159	-135
-93	-50	-67
-84	98	-32
-14	225	12
121	278	57
275	237	116
373	130	124
373	11	95
288	-70	65
155	-95	-33
20	-87	-132
-108	-89	-179
-243	-127	-205
-392	-186	-135
-539	-221	-47
-610	-187	-2
-547	-87	19
-347	31	9
-83	95	24
132	59	45
216	-54	26
154	-170	3
28	-196	-8
-46	-95	-20
13	97	-6
191	281	10
396	356	22
506	287	26
468	122	2
297	-40	-36
77	-116	-48
-97	-97	-62
-186	-42	-44
-204	-33	-5
-187	-107	-17
-165	-225	-50
-130	-292	-96
-69	-230	-98
26	-24	-38
125	244	90
176	457	233
151	519	285
52	419	207
-53	229	13
-101	56	-229
-55	-24	-437
65	-8	-494
194	39	-338
263	49	-151
237	-11	-43
126	-117	34
-25	-205	20
-158	-225	-8
-233	-170	-16
-231	-86	-49
-137	-23	-58
39	-11	-26
278	-32	34
506	-43	96
645	-7	142
594	71	159
322	150	116
-111	170	63
-581	100	10
-921	-53	-31
-1023	-233	-28
-879	-376	-43
-589	-441	-40
-300	-418	-15
-113	-330	-2
-55	-210	-18
-66	-86	-56
-49	31	-55
72	131	-44
300	210	-50
569	252	-27
785	252	26
853	213	53
739	148	57
444	81	30
42	30	0
-370	3	-19
-691	-10	-20
-810	-19	-4
-691	-29	-2
-366	-39	-35
39	-36	-95
360	-14	-130
475	29	-145
341	85	-138
52	137	-49
-236	169	104
-360	171	113
-269	155	30
-25	121	-32
214	85	-100
306	49	-134
205	19	-142
-32	-16	-53
-262	-61	37
-371	-123	51
-311	-195	44
-141	-262	74
37	-304	97
143	-297	24
158	-230	-35
133	-107	-80
141	51	-148
216	205	-208
334	315	-181
423	345	-81
419	299	-39
297	187	-51
94	52	-52
-108	-60	-60
-236	-133	-59
-257	-164	-55
-191	-179	-54
-94	-201	-1
-14	-242	49
23	-281	72
35	-274	83
56	-179	64
107	22	29
179	290	24
238	540	17
238	665	5
164	588	22
33	298	11
-105	-121	-40
-207	-519	-79
-260	-752	-91
-276	-728	-92
-287	-482	-70
-306	-127	-41
-314	171	-7
-264	299	-1
-126	235	-4
88	52	4
313	-113	5
449	-163	16
417	-78	26
204	85	-1
-120	218	-39
-443	244	-44
-645	145	-28
-676	-17	-3
-562	-162	-7
-377	-232	-21
-201	-223	-28
-77	-178	-18
0	-150	-4
61	-156	1
131	-173	23
198	-150	48
238	-57	62
237	101	40
212	274	-5
212	405	-40
280	445	-77
411	394	-108
545	284	-96
595	168	-44
488	80	-28
242	32	-48
-70	19	-41
-329	17	-22
-448	13	-57
-424	4	-137
-308	-9	-157
-187	-20	-95
-101	-27	-21
-45	-33	37
21	-38	93
126	-42	138
252	-41	95
331	-41	-31
300	-52	-118
144	-86	-181
-77	-143	-168
-269	-212	-76
-345	-257	28
-276	-246	87
-101	-163	46
95	-16	-3
226	148	-57
260	271	-80
208	313	-32
124	265	-6
56	159	-21
30	53	-53
40	0	-48
57	21	-58
46	100	-64
-10	197	-40
-104	268	-32
-208	282	-37
-272	233	-43
-262	130	-15
-175	-6	45
-46	-160	119
59	-316	164
90	-447	158
18	-523	45
-123	-510	-84
-272	-403	-163
-354	-231	-209
-343	-48	-192
-253	71	-90
-137	85	-25
-50	0	-17
-10	-137	2
-1	-254	10
18	-297	29
82	-249	1
190	-140	10
311	-15	41
388	88	28
373	157	21
258	200	-1
69	228	-15
-137	243	-47
-285	230	-56
-325	183	-38
-245	116	-14
-78	58	13
117	40	47
280	70	78
359	119	60
343	138	22
242	88	-46
85	-32	-110
-91	-182	-142
-262	-290	-159
-392	-305	-97
-458	-211	27
-431	-49	151
-312	120	200
-128	247	101
82	305	-43
260	311	-141
372	277	-215
409	225	-223
387	153	-138
332	65	-24
261	-32	-8
192	-116	-45
123	-163	-74
55	-161	-83
-6	-123	-44
-56	-82	-21
-98	-69	8
-133	-99	30
-164	-154	44
-187	-188	29
-188	-171	3
-152	-86	-12
-81	43	-43
9	174	-60
83	260	-56
118	277	-15
115	236	32
89	154	56
64	67	28
46	-9	-15
18	-69	-27
-43	-125	-49
-151	-179	-50
-273	-224	-22
-353	-240	-8
-330	-206	11
-180	-114	30
56	13	28
299	132	17
438	200	7
422	193	-18
253	121	-62
2	35	-93
-235	-13	-107
-382	14	-93
-402	95	-75
-317	174	-48
-178	180	-44
-50	66	-48
13	-153	-20
1	-412	-3
-70	-612	8
-152	-681	4
-185	-590	-14
-127	-376	-33
21	-116	-28
215	114	-16
380	261	19
439	319	64
366	299	115
184	233	138
-30	155	89
-201	79	20
-280	20	-63
-254	-19	-133
-160	-32	-144
-45	-29	-107
46	-19	-75
99	-11	-72
105	-7	-76
70	8	-69
7	48	-19
-66	127	80
-116	225	161
-110	308	117
-34	331	-28
94	267	-145
226	127	-207
312	-45	-248
314	-190	-223
245	-260	-104
151	-244	6
75	-166	43
44	-68	36
40	10	-9
28	54	-54
-20	76	-57
-102	92	-36
-178	109	9
-209	123	51
-173	114	70
-95	72	58
-19	6	34
11	-58	7
-20	-91	-15
-87	-77	-24
-147	-25	-38
-165	33	-26
-127	67	13
-55	57	54
18	13	49
50	-48	12
23	-97	-7
-59	-122	-40
-161	-127	-80
-228	-126	-86
-201	-138	-81
-57	-167	-51
167	-208	-5
397	-241	-4
508	-238	6
447	-185	22
204	-76	5
-113	65	-11
-364	198	-28
-453	275	-59
-357	261	-76
-166	161	-54
9	10	-42
86	-118	-47
77	-164	-53
57	-102	-35
106	33	-22
234	171	-24
373	239	-32
407	202	-25
276	93	-6
4	-26	-16
-303	-84	-23
-508	-53	-37
-545	33	-44
-425	110	-13
-242	119	1
-78	51	3
24	-55	8
79	-132	8
124	-129	2
187	-42	-14
245	79	-36
261	156	-56
204	143	-40
95	38	-16
-18	-110	-2
-82	-232	11
-63	-273	18
12	-229	4
98	-130	-18
139	-29	-32
118	29	-43
46	37	-22
-24	11	25
-52	-14	110
-14	-13	181
84	26	140
196	91	12
271	159	-128
260	206	-246
151	223	-280
-28	206	-227
-213	168	-143
-332	118	-102
-352	63	-76
-280	8	-21
-170	-48	8
-77	-102	19
-24	-142	-16
-2	-160	-33
30	-150	-66
99	-113	-74
189	-67	-9
245	-32	27
222	-25	66
101	-50	32
-79	-89	-32
-252	-120	-68
-354	-122	-56
-377	-91	10
-344	-35	112
-300	21	160
-262	57	108
-224	64	13
-157	40	-76
-60	-4	-134
39	-65	-177
93	-130	-127
83	-191	-55
36	-223	-18
21	-196	-10
96	-97	-11
263	75	5
459	268	3
569	414	-11
521	438	-35
306	312	-9
18	68	52
-231	-201	84
-345	-386	76
-311	-410	54
-189	-267	25
-69	-35	-7
-12	178	-34
-18	284	-58
-38	261	-66
-20	163	-61
57	64	-55
167	36	-15
244	82	51
241	149	48
140	160	-4
-9	68	-69
-147	-103	-151
-197	-283	-178
-129	-380	-130
32	-342	-21
223	-187	101
339	11	194
314	166	207
140	229	100
-112	200	-71
-331	129	-213
-417	71	-270
-324	55	-313
-112	69	-317
111	79	-201
216	54	-83
169	-2	-17
8	-61	19
-141	-89	30
-167	-65	43
-35	-12	33
195	32	21
403	29	30
484	-27	37
397	-108	36
188	-168	39
-61	-168	39
-286	-103	30
-459	-5	45
-588	81	63
-669	116	65
-680	93	56
-569	34	35
-321	-22	18
14	-49	8
330	-48	-20
506	-36	-57
484	-42	-89
296	-68	-113
48	-109	-109
-125	-135	-110
-164	-125	-94
-89	-79	-66
20	-11	-39
89	48	1
101	84	37
100	94	46
139	93	22
238	98	-2
345	113	-20
380	129	1
279	122	-4
46	76	-3
-237	-7	-4
-470	-101	-27
-566	-167	-17
-515	-175	-12
-364	-114	-16
-199	-13	-38
-87	83	-31
-50	121	-5
-78	75	10
-124	-43	16
-147	-182	1
-112	-268	-18
-7	-251	-32
159	-122	-56
354	71	-81
517	244	-69
581	320	-44
512	268	-47
312	127	-63
40	-33	-60
-217	-130	-68
-358	-139	-71
-341	-84	-23
-180	-25	13
42	-22	19
223	-81	2
292	-167	-16
234	-214	-18
98	-185	-33
-31	-84	-45
-77	40	-40
-15	123	-27
113	137	-42
221	97	-37
227	57	-25
102	64	-25
-112	130	7
-313	215	61
-400	268	116
-317	243	96
-97	144	37
158	22	-10
321	-70	-99
312	-95	-193
135	-61	-215
-113	-9	-189
-304	19	-176
-340	4	-165
-213	-33	-78
5	-53	19
196	-31	68
267	31	108
191	94	125
23	108	113
-149	40	83
-237	-93	48
-212	-242	-6
-98	-341	-42
47	-343	-60
171	-242	-74
245	-78	-48
257	86	-16
212	192	-11
120	210	-19
-13	154	-36
-155	56	-30
-267	-29	-12
-310	-65	-4
-260	-45	16
-136	15	8
19	74	-3
155	92	-12
242	49	-31
267	-43	-43
237	-142	-57
152	-204	-69
4	-191	-69
-191	-109	-43
-405	7	-31
-563	101	-35
-588	128	-32
-443	85	-10
-167	-2	20
140	-74	25
363	-90	11
431	-28	-5
343	82	-15
175	186	-11
7	235	15
-101	197	58
-157	85	101
-187	-60	103
-215	-184	58
-229	-246	-35
-195	-238	-154
-101	-174	-243
24	-93	-276
114	-32	-227
100	-8	-90
-25	-16	49
-206	-37	54
-332	-54	-30
-324	-53	-80
-169	-43	-109
60	-30	-89
255	-26	-7
342	-21	66
313	-2	77
232	40	8
178	106	-19
195	174	-45
254	219	-48
287	228	8
239	206	43
110	180	45
-38	163	3
-126	155	-14
-101	127	-36
14	43	-53
150	-110	-41
216	-309	-32
186	-486	-28
86	-570	-42
-7	-512	-35
-34	-326	-17
22	-66	0
116	183	35
184	362	57
182	445	65
113	438	63
14	370	42
-72	265	-1
-138	135	-49
-191	-11	-66
-260	-153	-83
-344	-259	-95
-412	-292	-90
-426	-244	-70
-366	-135	-43
-247	-19	-16
-113	50	0
-8	45	-19
50	-13	-23
90	-79	-14
140	-103	-8
216	-66	0
291	12	-6
316	95	8
256	150	26
127	166	11
-12	157	-31
-83	135	-54
-41	96	-52
91	25	-59
236	-90	-68
287	-233	-66
172	-356	-48
-104	-400	-15
-455	-322	31
-744	-144	75
-834	67	76
-664	229	37
-269	283	-33
195	241	-132
547	157	-198
653	110	-214
486	149	-166
156	256	-71
-158	365	-25
-282	397	20
-175	305	68
83	101	90
318	-152	110
381	-371	79
236	-482	42
-22	-460	-4
-233	-326	-76
-280	-133	-89
-156	48	-98
40	162	-116
171	171	-60
157	84	53
23	-66	98
-133	-214	57
-212	-304	7
-182	-300	-38
-100	-205	-53
-46	-64	-62
-71	71	-104
-145	162	-135
-185	198	-99
-109	198	-42
96	191	-27
371	195	16
598	204	118
689	201	172
619	170	141
415	109	49
151	37	-63
-107	-30	-165
-311	-81	-214
-439	-121	-164
-502	-160	-90
-497	-196	-41
-458	-222	-44
-408	-205	-53
-382	-140	-20
-392	-37	1
-417	67	14
-405	128	54
-299	112	123
-74	25	134
239	-94	65
553	-196	8
775	-238	-64
825	-215	-157
689	-139	-170
411	-45	-112
85	40	-50
-185	102	-32
-329	133	-16
-325	132	0
-202	96	4
-27	29	-5
131	-46	-20
216	-96	-2
225	-84	-7
180	-2	9
124	122	21
86	228	3
54	253	-11
0	169	-26
-115	4	-28
-287	-175	-41
-463	-289	-42
-572	-292	-34
-547	-196	-37
-383	-53	-40
-141	68	-58
81	131	-58
192	129	-22
176	93	24
85	59	44
4	46	22
5	50	-20
102	49	-40
241	32	-26
344	-1	26
360	-32	85
283	-40	119
159	-20	82
41	28	-24
-28	86	-96
-52	141	-172
-48	180	-252
-37	194	-199
-30	179	-27
-15	130	90
4	65	112
22	4	81
18	-21	8
-14	3	-76
-55	59	-142
-79	106	-166
-54	85	-113
12	-25	-18
81	-204	61
95	-370	65
21	-437	-9
-131	-358	-47
-312	-161	-56
-437	62	-68
-459	200	-51
-371	187	-38
-197	42	-34
15	-144	-49
234	-268	-52
428	-263	-32
575	-145	-7
653	9	24
625	121	41
469	153	53
206	124	32
-100	89	-20
-370	81	-27
-547	89	-18
-611	74	-11
-584	-4	9
-502	-131	13
-385	-254	16
-237	-297	12
-61	-216	-6
121	-39	-62
258	154	-120
302	275	-113
251	279	-74
147	180	-20
74	38	52
96	-77	84
206	-141	75
325	-166	49
340	-179	-3
188	-192	-48
-100	-196	-101
-412	-163	-101
-595	-81	-71
-577	32	-70
-374	132	-76
-88	183	-72
159	174	-47
300	138	-36
328	121	-15
295	150	24
248	206	38
200	248	37
129	224	13
13	117	-37
-127	-34	-58
-240	-174	-70
-267	-247	-76
-180	-238	-61
-23	-169	-36
130	-87	1
199	-24	-2
156	15	29
36	41	76
-82	79	124
-124	126	127
-66	163	51
59	160	-36
181	106	-147
234	23	-219
190	-60	-198
69	-107	-115
-66	-109	-71
-158	-80	-80
-164	-48	-65
-96	-33	-44
10	-32	2
105	-25	24
154	10	13
159	75	6
131	154	3
94	209	10
52	215	-2
-1	166	-4
-80	67	-12
-180	-48	-21
-263	-160	-23
-297	-253	-24
-248	-317	-5
-136	-348	12
-10	-334	30
78	-271	31
105	-162	22
110	-34	16
164	77	4
312	135	10
526	128	-4
701	75	-29
696	13	-48
425	-14	-64
-78	10	-61
-651	69	-46
-1064	124	-43
-1162	135	-40
-927	89	-42
-489	0	-62
-55	-89	-74
206	-141	-77
244	-140	-61
139	-94	-52
24	-33	-38
-9	18	-4
28	45	11
48	57	9
-26	63	21
-191	77	63
-352	88	70
-371	95	52
-184	91	12
160	77	-51
493	65	-91
653	58	-106
575	48	-97
331	20	-31
82	-38	90
-28	-121	196
45	-205	218
216	-242	168
352	-204	46
350	-92	-133
216	61	-340
40	202	-463
-80	278	-427
-113	268	-282
-105	195	-115
-137	92	1
-256	2	57
-416	-57	70
-523	-94	90
-481	-129	128
-288	-176	151
-31	-224	128
162	-246	65
204	-218	4
107	-131	-60
-33	-7	-126
-101	117	-139
-34	198	-101
130	215	-22
299	177	30
366	111	39
296	50	36
124	21	21
-57	20	7
-167	25	-19
-168	12	-31
-79	-38	-30
40	-119	-28
136	-201	-26
172	-251	-20
139	-240	-21
46	-162	-10
-75	-37	18
-177	89	34
-221	178	31
-174	202	10
-47	166	-4
108	93	-27
221	19	-52
216	-29	-71
84	-50	-74
-138	-54	-39
-351	-61	-23
-459	-81	-31
-420	-104	-12
-252	-112	7
-33	-87	5
155	-31	19
253	36	28
261	90	2
205	112	-40
127	112	-58
50	106	-75
-21	119	-92
-88	147	-96
-140	170	-81
-155	149	-40
-107	63	0
-3	-71	17
127	-208	15
234	-281	5
280	-254	-18
262	-131	-28
207	29	-26
147	157	-24
93	198	-13
19	149	-5
-97	50	7
-259	-35	5
-432	-69	-8
-522	-50	-36
-470	-9	-71
-271	13	-75
-4	-4	-59
212	-48	-43
285	-90	-9
195	-98	41
14	-75	59
-144	-39	29
-185	-26	-16
-101	-44	-57
48	-78	-79
164	-89	-35
189	-44	72
133	53	164
63	177	152
51	272	36
125	299	-112
254	251	-252
363	152	-316
392	48	-270
310	-30	-190
148	-78	-100
-37	-113	-21
-188	-159	15
-262	-209	34
-259	-245	45
-193	-224	87
-93	-131	108
19	17	69
119	166	14
184	252	-42
204	237	-76
169	125	-66
74	-29	-57
-68	-169	-48
-249	-248	-11
-422	-265	11
-547	-257	17
-571	-250	21
-465	-257	31
-256	-256	24
-2	-215	-7
184	-110	-45
229	42	-76
109	197	-86
-109	299	-79
-310	319	-32
-388	268	17
-298	183	27
-96	115	14
119	76	17
245	52	16
253	17	-4
184	-54	-15
119	-154	-32
119	-251	-41
186	-296	-64
272	-263	-70
314	-159	-67
290	-20	-46
222	108	1
151	198	32
111	239	53
94	244	44
68	240	17
10	231	-9
-67	221	-40
-119	198	-85
-104	161	-116
-13	109	-102
104	48	-72
172	-15	-17
138	-83	74
-2	-144	140
-195	-195	181
-371	-216	194
-459	-196	167
-439	-129	39
-325	-36	-160
-154	51	-336
40	98	-413
234	90	-358
388	45	-183
466	-4	49
431	-21	152
280	8	91
59	61	19
-162	109	-57
-291	117	-118
-287	81	-137
-162	21	-77
6	-28	10
128	-43	7
147	-32	-34
71	-20	-40
-42	-33	-2
-124	-79	36
-129	-137	39
-62	-170	28
34	-152	12
114	-89	10
150	-9	9
149	38	-1
132	30	-21
120	-36	-16
111	-134	-19
92	-225	-27
42	-274	9
-41	-265	33
-154	-207	40
-272	-104	21
-375	22	-16
-443	148	-21
-448	244	-8
-378	287	-33
-221	255	-56
-6	158	-53
209	34	-30
363	-60	-1
396	-80	3
295	-15	27
104	101	42
-93	210	27
-221	258	-12
-245	227	-50
-179	135	-105
-71	37	-137
30	-27	-113
97	-52	-103
132	-64	-97
141	-102	-72
120	-177	-66
54	-258	-51
-60	-286	-2
-203	-211	18
-319	-36	16
-345	177	19
-242	324	16
-27	313	13
236	130	0
451	-157	-12
536	-424	0
462	-547	14
263	-466	27
14	-233	22
-198	39	0
-311	218	-11
-300	237	-23
-189	117	-34
-40	-49	-48
84	-153	-52
151	-136	-41
170	-16	-26
180	133	-15
225	233	-10
311	243	-9
391	180	-15
389	104	-4
244	65	22
-38	80	67
-372	119	93
-644	142	80
-740	118	24
-627	51	-86
-371	-18	-208
-76	-56	-248
148	-44	-190
255	8	-109
259	71	-54
208	122	-32
144	141	-19
83	137	-32
21	112	-13
-40	66	20
-87	-7	28
-93	-107	26
-49	-222	-22
28	-315	-82
101	-348	-106
135	-301	-111
128	-174	-57
97	-11	86
68	132	199
52	210	171
32	197	84
-12	111	-9
-87	-12	-147
-156	-116	-260
-172	-169	-279
-111	-153	-151
4	-89	28
111	-18	121
144	16	119
75	-19	43
-61	-115	-38
-201	-235	-78
-275	-313	-77
-269	-298	-55
-206	-175	-19
-131	22	11
-66	219	14
0	345	1
86	365	13
193	286	5
280	159	-13
297	40	-10
210	-33	-6
46	-64	-3
-110	-72	-5
-172	-81	-23
-106	-83	-33
46	-66	-22
192	-15	-4
242	66	-4
162	145	-8
-4	185	2
-176	162	-5
-281	90	-17
-297	5	-16
-245	-50	0
-165	-60	9
-85	-41	9
1	-28	-5
99	-49	-32
195	-104	-59
254	-163	-75
231	-185	-76
115	-148	-66
-51	-56	-60
-184	54	-45
-200	145	-24
-84	189	-23
118	181	-6
297	135	0
360	74	-4
276	12	-3
92	-36	-1
-101	-69	1
-231	-83	3
-264	-71	-20
-241	-49	-54
-207	-23	-69
-203	-6	-81
-221	-4	-56
-210	-12	-26
-127	-8	15
46	18	40
292	70	12
549	130	-40
732	170	-77
775	169	-80
632	122	-70
310	49	-42
-128	-21	15
-584	-69	76
-905	-88	74
-1002	-97	32
-837	-120	2
-486	-188	-57
-87	-300	-121
223	-432	-103
355	-533	-44
337	-546	-37
259	-427	-54
229	-183	-34
278	130	-24
363	414	-50
392	568	-76
291	538	-96
64	350	-82
-198	98	-67
-389	-100	-51
-445	-166	-20
-383	-97	13
-281	32	64
-222	122	126
-225	119	163
-251	25	173
-227	-80	129
-109	-117	26
74	-44	-105
250	105	-226
343	249	-260
329	312	-192
249	261	-85
172	135	-1
148	6	28
163	-69	13
167	-80	-17
106	-57	-38
-23	-50	-36
-172	-84	-43
-261	-142	-37
-245	-186	-17
-135	-178	-6
3	-116	-9
93	-32	6
95	37	30
18	62	36
-86	50	22
-168	22	-4
-191	12	13
-158	24	2
-77	50	-22
35	71	-28
155	69	-34
262	50	-46
317	20	-44
296	-7	-7
196	-29	-10
65	-46	10
-34	-56	45
-55	-53	69
5	-27	70
97	23	32
154	89	-3
128	139	-43
31	155	-45
-81	124	-66
-148	57	-86
-135	-21	-96
-72	-94	-88
-11	-157	-70
7	-216	-77
-22	-283	-68
-68	-352	-68
-100	-393	-47
-99	-384	-37
-77	-306	-41
-50	-173	-1
-26	-21	55
7	104	43
60	187	14
123	230	-10
155	261	-56
107	299	-89
-27	338	-100
-216	340	-60
-371	261	-39
-410	90	-2
-296	-151	12
-63	-379	-24
199	-504	-24
406	-459	37
484	-243	134
428	65	138
261	356	56
34	515	-44
-199	492	-136
-402	313	-207
-529	80	-217
-555	-108	-124
-477	-177	-30
-318	-130	-27
-138	-34	-48
8	25	-60
81	-3	-47
84	-107	-11
58	-223	28
50	-265	93
92	-201	174
167	-48	225
245	122	175
287	233	54
280	248	-83
241	183	-202
190	98	-280
144	47	-282
102	48	-170
47	79	-43
-32	86	24
-131	37	70
-216	-69	70
-252	-190	48
-209	-270	22
-95	-280	-12
60	-219	-4
209	-129	-17
299	-47	-60
297	4	-56
212	34	-26
82	68	-12
-41	127	8
-107	209	8
-95	291	-13
-20	345	9
72	342	20
122	284	-1
99	186	-27
2	72	-53
-123	-32	-65
-225	-126	-66
-262	-213	-69
-231	-301	-53
-147	-394	-21
-37	-482	-8
67	-524	5
159	-481	24
232	-322	43
280	-74	67
280	213	77
222	438	67
98	518	74
-67	403	92
-227	139	61
-338	-170	2
-366	-393	-94
-317	-453	-185
-223	-344	-241
-125	-150	-252
-56	15	-176
-24	83	-96
-21	55	-60
-26	5	-80
-30	16	-94
-43	123	-70
-82	289	-67
-162	421	-32
-264	430	-3
-353	291	7
-364	58	38
-259	-167	51
-49	-289	52
206	-271	64
406	-154	96
474	-16	127
398	68	120
237	79	76
92	39	20
42	4	-43
114	6	-115
248	48	-127
359	105	-63
371	134	-24
275	125	-48
120	85	-61
-23	38	-66
-101	7	-55
-118	-10	-30
-105	-27	-34
-103	-63	-53
-117	-122	-47
-128	-183	-31
-103	-213	-30
-26	-192	-26
81	-118	-32
169	-14	-9
195	85	15
139	153	15
21	174	7
-119	161	-9
-236	118	-8
-288	63	-30
-269	6	-40
-188	-49	-24
-80	-92	-1
12	-110	8
54	-88	-13
35	-28	-9
-20	57	-13
-63	143	-47
-46	201	-80
44	209	-77
175	163	-60
277	77	-34
284	-29	4
175	-125	3
4	-188	-12
-153	-200	-7
-221	-157	2
-177	-72	17
-70	20	24
26	88	19
56	101	33
18	57	46
-46	-26	19
-84	-111	-40
-82	-174	-87
-75	-204	-129
-113	-212	-139
-214	-222	-136
-325	-234	-89
-358	-235	-58
-239	-192	-76
27	-94	-67
336	51	-54
528	190	-17
490	264	-15
219	236	-15
-168	111	9
-489	-46	7
-614	-167	5
-500	-187	8
-232	-99	-4
64	50	-16
276	195	-19
373	274	-19
402	264	-5
409	179	17
415	61	55
399	-44	95
317	-109	126
155	-123	140
-54	-97	125
-240	-46	49
-345	2	-39
-355	31	-101
-300	32	-162
-237	10	-163
-193	-11	-84
-170	-4	-4
-137	46	-14
-75	130	-67
20	209	-107
116	237	-122
183	178	-114
203	39	-108
184	-139	-83
150	-286	-62
119	-351	-57
97	-312	-46
80	-202	-25
54	-86	-2
25	-12	37
0	2	101
-4	-13	170
20	-2	182
65	76	82
116	221	-39
145	379	-107
136	477	-183
82	457	-203
-4	312	-117
-93	92	-10
-149	-117	58
-145	-242	44
-92	-257	17
-19	-181	-21
17	-81	-97
-22	-8	-95
-141	4	-60
-289	-36	-47
-398	-101	-43
-416	-157	-26
-329	-176	-12
-178	-158	-2
-18	-105	0
97	-36	-16
159	28	-15
186	66	-9
204	58	-4
221	9	-15
219	-63	-7
184	-121	0
103	-139	-5
-2	-111	-20
-100	-69	-9
-164	-55	11
-187	-94	18
-181	-171	26
-150	-235	-7
-90	-224	-37
13	-111	-53
150	72	-49
286	247	-35
369	335	-19
341	299	3
203	170	14
-2	19	13
-182	-77	-5
-269	-90	-36
-242	-50	-60
-137	-11	-60
-25	-14	-58
42	-56	-42
48	-96	-20
18	-84	-10
-15	-2	-6
-30	117	-12
-32	215	-6
-37	244	7
-44	188	10
-37	87	22
1	0	7
64	-28	-17
119	7	-20
132	77	-40
86	133	-69
17	154	-88
-20	132	-105
25	86	-112
139	31	-95
261	-30	-53
302	-100	-11
222	-176	33
51	-237	81
-117	-253	115
-182	-192	112
-112	-59	29
39	105	-68
162	241	-110
167	288	-92
37	237	-49
-154	113	24
-292	-13	74
-291	-82	-18
-147	-66	-113
74	14	-138
261	108	-100
320	161	-3
231	144	45
33	71	61
-198	-26	34
-392	-117	-32
-522	-182	-86
-565	-226	-132
-535	-259	-172
-453	-291	-180
-338	-318	-145
-221	-322	-80
-122	-300	-5
-66	-251	-1
-48	-192	7
-42	-137	49
-13	-95	69
60	-59	79
172	-21	47
285	23	33
358	66	15
371	97	2
328	114	12
258	124	1
199	144	-14
155	180	-8
115	218	2
63	230	2
0	181	-6
-44	69	-30
-39	-70	-41
33	-179	-43
150	-194	-34
248	-97	16
275	79	96
202	260	135
65	365	80
-74	359	-44
-150	260	-159
-143	126	-236
-84	29	-284
-20	4	-245
2	30	-122
-17	58	-25
-54	33	69
-79	-52	110
-80	-169	117
-72	-257	102
-72	-273	12
-94	-218	-76
-112	-129	-153
-107	-57	-171
-52	-34	-80
36	-47	71
128	-52	189
194	-5	185
212	101	87
188	233	-26
132	329	-149
57	339	-203
-28	251	-157
-121	97	-91
-205	-64	-80
-255	-195	-70
-257	-279	-21
-218	-333	-11
-164	-372	5
-128	-400	32
-123	-399	47
-125	-348	61
-94	-242	57
3	-98	39
150	47	22
295	166	18
380	250	-2
359	301	-13
259	333	-3
121	330	22
9	274	12
-63	148	-39
-111	-30	-74
-158	-207	-112
-201	-311	-155
-205	-287	-169
-120	-150	-132
63	35	-81
302	182	-39
493	225	-17
527	166	-19
358	65	-6
31	1	8
-338	13	25
-636	84	32
-777	143	31
-757	126	33
-626	10	52
-451	-160	54
-277	-304	6
-123	-351	-12
12	-282	-30
123	-143	-71
202	-9	-94
237	66	-92
223	65	-62
178	25	-2
128	-1	43
98	26	52
102	106	48
141	203	44
206	268	21
273	267	-41
320	201	-102
314	96	-116
245	-5	-81
116	-61	-48
-30	-56	-44
-138	-1	-58
-162	71	-57
-94	120	-47
21	110	-40
113	39	-32
119	-72	-23
33	-176	-9
-99	-224	5
-189	-191	9
-176	-92	-21
-52	17	-44
129	82	-31
279	63	-24
333	-24	-28
273	-133	-22
143	-205	9
11	-200	31
-68	-127	16
-71	-21	11
-19	76	11
50	136	-19
95	166	-25
97	179	-14
50	188	22
-35	179	98
-144	134	140
-264	41	98
-366	-86	-10
-422	-210	-118
-415	-286	-243
-339	-289	-290
-223	-232	-208
-101	-153	-64
-19	-88	22
7	-54	53
-13	-40	120
-45	-24	109
-53	7	54
-20	45	-30
49	65	-124
122	48	-197
172	1	-219
181	-54	-136
151	-84	-31
94	-63	34
28	-7	38
-37	54	27
-102	85	22
-155	75	5
-180	32	-39
-158	-12	-62
-79	-31	-54
36	-21	-59
151	10	-38
223	43	34
230	70	111
189	97	149
148	124	118
152	157	12
223	179	-103
337	171	-183
429	123	-192
439	51	-126
340	-16	-23
140	-46	54
-107	-32	61
-358	10	38
-561	41	6
-698	24	-33
-756	-46	-56
-720	-142	-58
-589	-216	-40
-366	-222	7
-104	-143	63
139	-9	89
306	129	65
365	215	21
336	218	-40
288	144	-100
283	34	-124
346	-62	-93
452	-101	-35
506	-71	-10
439	6	5
225	92	-6
-98	139	-39
-417	130	-49
-619	61	-60
-626	-36	-43
-442	-137	5
-143	-212	36
157	-254	58
355	-273	93
409	-280	98
331	-281	71
175	-260	8
10	-196	-80
-121	-78	-113
-202	81	-140
-243	233	-202
-262	317	-227
-278	286	-132
-282	142	-52
-271	-68	-64
-229	-254	-24
-158	-330	5
-61	-257	22
41	-60	33
133	171	26
204	341	29
239	373	-15
234	267	-25
192	63	-2
132	-152	-4
74	-297	0
36	-334	-3
31	-259	3
50	-108	29
77	77	39
89	254	43
78	382	24
49	435	2
24	395	-36
20	272	-96
36	104	-134
53	-53	-116
44	-145	-44
-10	-150	22
-108	-87	100
-212	-16	176
-274	11	234
-259	-34	167
-153	-121	-32
12	-190	-186
176	-191	-300
280	-114	-387
284	-6	-365
196	68	-202
57	61	-40
-71	-14	42
-150	-103	74
-148	-133	45
-83	-67	25
12	71	25
93	210	26
133	273	2
126	221	-23
76	76	-16
3	-94	-5
-72	-210	58
-124	-234	143
-139	-169	231
-114	-66	268
-50	23	231
34	70	69
133	75	-161
234	64	-330
319	61	-424
373	81	-373
363	109	-197
253	124	9
24	104	86
-287	35	42
-610	-67	19
-840	-186	-43
-903	-277	-85
-773	-316	-90
-506	-286	-71
-194	-199	-21
62	-94	3
216	-7	22
274	33	41
269	36	65
238	29	71
188	44	37
111	86	-4
13	127	2
-79	122	37
-107	35	52
-36	-121	43
120	-292	22
285	-390	-3
365	-361	-42
296	-201	-96
86	33	-111
-166	248	-72
-347	372	-64
-366	391	-59
-223	335	-24
17	268	14
245	233	35
393	233	-3
445	239	-55
432	221	-98
402	168	-111
369	100	-72
310	37	-7
186	-13	22
-23	-65	-1
-286	-147	-42
-533	-260	-72
-686	-384	-67
-695	-452	-45
-553	-423	-18
-308	-291	-11
-27	-106	-12
211	47	-15
368	110	-6
414	68	6
357	-26	-14
216	-104	-14
44	-110	-17
-111	-47	-9
-199	31	17
-191	65	20
-86	29	26
84	-46	37
262	-101	34
393	-71	-11
435	52	-65
387	225	-80
274	379	-87
134	452	-64
2	431	-23
-111	354	22
-201	261	49
-281	185	49
-342	117	63
-366	32	65
-345	-87	53
-272	-224	49
-178	-334	-9
-102	-378	-114
-84	-332	-192
-123	-229	-242
-183	-119	-214
-200	-56	-104
-130	-54	-11
25	-90	-16
212	-112	-55
346	-80	-51
371	9	-24
269	117	-5
93	185	4
-85	173	24
-204	82	4
-237	-47	-23
-214	-150	-25
-173	-181	-16
-152	-131	4
-151	-38	5
-147	40	6
-101	62	32
7	16	28
175	-71	7
359	-155	11
504	-192	-1
549	-179	-14
455	-127	-34
237	-70	-50
-59	-29	-30
-341	-4	24
-520	20	93
-558	59	111
-459	106	61
-287	147	-12
-98	155	-82
51	120	-165
151	55	-194
216	-15	-143
261	-56	-78
283	-58	-55
275	-22	-69
225	31	-84
150	79	-97
86	109	-120
72	118	-115
119	116	-78
198	109	-36
261	104	28
254	103	104
163	103	149
3	103	149
-175	90	115
-332	62	42
-439	13	-32
-481	-48	-105
-459	-102	-148
-375	-124	-106
-248	-103	-61
-102	-45	-25
27	23	-14
111	67	2
151	66	24
170	21	26
194	-39	34
222	-77	35
231	-67	61
176	-12	69
46	64	24
-129	129	-40
-262	155	-48
-273	134	-51
-132	76	-55
111	-2	-28
346	-75	-18
483	-130	-15
470	-162	-44
346	-177	-84
187	-191	-131
44	-219	-138
-68	-275	-107
-193	-346	-65
-350	-404	13
-515	-403	109
-626	-312	164
-611	-137	155
-470	80	82
-256	268	-26
-67	365	-127
36	350	-214
80	256	-239
145	145	-147
311	79	-23
566	79	24
800	113	44
850	127	90
620	81	110
138	-18	60
-418	-115	3
-835	-152	-48
-973	-96	-106
-821	20	-132
-507	123	-101
-194	145	-43
1	72	-32
75	-53	-43
98	-152	-31
136	-153	14
214	-49	39
297	101	68
332	210	134
311	215	135
262	114	60
238	-40	-41
244	-161	-125
242	-191	-192
169	-131	-219
1	-28	-155
-214	56	-55
-374	85	-33
-383	61	-56
-233	24	-60
-2	10	-62
179	32	-33
216	71	-13
110	95	-15
-57	76	-2
-176	15	9
-186	-61	-2
-104	-121	-31
-4	-137	-53
50	-111	-58
48	-55	-51
28	3	-5
36	41	65
80	55	86
122	50	77
120	44	31
63	49	-38
0	76	-75
-11	114	-108
64	142	-82
184	141	-20
258	96	10
207	14	50
33	-85	123
-185	-165	169
-321	-205	144
-312	-206	81
-181	-189	21
-36	-186	-37
15	-209	-113
-53	-248	-113
-169	-264	-120
-210	-233	-203
-102	-140	-215
132	-12	-133
369	103	-38
478	169	-24
406	171	-38
199	140	-7
-15	113	22
-122	116	32
-98	151	28
-12	185	9
29	186	13
-49	133	28
-232	42	35
-439	-50	3
-564	-108	-48
-556	-109	-68
-426	-65	-86
-236	-1	-52
-48	56	3
99	94	14
184	114	21
216	118	12
206	112	5
161	86	9
109	41	-15
82	-23	-51
100	-90	-84
149	-142	-103
188	-167	-93
171	-167	-70
99	-153	-33
18	-136	22
9	-117	25
107	-84	8
269	-21	-9
380	71	-46
314	174	-88
47	256	-110
-328	279	-71
-619	230	-42
-676	126	-41
-463	3	-39
-115	-89	-36
178	-121	16
257	-94	65
105	-28	62
-143	33	52
-315	56	29
-291	22	-15
-100	-57	-22
140	-153	-5
292	-224	-24
310	-229	-5
241	-157	66
188	-8	137
206	179	116
273	341	-15
299	417	-119
218	357	-189
40	158	-234
-138	-135	-186
-214	-418	-43
-142	-589	28
23	-567	3
160	-361	-32
172	-58	-89
48	205	-100
-126	309	-100
-245	210	-85
-229	-32	-36
-104	-282	28
31	-408	119
69	-339	174
-24	-119	145
-209	122	59
-389	250	-46
-481	191	-157
-465	-11	-246
-377	-232	-218
-262	-333	-122
-148	-238	-40
-12	15	43
166	313	48
369	507	20
532	535	-5
566	400	2
429	196	47
154	37	74
-126	-17	83
-281	24	59
-236	97	5
-19	127	-47
239	85	-55
399	-16	-41
368	-121	-21
175	-184	-15
-84	-185	-16
-280	-140	-21
-354	-86	-35
-321	-42	-36
-240	-21	-31
-172	-6	-26
-121	15	-6
-55	48	31
59	85	64
229	115	45
387	133	-14
458	138	-80
391	141	-138
210	140	-157
3	131	-158
-136	98	-102
-152	32	-42
-61	-65	-16
63	-178	1
145	-275	-14
151	-334	-41
98	-334	-6
31	-273	74
-14	-160	109
-42	-13	130
-78	138	124
-143	271	95
-230	352	6
-300	362	-90
-315	294	-128
-262	152	-177
-174	-31	-186
-97	-218	-114
-61	-356	-22
-59	-418	-9
-56	-384	-49
-21	-270	-50
50	-120	-27
120	19	-4
147	104	-1
112	125	-3
50	99	-6
19	65	-16
62	58	-35
180	89	-63
316	136	-60
401	155	-55
373	106	-47
238	-16	5
33	-174	30
-183	-304	4
-363	-339	-20
-496	-259	-30
-569	-101	-32
-581	61	-35
-523	139	-40
-377	92	-6
-169	-61	29
62	-233	8
254	-319	-26
358	-253	-30
369	-42	0
318	235	3
245	467	-4
186	557	18
136	482	29
79	283	49
2	51	49
-94	-127	32
-174	-211	12
-211	-198	-19
-197	-134	-36
-142	-65	-69
-79	-21	-106
-25	-6	-115
9	-6	-99
34	-5	-96
58	1	-103
78	9	-51
85	13	1
68	14	26
37	10	33
8	4	-1
6	-7	-48
42	-24	-70
111	-46	-72
194	-61	-52
263	-54	7
312	-12	72
328	65	116
310	163	106
245	252	39
129	301	-54
-41	299	-140
-239	244	-205
-420	158	-201
-540	59	-128
-563	-39	-40
-497	-126	14
-370	-199	14
-217	-249	-1
-69	-272	-13
76	-261	-16
219	-213	14
363	-133	75
488	-34	138
550	67	183
515	156	196
368	219	168
139	243	72
-111	219	-92
-314	148	-206
-408	38	-242
-375	-88	-273
-246	-196	-260
-83	-261	-150
45	-269	-22
91	-225	27
44	-153	45
-62	-90	70
-175	-64	85
-239	-88	55
-229	-149	-7
-153	-224	-100
-44	-280	-168
64	-296	-138
154	-260	-153
226	-188	-97
288	-107	9
342	-43	34
373	-14	65
354	4	51
248	41	13
48	139	-60
-215	305	-98
-489	497	-83
-699	644	-57
-765	664	-52
-665	520	-49
-415	248	-31
-97	-47	-22
180	-252	7
336	-277	31
325	-129	90
194	98	115
28	270	92
-63	282	62
-40	116	20
72	-157	-14
184	-403	-37
209	-516	-18
115	-453	-7
-44	-263	-21
-161	-44	-51
-145	110	-66
22	161	-50
266	130	-48
461	84	-47
496	74	-56
355	117	-65
115	186	-58
-101	229	-48
-191	208	-21
-141	121	29
-18	1	80
80	-114	87
81	-189	50
-9	-222	0
-122	-217	-18
-180	-198	-35
-143	-170	-37
-38	-126	15
75	-68	57
134	5	-7
127	79	-138
78	131	-251
35	149	-291
26	131	-189
42	93	-25
54	49	65
35	21	72
-14	12	67
-70	20	56
-110	32	7
-124	38	-43
-133	23	-69
-152	-21	-90
-188	-87	-82
-214	-163	-46
-194	-215	-28
-116	-218	8
4	-154	27
106	-32	-3
139	101	-26
85	192	-26
-21	183	-24
-113	70	-1
-135	-118	22
-74	-305	24
28	-413	37
105	-399	30
102	-263	26
13	-62	15
-121	129	-13
-236	251	-31
-280	279	-37
-243	235	-21
-139	157	0
-10	96	2
116	79	-21
221	110	-40
288	166	-44
314	211	-40
285	219	-28
200	168	-30
77	63	-35
-51	-69	-44
-141	-192	-53
-173	-271	-55
-161	-280	-58
-143	-224	-50
-157	-125	-61
-208	-22	-40
-255	55	11
-232	95	32
-80	106	45
189	108	36
496	110	15
739	113	-13
793	98	-49
631	48	-88
292	-33	-117
-89	-127	-123
-392	-191	-70
-536	-195	49
-515	-135	155
-392	-31	165
-249	71	91
-145	137	-7
-89	153	-103
-40	138	-173
31	120	-185
139	118	-138
245	127	-65
302	117	2
260	59	7
122	-53	-22
-66	-186	-42
-232	-281	-47
-321	-282	-7
-319	-166	37
-247	37	74
-156	252	43
-76	392	-17
-15	404	-83
43	279	-160
122	70	-177
211	-154	-176
287	-326	-86
317	-408	-10
285	-395	16
211	-313	62
126	-191	54
64	-69	68
26	24	74
-14	66	62
-88	53	32
-201	-4	-34
-333	-80	-107
-431	-143	-125
-439	-168	-80
-350	-152	-51
-178	-113	-28
29	-69	-12
234	-39	-11
404	-13	-20
508	30	-19
549	99	7
484	189	57
320	265	72
77	291	45
-181	248	7
-375	150	-44
-458	37	-97
-434	-49	-102
-370	-86	-63
-333	-86	-35
-355	-72	-11
-393	-72	8
-369	-85	18
-197	-90	19
112	-62	26
456	3	59
695	89	98
700	166	112
468	207	78
99	211	-4
-221	193	-106
-355	166	-184
-274	137	-241
-59	90	-221
139	20	-127
206	-75	-14
107	-167	51
-84	-224	15
-255	-224	-19
-310	-168	-20
-222	-86	-20
-40	-6	-13
156	55	7
300	108	49
363	170	81
354	233	50
296	268	-10
206	233	-44
89	97	-62
-42	-131	-24
-168	-384	48
-260	-570	74
-296	-612	34
-273	-479	-26
-209	-210	-83
-130	103	-141
-54	357	-155
18	483	-95
93	457	-5
167	305	7
223	97	-22
234	-100	-31
179	-225	-96
69	-259	-124
-55	-216	-124
-152	-137	-133
-191	-74	-111
-177	-58	-61
-142	-95	12
-128	-155	48
-153	-199	57
-199	-184	39
-228	-103	-3
-195	24	-37
-91	161	-41
65	266	-41
219	325	-32
320	330	9
339	290	48
278	224	87
180	134	112
96	39	96
66	-47	29
105	-105	-55
188	-120	-123
266	-97	-141
287	-57	-113
223	-30	-70
72	-31	-2
-116	-52	65
-288	-66	79
-389	-45	61
-390	12	22
-312	81	-25
-195	113	-48
-101	79	-48
-68	-19	-39
-122	-136	-36
-248	-219	-53
-408	-237	-50
-547	-194	-37
-602	-138	-32
-535	-111	-39
-343	-127	-37
-71	-153	-18
201	-136	-32
406	-43	-30
496	113	-14
492	269	-11
446	357	-8
416	333	-14
419	227	-34
428	104	-39
374	38	-42
237	51	-39
26	102	-15
-183	112	-8
-304	27	-9
-305	-136	-27
-210	-301	-54
-100	-364	-70
-35	-274	-52
-36	-63	5
-63	161	80
-52	272	175
25	205	240
140	-6	216
228	-242	130
221	-368	-3
123	-312	-180
-4	-111	-292
-70	123	-267
-26	268	-182
107	265	-114
242	145	-44
277	2	-17
169	-70	-58
-50	-33	-106
-273	68	-132
-392	161	-117
-366	171	-95
-217	91	-74
-33	-29	-12
97	-120	39
118	-127	46
49	-60	32
-53	29	48
-122	83	49
-126	70	25
-79	7	0
-23	-58	10
-5	-86	17
-39	-55	-24
-99	9	-40
-138	65	-36
-116	85	-7
-22	59	49
113	5	93
239	-46	79
306	-71	11
300	-55	-69
239	-2	-123
169	70	-156
131	142	-166
139	184	-95
172	175	-19
196	103	26
180	-29	59
130	-192	80
66	-334	55
22	-416	-22
3	-401	-65
-15	-300	-77
-66	-150	-79
-182	2	-60
-343	114	-6
-496	170	29
-572	180	5
-515	161	-31
-328	131	-47
-68	94	-55
158	43	-54
257	-18	-10
172	-82	51
-77	-131	52
-417	-153	27
-743	-145	-3
-920	-135	-56
-886	-139	-87
-619	-171	-82
-191	-206	-50
275	-212	-34
656	-158	-41
850	-35	-47
836	119	-27
669	255	15
454	318	55
285	295	95
203	210	93
176	110	74
140	39	13
39	8	-127
-136	10	-208
-320	20	-164
-428	32	-124
-386	51	-135
-186	99	-64
100	171	26
373	249	34
529	288	21
523	256	-11
383	150	-7
186	5	6
16	-121	3
-78	-177	3
-88	-153	1
-59	-81	1
-44	-15	-10
-82	-1	2
-169	-49	-28
-269	-129	-62
-321	-188	-65
-290	-190	-66
-160	-125	-40
32	-19	32
214	83	111
328	142	178
337	139	201
251	90	122
116	13	-16
-5	-58	-151
-68	-112	-222
-68	-145	-192
-34	-167	-79
-4	-190	23
-8	-203	47
-53	-196	9
-122	-142	-80
-188	-27	-174
-234	145	-233
-247	338	-221
-232	492	-147
-191	540	-61
-124	453	-23
-39	238	-9
50	-46	29
115	-309	59
131	-481	111
85	-524	190
-4	-459	208
-96	-344	138
-149	-237	-3
-132	-160	-119
-59	-104	-211
42	-43	-272
128	36	-182
172	114	-25
180	149	52
166	115	39
153	28	28
140	-47	11
117	-43	-26
54	65	-28
-58	239	7
-211	380	44
-366	393	79
-481	241	78
-516	-22	22
-455	-278	-55
-313	-416	-127
-118	-378	-175
85	-214	-147
269	-19	-35
421	117	40
531	162	50
600	150	14
623	136	-12
575	157	-15
439	190	-29
202	188	-37
-104	110	-34
-425	-30	-30
-676	-177	-36
-774	-256	-28
-697	-223	-21
-463	-98	-11
-159	49	-9
125	142	-19
325	150	-16
402	92	-16
374	25	-12
289	0	-13
180	27	-22
78	82	-12
-9	120	-21
-69	114	-12
-98	62	13
-97	-15	5
-70	-98	-16
-40	-177	-36
-24	-250	-27
-19	-314	-23
-8	-342	-12
35	-299	-27
129	-159	-42
258	68	-22
380	324	-30
429	526	-16
363	598	-24
175	505	-24
-91	289	6
-357	15	16
-545	-226	38
-602	-368	59
-513	-393	42
-320	-322	-48
-89	-203	-139
101	-87	-201
203	-7	-255
209	27	-201
154	26	-72
91	15	12
63	13	30
77	33	51
100	67	83
91	92	104
26	84	87
-76	29	34
-173	-57	-26
-209	-145	-83
-176	-196	-108
-105	-188	-114
-61	-131	-102
-85	-56	-75
-169	-9	-48
-253	-9	-30
-258	-45	-28
-149	-78	-19
55	-68	26
269	-3	69
409	97	118
422	182	168
321	211	173
171	170	121
42	85	1
-20	0	-137
-29	-47	-248
-23	-49	-270
-42	-29	-193
-96	-20	-91
-164	-48	-46
-214	-107	-15
-223	-168	8
-185	-196	-15
-113	-181	-22
-21	-120	-19
77	-37	3
170	44	14
241	119	26
276	187	53
261	256	74
203	325	90
130	380	78
86	405	53
99	382	20
167	310	-24
245	200	-52
269	70	-85
202	-60	-129
40	-179	-131
-158	-259	-117
-317	-289	-82
-373	-249	-36
-319	-145	4
-202	-1	59
-102	137	85
-80	224	40
-148	219	-21
-259	118	-62
-340	-55	-56
-321	-260	-31
-185	-441	-64
42	-541	-92
292	-534	-76
484	-405	-80
547	-186	-86
459	65	-36
234	268	28
-72	345	13
-374	279	-54
-589	92	-89
-653	-123	-67
-556	-268	-31
-336	-281	-10
-87	-179	-13
106	-44	-19
195	31	-5
180	-9	-1
119	-129	-1
76	-244	17
81	-254	24
121	-127	16
150	85	11
124	287	-7
44	385	-25
-52	343	-13
-108	208	7
-89	68	7
-2	-4	-5
101	6	-17
161	62	-33
139	98	-59
42	76	-88
-86	-5	-88
-200	-105	-51
-259	-184	-12
-247	-218	0
-172	-211	-3
-50	-179	17
93	-123	54
234	-43	70
351	63	69
419	185	39
430	282	-6
385	325	-57
299	290	-94
190	205	-95
76	114	-77
-31	62	-65
-120	66	-52
-181	102	-36
-191	125	-21
-143	99	-4
-45	25	8
64	-65	13
132	-127	-10
119	-137	-30
23	-99	-43
-106	-38	-69
-200	15	-104
-199	53	-100
-105	85	-41
30	123	17
123	161	30
111	174	-18
4	142	-34
-140	48	-16
-231	-86	1
-217	-223	31
-114	-314	12
8	-345	-25
79	-321	-49
65	-259	-61
4	-175	-46
-38	-67	6
-7	65	71
98	211	95
216	325	60
272	349	-38
203	244	-144
16	18	-235
-234	-260	-256
-459	-497	-135
-600	-601	-12
-610	-548	16
-489	-381	0
-273	-178	30
-4	-17	75
240	67	89
389	90	107
391	90	117
244	96	107
6	113	65
-222	125	-1
-333	114	-98
-281	85	-192
-92	56	-219
145	51	-162
332	71	-68
407	95	8
373	93	32
278	51	2
172	-5	-14
87	-40	-7
20	-13	-21
-38	83	-21
-84	211	-7
-89	324	-10
-32	372	-35
79	353	-52
195	279	-42
251	192	-39
197	110	-28
39	43	6
-161	-13	70
-327	-64	113
-392	-100	77
-358	-117	9
-260	-116	-93
-149	-131	-192
-48	-198	-231
58	-322	-185
191	-474	-101
343	-564	-44
462	-519	-26
454	-312	-12
266	2	20
-82	305	47
-459	477	46
-700	467	2
-688	309	-21
-415	100	-17
-5	-52	-2
358	-105	19
521	-92	39
439	-81	56
203	-125	59
-44	-215	63
-182	-287	67
-179	-263	48
-88	-124	34
4	82	21
46	261	-3
44	333	-20
51	279	-75
105	147	-114
194	13	-131
262	-67	-106
245	-95	-46
124	-109	17
-68	-149	63
-248	-211	63
-347	-260	34
-331	-234	-46
-227	-115	-135
-87	61	-209
28	221	-231
89	285	-136
93	233	-20
51	98	-18
-22	-29	-47
-107	-80	-46
-182	-25	-28
-222	96	-14
-195	211	-19
-102	253	8
39	195	57
191	63	85
310	-87	86
355	-196	89
322	-224	71
211	-171	11
54	-61	-46
-111	64	-76
-235	163	-89
-269	207	-104
-199	183	-84
-44	110	-26
130	11	32
245	-72	48
253	-114	22
145	-102	-35
-14	-55	-97
-148	-9	-113
-195	8	-111
-162	-19	-97
-98	-71	-63
-69	-127	5
-102	-156	40
-169	-147	35
-203	-114	39
-150	-70	12
4	-35	-15
204	-2	-68
373	41	-94
454	103	-52
421	177	-11
301	227	22
138	222	59
-22	142	72
-152	7	52
-250	-140	-17
-309	-238	-44
-325	-256	-16
-300	-195	-15
-233	-94	-6
-136	-2	-40
-28	41	-116
78	35	-201
170	-1	-227
245	-36	-138
297	-47	-22
317	-29	44
302	6	48
261	45	57
204	80	51
145	110	43
78	135	21
-16	150	11
-158	143	6
-357	106	-25
-565	39	-30
-714	-49	-39
-743	-137	-45
-626	-200	-62
-401	-227	-66
-150	-210	-18
34	-168	29
114	-105	48
114	-38	69
100	27	58
126	82	3
203	117	-9
288	122	-35
321	95	-77
278	40	-87
180	-23	-90
93	-75	-98
66	-102	-93
111	-102	-66
188	-86	-37
228	-63	-9
194	-37	-17
88	2	-40
-39	66	-24
-129	150	-25
-143	236	-26
-86	284	-6
13	268	36
109	174	69
172	34	34
189	-106	-17
154	-196	-56
71	-216	-111
-47	-181	-153
-174	-126	-125
-267	-84	-32
-299	-60	35
-253	-36	71
-158	17	98
-55	105	115
15	209	114
41	282	61
44	284	9
49	206	-50
69	78	-104
87	-52	-117
78	-137	-84
30	-163	-37
-39	-153	-23
-85	-137	-28
-75	-141	-35
-10	-157	-34
69	-154	-32
110	-105	-8
83	-2	49
18	129	117
-16	246	94
37	310	-25
191	300	-136
391	233	-217
545	137	-252
575	52	-197
454	-8	-62
216	-50	35
-72	-95	60
-335	-166	54
-530	-263	2
-639	-368	-40
-654	-432	-53
-582	-418	-35
-431	-301	-4
-237	-115	-22
-65	80	-7
30	203	60
19	203	110
-66	88	79
-158	-78	-8
-178	-196	-109
-93	-204	-196
72	-93	-211
245	67	-172
351	174	-82
354	161	-38
257	24	-30
104	-151	8
-69	-260	63
-232	-233	104
-355	-76	127
-425	129	120
-410	286	62
-296	327	20
-98	261	-30
128	149	-72
306	62	-86
381	33	-76
333	45	-59
202	54	-42
49	27	-31
-68	-35	-23
-125	-100	4
-121	-122	19
-75	-90	24
1	-15	25
99	64	32
208	119	24
302	142	13
346	139	27
325	126	29
234	98	0
113	49	-36
13	-15	-61
-26	-79	-100
5	-114	-150
77	-113	-194
132	-84	-175
128	-62	-123
37	-87	-60
-120	-151	16
-296	-214	99
-422	-215	171
-443	-114	164
-342	71	95
-141	268	-17
79	390	-150
234	387	-219
263	275	-182
170	128	-79
17	24	16
-99	2	64
-111	36	47
-16	65	6
115	39	-22
188	-52	-61
139	-166	-84
-11	-246	-74
-176	-254	-71
-239	-202	-69
-142	-129	-38
90	-68	-8
351	-25	6
528	31	52
547	122	74
411	250	27
184	362	-32
-74	386	-76
-317	275	-59
-529	30	-24
-699	-277	-6
-792	-556	19
-750	-715	2
-538	-721	-7
-188	-600	5
188	-399	5
451	-186	-15
502	0	-21
346	140	-7
114	237	-27
-36	289	-35
4	298	-51
206	264	-61
429	199	-64
490	122	-55
297	57	-34
-106	23	-24
-542	20	2
-821	33	19
-832	45	22
-603	41	4
-263	20	-23
36	-9	-34
203	-23	-28
242	-12	-40
216	27	-41
192	77	-34
186	110	-37
175	106	-21
123	51	-22
38	-34	-9
-48	-123	13
-85	-174	33
-53	-169	39
13	-110	21
58	-31	-6
42	30	-42
-16	48	-78
-58	28	-95
-18	-1	-90
130	3	-53
332	56	32
486	153	107
508	250	150
387	308	84
171	301	-41
-27	239	-130
-125	149	-201
-100	59	-212
-1	-14	-142
85	-79	-35
91	-138	-4
11	-192	-20
-109	-227	-33
-203	-213	-46
-232	-152	-36
-189	-61	-44
-108	16	-47
-21	41	-41
61	5	4
139	-68	84
209	-126	111
242	-126	102
194	-58	47
33	40	-23
-221	119	-79
-491	128	-113
-672	60	-109
-695	-50	-102
-556	-144	-124
-332	-164	-121
-126	-91	-18
-17	54	124
-14	210	183
-63	296	135
-90	252	48
-52	64	-43
44	-222	-143
156	-513	-176
237	-700	-137
270	-701	-116
269	-508	-84
241	-187	-48
186	139	-15
101	357	26
-10	406	51
-101	313	81
-120	166	77
-25	68	47
159	76	35
353	161	4
453	253	-31
406	267	-47
249	171	-44
93	8	-41
44	-140	-35
140	-194	-20
302	-135	0
386	-3	19
269	122	30
-56	178	19
-481	143	-10
-834	58	-54
-959	-25	-91
-822	-67	-80
-505	-64	-71
-153	-49	-69
101	-51	-51
214	-86	-16
225	-130	-6
208	-154	-38
225	-133	-35
288	-66	-40
363	16	-33
394	84	26
342	113	86
204	104	123
5	77	65
-223	53	-18
-415	52	-81
-526	72	-154
-516	112	-172
-378	158	-108
-144	203	-8
116	244	49
314	261	59
395	250	36
355	191	3
249	89	-32
151	-46	-60
114	-188	-77
138	-306	-107
171	-383	-112
151	-403	-137
41	-381	-115
-126	-322	-40
-285	-242	-3
-350	-155	32
-294	-67	54
-148	6	71
10	60	49
97	85	-7
86	82	-50
10	51	-50
-46	4	-13
-18	-51	17
105	-101	59
257	-127	90
336	-121	84
258	-78	32
16	-14	-50
-307	44	-142
-589	69	-207
-711	45	-205
-645	-15	-151
-446	-80	-97
-218	-100	-65
-59	-52	-33
1	56	14
-1	187	35
3	283	30
70	311	39
198	257	45
340	153	46
438	38	37
452	-50	30
381	-104	12
250	-137	-14
101	-167	-47
-38	-196	-50
-152	-214	-24
-218	-196	4
-218	-131	63
-140	-26	103
2	88	78
167	178	2
294	224	-67
334	227	-135
275	205	-173
155	181	-144
29	164	-92
-52	144	-59
-77	108	-67
-69	47	-62
-67	-29	-61
-90	-101	-28
-124	-139	39
-139	-132	78
-110	-91	139
-34	-32	216
57	15	201
129	38	118
161	38	15
151	27	-123
117	19	-203
79	19	-205
32	26	-171
-33	31	-115
-125	28	-87
-229	15	-64
-307	-1	-40
-333	-19	-40
-296	-33	-42
-228	-43	-22
-172	-44	-45
-156	-30	-67
-163	3	-69
-136	51	-58
-12	95	-26
224	103	-19
521	56	-13
766	-45	-2
837	-163	5
697	-246	-8
388	-240	-4
36	-135	28
-228	26	53
-344	166	33
-339	203	9
-299	95	-20
-307	-135	-36
-375	-393	-5
-442	-573	-17
-415	-590	-11
-243	-432	10
26	-157	3
288	130	-14
409	328	-39
334	386	-32
91	313	-25
-197	174	-12
-415	40	8
-491	-40	7
-424	-56	-7
-279	-40	-6
-124	-28	-4
-13	-37	-28
40	-61	-48
46	-69	-49
21	-37	-56
-16	38	-68
-49	126	-79
-44	188	-74
18	195	-56
141	148	-42
292	77	-20
409	16	-19
439	-11	-20
370	-12	10
232	-15	38
89	-45	46
0	-101	43
-22	-157	30
-5	-174	28
0	-127	41
-39	-21	51
-111	106	64
-176	209	59
-186	256	0
-131	244	-84
-32	200	-165
69	154	-215
140	124	-195
176	110	-57
192	94	113
196	57	147
184	-4	52
132	-81	-69
26	-149	-185
-122	-192	-283
-262	-202	-291
-333	-181	-156
-291	-137	12
-148	-81	94
43	-23	92
216	29	72
318	68	49
340	95	25
309	110	15
257	122	-11
197	135	-26
117	149	-37
-3	149	-51
-162	124	-66
-330	67	-59
-458	-20	-18
-489	-120	4
-417	-210	54
-267	-268	105
-99	-280	76
32	-248	8
105	-179	-54
127	-92	-99
139	-4	-145
175	68	-156
245	110	-78
332	119	-16
399	96	-12
409	51	-25
339	-5	-26
174	-71	-21
-71	-144	-32
-364	-228	-32
-654	-301	-28
-863	-345	-12
-921	-322	28
-804	-229	54
-529	-76	52
-183	89	34
132	209	19
336	244	-16
389	198	-22
332	114	-10
222	49	-11
114	41	-3
24	92	-19
-63	155	-52
-166	181	-70
-274	142	-78
-345	53	-74
-321	-41	-34
-183	-97	1
52	-90	-13
310	-39	-27
508	22	-18
620	61	-15
624	74	-9
558	70	-3
450	70	-5
306	78	-19
117	76	-30
-117	43	-10
-352	-27	10
-516	-117	19
-534	-181	5
-374	-185	-23
-89	-120	-34
212	-16	-41
409	78	-26
429	121	22
296	104	84
104	58	94
-25	28	7
-28	45	-107
86	105	-176
232	174	-196
310	209	-135
261	179	-9
98	97	72
-105	1	61
-262	-66	11
-321	-87	-59
-282	-76	-86
-198	-69	-80
-127	-107	-68
-107	-187	-48
-130	-276	-56
-174	-313	-46
-205	-249	-41
-198	-77	-37
-151	154	-46
-65	354	-82
37	438	-97
135	365	-55
196	154	37
191	-114	147
113	-333	255
-14	-429	249
-136	-379	187
-190	-223	31
-144	-33	-155
-16	121	-280
128	194	-379
216	181	-341
206	104	-236
110	-6	-101
-14	-120	-11
-104	-212	13
-131	-261	56
-120	-254	68
-113	-192	76
-141	-90	69
-189	15	28
-204	88	14
-126	100	6
66	57	4
340	-12	12
614	-64	0
778	-70	10
759	-22	12
521	56	16
105	136	20
-399	190	8
-865	205	-1
-1150	191	-1
-1170	158	0
-937	114	-8
-532	62	-15
-106	0	-32
204	-64	-45
313	-114	-53
258	-130	-42
145	-105	-31
90	-41	-19
134	37	-1
240	101	-5
314	131	-14
299	129	-31
201	106	-33
107	80	-24
100	61	-25
196	51	-26
325	37	-37
373	15	-47
275	-18	-42
52	-52	-46
-174	-82	-40
-275	-104	-3
-190	-127	65
26	-163	161
239	-206	213
321	-246	174
223	-249	74
10	-196	-55
-193	-71	-198
-277	104	-287
-210	298	-253
-42	464	-145
139	561	-103
274	574	-63
345	505	1
366	365	38
350	183	21
278	-12	-78
121	-194	-135
-121	-343	-165
-424	-433	-136
-686	-460	-60
-827	-432	-8
-805	-352	41
-639	-246	38
-401	-129	-1
-161	-24	-40
31	45	-48
171	61	-40
278	14	-38
350	-82	-65
369	-192	-49
306	-265	-13
167	-270	1
-19	-194	29
-188	-82	56
-277	9	86
-267	28	76
-188	-29	56
-100	-117	31
-43	-164	32
-26	-113	42
-18	30	11
24	211	-21
113	345	-58
226	382	-65
311	324	-74
326	221	-59
262	145	-9
148	128	21
33	149	20
-36	153	-1
-44	97	-23
-6	-12	-39
49	-126	-49
99	-173	-45
132	-121	-45
157	7	-40
170	138	-45
169	202	-55
136	169	-47
64	71	-49
-44	-23	-38
-166	-59	-19
-262	-28	7
-302	32	51
-281	63	98
-223	32	100
-150	-56	76
-83	-151	49
-21	-204	-38
52	-192	-158
144	-132	-225
239	-61	-227
285	-9	-182
238	17	-121
76	38	-39
-156	74	32
-362	123	21
-444	160	-4
-338	139	14
-72	52	42
252	-86	68
486	-216	26
524	-283	-40
332	-260	-83
-23	-162	-122
-407	-41	-114
-691	52	-58
-766	96	12
-634	108	48
-350	122	51
-33	155	32
211	183	8
320	157	-4
277	38	5
141	-162	31
-13	-370	19
-113	-488	-8
-121	-446	-22
-44	-256	-27
81	-15	-42
202	152	-91
291	154	-93
333	4	-50
330	-205	-4
297	-326	33
240	-263	5
170	-21	-24
95	309	-41
39	579	-38
16	687	-32
23	598	-29
39	390	-32
17	166	-58
-74	13	-49
-238	-45	-36
-419	-51	-28
-534	-62	-11
-502	-122	-30
-304	-216	-46
-4	-303	-36
287	-330	-21
432	-275	-1
383	-159	6
172	-26	21
-70	70	19
-216	106	-2
-193	91	-4
-22	51	-14
190	20	-25
333	10	-28
335	21	-22
216	30	-27
57	27	-34
-60	4	-16
-101	-27	23
-87	-53	48
-69	-59	52
-87	-41	47
-134	1	17
-169	63	-27
-148	132	-68
-60	201	-67
61	256	-17
165	287	-8
212	287	-75
202	257	-137
155	198	-169
99	119	-204
44	22	-185
-20	-91	-78
-103	-217	1
-199	-340	14
-264	-434	37
-257	-460	47
-161	-403	70
-7	-254	91
133	-55	72
201	130	66
159	236	45
39	227	8
-101	106	-17
-200	-70	-33
-231	-231	-52
-214	-309	-91
-184	-286	-89
-166	-185	-59
-157	-63	-47
-131	20	-44
-78	39	-31
6	-1	16
82	-62	47
120	-105	58
107	-99	41
66	-47	-17
28	33	-69
16	121	-103
25	195	-131
22	243	-157
-22	256	-145
-111	229	-105
-199	149	-50
-231	17	-10
-163	-145	16
-4	-295	32
184	-376	39
324	-353	32
342	-218	22
241	-13	9
74	199	-11
-68	350	-12
-112	405	-6
-41	365	-15
101	261	-27
234	143	-39
283	38	-45
216	-43	-34
69	-109	-30
-103	-165	-32
-232	-203	-16
-277	-211	9
-249	-163	23
-177	-61	34
-99	76	32
-32	208	9
27	291	-7
90	305	-3
167	252	3
245	166	1
301	90	7
306	53	1
249	64	-12
136	96	-44
-12	116	-87
-161	92	-104
-279	22	-117
-337	-70	-88
-312	-141	-9
-202	-155	84
-32	-104	155
151	-12	196
276	74	175
299	106	20
206	63	-149
46	-45	-260
-104	-185	-318
-175	-315	-311
-142	-395	-205
-47	-423	-63
31	-393	-36
23	-326	-31
-86	-233	35
-250	-131	74
-371	-38	55
-373	34	44
-232	76	53
0	84	32
226	67	33
365	49	74
373	45	101
277	62	68
143	97	-17
42	123	-128
12	131	-221
38	109	-261
87	68	-189
120	30	-48
124	8	28
109	12	38
94	28	0
76	39	-34
34	21	-40
-64	-29	-32
-237	-102	-43
-452	-169	-39
-633	-198	7
-698	-171	43
-595	-94	76
-344	9	75
-25	103	49
266	161	31
446	171	0
506	150	-29
476	120	-43
396	101	-19
278	94	-8
99	89	-24
-152	68	-44
-443	26	-58
-695	-27	-53
-775	-72	-52
-626	-90	-43
-267	-82	-30
157	-60	-3
461	-50	25
526	-61	26
343	-80	4
48	-84	-3
-190	-50	-15
-240	13	-38
-90	86	-38
156	133	-27
354	131	-32
401	91	-31
291	38	-9
103	11	-6
-55	19	-5
-117	55	-11
-79	90	-21
10	96	-24
91	71	-15
131	33	-6
140	12	-16
143	18	-31
158	43	-26
170	59	-25
158	37	-42
100	-25	-35
6	-105	-31
-82	-161	-23
-112	-166	-33
-51	-118	-34
78	-48	19
216	-3	49
285	-10	59
228	-74	60
44	-162	19
-200	-232	-72
-415	-254	-162
-533	-227	-180
-526	-175	-147
-431	-127	-97
-291	-96	-24
-151	-67	47
-18	-20	15
121	64	-31
262	179	-22
373	284	-53
398	345	-77
