File Name: not saved
Channel 2: 'Channel 2', 30610 values, raw ADC, no filters.
Channel 3: 'Channel 3', 30610 values, raw ADC, no filters.
Channel 4: 'Channel 4', 30610 values, raw ADC, no filters.

-39	121	42
-59	119	31
-52	97	40
-27	50	16
5	-15	-23
32	-81	-55
45	-124	-52
44	-125	-55
34	-82	-69
11	-13	-38
-19	51	-26
-52	89	1
-75	87	10
-65	57	10
-19	31	-2
68	31	-37
166	59	-41
233	103	-25
226	127	-11
132	115	-2
-32	61	-4
-225	-12	-20
-389	-81	3
-491	-130	4
-508	-160	10
-452	-188	-8
-340	-226	-51
-197	-269	-76
-47	-292	-111
93	-271	-103
194	-192	-45
237	-76	60
216	44	111
159	126	87
97	150	16
69	127	-55
97	85	-111
162	50	-147
219	38	-118
228	40	-86
166	42	-36
53	33	-16
-62	22	-37
-127	20	-63
-124	33	-56
-66	51	-27
-4	48	-10
14	5	-7
-31	-85	-7
-117	-189	4
-195	-264	-4
-224	-281	-13
-182	-229	-27
-97	-137	-31
-12	-53	-31
35	-15	-11
36	-28	22
13	-64	42
6	-89	45
41	-65	59
116	2	69
202	94	64
255	171	53
255	215	19
200	227	14
111	214	22
15	207	13
-74	211	-32
-152	225	-85
-221	217	-130
-267	170	-166
-282	74	-159
-252	-58	-159
-173	-192	-116
-72	-286	-53
12	-308	-12
49	-250	24
41	-134	16
14	0	-9
6	104	-18
49	149	-20
137	130	-30
238	76	16
302	20	57
300	2	46
229	30	34
118	84	18
5	128	4
-75	127	-12
-105	76	-27
-96	-12	-43
-57	-92	-80
-7	-125	-110
42	-98	-100
87	-25	-54
111	61	15
110	128	47
79	160	43
30	159	-18
-13	145	-119
-30	127	-178
-2	101	-187
57	45	-111
125	-49	-25
155	-179	17
114	-305	24
-13	-379	-9
-202	-361	-21
-405	-248	-1
-563	-80	36
-623	75	66
-562	152	57
-393	122	26
-164	14	7
63	-115	2
234	-195	-13
318	-191	-36
306	-113	-38
231	-12	-32
135	50	-31
60	47	-43
29	-13	-40
35	-81	-28
55	-108	-30
59	-69	-42
22	14	-38
-52	98	-12
-140	138	-15
-206	115	4
-223	51	2
-180	-15	-30
-91	-47	-49
25	-40	-61
138	-11	-56
234	18	-63
300	27	-32
331	26	3
311	28	15
234	48	6
98	83	6
-60	105	2
-201	100	11
-274	61	53
-249	8	74
-144	-27	60
-7	-20	13
95	28	-42
122	90	-95
75	131	-126
-7	127	-125
-67	75	-105
-67	-5	-80
-4	-82	-30
81	-132	-22
143	-151	-22
143	-138	-34
81	-112	-52
-20	-75	-35
-120	-36	-22
-180	5	-19
-185	44	-40
-136	84	-41
-56	118	-21
27	142	27
96	158	65
131	154	74
142	129	68
145	81	23
170	13	-16
226	-57	-82
302	-115	-136
361	-143	-111
338	-145	-41
196	-135	9
-69	-134	19
-389	-157	-1
-668	-191	-5
-814	-217	22
-773	-205	38
-565	-142	23
-264	-33	-9
32	87	-49
245	174	-96
352	205	-81
355	170	-38
288	99	-23
186	21	-19
72	-25	2
-36	-35	-2
-121	-22	-28
-166	-7	-42
-152	-17	-76
-86	-53	-98
15	-106	-104
105	-139	-61
147	-127	-4
124	-60	10
50	51	24
-35	178	20
-92	275	14
-91	311	-9
-27	275	-28
65	180	-8
154	54	7
193	-64	16
175	-154	24
105	-196	22
8	-195	26
-85	-159	8
-154	-103	-86
-183	-44	-177
-173	4	-173
-125	27	-102
-48	25	-67
49	7	-24
152	-11	18
240	-9	31
287	17	55
280	64	60
216	109	58
118	128	56
9	110	22
-91	63	-54
-168	9	-125
-217	-31	-188
-248	-44	-159
-256	-38	-63
-231	-28	-27
-162	-29	-2
-47	-41	50
90	-46	68
212	-28	40
288	25	33
291	92	46
229	147	21
135	154	-19
48	103	-37
-10	7	-72
-42	-101	-74
-58	-183	-43
-76	-223	-27
-96	-222	-19
-103	-196	-26
-95	-173	-23
-79	-150	-20
-77	-125	-19
-111	-85	-14
-180	-34	-12
-258	21	-24
-295	61	-43
-255	71	-54
-135	58	-56
28	34	-50
177	16	-41
269	9	-20
281	11	26
234	7	56
151	-9	53
61	-28	26
-24	-35	-16
-106	-16	-51
-174	20	-86
-217	56	-90
-221	63	-61
-182	32	-27
-118	-21	-9
-54	-63	-7
-14	-60	10
0	-4	21
2	79	30
8	141	26
26	145	4
49	85	-26
54	-14	-40
31	-99	-58
-10	-131	-90
-45	-96	-85
-48	-14	-66
-11	67	-42
55	121	-14
127	131	7
184	115	13
224	100	9
258	104	-15
299	128	-82
333	156	-136
340	166	-122
288	151	-72
169	116	-40
1	70	-16
-173	26	15
-296	-25	27
-340	-90	5
-312	-168	-12
-244	-252	5
-179	-311	18
-137	-319	24
-118	-263	61
-101	-162	74
-63	-48	39
-2	41	-20
72	85	-100
133	85	-161
166	68	-186
155	61	-121
113	77	-16
59	103	51
15	114	82
-4	89	62
1	30	30
24	-40	4
49	-90	-7
61	-97	-21
50	-63	-25
20	-12	-54
-10	27	-100
-25	36	-113
-11	10	-98
16	-31	-28
28	-68	0
-7	-93	-12
-101	-101	-3
-241	-106	-7
-378	-116	-23
-456	-137	-43
-452	-168	-35
-361	-194	-9
-225	-205	14
-81	-185	44
44	-127	72
144	-35	91
234	80	80
321	187	31
402	256	-27
454	261	-78
455	208	-114
396	112	-106
283	21	-67
133	-32	-72
-28	-36	-105
-182	-2	-81
-318	35	-30
-405	50	-20
-422	32	-9
-357	-3	10
-216	-27	-11
-47	-24	-39
100	10	-24
184	52	-25
194	84	-42
158	91	-36
121	85	-34
112	78	-23
128	82	-38
135	96	-27
99	105	5
14	96	39
-89	64	101
-152	25	124
-137	-5	85
-40	-14	-23
99	-2	-132
216	14	-189
261	22	-196
216	10	-154
113	-6	-76
-12	-14	-7
-123	-2	16
-195	28	46
-232	53	57
-240	57	51
-228	20	60
-195	-49	24
-148	-129	-2
-94	-204	3
-52	-253	-31
-35	-283	-62
-44	-304	-62
-67	-318	-56
-81	-315	-34
-71	-275	12
-44	-183	52
-13	-36	51
7	138	15
16	300	-20
29	396	-58
71	400	-83
151	313	-82
245	160	-82
317	-15	-64
321	-174	-35
242	-289	-9
102	-348	7
-49	-351	-1
-158	-299	-26
-194	-212	-46
-166	-105	-31
-106	0	-12
-47	88	7
-4	150	23
29	191	11
61	215	-15
97	229	-36
121	231	-61
113	210	-83
66	165	-55
-14	96	-25
-96	23	13
-152	-30	69
-165	-51	81
-140	-36	60
-93	-7	3
-38	19	-46
16	30	-71
72	35	-101
125	55	-111
166	101	-96
175	171	-44
139	236	18
60	262	26
-42	225	-40
-139	122	-119
-213	-20	-184
-251	-165	-224
-263	-280	-194
-263	-351	-94
-252	-371	1
-217	-348	53
-143	-286	63
-28	-192	32
111	-78	20
245	38	39
344	122	80
383	159	112
368	139	114
317	95	92
252	52	47
184	41	-17
114	71	-28
31	121	-12
-55	166	10
-134	184	45
-180	171	24
-175	135	13
-124	85	-37
-53	22	-102
1	-59	-134
13	-158	-140
-27	-257	-129
-104	-326	-96
-191	-333	-30
-262	-269	-20
-292	-150	-39
-281	-22	-111
-230	70	-121
-160	98	-77
-92	65	-58
-47	-1	-17
-34	-70	10
-41	-122	18
-44	-158	-3
-8	-182	7
88	-199	24
238	-207	33
406	-186	32
530	-131	19
561	-41	32
478	62	52
302	162	35
86	233	-6
-121	261	-13
-281	251	-40
-378	203	-56
-421	131	-47
-416	47	-45
-362	-31	-58
-267	-85	-80
-137	-99	-51
-6	-66	-32
90	-4	-32
126	68	-40
105	126	-24
63	157	19
51	158	38
103	140	58
204	118	89
306	88	86
340	51	44
265	7	4
97	-36	-57
-112	-64	-120
-271	-67	-145
-331	-42	-124
-284	-6	-82
-172	22	-52
-54	23	-38
27	3	-68
63	-21	-98
86	-23	-86
124	11	-71
198	68	-52
285	127	-28
349	155	11
346	143	38
260	102	54
96	51	50
-111	15	13
-298	-8	-22
-422	-32	-22
-456	-78	-21
-389	-150	-67
-247	-233	-84
-68	-292	-70
95	-297	-13
198	-233	45
216	-115	64
163	26	49
80	155	4
15	244	-31
12	285	-42
72	273	-31
157	210	-9
204	109	6
162	-21	-21
20	-154	-37
-185	-261	-41
-369	-320	-45
-456	-317	-28
-412	-263	-31
-258	-184	-32
-63	-110	-38
93	-59	-49
159	-38	-59
139	-37	-43
71	-39	-35
17	-34	-50
13	-19	-22
61	2	-21
129	17	-3
169	21	21
150	10	-11
67	-11	-32
-49	-31	-32
-162	-38	-12
-232	-31	-31
-240	-10	-16
-182	10	33
-79	16	65
47	7	100
167	-9	102
251	-9	53
290	26	-57
274	96	-165
211	183	-239
116	248	-252
8	261	-185
-92	214	-69
-174	129	14
-231	41	19
-262	-13	22
-276	-25	15
-271	-11	15
-251	5	25
-211	3	28
-149	-12	46
-61	-20	70
40	-10	85
147	22	84
221	55	53
238	65	-14
186	37	-71
76	-20	-86
-52	-88	-56
-153	-145	-44
-182	-179	-38
-122	-196	-20
1	-194	-18
151	-173	-23
270	-116	-63
335	-16	-97
333	110	-74
288	230	-81
231	301	-85
186	301	-44
171	238	-31
180	150	-11
198	88	0
205	72	39
178	93	72
100	105	50
-35	68	24
-213	-28	-24
-403	-151	-36
-562	-248	-15
-636	-273	-41
-598	-211	-86
-448	-99	-95
-231	15	-86
-8	80	-47
163	77	-43
242	19	-84
228	-65	-91
155	-147	-76
71	-205	-41
18	-232	-27
15	-227	3
50	-192	84
101	-136	104
131	-75	57
125	-22	18
77	6	-5
1	12	-28
-80	6	-60
-138	10	-71
-154	36	-62
-128	79	-33
-76	116	-20
-17	124	-30
19	97	15
21	48	49
-10	11	41
-56	11	0
-99	49	-44
-119	100	-93
-113	115	-136
-87	68	-106
-55	-40	-103
-31	-175	-108
-13	-280	-40
-1	-313	-21
12	-254	-5
24	-131	31
40	10	43
60	128	59
87	197	43
123	215	32
163	197	0
204	158	-28
236	109	-44
248	64	-46
242	25	-30
211	2	-26
156	2	-9
70	21	-2
-50	56	6
-195	89	3
-332	114	2
-417	127	15
-409	132	39
-299	135	47
-126	127	31
44	105	26
142	53	-18
142	-20	-82
65	-106	-92
-27	-182	-84
-81	-228	-77
-76	-241	-57
-39	-229	-42
-14	-207	-26
-22	-182	-17
-45	-148	-26
-35	-90	-42
44	-2	-58
191	106	-90
342	211	-75
419	284	-25
373	309	6
216	279	31
25	211	29
-120	116	5
-170	0	-15
-137	-134	-1
-90	-279	12
-86	-411	-22
-143	-490	-54
-226	-488	-71
-262	-393	-94
-211	-230	-72
-84	-45	-44
63	106	-32
155	193	-20
159	221	16
93	210	55
19	190	37
-10	171	10
23	151	24
84	110	65
115	49	58
84	-21	-28
-12	-76	-115
-122	-94	-182
-195	-77	-236
-191	-41	-206
-117	-19	-94
-10	-21	4
86	-40	62
129	-47	64
117	-15	36
63	60	7
-2	158	-12
-51	229	-3
-62	237	-11
-23	169	-25
67	48	-36
192	-70	-48
313	-137	-9
374	-121	37
336	-34	60
172	85	71
-82	182	57
-352	219	26
-558	187	-28
-627	98	-61
-546	-13	-77
-360	-118	-64
-151	-192	-38
5	-227	-43
83	-223	-43
93	-185	-63
75	-133	-95
66	-81	-97
76	-42	-72
89	-27	-38
85	-28	-43
63	-32	-38
46	-12	-13
55	36	-8
102	112	11
164	189	24
206	236	31
200	233	38
150	174	22
78	80	12
23	-32	-11
1	-133	-23
-10	-215	-22
-41	-272	-18
-123	-301	-16
-236	-303	-24
-335	-272	-9
-366	-218	1
-296	-151	10
-154	-88	69
10	-41	172
123	-11	188
162	11	82
139	42	-32
104	87	-135
98	135	-265
133	170	-330
189	171	-268
226	141	-170
216	88	-99
172	40	-44
113	13	-23
67	16	-24
40	35	-23
21	53	15
-15	63	36
-78	60	72
-152	56	143
-206	55	112
-215	57	39
-167	54	13
-72	39	-9
34	15	-78
129	-6	-90
187	-12	-64
202	0	-40
175	20	-16
115	27	-21
26	9	-28
-87	-26	-71
-198	-60	-58
-291	-61	-23
-350	-20	-35
-356	52	-35
-312	124	-41
-223	159	-46
-106	138	-38
17	72	-35
123	-8	-11
198	-76	-3
226	-102	-21
206	-90	-13
155	-57	-7
93	-21	-24
46	3	-42
24	15	-31
27	15	5
34	12	47
29	6	57
9	2	38
-20	-1	1
-30	-4	-39
-5	-12	-64
52	-37	-58
120	-91	-44
157	-171	-22
130	-260	22
33	-322	11
-110	-322	13
-250	-245	-6
-330	-110	-18
-329	27	1
-252	106	-8
-134	93	-19
-24	-1	-57
47	-124	-108
70	-204	-123
68	-195	-116
67	-97	-121
88	49	-88
130	183	-35
180	267	36
216	290	139
229	279	191
221	262	172
198	257	109
170	250	38
136	215	-68
86	151	-181
7	53	-192
-101	-48	-156
-225	-131	-145
-336	-179	-114
-405	-196	-97
-409	-202	-95
-339	-196	-83
-204	-182	-60
-31	-143	-13
137	-78	-10
262	1	-14
312	68	-6
271	97	20
161	79	61
15	26	54
-118	-25	51
-193	-49	41
-191	-37	13
-122	-2	16
-11	28	18
105	38	24
205	26	19
266	15	0
291	23	0
280	56	-42
242	106	-48
167	151	-25
54	171	-44
-87	163	-61
-239	140	-63
-373	116	-59
-459	90	-47
-471	57	-27
-411	0	-19
-298	-84	-16
-168	-175	-31
-56	-233	-34
26	-227	-20
81	-145	-16
128	-18	-18
188	104	-30
260	169	-2
324	150	32
346	71	51
311	-17	53
206	-57	21
61	-22	-19
-100	64	-72
-239	139	-96
-330	133	-75
-369	14	-34
-347	-196	-17
-277	-426	-47
-163	-577	-78
-33	-590	-74
80	-452	-34
151	-224	-23
165	7	-36
137	168	-19
105	223	11
102	192	55
140	124	61
205	66	2
260	38	-57
266	31	-106
216	19	-136
136	-8	-137
59	-45	-84
13	-68	-21
-2	-56	11
-5	-9	12
-26	53	14
-69	100	17
-124	114	-2
-153	105	9
-140	96	26
-91	112	54
-34	157	58
-13	204	13
-43	218	-12
-117	168	-30
-198	58	-66
-251	-75	-104
-249	-180	-108
-201	-223	-51
-129	-196	16
-60	-133	50
-7	-78	45
36	-56	-36
89	-69	-98
158	-80	-102
236	-46	-105
302	47	-74
326	185	-26
288	312	10
194	372	19
59	339	14
-72	219	17
-176	58	-15
-231	-83	-77
-237	-174	-96
-214	-210	-60
-180	-215	-25
-144	-216	-23
-103	-223	-1
-42	-218	16
42	-177	39
144	-87	37
238	34	22
294	155	8
295	238	-31
252	268	-35
191	260	-31
142	244	-20
116	247	24
92	262	22
40	261	5
-60	204	10
-206	74	-49
-347	-115	-92
-433	-309	-102
-428	-453	-74
-332	-510	-50
-189	-474	-66
-51	-375	-53
40	-242	-42
77	-111	-44
78	6	-42
78	100	-45
91	160	-13
115	169	18
132	120	-18
121	22	-27
78	-96	-14
9	-192	-1
-64	-242	3
-125	-230	13
-158	-175	32
-155	-106	13
-114	-41	-4
-42	14	-19
39	67	-2
105	128	0
132	183	-16
107	215	-8
34	205	-9
-62	150	-17
-155	67	-40
-217	-11	-43
-242	-61	-33
-241	-83	-39
-221	-94	-57
-191	-113	-92
-151	-144	-79
-86	-174	-28
7	-177	13
126	-131	70
253	-41	94
363	71	43
432	177	-8
450	254	-82
409	299	-151
325	310	-140
216	296	-64
114	248	10
36	168	60
-10	54	87
-27	-63	68
-30	-157	42
-35	-192	-1
-53	-165	-64
-79	-92	-121
-97	-9	-162
-95	47	-120
-64	67	-47
-19	64	-13
23	58	-19
44	69	-18
36	91	2
11	106	-6
-16	92	-21
-26	45	-43
-19	-22	-36
-5	-85	5
-3	-113	31
-26	-103	42
-69	-63	42
-115	-21	24
-137	4	1
-126	6	-16
-80	-11	-48
-16	-30	-88
39	-40	-100
65	-34	-102
52	-15	-119
9	13	-97
-48	35	-82
-97	44	-68
-126	34	-31
-132	-1	-6
-115	-47	29
-89	-93	27
-60	-117	10
-44	-105	17
-42	-59	21
-55	2	12
-75	48	3
-84	56	15
-67	17	30
-20	-56	8
54	-134	-32
133	-185	-36
192	-189	-34
204	-153	-45
170	-92	-49
106	-35	-30
42	-2	-33
4	3	-62
-1	-14	-63
12	-32	-46
20	-38	-19
10	-16	3
-18	35	7
-44	112	15
-46	203	24
-12	286	22
52	340	-2
123	343	-17
175	287	-22
191	170	-34
160	13	-29
78	-153	-21
-50	-290	14
-221	-361	27
-412	-353	7
-580	-274	-26
-680	-163	-67
-667	-67	-76
-534	-29	-88
-312	-60	-80
-62	-134	-64
143	-202	-44
263	-211	-31
301	-135	-25
288	6	-26
266	157	-36
260	256	-30
263	267	-17
255	197	4
216	93	12
147	10	12
75	-15	26
37	16	22
58	68	5
127	105	-6
214	100	-23
272	65	-54
269	29	-63
205	12	-35
98	23	0
-12	43	-11
-94	54	-46
-132	38	-57
-134	10	-40
-119	-9	-10
-107	-4	-18
-109	24	-29
-125	53	-32
-148	53	-51
-161	11	-34
-151	-56	-12
-109	-111	-2
-34	-117	-19
60	-54	-10
159	54	36
238	174	60
275	250	76
268	261	76
214	209	46
131	115	-15
34	11	-84
-67	-83	-130
-174	-157	-151
-270	-214	-137
-342	-257	-64
-366	-283	7
-319	-287	-1
-206	-259	-18
-54	-202	-43
86	-124	-71
162	-43	-76
148	28	-81
58	82	-67
-49	115	-50
-119	127	-51
-110	119	-40
-26	93	-24
91	48	-27
188	-4	-11
221	-51	-12
182	-82	-31
94	-79	-23
-4	-43	-5
-76	12	4
-101	65	26
-85	96	51
-41	90	45
4	48	45
28	-9	22
9	-58	3
-59	-82	2
-170	-71	-26
-288	-38	-32
-370	-5	-43
-371	4	-45
-277	-22	-41
-110	-82	-88
78	-151	-80
225	-208	-45
280	-231	-32
245	-212	-2
151	-159	31
52	-84	30
-3	-2	-18
3	78	-61
60	151	-76
139	213	-64
212	253	-35
260	255	7
269	215	28
234	137	32
138	48	48
-12	-21	45
-201	-44	32
-382	-17	20
-487	32	-5
-473	72	-21
-332	68	-66
-121	19	-125
81	-54	-145
203	-103	-142
216	-96	-111
159	-27	-56
89	72	11
61	160	91
83	198	143
121	182	112
125	130	39
77	77	-62
0	39	-156
-55	15	-147
-40	-17	-75
42	-71	-20
150	-142	-1
209	-196	16
186	-196	-30
93	-129	-75
-11	-13	-56
-59	103	-21
-34	168	32
41	154	53
101	78	39
97	-16	-30
23	-84	-86
-77	-106	-97
-141	-102	-96
-143	-108	-66
-92	-151	-11
-36	-224	53
-23	-283	80
-72	-286	39
-158	-198	-30
-239	-37	-81
-277	143	-115
-263	277	-98
-217	319	-54
-153	268	4
-85	160	46
-7	45	77
83	-36	86
170	-74	28
224	-89	3
214	-107	-3
138	-144	-39
22	-196	-62
-82	-241	-54
-125	-248	-95
-94	-204	-125
-8	-119	-142
86	-16	-169
147	79	-133
159	143	-99
137	174	-58
105	174	-13
78	157	52
64	132	77
57	110	87
56	92	116
52	72	86
47	43	52
29	-1	24
-16	-63	28
-99	-140	-4
-210	-209	-46
-321	-244	-64
-392	-228	-90
-392	-152	-84
-314	-37	-71
-176	85	-52
-19	182	-24
123	236	4
237	248	-1
301	241	-3
313	236	-4
269	236	-32
175	232	-29
69	197	-21
-12	114	-1
-26	-11	6
33	-154	-16
136	-268	-13
216	-326	4
216	-314	14
129	-244	0
-6	-148	-9
-108	-52	21
-124	26	-11
-53	88	-56
40	139	-76
74	183	-108
4	215	-109
-152	221	-93
-312	197	-55
-393	150	-11
-361	92	13
-234	41	14
-84	5	2
26	-27	7
69	-66	-9
72	-116	-28
84	-170	-4
129	-196	21
196	-174	63
244	-87	118
231	48	138
151	189	100
37	287	9
-70	296	-91
-135	197	-178
-164	3	-209
-180	-238	-172
-201	-467	-133
-229	-627	-97
-236	-668	-55
-196	-582	-46
-105	-401	-44
17	-171	-26
129	41	-46
204	190	-98
244	258	-132
269	256	-118
301	214	-76
334	162	-54
336	112	-10
268	62	54
121	6	87
-79	-58	101
-256	-114	113
-350	-140	116
-325	-120	74
-209	-57	-7
-57	26	-55
64	106	-59
121	168	-4
116	209	64
83	240	69
52	265	86
36	281	33
23	269	-83
-8	215	-181
-65	120	-233
-133	4	-170
-189	-101	-83
-212	-166	3
-206	-188	22
-186	-186	6
-168	-181	-3
-153	-191	-26
-113	-207	-22
-22	-203	-14
121	-152	-10
283	-39	-14
397	114	-32
399	272	-27
267	387	-8
42	424	-16
-182	372	-29
-318	250	-30
-328	85	-34
-234	-82	-24
-115	-217	11
-48	-300	33
-61	-313	31
-122	-261	20
-156	-161	15
-105	-46	13
29	43	-12
194	76	-42
309	41	-72
317	-32	-89
226	-110	-91
93	-139	-74
-8	-103	-36
-36	-12	-9
-5	93	27
40	161	68
59	164	74
41	99	45
13	0	-7
12	-90	-58
56	-141	-63
128	-144	-47
184	-112	-26
181	-62	8
107	-14	10
-7	27	5
-119	57	-26
-190	68	-53
-205	57	-89
-172	17	-139
-117	-41	-128
-65	-103	-112
-28	-136	-65
-7	-131	25
1	-94	109
-2	-42	108
-9	-4	46
-12	12	17
-2	17	-17
25	35	-92
65	86	-127
100	165	-84
111	241	-32
89	274	57
35	244	115
-28	155	87
-79	42	53
-100	-42	-11
-80	-74	-120
-27	-51	-181
44	-11	-174
111	10	-132
143	-14	-50
122	-76	20
32	-144	45
-107	-186	15
-262	-181	-65
-378	-134	-145
-415	-76	-207
-361	-32	-201
-247	-18	-116
-126	-25	-30
-43	-38	14
-15	-36	44
-24	-19	61
-32	7	84
-12	23	92
42	23	60
101	14	45
135	13	38
128	37	51
94	85	59
62	137	44
63	168	15
102	154	-43
151	96	-90
175	8	-122
137	-76	-118
47	-136	-66
-63	-165	-17
-137	-164	19
-131	-150	40
-40	-132	13
107	-118	-27
248	-104	-39
329	-90	-40
312	-72	-32
210	-52	-35
68	-23	-14
-54	23	10
-111	84	-30
-91	150	-22
-16	199	39
67	205	19
116	162	-27
111	82	-49
61	3	-46
-5	-39	-40
-63	-26	-48
-93	26	-26
-96	78	-18
-83	89	-42
-60	49	-89
-33	-18	-91
2	-70	-51
40	-68	6
74	-12	65
86	77	106
62	150	124
8	183	90
-60	182	24
-120	168	-9
-152	166	-36
-152	169	-109
-132	145	-125
-117	54	-96
-124	-115	-65
-154	-326	-23
-186	-507	-42
-193	-577	-39
-152	-502	-50
-55	-309	-88
76	-78	-81
205	105	-92
289	186	-92
300	165	-106
234	90	-117
118	19	-99
3	-13	-42
-68	-11	14
-84	-2	49
-61	-13	109
-43	-46	130
-66	-76	94
-137	-72	58
-223	-21	25
-268	63	-53
-234	138	-106
-120	164	-60
27	119	-12
141	25	-21
178	-78	-36
132	-143	-47
49	-151	-69
-12	-108	-65
-16	-44	-66
28	0	-54
75	13	-37
78	-4	-27
20	-24	6
-70	-28	1
-147	-9	1
-173	28	-5
-147	62	-32
-101	82	-18
-72	86	-9
-76	89	-18
-90	104	-30
-77	135	-10
-8	168	24
104	180	37
212	157	49
275	92	68
258	7	84
180	-68	46
86	-116	-41
22	-124	-91
10	-112	-94
33	-102	-86
60	-107	-64
65	-122	-22
49	-124	16
30	-85	8
34	7	13
65	132	33
110	250	46
144	313	65
147	301	25
128	218	-46
107	96	-85
102	-24	-109
111	-118	-134
107	-181	-142
59	-223	-133
-46	-248	-124
-200	-246	-77
-350	-202	-13
-445	-105	-19
-456	30	-4
-382	162	63
-253	244	67
-112	238	31
12	150	-7
109	16	-24
183	-116	-25
242	-211	-37
273	-263	-82
266	-295	-121
199	-317	-70
70	-326	-82
-104	-301	-47
-296	-214	57
-455	-63	43
-539	110	20
-522	249	14
-392	291	54
-170	225	49
99	78	36
355	-72	29
531	-163	-66
583	-155	-165
508	-61	-229
342	63	-246
131	170	-219
-77	221	-117
-240	208	22
-353	155	94
-424	91	108
-446	39	82
-408	12	31
-291	9	20
-97	22	17
137	40	28
351	51	57
476	51	68
469	41	58
350	32	28
175	38	-2
23	64	-39
-55	101	-85
-61	120	-104
-26	97	-79
3	22	-43
-5	-89	-42
-44	-189	-32
-89	-237	-10
-111	-203	-2
-105	-105	1
-89	12	3
-91	95	-1
-123	114	13
-172	75	19
-200	7	-5
-169	-47	-2
-56	-70	-4
120	-61	-5
328	-46	-21
498	-45	-67
575	-62	-70
526	-90	-86
346	-108	-113
84	-109	-98
-185	-90	-62
-375	-62	-24
-425	-33	-9
-325	5	-9
-126	53	-4
85	113	-14
232	164	-33
276	180	-36
226	136	-19
123	31	-28
14	-101	-37
-85	-214	7
-173	-256	32
-269	-213	20
-364	-105	-4
-426	19	22
-426	102	52
-345	118	19
-202	74	-22
-47	11	-24
78	-25	5
151	-5	-9
184	64	-24
203	151	-6
221	211	-30
223	215	-90
186	158	-156
96	59	-182
-28	-45	-160
-138	-127	-105
-191	-170	-35
-172	-173	36
-105	-153	60
-41	-125	14
-23	-104	-38
-53	-93	-80
-97	-88	-118
-104	-80	-113
-43	-55	-32
76	-8	92
210	61	178
302	141	180
324	209	121
268	243	56
162	222	-9
36	152	-59
-82	47	-80
-170	-58	-106
-226	-137	-112
-241	-173	-104
-215	-166	-111
-161	-133	-91
-85	-95	-72
-5	-64	-50
69	-37	-27
139	-5	16
204	44	43
255	117	46
276	202	59
248	279	32
166	327	14
51	325	2
-50	266	-6
-91	158	-15
-50	21	-34
44	-126	-12
136	-251	21
154	-333	6
66	-352	-13
-110	-305	6
-310	-203	21
-459	-76	24
-509	40	-1
-442	109	-33
-288	98	-75
-102	7	-95
68	-138	-109
192	-297	-119
260	-409	-103
272	-432	-103
239	-343	-92
163	-164	-96
51	56	-88
-83	252	-45
-217	353	2
-319	339	41
-345	222	63
-275	64	59
-113	-58	36
102	-89	-17
302	-14	-71
423	125	-85
411	261	-88
280	327	-69
77	295	-46
-112	181	-13
-222	36	11
-232	-87	59
-167	-164	138
-94	-200	141
-63	-222	94
-92	-245	25
-149	-262	-57
-172	-246	-132
-112	-175	-180
41	-48	-145
242	98	-69
423	211	-24
506	252	8
466	215	7
314	130	2
114	48	-6
-55	7	-3
-153	9	28
-161	29	43
-109	36	-4
-49	10	-61
-18	-36	-60
-36	-72	-88
-85	-68	-93
-135	-11	-77
-154	78	-59
-130	164	-39
-72	206	-12
-9	195	38
34	140	47
46	67	51
34	8	65
18	-18	53
15	-11	54
30	17	61
54	40	13
66	42	-21
49	10	-50
-1	-49	-104
-69	-124	-131
-134	-190	-140
-162	-226	-145
-142	-218	-140
-71	-169	-102
26	-89	-86
123	-1	-79
191	64	-53
206	82	-6
166	32	50
79	-86	64
-31	-250	68
-130	-418	38
-199	-531	-13
-217	-541	-23
-180	-425	-7
-97	-203	-13
12	57	-35
107	283	-30
160	414	-10
142	433	11
59	372	12
-59	291	5
-172	244	-12
-232	243	-59
-229	260	-78
-184	241	-59
-141	157	-38
-137	6	7
-184	-158	59
-251	-275	77
-282	-301	65
-242	-237	40
-117	-125	-26
54	-23	-120
216	32	-177
329	38	-173
373	26	-71
363	30	9
328	62	38
285	103	84
232	118	72
156	81	38
49	-6	-17
-66	-108	-70
-161	-189	-95
-203	-222	-89
-181	-206	-50
-118	-163	-24
-42	-112	-23
19	-60	-9
56	-2	4
81	68	-8
101	153	-15
122	225	-4
125	265	5
101	256	-15
42	211	-6
-26	155	13
-78	107	7
-87	80	5
-53	55	-10
2	20	-24
46	-34	-51
59	-92	-72
43	-125	-65
18	-114	-47
3	-63	-54
8	-1	-76
26	40	-72
46	40	-75
58	11	-55
68	-21	-23
85	-31	15
110	-10	32
140	24	37
156	44	18
142	30	-26
88	-11	-36
6	-58	-28
-87	-87	-20
-166	-85	0
-218	-61	-21
-232	-35	-104
-210	-21	-130
-163	-21	-77
-98	-27	-51
-36	-37	-69
16	-54	-42
54	-93	-6
85	-153	52
114	-218	126
131	-251	137
115	-219	152
27	-110	108
-152	49	-9
-404	199	-141
-668	275	-230
-844	240	-217
-857	103	-178
-682	-84	-103
-352	-246	6
19	-322	46
331	-292	67
522	-167	91
575	10	84
535	183	55
451	316	19
355	382	-11
255	382	-53
141	324	-70
19	229	-79
-84	106	-72
-132	-32	-64
-104	-171	-44
-17	-296	-25
89	-376	-21
163	-387	-2
179	-312	13
155	-160	32
125	30	30
128	204	-10
164	305	-66
204	305	-111
197	218	-112
114	84	-83
-38	-47	-39
-211	-138	-4
-333	-180	14
-366	-191	22
-300	-190	18
-175	-189	3
-48	-174	-17
40	-127	-21
78	-44	-24
84	64	-40
86	163	-46
109	221	-66
142	225	-42
169	194	26
167	164	34
131	161	38
78	189	20
24	227	-23
-13	233	-84
-42	181	-120
-83	78	-74
-139	-45	-21
-202	-150	24
-241	-203	90
-221	-204	137
-129	-166	133
13	-117	79
152	-72	-8
238	-32	-92
236	13	-150
154	65	-144
27	120	-122
-93	153	-109
-182	142	-54
-223	82	-19
-228	-22	-42
-221	-143	-44
-215	-249	-27
-217	-316	-2
-217	-325	-23
-202	-278	-39
-157	-182	-4
-71	-57	45
48	69	59
183	178	-21
306	243	-36
387	259	-31
407	228	-31
373	170	14
299	103	14
204	38	-2
103	-21	-27
-18	-86	-68
-156	-154	-115
-300	-228	-140
-415	-287	-151
-443	-313	-158
-361	-292	-127
-178	-229	-83
40	-140	-38
202	-53	-4
239	9	29
141	45	74
-35	68	94
-195	93	107
-253	129	93
-170	170	56
18	198	7
234	187	-33
380	133	-55
388	49	-70
251	-32	-78
16	-70	-35
-225	-48	12
-387	27	-19
-402	116	2
-258	171	-13
-3	162	-16
276	92	-10
478	4	-32
541	-53	-9
454	-40	11
265	35	31
50	125	17
-125	171	11
-232	128	-31
-274	6	-42
-285	-149	3
-285	-268	18
-275	-309	49
-245	-268	71
-178	-180	64
-83	-96	3
23	-42	-78
110	-21	-159
160	-2	-244
172	38	-241
171	104	-147
165	174	-42
162	215	4
159	213	4
139	168	-12
105	106	-38
60	51	-48
18	19	-40
-18	0	-15
-54	-15	50
-100	-29	113
-159	-34	138
-217	-12	121
-253	38	53
-243	94	-24
-178	120	-92
-76	80	-114
33	-32	-127
119	-188	-96
169	-326	-50
180	-393	-14
167	-368	9
132	-259	-20
81	-122	-24
16	-12	-53
-48	32	-66
-85	12	-34
-65	-43	21
18	-92	41
143	-97	24
257	-49	34
302	45	24
250	163	-30
115	279	-64
-53	368	-62
-201	406	-99
-300	380	-92
-352	283	-83
-389	130	-92
-438	-60	-89
-493	-245	-89
-522	-379	-77
-474	-435	-81
-325	-400	-65
-94	-298	-49
171	-167	-12
391	-47	52
505	33	108
502	72	155
405	86	164
260	97	125
114	118	60
-7	150	-28
-93	175	-112
-150	180	-172
-181	150	-159
-182	90	-83
-152	18	11
-89	-47	62
-6	-87	57
78	-97	36
154	-79	-8
208	-39	-52
242	11	-67
258	63	-48
254	106	-46
225	136	-55
159	138	-52
59	116	-32
-59	66	-16
-172	1	-8
-253	-69	-8
-277	-135	-7
-248	-186	4
-180	-210	-6
-93	-202	2
-7	-154	-16
75	-66	-28
144	53	9
201	187	53
236	309	86
238	395	116
207	424	90
151	395	-24
90	301	-109
36	161	-190
-5	-20	-194
-46	-218	-132
-101	-406	-119
-166	-546	-84
-226	-602	-72
-244	-556	-52
-197	-422	-30
-95	-241	1
23	-66	40
98	53	41
97	97	42
27	84	21
-55	43	-2
-91	16	-11
-37	15	-25
86	41	-23
216	71	-11
280	92	-8
237	98	-13
97	96	-15
-83	96	-9
-231	92	-4
-300	78	-20
-291	41	-75
-233	-16	-103
-157	-69	-97
-82	-91	-71
-1	-58	-76
93	22	-55
194	122	30
280	201	49
310	228	43
259	198	30
131	134	-10
-38	67	-58
-198	18	-77
-312	-9	-78
-361	-36	-36
-362	-77	22
-343	-131	22
-319	-186	8
-297	-210	-37
-260	-194	-85
-190	-141	-126
-86	-82	-125
38	-40	-66
158	-26	-15
240	-24	4
276	-6	4
280	45	-4
273	126	-4
272	202	24
275	229	42
252	188	45
175	86	43
40	-32	17
-135	-121	-21
-288	-147	-59
-354	-114	-74
-299	-55	-59
-133	-10	-44
77	-4	-38
245	-29	0
302	-62	31
229	-69	42
72	-36	57
-88	27	54
-175	91	55
-155	121	54
-45	104	34
91	45	-7
192	-19	-54
226	-56	-98
198	-44	-116
147	12	-123
106	77	-119
89	106	-99
77	61	-94
41	-48	-79
-29	-192	-36
-113	-307	13
-169	-338	41
-152	-270	55
-60	-133	58
68	7	43
171	90	3
187	92	-47
105	31	-58
-37	-34	-22
-173	-56	-23
-248	-15	-39
-248	62	-58
-201	130	-86
-151	154	-64
-125	127	-45
-116	90	-7
-92	77	43
-26	109	85
81	164	55
186	197	-20
245	169	-88
230	72	-147
150	-52	-181
49	-157	-118
-33	-190	9
-79	-151	54
-111	-69	52
-159	8	19
-236	50	-27
-312	56	-57
-335	46	-67
-262	45	-35
-94	60	-16
118	80	-10
295	80	-9
363	55	-8
317	22	2
183	2	6
33	19	-3
-83	62	-20
-153	102	-36
-189	99	-46
-210	30	-59
-211	-83	-49
-165	-192	-21
-50	-243	7
126	-195	29
312	-56	17
428	127	-6
413	287	15
273	365	17
75	332	-52
-87	194	-72
-142	-16	-40
-85	-248	-12
22	-460	7
90	-620	3
58	-699	-25
-63	-677	-76
-207	-557	-108
-276	-352	-91
-213	-105	-40
-37	128	22
172	287	46
302	340	58
288	282	55
121	162	14
-130	28	-34
-372	-67	-77
-520	-107	-92
-533	-100	-105
-426	-74	-80
-262	-46	-44
-102	-15	-53
9	34	-57
60	112	-43
71	209	-30
76	287	-13
110	316	14
184	275	29
287	190	24
378	106	-2
421	68	-3
389	89	5
285	142	41
141	179	112
1	159	110
-100	79	44
-151	-29	-50
-159	-114	-151
-149	-143	-234
-136	-118	-234
-126	-69	-126
-115	-36	-24
-95	-36	34
-62	-56	24
-27	-68	-10
5	-45	26
35	9	98
70	70	136
117	103	116
175	94	52
231	51	17
263	6	-39
261	-11	-87
210	8	-75
121	55	-97
4	106	-65
-127	149	-4
-253	174	-11
-348	194	-18
-390	210	-42
-358	208	-78
-252	169	-99
-88	64	-100
95	-100	-97
249	-298	-123
346	-479	-102
373	-590	-38
328	-601	-4
216	-510	31
41	-355	56
-174	-175	35
-402	-16	-13
-594	88	-46
-682	114	-37
-634	59	-43
-458	-57	-58
-210	-198	-37
19	-306	-26
169	-331	-17
209	-251	-20
175	-85	-10
131	106	15
128	249	-14
172	295	-30
240	237	-16
275	125	-21
244	19	-28
151	-30	-32
25	-21	-31
-85	22	-8
-148	57	-13
-154	64	-24
-117	54	22
-48	54	80
38	90	109
128	155	67
204	221	-6
241	250	-55
223	227	-81
147	169	-84
42	113	-84
-43	87	-69
-74	90	-59
-40	99	-67
29	76	-6
86	11	47
85	-78	56
24	-145	124
-63	-157	112
-126	-105	61
-129	-16	1
-74	63	-92
4	102	-176
56	93	-219
52	56	-153
2	23	-40
-59	4	64
-91	-5	100
-72	-27	43
-22	-70	-46
27	-123	-109
39	-162	-139
4	-161	-131
-61	-117	-102
-118	-53	-75
-135	-4	-68
-100	8	-71
-20	-9	-42
82	-25	-8
189	-1	16
285	79	58
366	198	132
411	313	125
405	372	86
317	360	57
148	279	6
-81	169	-62
-314	53	-106
-489	-55	-81
-569	-177	-27
-550	-326	28
-471	-501	15
-383	-655	-15
-320	-727	-36
-290	-660	-70
-262	-453	-98
-207	-160	-106
-97	112	-100
52	267	-84
212	264	-45
336	135	-39
391	-35	-62
373	-153	-80
302	-171	-66
202	-110	-37
100	-29	-17
22	9	2
-16	-15	14
-14	-66	28
21	-79	38
62	-7	41
87	138	30
79	305	11
40	418	-13
-7	427	-17
-38	330	-13
-40	183	-21
-24	53	-17
-12	-15	33
-30	-23	87
-81	-7	97
-143	-3	75
-182	-30	12
-167	-72	-48
-100	-98	-93
-3	-81	-101
82	-19	-70
130	60	-52
137	124	-37
126	147	-46
123	129	-99
140	92	-154
172	57	-173
191	41	-132
171	41	-38
99	43	25
-10	34	46
-128	13	55
-226	-11	54
-272	-28	56
-268	-31	41
-221	-30	19
-150	-41	3
-80	-70	13
-20	-113	27
20	-147	-19
46	-152	-30
65	-111	-5
80	-38	-22
87	40	-14
82	88	-30
58	85	-77
21	32	-98
-19	-47	-120
-49	-117	-128
-57	-147	-98
-45	-126	-54
-23	-68	-2
-4	9	13
6	83	3
17	142	12
44	189	15
104	222	8
199	241	-8
310	235	-40
401	187	-95
439	95	-102
407	-33	-47
289	-171	-11
104	-282	5
-128	-333	54
-357	-306	86
-545	-214	48
-654	-89	35
-665	18	20
-580	66	3
-431	37	-18
-259	-54	-68
-108	-170	-101
6	-256	-111
83	-272	-102
143	-218	-93
195	-112	-107
240	-6	-95
257	68	-46
232	90	-27
159	66	-13
64	26	7
-20	-14	31
-70	-39	25
-76	-54	14
-54	-60	11
-26	-56	-3
-14	-35	-1
-18	14	-12
-23	83	-6
-15	160	36
18	221	93
63	256	126
101	268	82
107	268	15
77	269	-43
14	261	-90
-59	225	-120
-117	137	-101
-145	3	-39
-136	-150	-12
-95	-272	-16
-30	-322	-28
42	-296	-24
107	-210	-26
154	-118	-34
172	-55	-50
167	-35	-86
140	-40	-105
104	-38	-111
71	-16	-82
44	21	-60
27	46	-56
20	39	-13
19	1	53
27	-47	84
41	-68	76
52	-45	53
49	13	36
24	80	1
-18	123	-45
-51	131	-86
-40	112	-99
42	95	-66
193	92	-40
363	104	-1
468	114	50
432	110	71
226	91	45
-115	67	39
-484	55	-16
-773	56	-111
-887	55	-178
-805	24	-215
-588	-50	-144
-321	-159	-77
-93	-263	-19
56	-322	32
138	-303	37
176	-204	18
201	-64	-26
205	65	-45
172	150	-63
93	166	-79
-15	131	-47
-102	70	-16
-118	12	-22
-37	-32	2
111	-55	39
262	-65	54
346	-67	69
325	-56	91
221	-26	86
96	30	24
21	105	-30
34	185	-46
115	244	-61
208	261	-77
239	225	-36
172	137	-14
11	15	-1
-188	-119	20
-361	-244	1
-459	-351	-34
-470	-438	-74
-407	-497	-65
-304	-519	-35
-189	-487	29
-77	-393	95
33	-249	81
141	-76	24
245	88	-64
325	206	-169
371	261	-251
358	267	-235
287	250	-108
158	241	9
-9	251	87
-180	272	111
-312	278	68
-370	244	26
-329	171	-6
-205	65	-28
-44	-43	-51
92	-124	-43
158	-163	-34
144	-151	-40
83	-101	-10
22	-26	-11
2	54	-6
23	120	-3
56	155	-33
59	148	-75
16	106	-91
-56	42	-91
-115	-18	-112
-125	-56	-122
-89	-66	-96
-42	-61	-46
-28	-61	-23
-63	-79	13
-121	-114	37
-144	-145	27
-88	-144	13
44	-92	12
206	8	10
319	128	-4
334	233	-13
253	287	-43
129	284	-53
35	233	-31
7	147	27
37	44	70
78	-63	63
82	-169	65
31	-256	64
-45	-301	27
-104	-282	-11
-109	-203	-16
-61	-80	-13
9	43	-13
62	128	-42
70	145	-69
43	109	-68
6	54	-88
-21	14	-69
-31	6	-69
-42	12	-66
-70	3	-41
-121	-45	-29
-174	-126	-21
-205	-209	-33
-198	-253	-32
-162	-230	-43
-125	-157	-51
-114	-70	-41
-136	-18	-16
-167	-21	2
-162	-68	5
-87	-117	16
62	-122	22
253	-66	24
417	39	8
498	157	-14
469	239	-32
328	259	-62
118	215	-60
-109	135	-27
-297	40	23
-410	-39	84
-438	-92	57
-382	-107	8
-267	-84	-50
-130	-30	-145
-6	43	-200
75	114	-190
110	162	-121
111	170	-41
110	136	19
126	76	47
169	3	62
214	-58	66
222	-103	64
163	-133	37
33	-151	-6
-130	-157	-40
-279	-145	-61
-351	-112	-87
-321	-55	-114
-203	12	-108
-37	72	-71
118	114	-11
230	135	53
279	149	87
269	160	74
221	174	45
148	181	16
70	160	-75
9	99	-138
-26	13	-117
-31	-64	-107
-9	-100	-84
27	-69	-70
59	8	-57
83	90	-2
96	123	22
106	81	18
114	-27	14
114	-157	16
89	-250	-13
28	-273	-12
-55	-217	10
-143	-111	35
-201	6	90
-216	104	149
-189	158	158
-138	165	64
-89	116	-65
-44	20	-208
-7	-112	-300
33	-248	-259
67	-341	-138
74	-354	-23
28	-265	45
-77	-105	45
-223	76	19
-351	214	-9
-410	268	-37
-371	238	-45
-243	154	-68
-66	65	-47
102	-1	-2
228	-35	28
292	-56	51
314	-84	55
300	-116	56
260	-141	34
191	-131	34
88	-80	20
-33	7	-52
-140	95	-107
-195	145	-112
-172	137	-101
-67	68	-51
74	-35	24
186	-145	64
216	-224	79
144	-249	59
-10	-211	-16
-191	-117	-103
-330	4	-167
-381	118	-167
-336	182	-104
-224	177	-50
-96	110	-10
4	17	-18
61	-45	-39
92	-45	-31
118	26	4
158	131	13
209	215	6
249	237	10
253	177	0
206	72	-13
118	-26	-27
16	-78	-7
-67	-75	14
-111	-35	28
-109	1	27
-68	9	31
-11	-8	49
49	-29	40
96	-30	13
121	-3	-23
120	40	-52
102	75	-62
86	83	-46
92	68	-13
131	47	51
198	41	91
260	56	81
278	83	33
229	102	-47
113	92	-122
-31	56	-187
-159	6	-177
-237	-40	-121
-260	-74	-112
-261	-93	-105
-281	-105	-100
-340	-120	-88
-413	-135	-55
-452	-143	-28
-409	-137	-27
-269	-120	-27
-62	-102	-26
133	-96	-55
252	-109	-51
257	-127	4
163	-135	38
26	-113	77
-91	-63	80
-152	1	65
-149	50	86
-106	67	39
-45	46	-48
25	0	-121
104	-52	-144
201	-95	-88
300	-119	-71
366	-119	-57
365	-97	-9
275	-45	-4
112	31	16
-79	121	44
-241	198	69
-328	233	39
-333	200	13
-281	106	28
-212	-13	2
-151	-112	-27
-102	-145	-66
-50	-106	-90
22	-15	-104
117	83	-96
212	139	-19
274	142	33
275	101	47
211	54	22
113	32	-10
14	43	-1
-54	68	-9
-76	78	-40
-64	51	-42
-38	-7	-25
-23	-74	-27
-20	-118	-47
-31	-125	-66
-47	-101	-74
-61	-72	-42
-67	-51	-16
-60	-44	-28
-40	-30	-40
3	10	-22
62	78	20
122	157	59
164	208	84
167	210	105
133	164	112
75	100	49
20	64	-42
-9	80	-109
-11	144	-173
4	218	-158
16	253	-89
17	215	-53
14	112	-20
25	-25	-35
62	-151	-38
119	-232	-17
166	-262	-32
169	-260	-26
118	-251	-25
33	-253	-52
-39	-260	-65
-66	-261	-56
-43	-236	-62
-6	-187	-58
-16	-127	-41
-116	-83	-30
-305	-70	-49
-525	-93	-43
-702	-134	-13
-770	-164	-6
-702	-164	-7
-524	-122	-9
-277	-53	10
-20	22	21
211	81	40
394	114	49
495	125	41
496	121	47
391	111	38
206	95	15
4	70	-21
-151	33	-30
-205	-11	-25
-152	-43	-20
-31	-48	30
97	-12	13
191	57	-52
242	145	-79
273	222	-124
309	262	-160
346	261	-123
368	221	-24
330	157	65
229	85	124
82	22	120
-55	-23	68
-144	-51	-27
-175	-65	-128
-175	-76	-187
-182	-86	-184
-212	-107	-120
-248	-134	-63
-241	-156	-34
-157	-153	-51
2	-108	-43
184	-20	-3
318	94	6
353	197	32
283	254	59
151	244	51
15	178	5
-79	86	-54
-123	4	20
-143	-41	62
-166	-49	19
-197	-39	40
-217	-33	16
-202	-40	-22
-137	-50	-52
-44	-43	-64
36	-6	-78
65	48	-83
31	96	-49
-45	104	-40
-117	57	-51
-149	-27	-51
-128	-118	-40
-75	-186	-53
-18	-225	-45
16	-246	-26
33	-274	-9
62	-325	4
136	-378	22
267	-393	12
423	-342	-16
541	-207	-21
544	-23	-22
380	160	-39
57	296	-67
-354	369	-60
-720	393	-37
-917	396	0
-880	390	6
-632	360	-15
-270	279	-14
72	128	1
281	-65	33
318	-243	33
216	-330	24
58	-291	12
-79	-154	-12
-152	7	-21
-167	98	-40
-141	71	-66
-93	-52	-84
-22	-192	-84
74	-264	-86
184	-223	-56
288	-86	5
346	64	46
334	145	81
257	116	99
156	3	82
69	-120	7
23	-182	-78
15	-144	-142
21	-31	-181
17	98	-167
-5	181	-103
-36	193	-42
-57	147	-36
-56	81	-19
-27	38	0
18	32	19
66	52	56
102	74	75
114	72	59
98	46	5
58	7	-60
8	-25	-120
-33	-35	-117
-47	-20	-89
-29	15	0
8	58	108
34	102	97
28	134	77
-12	157	30
-67	165	-45
-101	158	-101
-86	136	-106
-16	105	-59
82	64	-39
169	19	16
212	-28	53
199	-79	16
134	-127	-13
35	-180	-18
-81	-236	-38
-193	-290	-68
-285	-339	-75
-333	-364	-82
-318	-360	-104
-234	-313	-115
-94	-229	-72
61	-116	1
189	2	24
257	110	51
253	201	62
188	268	44
87	320	15
-35	344	-5
-168	332	-4
-303	268	-22
-428	154	-25
-509	6	-24
-513	-144	-83
-415	-259	-134
-231	-311	-96
-10	-297	-51
175	-235	-15
269	-155	-13
252	-77	-45
158	-14	-56
57	34	-54
16	71	-28
62	103	-4
167	130	47
266	149	100
301	161	144
241	165	151
110	160	104
-39	132	38
-152	77	-61
-194	-16	-145
-176	-139	-206
-121	-263	-188
-65	-348	-99
-22	-358	-63
10	-280	-47
40	-131	-20
69	40	-5
95	187	-9
116	271	-24
131	279	-2
154	241	-12
186	183	-39
216	139	-12
216	119	16
151	108	25
8	88	-6
-181	41	-49
-351	-22	-69
-428	-82	-65
-363	-114	-43
-170	-106	-61
93	-65	-84
335	-15	-60
478	18	-48
496	23	-23
400	2	-2
238	-36	6
54	-71	19
-111	-101	9
-251	-119	-1
-360	-133	-8
-425	-142	-18
-443	-144	-20
-401	-137	-3
-310	-114	-2
-189	-80	-5
-63	-36	-6
56	9	-38
175	49	-72
302	79	-42
446	86	34
569	72	56
611	36	37
515	-8	19
265	-41	-15
-95	-45	-26
-470	-13	-4
-743	41	36
-842	93	84
-765	115	110
-569	104	104
-352	63	38
-173	25	-57
-42	7	-168
62	19	-236
171	47	-239
288	71	-179
375	75	-96
395	52	-53
328	16	-22
207	-24	8
102	-62	46
63	-97	97
102	-128	101
172	-147	30
214	-144	-5
184	-107	-84
90	-39	-137
-12	41	-76
-65	112	-31
-45	147	8
21	145	49
82	121	69
91	97	29
42	92	-47
-25	101	-84
-68	115	-93
-61	115	-132
-23	94	-170
4	56	-121
-22	19	-39
-107	-2	3
-216	-7	-14
-292	-2	-32
-292	-3	-17
-204	-21	-4
-55	-55	-14
103	-94	-30
225	-123	-30
279	-134	-45
258	-122	-26
182	-97	-2
81	-69	-8
-3	-62	16
-38	-85	19
-12	-140	32
59	-222	59
123	-296	52
121	-339	65
5	-318	18
-208	-227	-30
-456	-86	-44
-627	61	-48
-639	161	1
-473	178	49
-188	118	82
89	22	29
253	-55	-39
251	-61	-95
119	8	-165
-46	122	-188
-148	219	-144
-135	241	-72
-33	174	-30
89	41	8
158	-90	45
147	-160	57
81	-136	65
14	-29	64
-4	112	44
34	225	26
107	268	20
172	236	12
212	158	-10
224	76	-33
221	29	-48
219	25	-89
212	45	-144
187	51	-147
127	15	-88
29	-74	-34
-79	-192	-21
-174	-296	-15
-237	-340	23
-262	-301	58
-250	-190	47
-208	-42	13
-135	103	6
-30	208	-30
88	265	-96
191	278	-174
234	267	-229
199	243	-138
93	208	-76
-26	164	-25
-97	106	59
-86	48	93
-6	0	101
82	-26	100
120	-27	82
79	-14	22
-11	-3	-28
-88	-13	-96
-94	-47	-106
-16	-105	-95
104	-167	-106
198	-218	-62
210	-244	-19
138	-237	0
20	-205	3
-82	-161	9
-121	-123	-21
-101	-108	-11
-48	-118	21
-12	-144	-13
-18	-157	0
-70	-129	7
-150	-48	-1
-223	78	27
-264	215	69
-263	320	66
-222	350	4
-141	298	-81
-42	177	-157
63	31	-175
160	-100	-135
221	-179	-58
224	-196	9
151	-166	49
1	-110	46
-204	-60	26
-417	-38	-11
-565	-54	-71
-581	-99	-68
-438	-155	-46
-161	-192	-14
154	-183	51
401	-118	48
498	-5	3
431	126	-24
265	240	-74
99	299	-106
18	289	-89
44	225	-58
132	132	-61
200	52	-47
189	5	22
91	-6	59
-44	5	86
-149	13	98
-176	5	62
-124	-21	11
-33	-46	-39
52	-49	-62
102	-20	-64
111	36	-57
94	89	-41
67	110	-25
38	80	-36
11	12	-60
-10	-64	-42
-18	-112	-11
-7	-110	-9
15	-70	-25
32	-23	-59
23	-8	-97
-14	-41	-123
-63	-108	-85
-91	-167	-27
-69	-178	-9
-4	-127	29
76	-29	28
125	76	8
120	150	-3
67	177	-18
3	164	-68
-26	134	-88
-5	104	5
52	77	46
107	40	116
123	-13	133
90	-82	61
28	-140	-8
-24	-162	-108
-37	-131	-157
-14	-52	-180
9	48	-147
-10	142	-90
-100	201	-42
-257	215	-34
-432	193	-16
-561	134	8
-585	52	15
-483	-43	14
-272	-138	-14
-10	-214	-18
234	-256	-37
389	-256	-37
429	-227	-16
366	-187	23
245	-156	33
122	-133	11
36	-107	-4
-3	-62	-22
-12	9	-20
-18	89	-43
-33	149	0
-51	157	32
-53	116	5
-26	43	3
24	-22	-10
70	-52	-50
86	-49	-96
59	-34	-116
8	-37	-91
-32	-64	-30
-36	-97	11
-1	-97	54
43	-33	59
60	92	25
31	241	11
-36	349	2
-104	369	-13
-133	287	-47
-115	135	-82
-67	-25	-96
-28	-147	-84
-20	-200	-39
-42	-195	20
-68	-160	13
-80	-126	-12
-69	-113	-11
-52	-113	-38
-48	-111	-68
-55	-87	-66
-43	-31	-26
20	51	-13
147	140	-24
306	207	-10
434	233	9
462	203	-16
373	134	-31
194	51	-27
10	-13	-11
-114	-35	28
-136	-18	55
-86	15	81
-25	32	74
-6	15	16
-51	-37	-90
-136	-96	-188
-216	-125	-239
-249	-108	-194
-226	-40	-76
-159	49	15
-71	123	51
13	155	30
95	130	0
162	62	-22
212	-25	-49
237	-99	-32
230	-140	-21
194	-142	-19
138	-113	-15
72	-79	-9
-7	-67	9
-106	-99	22
-223	-170	22
-333	-254	-16
-404	-313	-35
-402	-313	-24
-328	-249	-21
-223	-138	-45
-137	-25	-44
-113	59	-11
-134	112	-3
-149	150	-1
-97	197	24
35	255	36
201	299	49
313	283	52
297	190	14
152	33	-64
-37	-121	-114
-160	-201	-69
-132	-160	-71
32	-15	-61
242	160	-43
381	279	-32
374	287	-6
248	195	12
76	53	37
-48	-68	-5
-83	-131	-21
-50	-143	-27
-18	-135	-40
-32	-142	-52
-91	-167	-86
-145	-185	-75
-142	-162	-30
-67	-85	15
44	25	24
136	129	35
156	194	37
107	211	7
28	197	-68
-27	182	-150
-30	181	-159
13	183	-108
68	168	-39
106	109	-19
114	15	-58
95	-91	-78
65	-171	-72
22	-199	-51
-37	-182	-15
-120	-138	14
-209	-103	16
-282	-90	20
-304	-94	52
-259	-97	79
-162	-79	54
-39	-43	5
68	0	-30
145	22	-56
180	17	-35
172	-5	-24
128	-29	0
48	-31	12
-50	-9	-5
-144	23	-10
-197	38	0
-182	17	43
-103	-45	56
12	-127	64
113	-196	45
162	-226	20
140	-201	14
64	-130	-32
-35	-33	-79
-132	70	-107
-198	160	-117
-226	227	-131
-198	254	-113
-116	241	-74
10	177	-64
144	74	-41
241	-46	-30
251	-156	-39
170	-215	-44
36	-218	-49
-79	-173	-36
-113	-108	-2
-55	-51	22
48	-18	15
121	-2	-14
105	20	-26
-1	61	0
-133	126	29
-205	187	43
-164	215	64
-27	189	51
131	110	21
224	11	-4
199	-76	-44
81	-115	-61
-53	-100	-56
-128	-46	-75
-102	16	-76
-1	65	-70
113	95	-64
184	106	-44
196	121	-47
175	139	-45
161	162	-69
162	171	-101
161	158	-70
111	116	-25
-4	48	24
-179	-29	110
-344	-105	115
-433	-168	40
-410	-213	-41
-285	-238	-144
-120	-236	-193
17	-205	-147
86	-140	-38
93	-48	60
72	61	140
71	171	164
106	267	149
161	335	99
203	362	-33
201	336	-90
148	251	-137
55	102	-165
-46	-104	-105
-134	-337	-117
-199	-541	-66
-230	-660	10
-225	-655	24
-180	-526	17
-97	-311	15
13	-81	-15
128	94	-71
229	185	-67
299	197	-99
330	174	-109
328	161	-116
292	174	-72
221	201	3
101	200	24
-66	141	39
-259	22	47
-443	-120	76
-572	-233	68
-615	-272	22
-562	-231	-4
-434	-144	-13
-259	-61	-5
-68	-24	15
117	-32	5
276	-58	-24
381	-58	-49
401	-8	-62
314	83	-68
135	183	-71
-90	244	-53
-280	253	-30
-365	209	-24
-321	143	-43
-180	88	-60
-11	55	-52
114	43	-29
166	36	-7
156	25	2
131	12	-6
132	10	-5
171	33	-6
216	71	-12
244	106	-6
222	112	-2
162	79	-14
89	12	-28
29	-62	-35
-12	-114	-28
-46	-133	-13
-90	-122	11
-143	-101	37
-191	-87	45
-208	-85	32
-174	-91	4
-95	-90	-35
7	-76	-44
100	-44	-36
165	-4	-44
196	41	-36
199	87	59
183	129	101
151	161	3
104	166	-77
50	131	-143
-2	53	-201
-42	-48	-186
-55	-142	-145
-48	-192	-40
-23	-173	32
8	-98	43
36	-1	51
60	72	47
69	99	28
63	81	-9
33	43	-19
-14	24	-55
-68	30	-91
-104	46	-132
-103	40	-135
-61	-12	-60
-1	-106	-10
40	-206	21
30	-268	36
-40	-263	38
-153	-196	16
-261	-110	3
-325	-41	13
-331	-19	3
-281	-27	-27
-203	-28	-35
-121	11	-38
-43	106	10
38	227	43
130	321	10
229	340	15
302	265	-8
313	121	-1
232	-43	-29
69	-173	-89
-127	-234	-90
-300	-224	-66
-380	-166	-35
-345	-96	-51
-210	-37	-58
-28	-5	-72
141	10	-91
262	21	-96
320	40	-81
321	74	-44
283	112	-8
216	140	20
130	142	40
21	112	84
-101	56	107
-202	-2	120
-259	-40	162
-253	-44	145
-194	-17	37
-108	17	-86
-28	30	-169
27	3	-196
56	-59	-195
78	-125	-120
105	-163	-17
140	-150	50
175	-96	85
191	-26	54
184	19	-11
163	21	-69
144	-12	-104
131	-52	-113
110	-64	-88
49	-40	-68
-67	16	-62
-233	76	-51
-406	113	-20
-518	118	-6
-520	98	-20
-392	72	-13
-167	56	-26
81	57	-26
273	65	-14
358	66	-9
325	51	24
205	15	40
53	-39	37
-68	-112	21
-123	-189	-22
-108	-259	-56
-41	-305	-49
42	-306	-52
109	-254	-45
133	-157	-30
116	-34	-30
68	77	-29
13	161	-25
-22	206	10
-24	230	24
9	244	24
66	254	9
123	250	-18
159	209	-25
151	112	-30
105	-33	-12
26	-194	19
-61	-321	25
-136	-370	9
-187	-322	12
-207	-192	-5
-200	-23	-86
-176	137	-111
-141	255	-36
-108	313	-18
-76	313	-57
-47	269	-80
-19	199	-93
14	112	-47
56	24	55
104	-51	160
141	-106	196
154	-137	116
125	-144	-28
59	-134	-145
-27	-117	-227
-103	-100	-238
-145	-83	-165
-147	-69	-75
-116	-59	18
-77	-53	21
-42	-45	-38
-11	-28	-67
32	3	-79
97	48	-80
178	93	-76
242	115	-52
249	96	-43
175	35	-20
29	-46	8
-136	-117	24
-262	-136	85
-305	-101	110
-255	-23	87
-144	57	52
-21	105	19
69	106	-15
120	76	-77
142	45	-83
157	39	-34
175	62	-13
191	90	4
188	92	40
150	46	54
83	-37	52
8	-131	30
-48	-201	-30
-69	-224	-97
-56	-202	-129
-27	-161	-97
-7	-120	-46
-15	-90	-5
-54	-59	6
-110	-13	4
-162	61	-6
-182	155	-26
-158	238	-48
-96	279	-65
-17	257	-75
50	174	-76
86	66	-50
88	-29	-40
68	-79	-38
52	-75	-45
63	-35	-51
100	4	-47
139	10	3
150	-32	63
102	-109	85
-12	-189	129
-168	-241	131
-324	-241	72
-426	-196	-48
-456	-131	-114
-410	-72	-108
-315	-36	-150
-210	-24	-135
-119	-25	-72
-54	-27	-2
-6	-26	34
42	-28	0
101	-45	-40
162	-78	-53
212	-108	-88
244	-107	-136
257	-50	-121
268	63	-76
288	211	-56
320	343	-65
346	416	-54
332	401	13
266	310	69
154	179	94
35	56	96
-43	-20	65
-51	-42	47
-3	-25	6
52	1	-21
53	11	-36
-30	-2	-71
-178	-29	-102
-325	-51	-113
-401	-56	-68
-361	-44	-32
-222	-24	-23
-47	-15	-48
85	-21	-50
129	-40	-7
89	-59	11
8	-68	16
-59	-61	20
-82	-47	24
-66	-39	-28
-35	-42	-69
-10	-55	-24
11	-65	-5
36	-62	13
80	-36	33
127	9	20
149	59	5
113	109	-2
20	148	3
-100	180	18
-188	204	56
-202	218	66
-135	207	32
-31	155	-7
44	55	-69
46	-82	-125
-27	-224	-133
-128	-337	-97
-184	-384	-52
-136	-355	-23
19	-267	-35
229	-152	-51
411	-51	-43
473	-3	-44
373	-20	6
135	-88	49
-164	-170	66
-420	-226	70
-554	-218	54
-509	-141	14
-325	-25	-88
-74	85	-178
142	138	-238
242	115	-234
206	30	-153
68	-59	-42
-98	-98	56
-224	-46	93
-262	85	82
-215	244	29
-110	372	-13
23	416	-32
151	370	-43
265	260	-48
360	135	-25
423	31	-2
432	-42	-33
375	-93	-32
262	-140	5
114	-191	15
-30	-233	12
-136	-241	15
-187	-198	32
-195	-112	48
-182	-6	30
-174	76	7
-173	109	-22
-173	88	-61
-158	35	-98
-116	-16	-113
-50	-36	-94
23	-17	-71
83	29	-32
113	75	28
109	97	44
77	92	0
29	67	-35
-19	41	-15
-53	33	-27
-70	43	-39
-66	64	14
-41	87	30
0	106	13
51	125	-19
103	145	-60
139	165	-87
153	168	-130
139	142	-170
104	79	-130
56	-11	-24
11	-101	83
-27	-162	134
-57	-170	92
-89	-131	12
-119	-64	-53
-140	-2	-72
-134	35	-56
-85	37	21
6	7	91
115	-41	104
196	-100	57
209	-160	-62
149	-216	-154
47	-260	-200
-27	-275	-193
-23	-251	-160
78	-183	-106
231	-90	-48
355	2	-6
373	58	20
242	59	22
-4	3	45
-308	-86	51
-575	-171	69
-750	-224	71
-804	-226	26
-735	-187	3
-569	-127	-19
-331	-68	-40
-72	-20	-45
145	27	-16
266	92	-4
253	185	-8
132	301	-2
-23	406	18
-115	461	23
-71	427	-13
97	301	-34
318	113	-34
469	-82	0
474	-229	32
322	-290	6
85	-268	-32
-137	-188	-49
-267	-90	-64
-285	-13	-81
-228	28	-85
-145	33	-42
-75	17	29
-12	-5	65
60	-21	45
153	-23	-39
245	-15	-99
306	-1	-162
314	9	-217
271	9	-187
210	-2	-100
165	-14	-16
149	-8	31
135	31	31
90	110	28
-16	215	57
-156	310	37
-279	353	-13
-325	313	-2
-260	190	49
-116	11	49
44	-168	26
142	-297	2
148	-343	-4
74	-300	-9
-24	-194	-34
-84	-66	-64
-83	47	-105
-29	128	-97
34	174	-95
74	196	-68
79	203	-24
57	195	-8
33	174	-17
13	130	-40
-7	62	-56
-50	-20	-54
-121	-102	-34
-212	-164	2
-290	-201	49
-320	-209	59
-281	-201	51
-182	-186	43
-49	-168	47
75	-150	54
159	-119	45
184	-77	36
165	-19	0
121	42	-72
86	94	-130
82	120	-160
107	110	-141
143	66	-121
148	-6	-140
84	-87	-115
-63	-159	-91
-262	-203	-40
-452	-215	22
-545	-204	27
-496	-182	52
-308	-168	87
-50	-163	81
186	-160	80
332	-133	108
352	-68	98
291	35	35
216	161	-55
188	268	-144
221	330	-201
283	330	-215
324	284	-139
291	228	-35
183	179	17
20	148	45
-147	111	33
-279	44	-7
-357	-64	-25
-375	-196	-42
-338	-304	-50
-257	-338	-22
-139	-270	5
0	-122	33
143	54	59
265	197	59
338	269	46
346	273	10
280	238	-30
158	208	-41
-5	197	-30
-175	200	-23
-311	179	-25
-377	110	-36
-362	-8	-52
-275	-149	-55
-155	-261	-52
-44	-309	-45
18	-278	4
30	-190	32
20	-85	14
25	6	-34
75	60	-82
166	86	-59
269	95	-63
350	103	-23
388	108	17
383	106	30
346	92	46
280	63	19
172	33	5
7	11	-20
-208	3	-21
-439	3	-75
-602	-1	-141
-635	-21	-90
-518	-58	-45
-300	-108	-65
-80	-156	-67
64	-192	-90
95	-218	-108
58	-235	-102
32	-242	-99
82	-237	-51
206	-203	-6
337	-141	70
392	-52	79
314	43	32
136	114	33
-51	139	0
-148	114	7
-115	58	6
5	3	11
107	-20	9
97	-1	-34
-51	43	-44
-286	88	-59
-485	106	-63
-561	88	-62
-480	41	-57
-291	-13	-21
-83	-56	20
78	-84	50
155	-96	103
167	-96	137
147	-79	104
120	-38	39
97	29	-49
78	120	-177
72	205	-262
97	256	-225
157	244	-136
234	171	-24
279	58	62
253	-56	77
139	-131	52
-18	-152	26
-158	-119	-11
-225	-64	-46
-212	-19	-39
-162	-7	-27
-130	-30	-47
-143	-72	-34
-173	-112	-11
-151	-119	-19
-31	-89	0
170	-23	-4
373	53	-18
484	117	4
438	143	15
263	125	17
51	71	22
-88	7	-3
-103	-35	-60
-25	-38	-68
57	0	-58
64	57	3
-30	100	39
-177	109	3
-281	74	11
-284	11	15
-170	-53	0
3	-94	-46
162	-102	-56
249	-84	-50
244	-50	-59
171	-17	-53
59	18	-69
-56	54	-88
-167	97	-114
-260	135	-112
-317	148	-70
-319	113	-37
-255	20	-8
-145	-110	24
-28	-240	52
53	-316	69
77	-301	38
54	-194	-37
33	-21	-111
58	158	-142
150	284	-128
279	328	-52
389	287	62
407	197	176
302	103	228
94	38	183
-147	15	66
-331	20	-74
-387	19	-186
-298	-15	-265
-110	-96	-268
89	-210	-181
212	-326	-79
209	-405	4
83	-413	24
-111	-340	-2
-290	-195	-3
-387	-15	13
-374	157	20
-264	275	4
-106	316	-6
50	274	1
165	170	11
207	36	24
175	-94	7
80	-196	-11
-54	-256	-9
-189	-264	-2
-290	-225	0
-319	-143	-17
-266	-41	-19
-148	57	-15
-1	125	-16
125	153	-24
207	139	-13
237	115	7
229	99	16
204	104	31
178	117	38
144	113	14
90	68	-18
12	-17	-23
-76	-113	-25
-137	-183	-30
-145	-192	-59
-83	-139	-101
32	-56	-122
162	19	-132
262	57	-117
306	58	-104
299	49	-74
252	59	-34
191	102	-3
124	160	39
43	203	32
-54	205	32
-167	164	12
-263	96	-27
-316	27	-66
-295	-23	-100
-208	-62	6
-82	-103	130
42	-159	183
138	-214	240
198	-243	196
219	-214	41
213	-115	-113
169	32	-221
80	180	-282
-52	275	-246
-203	294	-150
-311	241	-53
-331	147	15
-244	51	-7
-85	-20	-36
65	-68	-65
132	-107	-67
74	-143	-72
-75	-173	-54
-236	-178	-17
-309	-137	-8
-241	-54	10
-46	51	19
203	141	15
404	180	-34
491	150	-47
444	61	-14
295	-51	-7
97	-157	-12
-102	-226	-5
-263	-250	-3
-378	-232	-12
-431	-182	-18
-418	-121	-19
-342	-63	-4
-218	-31	6
-80	-28	5
32	-55	-3
96	-90	-7
113	-103	16
107	-71	41
110	11	62
132	123	30
165	225	-46
175	279	-90
143	268	-104
68	197	-61
-28	89	-20
-112	-19	20
-158	-103	89
-159	-142	90
-129	-130	14
-79	-70	-60
-12	24	-114
79	122	-120
206	185	-75
346	174	-62
475	89	-33
535	-43	49
484	-157	81
325	-192	16
80	-125	-36
-180	13	-46
-383	145	-51
-481	200	-60
-472	144	-71
-375	10	-60
-246	-127	-83
-127	-201	-147
-50	-178	-163
-12	-87	-109
9	14	-25
27	74	53
52	79	113
74	53	126
70	35	87
36	43	40
-24	62	-69
-81	64	-142
-106	24	-112
-83	-53	-86
-18	-133	-66
51	-180	-36
94	-175	-14
84	-131	-42
32	-82	-72
-29	-47	-55
-60	-34	-10
-37	-20	3
28	19	-1
107	92	-10
159	174	-23
155	241	-14
100	260	5
27	228	11
-24	166	25
-32	98	64
7	35	25
61	-28	1
98	-98	30
90	-170	28
34	-218	18
-48	-196	38
-130	-89	68
-182	95	49
-193	290	-1
-167	415	-52
-112	402	-102
-43	239	-113
25	-21	-136
78	-289	-161
97	-475	-117
72	-538	-77
9	-481	-49
-65	-359	-8
-110	-237	-10
-94	-157	-10
-12	-127	42
97	-125	65
169	-117	71
149	-75	69
32	7	22
-126	111	-36
-236	209	-81
-219	268	-75
-58	274	-76
194	225	-72
435	144	-51
569	63	-54
558	8	-44
409	-11	-11
179	-1	18
-88	19	2
-352	35	-6
-589	45	24
-786	58	39
-883	82	-3
-836	115	-63
-630	137	-129
-300	124	-190
60	60	-185
350	-37	-123
506	-137	-19
519	-196	57
439	-184	86
340	-116	82
258	-32	70
195	20	80
124	16	34
29	-32	-33
-71	-88	-56
-152	-105	-60
-176	-70	-60
-143	0	-40
-83	67	-32
-20	96	10
24	84	36
65	46	6
123	23	9
195	30	5
254	61	-3
253	83	-21
166	61	-50
14	-9	-43
-141	-106	-33
-233	-178	-28
-226	-188	-33
-142	-118	-51
-53	4	-60
-14	129	-51
-45	213	1
-108	233	33
-141	201	8
-98	143	-28
24	95	-89
170	69	-112
278	59	-102
306	51	-55
257	29	17
170	-11	32
96	-57	22
69	-99	12
94	-126	24
143	-135	-11
181	-130	-90
170	-119	-82
93	-99	-48
-50	-76	-79
-234	-47	-70
-415	-16	-24
-539	11	1
-555	36	29
-445	52	12
-237	64	-25
-1	61	-42
180	41	-55
245	-5	-52
194	-74	-16
63	-154	63
-68	-216	107
-149	-234	61
-149	-194	8
-99	-106	-30
-45	0	-38
-23	79	-52
-37	103	-79
-64	68	-86
-76	3	-109
-58	-53	-101
-27	-65	-57
-7	-29	-22
-16	32	-36
-47	78	-27
-77	74	22
-77	12	38
-39	-90	48
19	-190	39
66	-252	11
80	-260	-14
68	-217	-22
59	-144	-46
85	-61	-49
156	17	6
245	93	36
306	166	42
291	235	19
190	294	-19
30	323	-50
-131	309	-67
-233	243	-56
-242	135	-42
-170	5	-27
-56	-118	-30
41	-199	-17
91	-214	-34
86	-157	-61
44	-42	-44
-2	94	-35
-22	205	-37
-3	254	-36
50	233	-4
127	153	-19
201	64	-76
252	6	-93
262	3	-76
226	39	-30
143	83	11
33	96	35
-83	62	28
-181	-4	3
-243	-72	-25
-267	-112	-36
-259	-112	-54
-226	-89	-68
-175	-66	-46
-104	-66	-1
-12	-86	22
98	-104	32
207	-96	94
292	-52	101
331	15	94
306	84	74
226	127	27
104	135	-13
-42	116	-131
-195	77	-218
-337	32	-226
-459	-22	-142
-540	-87	-40
-550	-167	11
-470	-246	6
-294	-299	-12
-52	-305	-28
198	-256	-76
392	-163	-89
465	-52	-76
403	41	-29
234	106	17
38	138	19
-100	140	-9
-118	125	13
-12	95	37
166	45	55
332	-19	78
393	-84	9
316	-129	-47
116	-131	-82
-129	-86	-99
-335	-6	-95
-442	72	-67
-425	118	-25
-315	110	-3
-162	55	4
-8	-17	-11
106	-74	-4
169	-97	5
166	-86	-31
97	-61	-65
-28	-44	-48
-187	-43	6
-333	-50	75
-415	-48	149
-393	-21	201
-271	33	191
-80	101	67
118	159	-90
265	195	-233
320	205	-330
287	199	-339
201	180	-262
107	150	-130
47	100	-22
34	25	34
54	-70	55
76	-167	57
66	-230	57
9	-237	68
-80	-182	59
-165	-91	51
-198	4	32
-148	67	-41
-22	80	-90
139	48	-61
273	0	-49
330	-37	-39
296	-49	25
198	-38	53
89	-21	32
5	-16	11
-31	-33	-30
-43	-69	-69
-53	-103	-38
-78	-117	3
-108	-99	13
-120	-51	-3
-100	10	-37
-46	65	-49
12	98	-33
53	102	-35
69	86	-31
72	71	-49
85	68	-93
115	83	-76
149	105	1
157	119	49
118	114	27
42	85	20
-36	40	-28
-80	-11	-36
-77	-64	-34
-48	-113	-58
-41	-160	-43
-81	-195	1
-159	-208	100
-228	-180	152
-234	-98	164
-162	33	74
-42	183	-51
48	315	-198
50	379	-294
-50	350	-259
-209	235	-149
-340	64	-30
-383	-116	2
-313	-256	-19
-168	-328	-49
-5	-322	-55
125	-252	-67
196	-154	-35
216	-59	24
206	1	55
176	23	29
136	14	-31
93	-5	-68
62	-5	-74
62	27	-53
98	92	-21
156	169	5
205	239	19
212	277	43
170	278	38
89	244	34
3	179	28
-65	95	8
-105	-6	-30
-126	-114	-43
-143	-214	-16
-150	-282	-19
-136	-300	2
-85	-261	24
4	-179	24
103	-88	0
184	-19	-59
222	4	-85
209	-22	-89
164	-85	-56
100	-161	-20
26	-232	-7
-68	-286	3
-191	-309	-11
-332	-294	-43
-452	-229	-62
-509	-114	-83
-459	29	-101
-314	165	-90
-103	252	-55
107	272	-11
266	238	26
351	195	56
363	187	63
314	233	43
219	301	4
77	345	-31
-101	299	-57
-292	147	-37
-447	-71	21
-497	-280	64
-417	-400	118
-210	-391	134
46	-277	84
269	-123	9
387	-1	-49
373	53	-107
269	48	-149
143	30	-124
60	45	-68
42	110	-47
68	203	-57
94	275	-56
83	282	-70
30	206	-102
-38	71	-105
-84	-71	-79
-83	-179	-83
-33	-218	-144
38	-195	-157
107	-134	-84
158	-64	5
184	-9	49
192	27	84
188	54	113
172	83	80
145	116	46
104	144	16
50	160	15
-2	147	-1
-50	109	-60
-97	49	-54
-149	-13	-50
-213	-66	-44
-291	-106	-30
-364	-130	-45
-407	-142	-65
-392	-138	-9
-304	-117	52
-156	-71	26
24	-4	7
192	68	-47
306	131	-115
346	162	-131
323	149	-93
258	93	-36
183	12	8
117	-71	38
69	-138	65
28	-176	91
-15	-181	68
-62	-153	40
-104	-101	26
-128	-35	51
-127	24	81
-95	58	86
-36	58	30
37	23	-35
111	-26	-76
165	-67	-159
166	-77	-186
84	-56	-164
-92	-26	-131
-350	-13	-111
-614	-41	-109
-797	-107	-85
-832	-187	-68
-691	-245	-61
-420	-254	-35
-110	-214	8
139	-138	16
274	-57	-13
306	12	-23
297	69	-7
314	125	14
381	185	39
472	243	79
526	278	123
491	274	116
359	222	67
179	138	2
13	52	-68
-99	-8	-103
-140	-35	-68
-141	-29	-24
-131	-15	-40
-130	-5	-44
-132	-7	-69
-118	-13	-112
-79	-11	-107
-25	-1	-107
18	16	-79
37	23	-58
32	13	-39
24	-17	10
36	-54	51
81	-81	75
144	-85	70
206	-59	55
238	-16	24
223	30	-12
163	64	-31
71	79	-19
-27	70	-13
-104	44	-10
-136	17	-6
-109	-3	-23
-38	-6	-58
51	8	-98
113	32	-94
116	57	-55
60	71	-30
-28	72	30
-108	61	103
-156	50	97
-167	41	55
-168	39	26
-182	38	-62
-210	29	-145
-229	4	-155
-201	-36	-126
-113	-85	-94
14	-131	-58
127	-167	-32
181	-182	-69
151	-174	-102
59	-135	-28
-47	-71	60
-124	16	37
-154	111	5
-151	191	-7
-140	231	-47
-136	208	-51
-133	125	-7
-120	3	18
-92	-123	4
-53	-218	-4
-28	-268	-18
-24	-271	-34
-31	-253	-42
-22	-229	-12
32	-210	15
132	-184	18
257	-134	25
358	-52	20
407	49	2
396	140	-33
344	191	-41
276	182	-66
203	129	-75
119	67	-57
10	30	-46
-120	33	-19
-253	59	-20
-347	76	6
-375	48	4
-333	-18	-48
-247	-98	-56
-164	-144	-51
-109	-120	-49
-89	-33	-29
-85	80	-4
-74	160	16
-44	161	7
1	83	-11
40	-39	-30
61	-142	-42
60	-186	-33
46	-151	-43
35	-58	-22
33	45	38
47	130	97
71	174	121
107	188	84
153	186	5
211	182	-81
272	175	-161
323	161	-201
342	130	-116
310	80	37
216	22	94
65	-36	71
-126	-86	38
-321	-126	-25
-485	-156	-84
-572	-174	-121
-556	-175	-123
-436	-152	-94
-243	-109	-78
-27	-48	-57
156	12	-67
269	62	-78
309	97	-59
296	114	-17
262	123	-17
232	123	-23
206	117	19
178	93	47
135	51	96
81	-6	115
25	-66	107
-22	-111	97
-59	-130	52
-95	-117	-8
-142	-80	18
-199	-31	18
-245	15	-50
-253	45	-95
-206	55	-149
-115	44	-141
-16	16	-92
44	-27	-36
32	-67	-57
-45	-102	-88
-153	-124	-91
-232	-136	-108
-242	-150	-90
-170	-176	-94
-36	-222	-72
114	-272	-50
245	-306	-37
322	-292	-1
329	-209	35
262	-61	21
134	121	-31
-22	291	-17
-171	403	-7
-262	430	28
-269	373	127
-191	265	201
-67	130	222
41	7	159
91	-89	50
69	-150	-84
12	-176	-226
-32	-174	-280
-27	-142	-234
24	-92	-161
85	-28	-95
107	35	-43
66	85	-8
-13	123	9
-90	142	10
-118	143	22
-86	123	4
-13	83	-10
65	26	2
120	-35	-7
155	-83	0
188	-101	-2
234	-83	-4
280	-38	-2
300	17	-8
258	63	-6
152	93	1
6	109	28
-136	118	32
-228	129	2
-261	138	-30
-250	135	-38
-214	110	-39
-176	56	-32
-126	-14	-11
-63	-87	0
17	-140	16
97	-169	36
140	-173	35
130	-165	22
63	-160	44
-29	-159	36
-104	-159	-23
-132	-144	-54
-112	-110	-78
-61	-54	-96
-12	2	-99
17	38	-91
21	34	-86
7	-7	-88
-6	-66	-127
-10	-110	-144
3	-114	-91
26	-77	-67
49	-19	-75
59	33	-26
37	57	29
-24	59	-16
-116	63	3
-214	98	126
-280	169	126
-279	250	75
-203	299	1
-70	275	-111
71	179	-169
179	40	-173
234	-81	-120
234	-141	-77
200	-130	-10
156	-77	22
107	-31	29
50	-29	48
-18	-77	-8
-88	-140	1
-133	-184	4
-129	-179	0
-64	-127	8
35	-49	4
126	26	-8
169	84	-51
144	125	-16
76	162	-3
8	191	-23
-12	208	-6
32	197	-4
123	150	-20
215	76	-16
260	-3	-1
226	-58	5
117	-77	-9
-40	-55	-2
-205	-13	9
-332	33	0
-383	59	-15
-338	57	-42
-205	22	-52
-24	-48	-52
145	-135	-45
238	-223	-53
205	-274	-40
48	-272	-8
-189	-212	21
-426	-119	37
-577	-31	3
-599	17	-47
-491	9	-70
-299	-39	-63
-88	-98	-60
94	-136	-34
204	-139	28
245	-115	69
230	-75	64
188	-23	85
154	39	94
143	113	16
170	183	-66
216	221	-126
256	193	-174
255	90	-203
206	-57	-144
131	-192	-102
68	-254	-87
58	-216	-57
101	-94	-49
156	49	-14
165	157	19
91	191	37
-51	168	46
-197	125	9
-267	100	-39
-229	104	-81
-111	119	-90
8	116	-70
54	81	-6
4	27	77
-101	-18	152
-179	-33	183
-181	-16	97
-107	8	-32
-20	17	-167
17	-5	-211
-21	-45	-168
-97	-76	-108
-136	-78	-13
-86	-45	46
52	1	-1
214	40	-32
320	53	57
319	51	81
226	43	38
104	43	18
16	50	-53
-8	49	-105
12	28	-111
38	-13	-70
36	-53	-21
9	-66	23
-18	-44	35
-15	10	56
23	63	45
71	91	11
98	78	20
81	41	5
22	6	8
-48	-2	10
-103	21	-3
-123	52	-46
-111	64	-77
-84	31	-60
-60	-40	-72
-59	-127	-56
-88	-196	-16
-152	-219	-17
-241	-192	-1
-341	-129	4
-425	-58	3
-459	-1	-14
-425	27	-71
-308	26	-104
-127	1	-134
74	-42	-155
255	-92	-161
383	-137	-162
432	-167	-114
414	-170	-52
341	-144	15
237	-97	60
127	-41	39
28	5	28
-39	31	39
-66	35	63
-51	28	119
1	18	141
72	23	117
140	45	54
179	91	-17
169	149	-90
105	207	-164
0	248	-160
-115	253	-90
-209	215	-39
-256	142	-19
-248	47	-9
-198	-39	-27
-135	-101	-56
-85	-127	-59
-56	-135	-43
-44	-138	-23
-27	-153	-4
8	-167	-6
61	-160	-21
111	-109	-2
135	-8	11
120	120	3
79	233	34
44	282	81
50	256	67
107	165	31
193	52	17
255	-31	-11
249	-65	-36
148	-55	-66
-25	-33	-64
-218	-23	-39
-364	-41	-13
-418	-79	22
-371	-107	21
-244	-110	32
-78	-82	34
100	-41	-31
269	-8	-112
411	5	-134
496	-4	-100
498	-14	-87
387	-13	-90
164	10	-100
-117	45	-113
-372	77	-126
-509	83	-66
-494	45	46
-347	-32	116
-147	-139	127
19	-244	100
95	-312	49
80	-308	-48
22	-221	-121
-21	-61	-145
-17	125	-103
31	283	-57
93	362	-41
141	335	-19
162	218	-15
165	56	-5
155	-93	-3
131	-181	-25
84	-192	-55
0	-134	-70
-107	-38	-57
-221	63	-18
-308	152	-25
-350	210	-61
-345	238	-75
-308	225	-70
-248	169	-36
-162	66	6
-37	-62	24
118	-192	57
271	-282	64
373	-303	49
363	-249	23
222	-141	-32
-14	-30	-35
-262	37	-1
-428	30	5
-459	-45	13
-353	-145	39
-166	-216	7
31	-215	-27
198	-128	-53
317	10	-53
408	153	-21
484	249	-7
531	279	37
508	256	57
405	209	68
205	165	58
-35	136	24
-249	109	-24
-383	57	-89
-411	-25	-116
-371	-134	-121
-308	-237	-111
-259	-300	-76
-232	-300	-38
-194	-240	-18
-125	-147	-21
-15	-50	-34
113	26	-62
222	74	-78
274	98	-89
261	105	-75
200	101	-62
118	80	-51
38	41	-18
-28	-12	-15
-71	-62	-9
-89	-92	-19
-69	-88	-17
-6	-45	16
94	15	86
212	74	161
309	108	172
346	117	150
302	110	80
186	106	-38
24	123	-177
-140	160	-243
-263	203	-180
-318	229	-95
-298	218	-29
-223	162	22
-132	65	26
-65	-41	-19
-48	-136	-57
-80	-186	-40
-134	-186	-35
-174	-137	-54
-169	-63	-69
-109	2	-97
-13	31	-112
85	10	-105
151	-49	-67
175	-120	-34
166	-170	-25
141	-181	8
117	-157	26
93	-116	32
59	-96	36
15	-105	13
-38	-134	17
-82	-149	64
-101	-116	119
-96	-34	113
-84	68	36
-91	139	-13
-125	134	-20
-187	46	-45
-237	-81	-76
-244	-173	-81
-183	-173	-59
-67	-65	-49
64	98	-48
167	238	-55
200	279	-91
154	198	-128
51	33	-125
-60	-140	-110
-134	-249	-74
-136	-258	-21
-58	-182	-1
67	-70	26
205	27	59
306	86	82
346	110	80
335	122	44
291	137	13
252	159	-7
221	175	1
187	180	30
116	168	25
-12	147	8
-195	134	-36
-388	130	-92
-526	128	-91
-566	108	-45
-497	55	-2
-347	-31	2
-166	-136	-31
-3	-227	-72
111	-272	-113
182	-256	-139
216	-184	-115
221	-87	-50
196	-2	10
147	35	12
84	16	-1
32	-43	28
18	-104	49
48	-123	21
107	-82	-17
156	12	-15
162	120	6
114	199	-1
36	211	-19
-31	160	-32
-52	70	-27
-22	-15	-7
32	-62	-17
69	-71	-39
56	-53	-35
-7	-44	-81
-91	-62	-120
-155	-111	-100
-172	-172	-50
-141	-212	8
-84	-207	24
-21	-142	41
33	-31	28
85	105	-37
138	233	-48
197	317	-11
238	342	-65
239	309	-138
178	241	-128
59	166	-58
-87	111	38
-232	84	96
-336	67	134
-392	38	118
-411	-34	47
-392	-152	-43
-344	-300	-88
-260	-433	-106
-148	-519	-112
-25	-527	-46
74	-459	7
121	-330	8
111	-169	-27
72	0	-59
49	148	-30
70	257	-3
133	310	-27
196	299	-57
202	237	-65
120	155	-51
-38	81	-42
-214	37	5
-345	17	65
-392	-11	97
-353	-69	82
-255	-171	13
-126	-277	-42
16	-333	-98
171	-282	-117
332	-116	-68
476	122	7
562	353	51
553	495	37
446	501	-3
287	386	-53
138	204	-70
46	24	-72
28	-109	-74
41	-178	-42
34	-196	-14
-30	-183	-21
-136	-151	-42
-242	-103	-61
-291	-49	-120
-255	1	-140
-151	34	-74
-22	38	-18
74	23	37
111	11	91
99	24	77
65	67	68
41	123	42
45	157	-8
76	133	-51
112	48	-78
131	-71	-66
110	-175	-20
39	-218	37
-76	-179	33
-217	-76	-11
-338	45	-55
-407	137	-61
-392	170	-16
-308	139	4
-181	67	19
-58	-18	18
17	-92	-13
35	-140	-48
13	-159	-80
-12	-152	-76
-15	-125	-59
14	-87	19
63	-47	119
107	-14	135
131	7	76
124	20	-21
90	36	-111
37	63	-177
-24	102	-202
-72	138	-187
-92	148	-138
-65	110	-115
0	25	-69
78	-96	-35
127	-212	-38
110	-289	-28
27	-309	-32
-83	-271	-3
-148	-204	21
-115	-135	29
19	-87	43
204	-53	53
342	-19	46
365	38	41
258	124	27
76	225	13
-100	305	15
-199	339	10
-203	299	5
-148	202	-12
-86	71	5
-56	-43	30
-54	-114	4
-56	-123	-22
-35	-83	-47
1	-23	-51
23	23	-48
3	32	-80
-58	5	-88
-125	-42	-72
-148	-81	-55
-97	-83	-43
11	-41	-45
123	40	-50
184	132	-46
167	209	-13
99	244	-11
30	231	-4
7	174	11
34	96	-2
79	17	14
95	-48	15
53	-89	-28
-31	-105	-52
-118	-95	-21
-161	-62	41
-137	-15	104
-54	39	103
49	83	85
143	104	46
202	92	-23
216	55	-120
190	11	-181
116	-26	-157
5	-37	-127
-132	-32	-72
-262	-25	-60
-350	-40	-77
-361	-89	-60
-296	-167	-53
-177	-251	-44
-50	-305	-35
50	-309	-32
105	-251	-17
126	-155	-25
137	-53	-30
158	20	26
184	43	49
203	22	54
196	-24	81
145	-66	77
58	-89	86
-56	-87	111
-173	-81	105
-270	-94	21
-325	-131	-96
-330	-186	-178
-277	-224	-200
-176	-212	-153
-55	-138	-126
53	-16	-82
127	117	-44
154	217	-79
138	261	-93
106	244	-67
77	193	-40
63	128	-11
69	70	20
89	22	24
107	-16	12
113	-39	6
94	-36	-6
38	-1	-14
-53	63	2
-165	138	5
-262	193	-17
-304	205	-20
-256	174	-18
-115	128	-20
87	92	-21
299	81	-34
459	88	-52
526	85	-46
484	58	-25
346	9	-20
150	-33	-34
-75	-34	-36
-294	18	-10
-456	104	2
-536	165	-3
-521	156	17
-426	51	51
-296	-107	72
-166	-257	66
-69	-326	68
2	-273	84
77	-116	26
184	92	-28
328	279	-76
470	399	-123
562	424	-111
541	365	-111
405	244	-70
176	82	-40
-68	-99	-46
-269	-277	-48
-385	-421	-51
-410	-498	-30
-369	-497	-15
-286	-416	-18
-189	-286	-55
-87	-159	-80
12	-67	-57
102	-25	-20
169	-16	-1
206	-10	17
214	17	39
197	65	47
167	113	50
124	130	49
66	106	68
-3	40	70
-85	-38	101
-157	-103	158
-199	-133	137
-204	-132	20
-178	-115	-114
-145	-97	-203
-126	-83	-323
-130	-64	-350
-140	-24	-255
-124	41	-156
-53	131	-39
68	225	32
212	289	-8
324	305	-81
346	261	-131
269	163	-129
103	28	-72
-97	-114	-28
-262	-236	-7
-336	-307	14
-290	-305	48
-142	-231	57
55	-102	63
238	37	122
332	149	155
302	198	130
158	188	92
-45	148	13
-228	116	-76
-321	120	-96
-300	150	-90
-188	174	-102
-55	150	-61
33	58	17
41	-72	25
-13	-187	3
-75	-224	-36
-87	-160	-64
-27	-22	-38
89	125	-12
204	213	-8
269	211	-21
262	132	-50
191	31	-50
94	-46	-41
6	-78	-43
-49	-78	-27
-60	-79	-7
-33	-97	-19
26	-127	-21
102	-134	1
167	-94	12
196	-6	22
163	89	-6
69	136	-40
-55	104	-49
-162	-2	-36
-206	-127	6
-189	-214	43
-137	-217	105
-103	-151	124
-111	-62	92
-155	-14	40
-182	-40	-22
-144	-122	-95
-25	-209	-151
135	-234	-120
265	-168	-53
294	-30	-1
202	123	-28
39	223	-104
-115	225	-164
-181	131	-190
-140	-6	-189
-38	-121	-155
50	-157	-105
60	-90	-53
-18	48	-19
-144	199	2
-250	295	55
-287	290	91
-253	186	84
-182	19	24
-128	-139	-16
-112	-233	-30
-127	-228	-20
-131	-140	31
-85	-22	52
25	72	74
175	106	85
330	84	24
439	32	-23
496	-2	-10
495	3	-36
449	46	-76
363	100	-90
239	131	-65
72	129	-42
-114	90	-15
-286	40	24
-405	-6	77
-431	-39	91
-371	-64	48
-258	-90	3
-144	-112	-63
-67	-116	-113
-35	-81	-157
-21	4	-109
14	126	-58
89	253	-50
199	345	-46
308	372	-78
373	324	-61
383	217	-20
326	79	31
230	-58	42
111	-176	29
-16	-261	3
-152	-315	-23
-291	-349	-14
-423	-372	-16
-509	-393	-17
-526	-403	-4
-448	-386	-27
-291	-317	-53
-96	-181	-78
96	10	-123
234	213	-125
302	370	-81
302	424	-20
254	362	59
178	205	107
91	23	101
8	-125	43
-70	-194	-27
-144	-188	-83
-214	-136	-118
-272	-76	-87
-306	-34	-12
-300	-7	12
-239	14	-12
-127	43	-37
13	72	-89
147	84	-119
234	64	-91
263	14	-52
240	-43	-21
190	-78	5
144	-64	45
121	-13	93
111	48	94
91	85	79
46	69	51
-17	12	-6
-77	-56	-46
-95	-94	-46
-52	-77	-38
40	-9	-28
148	78	17
223	139	13
238	152	-79
195	119	-107
114	74	-68
35	50	-55
-24	67	-7
-63	117	-3
-91	159	-27
-126	158	-35
-169	93	-42
-205	-18	-4
-212	-135	15
-170	-214	22
-77	-226	-19
56	-169	-60
199	-66	-49
311	43	-15
357	135	-21
320	194	-32
202	215	-2
29	206	-29
-158	168	-82
-314	103	-101
-405	15	-78
-423	-84	-17
-383	-179	60
-313	-254	127
-240	-287	98
-175	-274	-20
-120	-214	-101
-63	-120	-189
2	-13	-261
68	78	-203
123	127	-64
151	127	41
147	80	79
111	13	87
58	-44	50
3	-67	-2
-41	-55	-31
-68	-31	-42
-77	-24	-41
-64	-56	-18
-40	-120	5
-6	-188	0
27	-217	6
54	-182	-4
75	-89	-50
94	25	-69
120	114	-59
162	147	-13
212	119	54
251	63	69
262	16	38
231	0	2
167	12	-35
83	18	-76
1	-8	-92
-67	-81	-67
-127	-173	-22
-189	-241	0
-251	-244	0
-300	-163	10
-311	-21	24
-260	131	45
-153	244	68
-23	283	68
79	251	33
116	180	2
88	115	-16
26	88	-17
-14	106	-31
7	150	-49
94	181	-59
203	175	-67
280	119	-41
284	25	-46
203	-81	-79
67	-164	-91
-71	-200	-97
-170	-186	-105
-201	-129	-76
-177	-60	-30
-120	-2	-24
-64	22	-40
-32	17	-29
-28	-2	-17
-46	-18	-13
-61	-14	-6
-53	8	-11
-3	38	2
83	54	-4
178	41	-15
240	6	-25
229	-34	-30
133	-54	32
-17	-36	101
-164	22	107
-247	96	24
-227	153	-61
-111	161	-89
50	109	-150
194	8	-201
262	-114	-176
239	-216	-107
140	-263	-69
10	-239	-53
-110	-145	8
-195	-13	53
-232	120	91
-231	211	82
-204	240	26
-169	200	-1
-132	120	-42
-93	35	-83
-50	-29	-77
1	-55	-17
50	-58	11
93	-63	42
110	-90	61
95	-139	26
56	-192	0
14	-223	-38
-3	-206	-35
16	-151	-11
64	-71	8
107	-2	7
116	38	16
65	49	12
-28	44	-25
-126	41	-54
-185	40	-82
-181	33	-97
-126	-1	-120
-57	-68	-71
-19	-153	-3
-27	-216	15
-72	-224	22
-123	-166	0
-145	-63	-42
-125	35	-68
-76	87	-57
-15	77	-54
32	26	-36
62	-20	-31
75	-20	-35
84	39	-42
98	131	-52
125	213	-50
166	244	-58
216	213	-32
263	145	10
287	77	29
263	36	13
175	31	22
32	41	24
-136	47	16
-269	31	6
-312	1	-30
-239	-30	-48
-67	-45	-61
142	-42	-38
322	-28	-30
403	-13	-6
354	4	54
195	30	104
-22	72	135
-217	130	116
-339	183	87
-351	201	39
-269	165	-50
-141	68	-123
-18	-56	-195
44	-173	-218
35	-240	-162
-28	-241	-92
-106	-186	-45
-156	-106	-22
-157	-38	21
-112	-3	61
-43	-3	83
29	-27	44
91	-56	-64
143	-76	-151
188	-77	-147
219	-58	-135
226	-26	-145
190	13	-100
105	53	-31
-12	84	17
-121	96	24
-188	90	74
-188	68	124
-127	46	130
-44	31	70
23	31	-17
42	40	-46
18	45	-30
-24	38	7
-48	16	1
-31	-8	23
19	-17	-1
75	-1	-40
99	35	-80
74	66	-130
6	60	-111
-78	-3	-83
-148	-114	-46
-189	-240	-58
-206	-326	-46
-212	-334	-42
-209	-263	-59
-188	-134	-52
-122	-9	-79
6	68	-80
188	75	-78
381	26	-24
526	-35	40
553	-68	81
439	-46	97
209	27	79
-67	127	27
-306	219	-36
-444	271	-82
-459	264	-122
-390	188	-105
-290	51	-68
-218	-126	-31
-199	-309	1
-215	-449	22
-221	-504	43
-170	-453	60
-44	-307	72
136	-105	79
314	85	84
435	213	36
461	261	-25
391	244	-54
262	204	-39
123	182	-13
12	198	-19
-50	237	-33
-72	268	-48
-74	254	-55
-68	185	-57
-63	76	-54
-48	-41	-65
-17	-122	-83
39	-149	-79
111	-116	-68
172	-45	-46
196	31	0
165	87	60
81	101	96
-30	71	87
-132	9	14
-187	-64	-80
-178	-127	-130
-116	-163	-133
-26	-158	-96
55	-121	4
104	-62	107
116	-3	116
109	46	58
104	80	-9
116	99	-68
144	113	-91
170	126	-64
162	144	-23
107	161	-31
6	171	-52
-115	170	-86
-216	147	-87
-269	104	-83
-267	37	-83
-236	-45	-21
-207	-133	26
-213	-208	29
-253	-251	-15
-299	-254	-49
-310	-219	-107
-257	-167	-148
-142	-116	-127
-5	-84	-102
113	-67	-82
179	-55	-8
189	-25	30
167	35	24
138	113	66
116	183	68
98	207	69
68	165	19
30	57	-25
-5	-83	-18
-19	-208	-16
6	-282	-24
52	-282	-31
99	-224	-28
111	-129	-30
89	-44	-9
53	7	-23
39	14	-33
63	-15	-24
111	-56	11
141	-85	-2
112	-79	-34
16	-32	-4
-113	41	15
-217	118	56
-248	158	120
-208	139	166
-132	57	135
-83	-60	65
-89	-166	-50
-139	-210	-164
-179	-162	-237
-156	-35	-234
-52	124	-123
90	253	-35
202	300	12
223	251	-8
132	136	-53
-20	12	-85
-162	-68	-97
-216	-81	-85
-159	-37	-65
-22	23	-40
127	65	-17
222	72	19
234	58	29
172	43	22
99	56	12
66	94	8
110	140	-11
214	171	-19
332	170	12
389	140	-5
339	102	-40
175	72	-50
-60	59	-13
-287	54	7
-432	35	-16
-458	-17	-38
-377	-106	-54
-242	-219	-30
-115	-322	-17
-36	-384	2
-12	-377	0
-14	-292	-10
-8	-148	-6
20	28	-6
72	188	26
127	296	61
167	327	97
186	282	79
182	197	10
159	99	-36
116	14	-104
50	-60	-127
-33	-136	-126
-114	-229	-133
-172	-333	-116
-186	-411	-98
-157	-423	-56
-99	-349	-45
-34	-213	-9
24	-68	16
85	26	24
152	44	50
219	19	34
254	10	20
212	66	-16
64	183	-79
-170	301	-113
-431	342	-135
-619	253	-150
-663	61	-54
-555	-145	32
-351	-263	27
-137	-243	38
16	-110	9
97	44	0
133	129	8
184	109	25
269	20	87
365	-52	136
418	-46	150
383	47	81
263	169	-38
113	236	-193
4	204	-282
-18	86	-243
40	-49	-138
119	-129	-20
148	-119	36
93	-39	18
-28	47	-32
-153	93	-50
-223	80	-36
-206	31	-27
-125	-11	-32
-31	-17	-38
35	6	-23
52	34	-1
30	45	14
-7	30	3
-40	5	-11
-65	-15	4
-89	-25	22
-107	-34	-14
-113	-64	-37
-94	-118	-21
-42	-177	20
34	-202	45
111	-163	45
167	-47	64
186	116	52
167	272	34
125	366	8
74	365	-11
29	274	-25
1	125	-20
-10	-28	-23
-4	-143	-17
4	-194	-5
-2	-183	-17
-39	-134	-38
-105	-78	-90
-175	-41	-131
-213	-36	-158
-186	-60	-147
-101	-104	-157
8	-151	-128
77	-190	-44
66	-210	-14
-20	-206	21
-120	-173	41
-152	-105	46
-62	-17	31
138	74	14
368	134	0
525	145	-31
521	106	-42
344	39	-16
55	-12	3
-248	-19	-3
-458	28	4
-534	101	-9
-474	160	-4
-330	162	18
-156	105	-15
6	16	-59
120	-60	-32
176	-87	-26
175	-63	-3
121	-17	28
31	12	10
-65	-7	-20
-140	-63	-111
-167	-131	-157
-141	-168	-175
-75	-153	-120
6	-87	-12
77	1	42
121	78	76
136	130	51
125	156	14
103	168	-20
69	174	-49
34	171	-66
-7	153	-72
-42	105	-22
-64	33	12
-67	-48	20
-46	-115	42
-9	-151	41
31	-145	1
53	-108	-30
50	-53	-25
27	7	-19
-1	64	-6
-10	113	13
17	152	9
81	179	-12
158	195	-52
222	194	-80
248	182	-84
216	150	-45
133	95	-7
14	2	2
-119	-129	6
-239	-287	-14
-320	-443	-35
-344	-553	-79
-302	-585	-108
-194	-524	-119
-36	-388	-90
132	-215	-51
279	-48	-17
363	83	41
355	174	52
253	244	62
72	305	38
-144	369	2
-330	413	-11
-433	412	-24
-416	339	-57
-291	188	-76
-124	-24	-25
5	-246	57
22	-425	105
-87	-508	121
-275	-474	109
-439	-340	24
-486	-148	-75
-375	41	-176
-132	171	-262
151	219	-273
393	195	-200
527	135	-87
545	85	-24
486	76	21
391	98	48
280	128	32
163	130	25
37	86	1
-79	11	-18
-154	-58	-25
-166	-85	-13
-108	-51	0
-14	29	36
69	122	48
108	186	-6
94	203	-9
54	174	-4
24	119	-28
21	53	-34
37	-12	-51
43	-77	-42
20	-139	-32
-31	-188	-34
-86	-202	-1
-113	-171	32
-101	-100	68
-62	-9	66
-27	65	49
-12	98	51
-14	90	30
-10	60	-4
22	43	-59
90	53	-130
170	85	-132
229	111	-122
244	96	-98
211	24	-84
152	-90	-71
92	-208	-29
42	-288	-14
-2	-300	12
-61	-240	13
-142	-131	45
-233	-11	60
-300	84	-5
-321	137	-40
-277	149	-47
-182	132	-49
-64	108	-38
41	83	17
105	60	60
118	34	15
80	2	-44
7	-34	-110
-82	-62	-157
-160	-68	-125
-195	-48	-61
-173	-2	8
-91	47	26
30	82	-17
150	83	-77
230	48	-99
237	-7	-76
169	-65	-66
38	-106	-50
-117	-122	-8
-264	-110	16
-380	-81	14
-445	-48	22
-453	-29	25
-411	-39	30
-330	-87	14
-226	-163	-15
-114	-243	-13
2	-292	9
114	-272	36
222	-170	35
323	-11	40
393	157	28
419	268	-9
386	291	-30
300	228	-42
184	124	-60
74	33	-48
-6	-12	-34
-47	-7	-35
-54	15	-23
-48	24	-25
-37	7	-42
-21	-17	-71
14	-21	-59
70	10	-56
140	63	-59
203	105	-15
225	103	-13
191	50	-2
111	-21	8
13	-63	27
-63	-45	36
-96	37	15
-76	139	1
-23	209	-53
30	206	-64
59	130	-33
52	19	31
17	-82	53
-34	-137	-7
-79	-150	-33
-103	-135	-28
-101	-116	-126
-78	-100	-193
-39	-72	-165
2	-21	-110
36	62	8
62	160	64
83	237	74
115	264	47
169	227	10
242	141	-38
320	39	-44
350	-44	3
291	-92	42
113	-95	70
-159	-69	16
-459	-29	-26
-708	11	-74
-819	31	-67
-758	21	-70
-561	-27	-132
-298	-109	-140
-57	-200	-140
107	-263	-91
187	-270	-45
202	-209	-6
189	-104	66
167	-6	86
138	37	63
95	10	22
37	-66	-36
-14	-140	-51
-31	-163	-53
-1	-120	-50
65	-39	-35
126	30	-29
140	53	-17
82	29	0
-27	-2	22
-139	5	34
-195	78	11
-162	191	-1
-52	287	14
87	301	11
184	206	8
198	26	21
121	-176	20
-5	-331	1
-120	-394	-23
-174	-372	-44
-145	-282	-56
-57	-175	-70
52	-77	-82
137	0	-75
175	53	-54
167	84	-34
130	94	-24
89	86	-36
53	72	-62
28	72	-79
6	93	-86
-18	138	-66
-44	187	-30
-72	212	8
-97	199	31
-126	147	53
-153	81	113
-173	29	155
-160	14	142
-93	31	70
35	63	-37
203	88	-135
365	95	-230
454	90	-224
432	89	-147
301	101	-60
107	116	2
-79	115	26
-202	79	39
-241	2	26
-217	-94	22
-173	-174	24
-143	-207	32
-133	-185	37
-128	-124	21
-101	-57	-19
-50	-16	-43
13	-12	-75
65	-32	-102
93	-50	-89
103	-43	-141
116	-2	-171
148	60	-114
188	113	-28
212	131	42
184	100	19
92	30	-16
-50	-54	-13
-203	-126	-5
-321	-157	-14
-385	-137	-44
-390	-79	-89
-360	-10	-105
-310	37	-30
-239	35	49
-142	-28	72
-16	-127	57
126	-230	28
253	-289	-22
326	-281	-33
328	-207	-8
268	-104	22
175	-21	68
86	5	60
17	-35	29
-32	-109	17
-83	-164	19
-144	-155	11
-211	-76	-18
-251	40	-60
-233	143	-99
-148	188	-89
-12	170	-74
132	120	-50
233	95	-46
261	128	-66
228	218	-69
159	321	-53
93	372	-39
46	336	-59
12	210	-50
-26	43	-24
-80	-102	-31
-138	-179	22
-174	-177	89
-165	-124	86
-106	-63	41
-25	-34	-19
36	-41	-64
48	-70	-121
12	-99	-178
-34	-99	-143
-53	-71	-51
-12	-24	14
76	26	40
170	70	27
214	103	12
178	118	9
67	115	14
-79	84	38
-191	22	57
-232	-57	78
-178	-134	82
-52	-177	87
96	-161	95
211	-84	40
245	25	-43
188	126	-117
56	180	-176
-93	171	-177
-203	109	-129
-237	25	-92
-195	-46	-31
-117	-90	20
-44	-106	-1
-12	-108	-36
-12	-107	-58
-18	-102	-88
8	-88	-113
67	-57	-128
133	-17	-106
175	18	-62
162	37	-38
115	39	-24
71	38	6
72	57	27
118	104	-14
172	166	-33
178	214	13
104	215	8
-28	158	-12
-165	52	29
-235	-72	80
-217	-186	95
-140	-270	75
-63	-320	24
-39	-333	-72
-77	-301	-169
-139	-207	-176
-166	-52	-105
-123	139	-14
-16	313	66
117	405	124
231	372	84
299	228	12
313	37	9
287	-119	-33
222	-181	-38
110	-145	5
-51	-68	-48
-255	-20	-78
-448	-46	-67
-580	-137	-84
-598	-243	-57
-484	-296	-2
-264	-263	29
4	-162	19
265	-40	-23
468	48	-72
579	84	-90
584	76	-87
478	60	-59
275	57	-23
4	68	-6
-273	67	19
-496	34	40
-626	-31	40
-632	-105	-4
-545	-143	-47
-390	-121	-76
-209	-38	-90
-24	79	-55
159	189	-25
326	267	-8
451	299	13
496	291	34
439	251	49
301	180	42
115	77	18
-46	-51	-20
-128	-184	-41
-121	-286	-38
-56	-326	-45
1	-291	-52
6	-191	-38
-48	-59	-19
-125	62	-18
-168	153	-11
-139	201	-44
-40	215	-65
89	207	-64
198	182	-72
258	145	-45
268	96	-43
253	43	-12
244	-7	14
237	-42	30
214	-62	26
141	-69	-3
5	-66	-13
-172	-55	-22
-339	-30	-22
-431	13	-2
-415	71	58
-295	125	117
-112	155	135
67	142	42
196	86	-40
255	0	-76
259	-94	-136
228	-169	-190
181	-222	-237
122	-249	-165
42	-264	-66
-63	-282	-51
-195	-299	-80
-321	-309	-77
-411	-301	-51
-431	-271	-56
-371	-213	-30
-246	-128	-7
-87	-24	-9
62	85	-22
172	183	-10
233	252	30
237	279	95
196	269	172
129	243	205
56	215	133
-7	202	17
-46	191	-35
-60	157	-51
-56	71	-54
-53	-66	-50
-70	-228	-62
-119	-352	-111
-190	-376	-144
-255	-274	-127
-277	-70	-111
-225	160	-85
-88	331	-66
104	386	-71
296	321	-51
429	190	-63
446	63	-57
336	-6	-3
119	-15	33
-134	-1	51
-339	-12	49
-436	-71	50
-402	-160	38
-262	-229	28
-80	-226	39
81	-135	46
184	10	17
239	159	-21
276	257	-33
331	286	-44
402	259	-53
466	205	-34
472	147	-12
399	81	7
254	-9	13
83	-142	-10
-68	-306	-10
-180	-466	8
-267	-569	5
-358	-573	-4
-473	-471	-24
-584	-289	-63
-634	-81	-64
-561	106	-8
-344	233	18
-37	284	-20
261	273	-49
460	218	-48
501	148	-75
411	85	-109
268	46	-89
159	34	-51
126	40	-54
151	53	-44
169	53	-35
114	41	-32
-28	25	-10
-221	21	-22
-375	37	-61
-426	68	-93
-352	95	-78
-189	85	-21
-8	32	6
127	-55	-28
186	-137	-40
189	-179	-24
169	-154	-33
159	-77	-21
154	9	-6
129	58	-1
57	43	8
-60	-19	43
-190	-97	15
-289	-139	-26
-314	-124	-12
-264	-57	-14
-175	28	-24
-86	98	-46
-31	130	-21
-11	130	3
-9	119	8
-1	112	7
18	110	-3
44	103	-3
63	74	-16
69	28	-27
70	-20	-33
75	-43	-11
85	-29	12
92	10	3
82	47	-23
44	49	-55
-3	9	-91
-31	-58	-82
-17	-116	-57
49	-127	-47
144	-92	-3
236	-21	2
285	41	-1
276	74	22
208	64	35
93	30	40
-52	0	49
-212	-12	32
-365	-5	-24
-484	-6	-52
-532	-34	-54
-485	-101	-61
-345	-188	-55
-143	-260	-20
66	-279	-30
238	-216	-29
335	-77	-12
350	104	-35
302	268	-62
225	353	-69
150	324	-17
100	178	-5
93	-35	5
122	-249	45
163	-391	56
181	-421	34
129	-348	-55
0	-212	-141
-191	-70	-184
-380	38	-137
-497	102	-23
-496	134	34
-378	158	28
-199	182	-11
-31	204	-69
71	205	-119
97	183	-111
81	139	-23
70	93	56
97	56	95
140	27	102
170	-8	67
139	-60	48
45	-124	24
-83	-177	-8
-181	-185	-37
-205	-133	-86
-140	-39	-89
-17	61	-88
109	124	-91
195	129	-93
219	85	-55
195	33	34
154	7	6
114	16	-83
88	40	-122
59	45	-99
18	8	-27
-43	-68	-11
-107	-144	-12
-156	-180	-10
-172	-153	-53
-152	-68	-49
-115	37	7
-71	123	37
-31	168	64
13	171	69
69	164	28
137	158	-16
199	165	4
223	170	9
187	161	-46
90	126	-47
-32	76	-50
-125	23	-26
-138	-22	17
-57	-61	37
84	-117	21
219	-201	-46
284	-314	-65
248	-418	-114
127	-460	-160
-15	-402	-123
-113	-229	-35
-126	14	50
-61	244	76
30	373	47
81	362	6
49	214	18
-60	7	26
-202	-170	25
-316	-250	17
-361	-222	-20
-344	-125	-61
-295	-32	-77
-263	7	-83
-279	-18	-79
-321	-72	-74
-350	-114	-54
-308	-108	-31
-184	-56	-12
0	10	8
190	60	5
318	76	16
346	70	15
288	66	34
178	84	46
65	122	44
-12	162	70
-47	183	48
-45	171	-20
-13	129	-72
41	70	-120
116	11	-172
200	-41	-163
273	-83	-104
301	-108	-53
269	-117	-24
183	-104	-20
75	-70	15
-12	-28	41
-51	8	23
-42	22	-3
-16	15	-23
-3	-3	-15
-19	-16	-36
-50	-13	-65
-63	7	-71
-33	32	-32
39	52	9
121	70	12
172	88	-16
158	113	-71
83	148	-105
-23	171	-101
-113	166	-35
-150	108	52
-125	10	58
-53	-110	36
30	-209	18
94	-260	2
109	-251	-8
63	-196	-55
-34	-120	-95
-158	-37	-49
-259	39	-7
-300	115	8
-251	183	95
-129	233	133
22	244	105
154	196	11
225	89	-107
238	-56	-203
219	-192	-271
196	-281	-192
167	-297	-88
105	-244	-51
-14	-156	-20
-181	-64	8
-333	-1	29
-392	31	30
-297	39	27
-74	35	22
181	25	34
326	4	40
273	-30	8
30	-71	-9
-290	-103	-2
-539	-110	2
-610	-87	2
-485	-43	7
-250	-5	-9
-21	12	-18
107	0	-34
111	-21	-44
33	-29	-26
-66	-6	-18
-134	45	-23
-147	97	-48
-108	117	-72
-27	89	-42
89	23	-9
236	-44	6
383	-71	37
484	-33	45
498	56	32
406	162	-27
230	233	-97
29	229	-116
-120	151	-114
-175	28	-125
-139	-91	-113
-54	-163	-57
22	-167	-24
57	-114	-4
46	-32	26
22	40	29
15	78	20
42	80	6
100	55	-3
155	28	1
172	13	5
140	16	21
64	32	22
-28	49	-26
-100	67	-47
-122	80	-54
-93	86	-40
-28	85	-6
36	71	-36
71	43	-52
64	9	-94
22	-24	-27
-24	-42	107
-55	-35	128
-58	-10	122
-44	21	16
-28	43	-89
-32	47	-184
-57	33	-245
-91	8	-188
-113	-28	-66
-116	-87	35
-100	-173	58
-76	-282	49
-54	-393	-8
-38	-457	-32
-21	-435	-24
6	-308	-1
47	-101	24
98	123	-6
144	301	-19
169	385	4
163	379	32
119	319	65
40	254	49
-63	210	17
-175	171	-9
-260	101	-67
-295	-41	-81
-253	-249	-100
-137	-471	-132
15	-627	-122
162	-655	-80
244	-535	-28
234	-301	-20
140	-33	-45
2	198	-93
-133	345	-133
-225	410	-132
-251	414	-88
-223	385	-17
-159	329	21
-87	238	30
-26	108	69
15	-52	69
36	-201	33
42	-291	-10
36	-286	-33
25	-189	-1
3	-49	30
-28	70	49
-75	114	22
-125	78	-8
-162	-7	-21
-156	-78	-32
-85	-85	-46
43	-17	-78
196	91	-84
325	183	-66
373	215	-12
332	179	39
226	104	80
113	35	120
40	4	134
20	12	51
29	33	-63
21	35	-68
-25	8	-84
-95	-35	-92
-144	-59	-61
-130	-38	-76
-45	31	-87
69	120	-101
148	189	-109
147	202	-91
62	144	-13
-48	36	119
-125	-88	182
-123	-190	150
-57	-249	61
17	-248	-14
46	-196	-42
9	-115	-128
-59	-23	-129
-108	53	-57
-86	104	4
7	122	59
131	119	24
229	110	-28
265	106	-93
245	106	-132
198	94	-154
155	44	-147
119	-50	-95
69	-177	-56
-22	-304	-40
-172	-393	-19
-347	-423	-13
-501	-401	-25
-589	-348	-56
-581	-291	-90
-491	-238	-60
-350	-170	-35
-185	-66	-34
-23	81	-19
121	244	14
240	372	57
314	416	78
336	351	63
311	207	37
260	41	-5
215	-82	-41
191	-132	-39
179	-117	-26
137	-69	-18
36	-20	-21
-132	23	-27
-318	72	-26
-445	145	-19
-450	229	-6
-315	290	-13
-92	283	-38
138	190	-57
281	35	-64
306	-116	-68
237	-188	-62
130	-152	-38
50	-23	6
21	122	31
26	206	31
28	183	24
-3	62	-10
-68	-95	-24
-145	-226	-1
-199	-277	36
-202	-249	77
-147	-168	127
-42	-77	155
84	-6	108
198	35	-17
269	55	-144
285	64	-215
237	72	-276
144	79	-244
33	81	-93
-67	74	34
-135	58	90
-164	35	84
-154	9	53
-111	-17	37
-39	-35	3
54	-38	-54
153	-25	-72
226	0	-74
245	18	-70
200	23	-57
103	6	-29
-8	-25	9
-91	-53	-12
-128	-72	-55
-130	-82	-30
-132	-92	-36
-156	-114	-70
-202	-150	-104
-240	-186	-108
-232	-192	-44
-164	-152	15
-56	-62	115
41	45	129
90	142	90
78	197	32
35	202	-65
4	178	-116
15	145	-156
65	126	-134
119	113	-106
141	91	-65
117	44	-11
64	-30	0
16	-114	6
0	-190	19
18	-230	1
45	-227	-4
59	-181	48
42	-99	19
9	5	-39
-23	123	-65
-32	233	-55
-10	308	-40
38	319	-40
105	256	-27
172	131	-20
228	-17	-7
234	-135	-6
163	-190	-6
-6	-172	-9
-251	-113	-14
-497	-59	3
-654	-51	29
-659	-95	23
-496	-168	10
-243	-229	11
-4	-239	-1
115	-189	-10
102	-96	3
15	8	22
-41	91	-3
4	135	-20
150	137	-30
318	106	-51
401	54	-19
346	-6	10
171	-64	11
-29	-108	-17
-167	-121	-78
-193	-96	-138
-134	-36	-178
-59	41	-149
-22	116	-87
-32	163	-25
-48	174	13
-25	157	-8
60	128	-19
172	105	14
255	93	42
266	86	72
200	74	93
101	46	104
13	11	76
-28	-28	-11
-35	-58	-85
-32	-76	-143
-41	-81	-174
-58	-80	-161
-61	-78	-99
-32	-72	-71
24	-64	-93
85	-47	-84
120	-24	-48
117	0	0
87	19	78
52	30	132
23	40	94
-6	49	32
-62	59	5
-150	59	-14
-247	47	-59
-318	21	-120
-318	-11	-103
-235	-25	-15
-94	-7	29
48	49	45
150	126	63
195	189	96
207	205	60
221	155	-66
252	57	-157
285	-55	-207
285	-134	-224
216	-153	-159
78	-124	-70
-93	-81	-2
-239	-72	21
-312	-125	22
-298	-232	39
-231	-339	55
-162	-390	58
-140	-348	49
-174	-215	36
-236	-44	44
-281	97	45
-271	157	40
-203	132	26
-102	60	-19
-7	-2	-40
52	-13	-38
81	25	-50
90	79	-41
110	104	-33
151	79	-49
203	17	-106
244	-39	-134
252	-47	-107
221	0	-63
157	74	4
78	123	54
0	114	87
-62	45	57
-97	-36	-9
-92	-74	-52
-48	-31	-60
21	79	-40
86	197	-28
107	252	-24
62	206	-24
-32	68	-34
-130	-94	-82
-177	-208	-98
-139	-223	-96
-37	-141	-71
72	-15	-24
126	86	14
94	113	62
1	64	26
-88	-25	-40
-115	-101	-42
-55	-127	-18
54	-100	4
156	-42	29
187	8	65
136	32	71
39	25	15
-54	6	-8
-104	-7	-32
-103	-8	-91
-75	2	-130
-39	10	-120
-11	12	-89
24	12	-55
74	20	10
132	45	9
172	89	-30
165	134	-56
94	162	-74
-20	159	-27
-126	118	20
-182	52	108
-165	-19	155
-95	-74	63
-13	-105	1
42	-109	-62
53	-93	-105
30	-69	-56
-4	-42	-8
-30	-16	19
-45	13	-6
-55	42	-36
-67	57	-85
-78	51	-108
-74	11	-124
-48	-57	-135
-3	-137	-116
46	-196	-98
95	-208	-57
137	-162	-35
175	-66	-12
209	43	-14
216	137	-8
170	186	9
39	179	-9
-172	130	-26
-415	55	19
-611	-24	62
-680	-104	61
-584	-176	66
-350	-241	38
-55	-287	37
192	-306	22
321	-286	-3
321	-224	8
231	-133	17
121	-37	36
49	45	1
32	102	-36
51	137	-84
72	166	-138
76	202	-176
67	244	-166
71	276	-102
110	278	-28
172	231	18
229	147	34
225	51	56
137	-13	41
-15	-29	9
-180	-2	-9
-285	23	-16
-295	0	-21
-217	-95	-19
-107	-237	10
-26	-358	29
-4	-389	12
-30	-289	-20
-53	-87	-55
-30	131	-101
55	278	-124
172	291	-103
269	191	-26
312	49	68
283	-36	120
212	-18	147
133	86	83
74	208	-30
33	261	-129
-1	210	-219
-42	76	-186
-88	-77	-78
-129	-173	-9
-158	-184	19
-172	-123	20
-180	-38	7
-189	30	-51
-195	64	-81
-181	77	-25
-126	83	-17
-27	85	5
100	77	48
223	35	43
302	-33	21
325	-111	-16
283	-159	-62
195	-157	-93
82	-110	-62
-35	-49	-28
-140	-17	-16
-214	-31	-34
-247	-85	-58
-235	-136	-58
-186	-151	-109
-121	-113	-140
-67	-35	-91
-43	45	-60
-45	106	-57
-58	139	-31
-57	153	7
-28	161	63
25	168	119
85	164	126
126	131	71
137	69	-7
113	-14	-54
65	-98	-75
9	-166	-71
-48	-222	-29
-101	-276	-9
-149	-339	-14
-187	-393	-23
-208	-410	-30
-204	-348	-20
-174	-201	-16
-126	-3	-8
-72	180	12
-28	272	39
-4	240	61
5	101	59
12	-66	36
28	-184	-13
57	-200	-77
95	-118	-109
124	11	-128
128	121	-117
100	174	-70
53	174	-30
16	158	4
16	155	13
72	187	28
170	235	5
269	265	-25
329	256	-48
312	205	-80
216	141	-62
78	88	-33
-58	63	22
-152	55	90
-180	47	149
-158	23	112
-107	-17	-4
-52	-56	-107
-3	-80	-197
36	-83	-208
64	-80	-109
79	-85	25
60	-103	61
10	-119	49
-64	-114	8
-134	-82	-42
-173	-37	-48
-170	-19	-16
-137	-54	47
-103	-140	-5
-87	-242	-47
-98	-299	-33
-119	-265	-44
-119	-148	-35
-79	16	-55
10	161	-56
132	237	-58
263	240	-75
373	202	-90
428	168	-80
417	166	-65
329	188	-71
179	205	-70
-12	178	-51
-205	102	-30
-361	-1	-36
-455	-99	-22
-480	-157	7
-445	-169	19
-375	-149	34
-281	-117	35
-174	-92	-1
-50	-71	16
91	-51	51
230	-20	61
337	19	86
394	59	70
389	90	45
334	101	13
252	94	-40
166	66	-77
84	27	-76
1	-25	-55
-86	-82	-3
-173	-130	36
-243	-166	22
-277	-175	-38
-263	-164	-100
-221	-141	-113
-168	-122	-139
-132	-115	-116
-118	-118	-80
-100	-112	-39
-51	-76	7
39	-1	17
152	96	39
238	180	61
245	211	121
157	165	127
2	45	-6
-158	-101	-138
-261	-226	-202
-288	-275	-252
-257	-244	-201
-206	-145	-87
-166	-29	4
-130	63	58
-64	114	53
69	131	63
276	138	77
503	153	44
676	178	52
723	203	61
614	210	15
383	194	-14
91	156	-80
-177	113	-122
-371	72	-126
-481	31	-143
-518	-20	-107
-508	-89	-93
-463	-167	-88
-387	-235	-43
-263	-263	-8
-98	-242	10
100	-171	17
289	-79	24
429	1	21
482	41	-3
430	32	-40
297	-12	-12
121	-64	59
-32	-96	100
-128	-80	112
-153	-17	81
-122	81	37
-67	181	-2
-12	253	-35
36	275	-44
85	244	-78
137	195	-92
187	153	-89
203	145	-104
159	168	-100
44	189	-86
-113	170	-64
-262	90	-28
-358	-39	20
-361	-176	81
-287	-263	108
-174	-278	110
-71	-227	78
-2	-149	-11
44	-91	-118
92	-68	-141
164	-66	-32
252	-44	21
326	30	42
339	159	24
262	298	-42
104	381	-75
-95	358	-116
-274	213	-116
-392	-16	-106
-422	-271	-123
-378	-472	-140
-289	-570	-136
-195	-548	-98
-125	-424	-13
-74	-248	55
-28	-78	70
36	36	50
131	66	17
245	19	-15
335	-67	-50
350	-137	-35
258	-147	21
64	-74	16
-164	52	-16
-347	181	-41
-399	252	-38
-307	233	-10
-117	134	-16
67	-8	-5
151	-135	-13
101	-209	-21
-40	-210	-24
-170	-153	-25
-197	-60	0
-89	40	8
105	134	7
290	207	14
383	247	26
355	248	24
251	206	21
141	131	26
87	49	7
86	-15	-35
89	-39	-89
42	-31	-122
-64	-1	-133
-190	24	-104
-258	24	-49
-215	2	-3
-65	-32	36
125	-51	16
270	-40	-15
314	5	-6
265	74	7
176	141	8
113	186	2
97	191	-5
101	149	-14
72	67	-30
-31	-36	-32
-200	-131	-20
-375	-189	-14
-489	-184	-18
-501	-118	-15
-416	-8	3
-278	104	19
-148	183	22
-57	207	2
-3	171	-36
38	109	-66
90	46	-103
150	8	-78
202	-9	-12
221	-24	19
195	-58	34
126	-123	-24
43	-203	-43
-27	-270	-49
-67	-292	-87
-72	-257	-47
-48	-178	-18
-8	-86	-9
36	-14	-28
77	22	-49
105	26	-26
122	22	-30
128	25	-78
124	43	-100
107	68	-105
77	84	-103
30	81	-53
-22	63	17
-65	45	66
-87	41	62
-90	43	-34
-89	36	-124
-115	-9	-157
-182	-97	-154
-285	-209	-93
-371	-296	-35
-383	-304	14
-278	-209	41
-65	-25	24
192	182	16
407	341	41
494	392	69
422	325	64
232	183	32
4	32	5
-165	-68	-1
-221	-107	24
-159	-110	58
-33	-130	67
77	-196	46
105	-296	16
21	-376	-38
-150	-370	-87
-345	-246	-107
-470	-31	-113
-459	196	-80
-291	353	-36
-16	386	-8
267	301	-8
462	171	0
496	64	5
381	28	-6
186	50	7
11	82	28
-70	71	27
-53	-2	0
15	-101	-25
60	-176	-37
42	-179	-50
-32	-116	-66
-110	-25	-17
-128	34	32
-66	29	2
52	-23	-1
170	-76	-24
234	-71	-51
225	2	-23
155	114	-19
61	201	-24
-23	207	-58
-85	125	-95
-128	-15	-100
-159	-144	-117
-176	-215	-105
-170	-207	-70
-137	-140	-71
-84	-60	-34
-26	4	89
19	40	155
48	63	155
67	89	178
95	115	163
132	131	85
171	120	-6
191	72	-111
172	2	-210
116	-65	-231
34	-105	-174
-49	-103	-99
-114	-61	-50
-153	7	-65
-166	89	-95
-158	169	-87
-125	233	-112
-67	257	-115
14	221	-89
104	117	-115
175	-37	-160
199	-199	-138
153	-313	-47
42	-333	1
-108	-254	38
-250	-114	69
-342	32	58
-361	125	52
-305	145	51
-203	104	55
-93	44	46
-12	7	21
16	9	16
-4	45	27
-54	93	28
-100	130	28
-118	139	22
-97	124	12
-44	79	-8
23	0	-15
92	-115	5
145	-260	1
175	-408	-21
175	-524	-35
143	-564	-14
68	-517	4
-37	-403	24
-145	-262	42
-214	-140	32
-203	-58	2
-94	-13	-44
89	31	-80
288	99	-101
432	195	-102
462	298	-83
373	366	-51
205	372	-4
27	318	15
-88	227	18
-110	136	35
-45	78	21
59	57	-4
151	58	-8
187	64	-11
151	61	-45
61	54	-72
-49	53	-51
-139	59	-8
-186	64	-5
-174	49	-51
-117	10	-85
-40	-44	-151
24	-87	-183
50	-92	-175
29	-50	-134
-32	14	-63
-107	63	35
-170	65	124
-205	14	164
-209	-57	162
-195	-110	85
-173	-109	-3
-152	-58	-124
-125	8	-192
-86	53	-139
-30	52	-77
42	20	-34
120	-7	3
193	1	52
251	56	83
283	127	101
287	177	47
252	166	-19
170	98	-55
37	2	-124
-118	-84	-118
-260	-128	-96
-343	-137	-51
-328	-129	-9
-213	-133	-13
-29	-153	-8
169	-164	2
322	-143	-2
401	-71	-50
399	38	-32
330	149	-10
211	215	-45
48	206	-6
-145	124	12
-346	-5	-22
-525	-137	-32
-621	-237	-21
-602	-274	-10
-465	-247	-2
-249	-163	-5
-30	-42	0
135	88	17
214	198	4
223	261	-32
206	265	-69
203	209	-106
226	118	-109
249	20	-55
234	-63	-48
159	-124	-57
30	-174	-27
-110	-219	12
-209	-267	49
-235	-308	69
-188	-317	65
-97	-279	30
-3	-192	-16
64	-81	-47
91	34	-34
78	121	-2
39	171	0
-18	195	-11
-76	202	-9
-117	207	-8
-119	207	-11
-64	192	11
50	155	5
212	100	-53
373	45	-82
484	9	-89
495	-7	-92
389	-19	-75
182	-46	-71
-72	-106	-51
-314	-188	-30
-465	-254	-4
-497	-263	30
-407	-189	51
-245	-51	77
-76	100	66
47	200	24
95	208	-27
76	131	-61
27	19	-60
-17	-64	-62
-43	-85	-68
-57	-46	-76
-76	12	-84
-99	41	-97
-115	23	-98
-96	-29	-72
-24	-67	-27
91	-56	30
228	12	77
342	106	101
409	183	84
414	209	39
363	183	-15
258	141	-130
111	113	-218
-68	115	-156
-253	128	-48
-407	117	45
-497	56	87
-507	-53	82
-452	-167	103
-364	-235	118
-281	-221	95
-211	-126	32
-126	0	-28
2	108	-97
192	152	-162
417	125	-206
606	54	-202
671	-26	-140
582	-91	-100
346	-137	-64
48	-176	-23
-221	-215	-32
-383	-248	-30
-412	-256	32
-347	-223	66
-248	-145	22
-168	-55	-5
-130	14	2
-117	31	-6
-100	2	31
-49	-46	87
32	-70	106
127	-39	63
203	42	36
238	138	62
223	195	34
163	181	51
72	92	57
-33	-34	19
-137	-139	-65
-217	-186	-214
-253	-154	-327
-225	-68	-381
-126	36	-338
30	120	-218
200	165	-79
339	174	-10
409	169	9
392	166	46
302	170	80
167	177	60
29	173	7
-82	140	20
-148	72	76
-167	-24	56
-147	-128	19
-103	-214	11
-57	-251	-12
-25	-223	5
-18	-135	43
-36	-9	77
-67	118	121
-89	219	140
-80	272	141
-27	279	64
64	254	-18
172	211	-70
275	162	-99
338	103	-63
346	36	-56
297	-34	-51
180	-94	-79
9	-127	-114
-212	-133	-132
-443	-125	-113
-651	-137	-94
-794	-198	-95
-825	-309	-60
-718	-434	-46
-481	-519	-17
-154	-515	-19
189	-405	-13
474	-230	-5
632	-55	-21
628	57	-12
484	84	-20
252	51	-12
4	11	5
-187	15	-11
-297	65	-24
-319	137	-3
-290	182	-7
-244	171	-17
-194	119	-6
-136	61	32
-46	45	65
87	89	45
245	166	22
386	230	-2
454	235	-27
417	174	-23
284	72	16
104	-21	51
-58	-74	63
-152	-67	54
-166	-29	30
-123	15	5
-64	31	-56
-28	11	-115
-23	-34	-119
-42	-86	-150
-57	-118	-209
-50	-119	-265
-16	-80	-266
40	-6	-179
105	83	-134
157	160	-51
184	191	47
182	162	54
150	78	86
94	-28	99
28	-110	107
-33	-131	82
-77	-84	41
-99	10	26
-100	104	-19
-86	162	-40
-56	171	-50
-14	148	-56
35	116	-38
85	104	0
122	109	5
132	118	-36
113	103	-86
65	48	-115
4	-43	-105
-63	-159	-79
-128	-271	-41
-191	-358	26
-245	-393	85
-280	-368	97
-282	-279	81
-245	-145	52
-167	-11	33
-56	80	12
66	86	-38
189	11	-64
306	-105	-33
407	-195	-13
482	-200	-10
506	-105	13
454	57	-17
311	210	-55
90	289	-25
-167	265	-29
-400	161	-95
-572	33	-123
-659	-74	-113
-676	-140	-103
-638	-179	-64
-558	-208	-26
-442	-231	22
-279	-227	69
-83	-162	95
110	-34	120
257	126	106
328	260	39
318	312	-42
258	267	-100
194	158	-121
159	51	-90
151	-4	-13
154	5	77
137	43	95
94	67	56
38	43	-41
-1	-17	-194
-6	-74	-247
17	-90	-176
56	-47	-115
86	26	-90
101	88	-70
105	105	-43
110	74	-1
114	23	45
107	-16	91
82	-21	54
31	-3	29
-31	14	4
-88	5	-74
-113	-31	-19
-103	-77	-11
-65	-101	-99
-8	-88	-50
55	-39	23
127	28	49
192	91	57
242	133	12
254	154	-27
212	152	-25
117	127	12
-17	81	36
-153	15	32
-269	-60	55
-352	-129	54
-409	-173	-1
-438	-189	-62
-431	-185	-113
-366	-175	-137
-213	-166	-122
15	-144	-92
280	-93	-69
502	9	-67
606	154	-72
560	309	-81
387	422	-63
162	453	-56
-46	393	-62
-182	270	-32
-245	140	-6
-262	43	1
-269	-8	2
-279	-42	1
-290	-105	-6
-295	-223	5
-291	-388	10
-296	-541	11
-314	-615	10
-333	-550	3
-325	-351	3
-257	-86	-5
-117	142	14
63	240	13
231	177	9
330	-3	15
339	-198	35
280	-309	70
210	-280	67
167	-134	38
162	43	7
170	162	-29
162	170	-79
120	90	-76
58	-9	-71
13	-50	-108
12	-7	-101
59	86	-64
132	168	-28
194	179	-24
222	116	31
201	29	102
144	-19	62
59	9	-5
-38	95	-28
-137	177	-67
-221	195	-132
-262	129	-153
-247	12	-119
-165	-91	-72
-44	-120	-65
66	-69	-30
124	27	13
114	110	13
46	145	14
-36	128	20
-93	91	33
-99	70	31
-56	77	28
13	96	11
86	92	-37
140	43	-85
166	-41	-53
157	-129	-19
110	-181	-23
35	-175	-25
-44	-115	-39
-94	-28	-33
-94	59	-96
-42	126	-144
33	168	-149
89	186	-147
97	178	-100
54	147	-56
1	93	25
-27	31	59
-10	-21	54
31	-44	72
49	-40	28
4	-28	33
-101	-34	43
-216	-80	36
-274	-160	58
-230	-249	12
-93	-311	-58
71	-313	-83
180	-261	-62
178	-176	-16
78	-97	42
-64	-42	43
-172	-14	7
-200	3	0
-154	28	28
-82	59	57
-42	87	30
-66	90	-20
-145	60	-49
-233	10	-75
-279	-37	-104
-255	-59	-104
-165	-55	-68
-43	-44	-66
67	-45	-94
140	-65	-102
179	-80	-138
198	-52	-160
222	40	-103
257	181	-13
291	313	87
295	372	181
244	311	240
132	143	215
-19	-66	104
-177	-238	10
-303	-320	-74
-369	-303	-182
-371	-235	-199
-321	-174	-142
-237	-151	-98
-126	-160	-87
2	-160	-107
139	-119	-114
261	-28	-122
341	88	-87
351	185	-84
296	240	-71
195	243	18
99	215	51
56	171	49
78	118	53
136	51	60
170	-25	51
123	-92	43
-30	-113	40
-252	-60	19
-456	58	7
-561	204	-3
-503	310	-8
-310	319	-35
-52	225	-88
163	67	-124
258	-88	-121
222	-187	-33
104	-214	87
-5	-192	151
-43	-166	101
8	-152	10
104	-149	36
175	-122	47
175	-53	-9
102	53	-82
13	161	-83
-31	227	-51
20	230	-74
152	180	-51
309	121	-38
419	88	-28
438	99	-11
371	128	-37
256	139	-60
143	106	-55
49	30	-61
-44	-45	-77
-169	-83	-47
-333	-56	1
-509	12	-16
-630	75	-74
-621	81	-44
-458	3	-25
-173	-130	-21
140	-270	13
387	-344	-3
488	-313	-23
430	-190	-34
252	-33	-32
12	77	-43
-217	74	-59
-405	-60	-46
-535	-281	-17
-596	-497	-2
-589	-612	-11
-509	-570	-16
-353	-384	-11
-144	-120	9
83	122	-2
272	265	-35
375	286	-64
379	217	-72
286	127	-48
147	67	-46
16	58	-64
-58	80	-39
-61	96	-4
-11	89	-2
54	60	18
95	35	48
90	32	68
53	53	52
10	82	32
-11	93	33
5	85	8
49	63	-27
107	54	-30
163	64	-10
207	91	37
234	110	89
242	103	80
223	71	14
166	29	-67
72	1	-149
-46	-7	-222
-159	-2	-251
-242	-4	-183
-281	-19	-101
-278	-39	-48
-240	-41	26
-169	-6	30
-71	61	19
50	131	13
183	169	-18
287	149	-70
328	82	-75
280	4	36
158	-42	79
9	-42	74
-107	-8	26
-151	24	-52
-119	16	-79
-51	-40	-49
2	-129	-11
5	-209	-1
-40	-246	-4
-101	-219	-104
-136	-138	-168
-125	-30	-141
-70	80	-63
-3	160	-23
52	197	-46
77	186	-14
75	133	10
60	59	41
44	-6	56
39	-33	89
44	-6	74
65	69	6
96	159	-4
131	215	-21
154	206	-40
143	121	-45
85	-9	11
-20	-141	15
-142	-227	-14
-239	-249	-20
-260	-224	-40
-190	-181	-52
-45	-157	-48
117	-156	-32
232	-166	-30
258	-160	-9
183	-119	-6
39	-52	20
-134	11	13
-291	35	-22
-415	2	-13
-513	-81	-36
-582	-176	-65
-619	-248	-72
-598	-268	-75
-485	-238	-57
-281	-174	-35
-24	-103	-17
221	-41	5
374	14	22
403	71	0
311	136	-44
158	200	-52
21	237	-33
-45	228	-1
-27	162	21
46	60	12
131	-45	-23
184	-111	-58
199	-116	-71
192	-58	-64
191	35	-34
211	127	9
257	189	24
306	208	22
330	190	49
306	157	61
232	122	71
109	101	54
-37	83	-23
-182	66	-56
-285	41	-68
-319	14	-58
-276	-9	-11
-169	-19	35
-35	-10	61
80	15	59
143	49	69
150	86	24
121	117	-79
97	139	-196
103	144	-311
139	127	-307
175	81	-233
172	6	-105
107	-92	8
-17	-195	22
-160	-286	10
-271	-344	11
-316	-351	42
-292	-312	20
-223	-230	-12
-137	-120	5
-53	-5	4
29	101	-12
131	182	-39
256	236	-84
373	260	-111
436	260	-113
391	237	-49
212	198	14
-65	145	7
-371	81	2
-603	11	13
-692	-52	49
-630	-103	59
-455	-134	38
-241	-153	41
-52	-170	45
77	-198	42
148	-237	28
183	-274	-18
202	-281	-74
205	-235	-102
192	-134	-106
156	3	-84
115	133	-52
85	218	-43
72	230	-18
69	174	7
44	84	19
-24	-8	16
-136	-70	6
-258	-108	7
-343	-134	2
-353	-175	5
-285	-233	26
-162	-288	30
-23	-309	12
99	-260	10
201	-136	16
285	38	13
344	215	-5
358	345	-26
301	395	-59
172	362	-91
4	271	-84
-149	158	-89
-226	54	-98
-203	-30	-84
-109	-97	-51
0	-151	-17
79	-192	-6
111	-210	-9
123	-190	-14
136	-126	16
162	-29	72
169	79	124
115	171	151
-11	233	113
-182	257	66
-318	252	10
-348	230	-106
-253	193	-177
-84	136	-194
64	56	-230
116	-48	-211
50	-154	-195
-71	-235	-169
-164	-261	-132
-150	-223	-131
-29	-129	-130
137	-13	-88
269	90	-10
306	158	76
258	178	139
179	163	91
134	128	58
155	89	48
216	49	20
261	13	33
236	-17	40
128	-37	39
-29	-37	7
-180	-13	20
-280	28	36
-312	78	3
-296	119	-11
-262	143	-15
-232	151	-34
-204	149	-36
-158	136	-20
-77	106	-35
39	45	-66
164	-60	-90
257	-207	-67
277	-368	-52
205	-497	-5
58	-555	19
-126	-519	0
-294	-408	-4
-398	-260	-27
-419	-126	-41
-354	-47	-70
-228	-29	-63
-67	-57	-50
86	-107	-38
202	-142	4
259	-153	26
241	-126	26
159	-66	26
37	22	15
-74	128	-32
-130	228	-11
-111	298	39
-20	305	36
104	256	30
205	166	11
241	83	0
196	51	-31
94	92	-81
-20	190	-79
-101	298	-80
-125	362	-85
-98	345	-84
-46	261	-45
1	140	5
18	29	20
4	-42	47
-29	-84	75
-63	-120	104
-77	-182	90
-63	-263	-37
-28	-345	-176
14	-378	-256
40	-332	-254
44	-213	-177
26	-57	-100
4	79	-36
-1	159	-39
26	171	-26
81	145	26
148	115	19
200	109	48
216	129	34
196	152	4
137	149	-4
55	103	-26
-36	23	-15
-126	-59	-44
-204	-119	-26
-250	-135	9
-250	-116	31
-195	-76	54
-95	-28	77
24	15	98
134	61	78
211	110	65
251	162	17
267	202	-44
269	211	-75
268	179	-85
245	106	-130
191	16	-108
91	-77	-59
-48	-151	-79
-202	-205	-52
-338	-247	-30
-422	-282	-9
-443	-315	-1
-394	-326	-11
-295	-311	-26
-159	-252	-42
-28	-159	-37
60	-49	-40
76	48	-23
2	112	-22
-136	131	-24
-299	111	-35
-420	67	-44
-459	19	-36
-412	-19	-28
-297	-38	6
-160	-37	13
-31	-15	-16
81	15	-24
186	45	-38
300	60	3
422	51	74
531	24	52
589	-8	19
581	-19	-27
506	11	-48
389	87	-55
252	186	-29
114	266	13
-17	287	16
-142	222	24
-247	85	-15
-306	-79	-65
-291	-210	-98
-204	-264	-99
-69	-236	-82
60	-147	-57
132	-49	-18
121	15	-7
44	30	-20
-41	15	7
-83	-1	-6
-57	12	-42
18	61	20
93	126	59
122	180	91
84	197	138
-3	174	99
-100	122	45
-174	56	0
-210	-8	-125
-209	-69	-253
-178	-124	-306
-125	-164	-238
-47	-174	-145
50	-138	-111
152	-64	-69
225	27	-35
238	93	30
184	101	49
91	36	64
2	-69	31
-47	-168	-29
-48	-212	-12
-22	-179	-21
-10	-94	29
-35	1	64
-88	59	55
-132	65	17
-130	39	-11
-71	17	-5
19	33	-54
101	81	-74
137	136	-95
124	161	-121
97	132	-103
92	68	-37
130	1	41
195	-35	74
236	-29	107
201	-2	74
64	14	-11
-152	-9	-86
-392	-69	-112
-584	-138	-92
-680	-179	-83
-652	-168	-60
-525	-111	-40
-344	-41	-20
-167	0	-13
-43	-6	-4
14	-54	1
15	-111	-6
-3	-142	-18
5	-126	-5
63	-72	22
167	-10	10
280	32	15
358	38	-5
355	18	-14
272	-2	-8
141	-2	-11
23	23	-7
-27	51	-19
7	61	-10
111	33	-6
236	-17	-5
328	-55	6
354	-40	31
314	43	71
241	169	96
164	285	94
111	331	39
84	279	-32
57	147	-80
9	-6	-124
-82	-115	-153
-200	-148	-104
-315	-108	-44
-377	-45	-57
-358	-6	-85
-263	-16	-124
-128	-57	-109
-3	-89	-89
63	-79	-91
58	-21	-59
4	59	-19
-53	121	51
-77	130	76
-52	85	48
-1	13	30
39	-53	46
37	-88	49
-8	-88	9
-72	-66	-26
-117	-42	-65
-117	-28	-161
-74	-17	-202
-12	-5	-178
35	17	-102
54	41	-68
54	61	-64
57	64	-41
86	52	-10
137	33	63
195	17	77
222	13	101
195	16	83
112	23	42
-7	28	30
-118	32	6
-187	40	-12
-190	50	-57
-127	59	-75
-17	58	-54
111	39	-34
216	-1	-21
269	-51	-6
244	-93	-16
139	-108	-39
-12	-87	-64
-162	-41	-71
-260	9	-42
-273	32	-28
-211	15	-25
-118	-52	-14
-52	-157	5
-53	-270	6
-113	-363	4
-184	-413	34
-214	-406	31
-174	-346	12
-89	-246	23
-20	-125	7
-28	-5	-15
-128	92	-15
-271	157	-27
-371	183	-27
-353	174	-23
-204	147	-35
19	106	-27
223	67	-18
322	34	-3
294	11	-21
189	-6	-51
88	-15	-71
55	-5	-89
105	22	-60
195	67	-45
269	118	-19
296	158	37
275	171	68
242	158	59
219	133	44
208	119	65
178	138	55
104	183	5
-23	230	-45
-162	239	-109
-262	179	-131
-296	51	-83
-253	-114	-74
-170	-253	-78
-87	-315	-105
-30	-273	-170
3	-152	-168
34	-6	-153
77	106	-114
125	150	-49
162	126	-46
163	69	-21
124	23	8
65	11	26
12	24	91
-18	38	89
-24	23	65
-25	-20	54
-35	-78	42
-58	-109	-1
-89	-90	-24
-111	-19	-21
-114	80	-41
-96	166	-61
-60	209	-98
-13	195	-77
40	131	-40
97	38	-21
147	-65	8
170	-161	43
158	-236	38
107	-273	19
45	-263	-7
-4	-208	-36
-10	-129	-2
29	-59	-2
91	-31	-28
133	-58	-23
113	-114	-9
16	-155	2
-152	-130	-3
-342	-27	-7
-505	120	2
-604	243	-22
-611	266	-23
-542	160	-14
-415	-48	-40
-262	-275	-42
-111	-427	-20
27	-446	-14
145	-332	-40
238	-149	-27
299	21	-18
310	113	-34
269	117	-43
186	68	-54
85	22	-41
9	23	-34
-11	70	-21
36	135	-14
128	170	-15
216	155	-4
262	96	7
234	26	13
134	-16	16
5	-19	9
-108	11	-18
-164	43	-49
-156	64	-36
-95	71	-22
-20	82	-41
36	113	-34
56	168	-32
40	221	-8
9	240	7
-14	201	5
-6	114	32
39	7	-26
117	-71	-101
201	-101	-145
257	-81	-155
273	-43	-61
244	-24	60
192	-44	105
147	-94	123
125	-135	126
120	-136	39
96	-85	-80
11	6	-241
-150	95	-252
-356	151	-178
-550	161	-176
-639	127	-100
-580	70	-49
-383	13	28
-117	-35	46
114	-76	22
244	-105	20
242	-123	-26
154	-124	-38
43	-116	-59
-28	-105	-44
-33	-109	-44
12	-134	-26
81	-165	3
139	-171	45
179	-117	74
198	10	46
196	189	46
165	364	45
88	469	9
-33	461	-33
-182	343	-30
-320	155	1
-404	-43	27
-408	-195	41
-339	-278	19
-232	-304	-61
-134	-301	-127
-85	-301	-133
-89	-317	-125
-129	-342	-101
-167	-351	-49
-161	-321	6
-88	-246	17
51	-125	6
234	20	18
406	162	41
517	274	57
526	336	64
422	339	43
234	283	-7
22	192	-48
-153	80	-33
-240	-29	-4
-228	-123	4
-143	-186	19
-28	-213	-2
74	-199	-5
141	-140	-10
169	-49	-64
166	66	-51
142	177	-25
111	261	-34
85	305	-38
72	301	-40
80	251	-23
92	165	-14
78	55	-20
1	-72	-44
-145	-207	-83
-331	-331	-107
-483	-422	-144
-520	-451	-159
-409	-399	-118
-175	-268	-40
87	-86	55
284	103	145
365	249	155
335	320	109
257	311	16
186	247	-116
148	168	-255
114	102	-317
47	67	-252
-69	58	-121
-206	60	26
-302	56	115
-311	40	147
-229	21	133
-101	6	103
18	6	57
85	25	21
102	50	5
102	76	39
110	89	63
130	85	74
140	65	82
117	36	0
57	9	-43
-19	-15	-106
-80	-32	-172
-105	-47	-143
-100	-59	-121
-92	-72	-99
-96	-84	-75
-110	-82	-41
-115	-68	-16
-80	-39	-7
-5	-3	21
93	28	27
180	47	31
228	50	30
234	47	-5
205	43	2
162	43	-25
101	33	-62
17	-2	-46
-95	-76	-17
-221	-183	11
-321	-297	6
-355	-375	-38
-287	-372	-110
-129	-278	-115
68	-107	-64
237	92	-16
330	261	31
324	362	51
245	387	44
136	354	24
34	299	-4
-48	247	-28
-128	198	-60
-221	131	-93
-329	28	-91
-429	-128	-36
-484	-325	14
-459	-527	5
-366	-692	-47
-232	-788	-89
-119	-798	-119
-68	-727	-143
-82	-590	-126
-119	-410	-81
-125	-198	-25
-55	19	9
89	221	30
257	377	56
386	467	56
423	474	28
365	410	-4
250	301	-24
133	187	-54
62	100	-64
40	58	-26
41	64	32
36	98	96
16	138	162
-9	168	207
-5	174	191
36	170	104
107	161	-21
172	163	-128
196	182	-183
175	213	-178
128	240	-157
95	244	-103
94	210	-71
115	136	-68
119	41	-12
72	-48	4
-26	-108	17
-137	-125	82
-207	-104	95
-195	-64	0
-111	-32	-79
1	-21	-126
85	-33	-148
101	-55	-91
60	-70	-55
4	-66	-38
-29	-41	-19
-20	-6	-21
10	24	-41
26	34	-71
7	19	-74
-44	-20	-64
-96	-71	-45
-120	-121	-21
-101	-157	-36
-55	-168	-64
-4	-152	-51
40	-110	4
83	-52	32
136	6	39
200	51	38
248	76	34
238	81	44
137	81	59
-54	90	77
-299	121	87
-518	171	61
-654	227	2
-672	262	-87
-569	261	-170
-383	213	-193
-150	123	-158
83	15	-96
273	-94	-39
386	-190	-6
387	-271	-7
275	-333	-11
89	-379	-16
-102	-394	-19
-218	-384	-3
-225	-339	-13
-141	-272	-31
-40	-210	-16
0	-173	-6
-56	-173	-9
-183	-201	-15
-298	-236	-5
-325	-249	14
-232	-227	16
-42	-169	14
181	-84	21
370	11	15
484	110	-7
531	206	-15
516	284	-18
450	338	-19
339	340	-16
184	291	-20
27	197	-32
-95	89	-41
-137	8	-40
-90	-21	-31
10	9	-18
107	75	11
143	149	56
104	202	91
10	231	101
-93	244	54
-170	247	-41
-213	243	-128
-232	210	-206
-232	133	-260
-212	13	-260
-157	-122	-187
-66	-231	-60
39	-273	49
117	-236	81
129	-147	96
67	-53	112
-36	-2	61
-128	-5	41
-162	-38	67
-131	-60	53
-63	-35	-24
5	33	-96
50	115	-71
80	160	-66
114	141	-129
169	70	-156
232	-11	-129
265	-52	-101
241	-32	-74
151	36	-43
29	107	76
-77	140	221
-130	120	263
-129	63	221
-98	10	45
-72	-16	-117
-74	-16	-181
-92	-20	-228
-104	-54	-204
-86	-127	-151
-32	-205	-84
48	-240	29
141	-199	54
228	-87	53
294	50	20
325	144	-42
299	154	-51
196	68	-77
18	-69	-53
-195	-211	-54
-386	-309	-83
-487	-346	-76
-474	-329	-62
-360	-274	-60
-207	-196	-81
-89	-109	-46
-49	-24	10
-83	42	54
-148	77	84
-189	71	97
-177	43	103
-119	18	113
-54	21	68
-17	53	21
-24	99	-14
-56	122	-62
-82	103	-89
-70	61	-116
-18	32	-100
59	53	-74
139	133	-49
202	238	-44
249	308	-25
285	295	-34
320	202	-52
339	71	-27
325	-24	-10
262	-43	21
159	8	30
40	79	38
-61	98	45
-117	32	47
-122	-100	25
-96	-237	2
-61	-317	-13
-35	-304	-55
-18	-216	-59
2	-112	-49
32	-35	-33
66	-5	-15
97	-4	-30
105	2	-42
93	42	-31
66	108	-41
40	160	-51
20	166	-40
2	110	-9
-24	14	29
-63	-86	26
-116	-147	7
-160	-153	-32
-185	-118	-41
-186	-66	-37
-172	-24	-49
-149	4	17
-117	28	76
-66	62	63
19	112	61
136	169	-1
266	213	-114
358	225	-190
373	205	-215
296	157	-165
141	96	-75
-28	35	-15
-166	-21	-14
-233	-68	-2
-236	-112	49
-203	-150	24
-174	-183	-30
-173	-207	-4
-191	-226	20
-204	-236	-13
-176	-226	-25
-91	-191	-16
52	-122	-7
229	-26	24
396	78	3
520	157	-51
547	186	-93
459	158	-135
241	90	-183
-69	19	-196
-412	-21	-167
-704	-13	-107
-872	39	-31
-882	103	10
-735	149	33
-484	158	54
-205	131	39
42	85	3
230	33	15
346	-15	49
401	-65	43
402	-126	42
346	-204	59
249	-279	68
113	-330	66
-25	-329	48
-119	-261	8
-139	-138	-45
-79	7	-66
37	135	-52
158	211	-30
238	233	-14
244	202	-30
179	158	-21
65	119	-16
-55	97	-15
-152	75	-12
-202	37	-18
-198	-31	-10
-141	-125	-6
-39	-218	-13
84	-282	-22
196	-294	-32
263	-254	-42
262	-179	-41
184	-94	-41
63	-17	-32
-54	48	-24
-118	104	-30
-101	160	-34
-18	206	-37
85	238	-48
155	241	-60
163	214	-54
113	171	-54
42	130	-46
-15	103	-7
-43	90	41
-52	81	81
-65	59	111
-100	17	151
-138	-41	159
-158	-102	145
-128	-149	123
-51	-174	8
46	-170	-87
126	-138	-100
158	-80	-65
144	4	-44
111	99	-104
90	186	-166
87	237	-202
93	233	-207
79	171	-231
35	77	-227
-26	-13	-204
-81	-68	-198
-103	-81	-205
-94	-61	-192
-80	-40	-118
-91	-39	-44
-134	-62	53
-194	-96	91
-237	-119	91
-231	-122	112
-184	-114	89
-125	-112	77
-87	-129	57
-77	-166	53
-70	-196	24
-37	-198	-23
49	-158	-3
171	-78	32
278	16	41
318	97	49
262	150	56
132	171	44
-20	171	22
-148	153	-45
-221	118	-88
-247	63	-99
-252	-8	-79
-257	-83	-30
-259	-141	-3
-247	-171	39
-199	-163	56
-124	-127	30
-42	-85	-20
17	-44	-25
41	-16	-27
39	9	-44
41	34	-35
81	67	-29
166	106	5
288	145	0
406	180	-19
475	204	-23
468	221	-31
371	224	-13
212	206	-23
35	157	-52
-105	71	-50
-168	-40	-23
-145	-157	-37
-67	-249	-39
15	-288	-2
56	-261	20
35	-174	39
-27	-52	44
-93	64	42
-128	139	24
-131	147	8
-126	80	22
-143	-37	68
-187	-169	70
-222	-270	16
-200	-304	-75
-93	-265	-153
75	-171	-207
232	-55	-272
296	43	-247
228	109	-174
58	132	-101
-131	137	-48
-253	138	-27
-271	149	0
-208	161	-6
-123	166	16
-68	149	45
-42	109	38
-12	63	4
59	24	-22
172	7	-49
288	6	-116
342	12	-127
302	10	-76
190	-4	-15
62	-20	24
-21	-29	57
-46	-16	118
-42	13	123
-60	40	69
-126	47	32
-215	24	-43
-269	-19	-118
-238	-62	-103
-120	-86	-117
28	-80	-101
140	-51	-45
171	-25	-18
133	-20	22
88	-38	6
92	-69	24
157	-90	53
239	-85	52
260	-47	52
170	7	26
-18	61	-2
-240	104	11
-392	127	7
-422	141	-7
-324	153	-7
-156	155	-51
5	137	-46
105	88	-24
130	5	-26
102	-101	-11
51	-203	2
7	-277	19
-23	-307	61
-37	-292	87
-35	-251	49
-18	-192	-27
12	-132	-104
46	-69	-178
71	-7	-252
78	51	-239
66	97	-159
50	114	-81
35	103	-29
25	64	-12
12	18	8
-12	-22	21
-48	-41	16
-81	-40	0
-94	-29	-10
-81	-12	-10
-53	5	-22
-43	25	-34
-70	49	-26
-145	72	-23
-237	83	-20
-305	57	-8
-310	-11	3
-231	-113	-2
-91	-212	-10
74	-263	20
212	-229	36
291	-104	45
306	72	52
273	237	53
221	321	44
169	291	-12
127	165	-34
89	3	-39
44	-118	-72
-10	-149	-92
-66	-82	-120
-104	37	-91
-107	149	-5
-69	205	49
-3	197	93
68	153	111
122	109	112
141	98	74
135	115	20
110	137	-17
82	135	-78
48	95	-127
4	30	-124
-55	-38	-59
-118	-84	-34
-160	-104	-60
-151	-106	-87
-77	-103	-80
44	-105	-50
167	-102	-43
236	-84	-65
216	-38	-94
119	23	-35
-16	85	-50
-133	122	-132
-188	112	-144
-169	58	-177
-105	-25	-186
-43	-111	-136
-19	-178	-28
-45	-205	68
-104	-194	124
-162	-153	135
-188	-103	135
-168	-60	108
-106	-38	57
-10	-37	39
107	-43	-21
232	-32	-50
345	11	-8
417	98	37
411	211	-13
306	319	-34
107	372	3
-141	344	3
-363	221	4
-495	22	-27
-497	-202	-49
-390	-402	-71
-237	-524	-77
-105	-546	-74
-47	-471	-56
-64	-329	-26
-126	-163	-2
-177	-11	16
-186	96	-20
-141	147	-44
-59	140	-59
31	99	-79
120	35	-74
193	-35	-54
245	-103	-30
268	-162	1
245	-200	39
169	-201	57
58	-150	46
-57	-36	12
-134	120	-40
-148	284	-92
-101	403	-90
-22	434	-53
51	370	-35
105	237	5
139	89	38
171	-25	58
206	-79	84
234	-83	100
229	-64	104
175	-58	71
71	-72	4
-44	-93	-105
-136	-94	-182
-173	-57	-207
-157	9	-172
-116	83	-101
-81	132	-71
-71	150	-78
-75	138	-88
-70	110	-83
-38	82	-93
20	51	-80
86	18	-39
139	-22	-7
159	-54	37
150	-59	106
127	-31	150
105	20	166
84	64	176
52	70	138
1	26	79
-64	-46	7
-124	-101	-35
-145	-103	-92
-109	-46	-145
-23	40	-149
81	108	-127
155	121	-116
163	80	-122
105	20	-109
12	-9	-89
-68	14	-38
-103	78	2
-80	137	14
-24	144	4
23	78	-17
31	-39	-21
-12	-162	-42
-83	-240	-36
-151	-249	24
-187	-198	27
-191	-118	22
-180	-43	32
-173	7	19
-179	28	22
-189	30	19
-178	17	-8
-128	-7	-58
-38	-45	-105
69	-106	-137
165	-185	-136
224	-278	-114
234	-368	-84
204	-432	-59
143	-449	-46
58	-401	-9
-40	-282	34
-150	-107	59
-253	85	46
-311	251	18
-299	352	12
-203	379	16
-50	345	7
107	286	0
210	236	32
214	204	38
132	187	26
5	160	19
-93	116	2
-115	58	-11
-55	1	-53
49	-41	-65
138	-66	-44
175	-85	-27
156	-105	12
114	-121	53
89	-115	79
100	-61	64
132	43	2
148	171	-81
114	272	-182
28	294	-249
-80	215	-241
-169	68	-150
-202	-98	-38
-177	-218	48
-117	-263	65
-50	-233	22
7	-166	8
54	-97	-12
100	-45	-40
137	-12	-92
153	26	-67
128	76	25
69	134	66
4	181	100
-26	199	90
7	183	103
96	143	91
190	99	6
227	65	-21
172	45	-67
41	31	-82
-113	11	-90
-222	-12	-109
-245	-34	-128
-194	-45	-224
-113	-46	-276
-50	-41	-224
-32	-45	-116
-43	-69	-66
-51	-108	0
-28	-143	56
22	-155	77
74	-133	99
94	-90	81
64	-48	54
-3	-39	16
-79	-75	7
-124	-143	-10
-121	-210	-16
-70	-242	7
11	-212	28
101	-128	24
184	-19	38
248	88	59
278	166	24
262	213	26
198	244	21
84	264	11
-70	274	42
-255	251	38
-445	174	12
-614	36	-20
-733	-141	-81
-759	-317	-154
-665	-439	-186
-443	-481	-176
-134	-443	-151
184	-346	-126
428	-227	-71
527	-105	-26
476	7	7
337	110	30
193	202	31
121	270	21
137	301	-6
204	295	-27
245	254	-32
208	201	-12
85	158	-4
-77	125	0
-207	97	8
-256	58	-7
-212	0	-27
-110	-61	-9
1	-105	17
85	-110	12
120	-70	22
122	-10	37
111	47	47
106	78	55
111	82	23
124	66	-8
135	51	-57
136	39	-81
119	16	-78
78	-28	-76
16	-97	-21
-57	-169	21
-122	-214	57
-163	-200	62
-170	-124	24
-143	-8	-61
-98	106	-139
-45	179	-161
6	194	-168
49	162	-116
87	114	-33
118	84	39
139	80	69
145	98	89
136	114	111
111	110	44
75	74	-110
30	10	-252
-24	-63	-287
-78	-135	-245
-124	-185	-117
-151	-209	22
-148	-196	71
-115	-153	52
-65	-83	22
-26	2	-21
-11	77	-56
-21	123	-22
-44	131	-20
-67	105	-28
-80	58	-22
-90	4	-42
-106	-44	-48
-132	-91	-12
-156	-137	26
-152	-190	4
-106	-238	14
-23	-264	53
58	-258	77
95	-204	79
55	-117	52
-51	-17	21
-173	68	24
-243	123	48
-208	148	70
-69	155	82
122	168	61
284	187	1
343	205	-80
277	197	-131
118	139	-175
-53	24	-188
-165	-133	-152
-174	-290	-97
