File Name: not saved
Channel 2: 'Channel 2', 35720 values, raw ADC, no filters.
Channel 3: 'Channel 3', 35720 values, raw ADC, no filters.
Channel 4: 'Channel 4', 35720 values, raw ADC, no filters.

280	-409	-43
250	-534	-56
144	-563	-80
46	-488	-51
22	-332	-45
90	-142	-59
202	24	-36
267	128	-56
195	155	-8
-42	131	47
-392	101	53
-717	104	-1
-873	155	38
-786	240	63
-470	313	-38
-41	332	-2
346	273	-42
561	147	-122
558	1	-165
396	-115	-149
178	-163	-45
2	-137	4
-79	-66	56
-61	10	33
18	64	34
123	90	76
216	100	63
285	114	82
311	137	112
284	161	57
213	170	-48
117	153	-38
28	122	13
-33	95	-63
-75	89	-115
-115	96	-145
-179	85	-82
-262	31	9
-329	-82	-61
-335	-229	-8
-253	-358	-5
-109	-416	-48
34	-368	-91
117	-227	-179
109	-33	-113
36	157	-10
-43	305	72
-78	398	93
-52	435	134
7	431	85
64	390	-48
103	310	-47
139	183	-54
206	14	-35
301	-183	1
375	-381	-28
368	-547	-13
224	-646	41
-30	-653	-17
-299	-562	-62
-452	-377	-30
-417	-143	-55
-212	77	-50
39	225	-51
202	257	-118
193	171	-239
37	18	-239
-159	-134	-149
-281	-225	-99
-274	-217	-33
-170	-126	43
-50	-1	53
7	103	-47
-7	144	-66
-43	122	84
-33	58	163
47	-11	124
169	-51	61
253	-56	-60
239	-41	-119
111	-31	-108
-93	-49	-38
-300	-102	13
-455	-166	41
-516	-196	50
-480	-159	30
-350	-31	10
-145	161	8
93	353	58
308	473	36
439	467	1
439	340	-34
319	150	-42
137	-16	-56
-10	-88	-63
-56	-37	-28
7	91	-24
130	215	-35
242	267	-63
288	206	-18
261	61	33
186	-103	20
87	-218	4
-20	-246	30
-149	-195	43
-291	-105	17
-415	-27	-27
-456	11	-82
-358	10	-82
-129	-5	-75
156	-3	-50
389	28	-30
474	89	7
393	150	36
210	183	-3
37	171	-4
-42	112	54
-19	23	134
47	-67	30
78	-131	-48
28	-159	-114
-81	-154	-256
-173	-143	-138
-187	-149	-72
-102	-179	-51
31	-230	4
136	-257	13
156	-229	70
78	-114	25
-51	68	-36
-174	262	-134
-237	393	-211
-240	392	-122
-212	251	-13
-188	18	-24
-186	-204	-28
-193	-322	17
-181	-291	20
-120	-133	-38
-6	61	-23
136	197	86
266	213	29
335	112	13
310	-47	-51
189	-191	-190
0	-265	-221
-203	-277	-252
-353	-245	-139
-409	-204	-7
-347	-163	116
-195	-113	159
-5	-39	126
162	49	89
258	122	26
275	145	-18
231	104	-71
167	24	-44
120	-43	2
107	-51	44
123	12	42
142	112	5
135	195	48
81	218	47
-22	178	-12
-150	111	-52
-260	62	-84
-319	58	-67
-308	77	-22
-235	83	17
-136	38	53
-59	-54	103
-24	-163	58
-22	-235	-6
-14	-228	-58
40	-149	-141
148	-29	-188
279	80	-184
363	144	-42
351	168	26
245	168	26
113	174	77
43	194	106
101	215	87
271	215	17
462	174	-15
547	100	-62
431	-6	-138
116	-120	-188
-319	-238	-147
-726	-348	-81
-984	-441	-22
-1036	-478	17
-886	-429	6
-589	-274	1
-221	-29	-19
170	235	-7
508	424	-5
763	468	-68
869	350	-99
800	132	-38
592	-82	4
290	-200	-32
-11	-189	-51
-252	-83	-96
-417	36	-124
-518	90	-71
-588	54	-32
-619	-37	21
-580	-118	63
-433	-140	147
-180	-97	213
106	-29	191
313	8	161
351	-4	74
210	-55	-129
-21	-95	-315
-216	-85	-214
-262	-16	-180
-166	69	-245
-4	119	-70
102	96	-75
97	11	-26
26	-85	79
2	-137	26
115	-112	51
365	-24	0
635	74	19
766	137	85
665	147	79
373	124	6
39	114	-97
-168	148	-65
-166	218	7
-7	282	-49
163	291	-79
202	214	9
68	68	22
-161	-99	-11
-348	-230	21
-386	-289	64
-272	-280	-29
-101	-230	-99
2	-171	-112
-25	-121	-68
-161	-77	3
-300	-27	-30
-352	32	8
-274	83	-8
-114	103	-18
32	81	-16
89	23	-83
24	-38	-85
-114	-67	-78
-255	-51	-55
-312	-3	-12
-251	45	44
-89	63	68
124	47	81
319	21	68
446	20	-6
484	62	-44
439	125	-35
354	155	-23
251	100	-5
153	-46	24
57	-236	33
-37	-378	49
-135	-390	-7
-215	-258	-87
-249	-45	-116
-210	130	-161
-103	169	-189
30	38	-153
121	-195	-45
111	-410	-7
-20	-502	-12
-242	-432	-15
-491	-242	5
-690	-27	-22
-772	140	-25
-717	235	14
-539	279	22
-279	318	21
4	356	8
258	362	48
423	300	46
474	148	24
407	-55	24
254	-235	-21
78	-325	-63
-64	-296	-65
-129	-182	-100
-104	-45	-135
-14	66	-53
102	139	38
202	197	22
272	256	-19
302	305	-51
306	301	-12
284	213	2
237	40	24
167	-164	16
82	-309	13
8	-326	78
-32	-217	-6
-30	-41	-33
-2	106	-105
13	159	-229
-7	121	-233
-58	58	-132
-91	53	49
-51	149	121
86	313	100
284	466	-32
450	517	-126
488	424	-80
363	218	-46
128	-27	-51
-108	-230	0
-232	-341	-3
-214	-362	-52
-118	-326	-97
-53	-268	-87
-99	-202	-35
-245	-130	12
-392	-48	36
-435	28	57
-310	71	68
-63	60	-19
179	-4	36
306	-85	120
275	-130	110
127	-99	51
-46	4	-20
-172	123	-48
-241	189	-40
-290	137	-56
-361	-27	-32
-439	-246	59
-473	-419	115
-392	-466	40
-191	-368	-112
72	-167	-129
296	40	-167
383	168	-215
320	169	-155
172	72	-71
48	-49	-31
29	-120	14
132	-96	-22
300	8	-54
439	137	-27
481	223	-32
382	221	-33
164	125	-25
-124	-25	-3
-406	-175	5
-610	-282	28
-679	-312	18
-584	-262	-19
-352	-144	5
-42	13	22
242	175	22
416	312	29
439	384	-2
329	379	-7
151	299	-25
-26	171	-79
-149	32	-78
-209	-85	-92
-228	-153	-55
-214	-166	112
-172	-127	155
-80	-52	152
76	47	152
275	150	37
474	237	-33
600	283	-145
599	275	-209
439	210	-190
154	104	-138
-194	-8	-44
-508	-88	14
-705	-117	-3
-720	-103	-54
-565	-82	-15
-285	-93	78
6	-162	57
204	-278	-76
236	-394	-213
95	-452	-270
-139	-393	-144
-351	-233	-24
-417	-5	55
-286	215	91
11	361	76
357	406	57
623	360	14
716	261	80
618	141	49
399	23	29
169	-92	51
26	-196	-127
6	-268	-248
66	-278	-175
120	-209	-90
90	-76	-79
-51	61	-28
-256	131	-43
-434	85	-78
-502	-65	-24
-420	-246	16
-229	-353	58
-8	-319	102
151	-136	105
198	126	67
145	362	69
46	483	50
-35	454	-22
-63	313	-69
-36	127	-75
12	-27	-118
52	-113	-137
66	-134	-98
56	-116	-62
33	-98	-51
9	-92	-26
-14	-101	7
-42	-111	-38
-70	-109	5
-89	-85	36
-71	-34	8
-9	39	20
95	132	-16
216	231	-12
329	316	31
392	362	82
393	345	119
334	260	66
226	112	-70
82	-69	-180
-90	-249	-282
-273	-380	-280
-447	-437	-86
-589	-411	33
-667	-313	112
-669	-170	147
-603	-24	125
-487	94	101
-347	154	23
-200	150	-35
-59	91	-105
72	0	-68
198	-101	-76
302	-187	-113
363	-240	-56
360	-250	-17
299	-211	35
196	-131	26
97	-24	18
41	81	44
52	153	9
123	165	-1
221	120	28
288	47	10
288	-18	-51
202	-39	-112
45	-10	-124
-138	50	-90
-307	102	-66
-415	118	-6
-436	99	91
-383	65	29
-267	50	-118
-116	65	-100
52	105	-42
212	150	-105
346	183	-75
431	214	-25
449	251	36
390	292	10
263	307	-143
99	241	-120
-63	62	-54
-197	-213	41
-276	-497	96
-300	-666	96
-280	-631	124
-218	-389	43
-124	-37	-9
4	270	-57
142	408	-104
258	350	-77
312	169	-58
276	0	-68
162	-51	-80
13	32	26
-103	175	120
-135	264	79
-68	221	60
64	41	56
206	-190	-9
302	-379	-161
322	-460	-208
258	-432	-95
111	-344	-59
-100	-251	47
-350	-188	172
-584	-144	196
-740	-98	163
-740	-34	12
-561	37	-264
-245	95	-353
94	126	-270
333	136	-284
405	151	-193
314	183	-101
156	224	-1
29	233	54
-10	174	74
18	42	89
42	-134	69
9	-289	52
-76	-361	-29
-141	-322	-41
-104	-203	-32
56	-58	-5
275	53	9
428	108	34
411	116	34
228	113	1
-24	127	-2
-197	168	-34
-208	206	-36
-82	218	-31
51	180	24
56	100	60
-125	0	24
-402	-86	12
-611	-136	0
-610	-139	-47
-363	-98	-77
5	-29	1
324	47	68
444	110	48
355	142	-46
164	143	-129
15	121	-48
-6	96	10
74	80	-41
150	76	-23
124	65	-38
-15	29	-28
-189	-40	26
-285	-131	45
-242	-198	77
-99	-205	10
38	-136	-34
76	-17	-109
-2	93	-173
-108	137	-122
-126	92	-49
8	-16	-33
249	-129	-51
470	-185	9
528	-159	8
371	-76	-23
63	15	-77
-239	68	-65
-386	79	13
-328	67	2
-123	72	54
93	106	104
207	150	33
181	160	-37
63	100	-21
-53	-18	-62
-103	-156	-140
-68	-249	-39
17	-261	47
114	-202	43
211	-118	16
319	-61	-96
446	-57	-142
545	-98	-107
536	-138	-25
325	-142	19
-92	-96	8
-605	-13	-3
-1039	69	-84
-1194	130	-167
-1000	154	-213
-545	147	-205
-47	119	-56
269	72	-18
302	15	-5
111	-48	53
-111	-93	69
-182	-102	84
-31	-71	35
248	-19	49
484	20	82
522	11	86
334	-51	-24
20	-134	-117
-271	-187	-97
-421	-166	-13
-422	-64	84
-324	75	52
-193	197	51
-58	255	23
89	241	-52
245	188	-30
378	140	-20
415	132	-31
306	157	19
85	174	13
-161	149	-32
-290	62	-9
-243	-69	30
-50	-198	15
163	-280	-108
275	-289	-245
241	-232	-83
106	-136	11
-18	-36	-19
-46	53	56
34	123	-35
152	183	-72
224	235	-112
194	269	-72
87	279	0
-32	257	37
-104	200	45
-115	121	-27
-93	34	18
-77	-47	37
-77	-112	-28
-65	-154	-92
-5	-170	-16
114	-162	-34
258	-149	-15
350	-153	22
325	-199	33
169	-286	82
-65	-384	24
-277	-432	-1
-379	-368	-94
-319	-179	-165
-117	86	-127
166	323	-62
439	422	-51
623	333	-64
645	98	-107
478	-166	-72
144	-326	24
-300	-313	70
-744	-151	99
-1057	57	47
-1146	188	-3
-994	174	-40
-669	50	-99
-300	-99	-167
-3	-173	-192
148	-131	-102
181	-6	20
175	135	74
212	228	155
310	255	167
429	233	82
486	200	-43
435	161	-214
274	101	-257
59	-2	-182
-139	-145	-68
-287	-282	40
-360	-353	129
-371	-308	137
-312	-155	86
-182	48	40
10	228	-15
229	321	-66
391	318	-53
425	244	6
311	142	5
102	44	-7
-91	-35	-20
-182	-93	-28
-140	-119	-50
-32	-98	-70
43	-28	-48
17	71	-77
-95	155	-55
-205	183	-128
-210	142	-198
-63	72	14
183	46	-18
430	110	-18
561	266	149
533	435	135
373	519	144
166	435	8
-15	180	-54
-136	-173	-72
-191	-519	-109
-193	-766	-58
-143	-873	26
-38	-854	222
106	-744	303
245	-565	224
300	-322	-11
214	-37	-268
-13	249	-320
-300	455	-260
-523	497	-116
-569	359	-20
-410	98	63
-119	-154	97
179	-271	-13
345	-200	-120
320	-4	-193
128	178	-169
-130	218	-186
-350	71	-211
-465	-173	-181
-468	-371	-81
-393	-388	20
-303	-213	68
-227	45	117
-178	225	91
-150	209	29
-125	3	48
-89	-268	79
-23	-433	10
82	-388	32
222	-144	83
373	179	63
493	443	26
529	563	-111
454	550	-235
280	475	-177
78	408	-69
-90	353	-57
-176	268	-9
-181	118	42
-153	-78	56
-144	-236	47
-170	-254	2
-195	-98	-18
-156	169	-14
-11	410	-14
214	485	-15
435	356	-8
536	92	-9
456	-159	6
228	-273	4
-44	-228	-65
-229	-106	-77
-253	-39	-20
-138	-102	24
23	-279	141
133	-460	149
150	-523	29
98	-411	-23
54	-164	-67
75	103	-75
151	282	-92
222	330	-59
209	274	68
86	190	20
-111	135	-71
-299	118	-17
-392	100	93
-364	38	139
-247	-83	74
-103	-225	24
7	-325	-6
62	-337	-42
68	-249	-140
44	-106	-179
-1	26	-147
-68	91	-182
-153	61	-241
-228	-45	-294
-256	-187	-238
-215	-312	-163
-118	-386	-100
-23	-390	-6
14	-337	55
-26	-248	65
-106	-143	124
-145	-33	130
-79	92	13
96	244	-14
291	418	-16
398	579	-85
322	665	-76
76	625	8
-239	438	-76
-470	162	-97
-502	-110	-6
-331	-273	49
-44	-278	48
211	-164	26
328	-28	52
269	28	20
98	-32	-14
-95	-166	-25
-222	-275	-8
-240	-275	-32
-166	-154	-21
-39	28	65
101	174	97
236	218	68
363	170	32
476	100	-7
569	81	-48
636	140	-30
665	240	-2
648	299	3
583	274	43
458	181	49
253	96	22
-34	88	-51
-383	162	-116
-727	243	-72
-1008	209	-49
-1132	-11	-55
-1067	-393	-25
-839	-797	-21
-500	-1040	-28
-152	-1003	-37
139	-683	-44
328	-212	-99
409	215	-106
411	449	-60
363	445	-81
288	289	-71
202	129	-109
120	90	-65
63	202	9
48	399	20
79	557	127
127	574	203
158	408	218
122	97	204
8	-259	30
-166	-562	-194
-342	-727	-282
-452	-728	-298
-456	-590	-170
-352	-378	-70
-183	-160	-54
-13	-4	-61
109	57	-109
157	40	-32
141	-11	-4
103	-33	-46
84	4	13
107	98	-11
186	208	-51
288	279	87
387	287	142
446	243	152
428	187	145
319	163	-89
116	174	-201
-148	192	-25
-412	170	34
-605	81	96
-653	-57	103
-526	-189	-95
-267	-253	-88
27	-223	-156
230	-117	-253
265	-1	-207
133	74	-226
-71	87	-95
-216	68	28
-204	71	149
-27	130	248
222	244	189
415	359	112
454	421	10
336	389	-126
147	261	-193
-4	83	-91
-52	-104	-116
-20	-257	-135
10	-362	9
-30	-408	95
-153	-387	99
-281	-288	62
-325	-118	5
-232	79	-116
-34	221	-147
155	227	-108
226	61	-66
124	-232	-28
-90	-527	-37
-296	-677	-13
-361	-608	-1
-234	-355	11
31	-63	37
299	95	68
422	29	84
332	-212	62
52	-459	60
-295	-519	58
-565	-301	48
-659	129	15
-549	588	-22
-294	868	-116
2	874	-171
233	654	-100
342	369	-56
336	183	6
245	153	47
122	210	36
-8	219	19
-123	96	-76
-216	-133	-89
-271	-348	-104
-253	-416	-184
-137	-299	-140
81	-86	-84
352	67	-25
592	43	24
723	-149	54
677	-388	65
462	-498	63
144	-393	44
-162	-109	12
-363	207	-80
-402	394	-111
-288	382	26
-100	228	111
74	66	126
147	13	112
99	86	21
-38	204	-134
-181	251	-184
-253	161	-138
-217	-33	-62
-89	-225	6
61	-304	91
164	-238	60
172	-81	-55
90	63	16
-35	116	87
-138	71	78
-170	-5	99
-127	-34	-4
-31	20	-176
66	125	-309
130	204	-391
141	194	-324
110	87	-95
62	-56	61
24	-155	52
17	-151	-22
40	-47	-131
76	97	-130
96	211	9
79	248	110
24	208	138
-47	128	113
-101	53	-32
-116	11	-39
-89	-8	7
-53	-24	3
-45	-64	-63
-86	-135	-172
-163	-228	-113
-235	-322	7
-256	-390	135
-194	-410	162
-55	-368	63
133	-270	-47
338	-142	-80
531	-17	-116
678	65	-131
736	88	-99
671	53	-100
450	-4	-24
111	-46	30
-251	-49	37
-509	-19	41
-561	15	30
-412	25	17
-182	-3	11
-51	-45	2
-142	-69	9
-455	-50	47
-828	2	49
-1043	46	13
-959	40	-32
-562	-29	-80
-13	-126	-95
466	-189	-55
666	-160	12
558	-36	57
230	117	20
-126	217	-7
-354	201	20
-394	82	-54
-285	-59	-105
-111	-119	-58
54	-37	-21
172	156	19
260	357	53
339	450	72
417	382	80
476	194	28
493	-1	-108
449	-93	-182
346	-45	-142
215	85	-113
94	195	-58
22	198	97
13	87	130
54	-68	80
106	-173	52
120	-166	-35
65	-67	-35
-43	49	-77
-161	109	-83
-218	87	5
-174	19	-78
-43	-28	-122
113	-15	-46
206	45	-150
190	94	-192
65	75	-47
-96	-24	80
-219	-162	93
-255	-259	-17
-210	-263	-123
-139	-171	-114
-94	-24	-30
-103	116	48
-139	211	194
-156	265	155
-116	300	27
-16	330	-76
111	340	-246
216	290	-214
257	156	-76
221	-43	32
122	-238	61
3	-339	1
-85	-296	-84
-88	-137	-129
17	33	-187
206	85	-242
392	-61	-107
453	-387	-40
281	-766	-9
-127	-1038	30
-658	-1082	7
-1101	-887	47
-1205	-531	45
-1032	-170	82
-497	76	115
147	170	160
645	166	202
854	168	211
769	244	163
496	395	-9
182	534	-190
-100	561	-308
-336	435	-300
-540	190	-226
-692	-63	-121
-702	-206	-36
-500	-181	24
-86	-23	61
392	163	46
723	272	30
759	247	36
493	117	17
101	-33	13
-199	-117	23
-242	-93	-5
-58	17	5
192	150	28
327	241	59
273	262	12
107	222	-85
-23	155	-29
-18	96	15
100	54	13
202	32	1
175	13	-11
7	0	14
-191	-3	44
-271	7	70
-164	28	-36
69	40	-101
265	27	-92
296	-23	-98
131	-97	-157
-121	-169	-157
-320	-208	47
-374	-196	144
-299	-133	96
-189	-39	74
-121	57	16
-105	131	-98
-76	171	-177
32	174	-109
214	156	-154
390	122	-230
461	98	-137
378	93	-82
196	110	-35
26	152	78
-30	195	133
33	227	142
137	229	45
167	195	-89
78	128	-186
-95	35	-171
-236	-74	-68
-260	-192	-70
-165	-304	-18
-33	-401	98
14	-460	104
-87	-475	90
-304	-445	41
-522	-391	-65
-617	-346	-162
-511	-330	-182
-232	-343	-151
133	-351	-127
462	-319	-91
642	-226	-44
625	-95	26
409	14	82
58	38	58
-331	-48	77
-651	-196	120
-792	-309	10
-720	-278	-71
-459	-66	-25
-107	268	-59
221	596	-52
454	767	3
552	712	34
548	468	68
478	171	81
369	-30	65
199	-63	30
-41	40	-4
-325	170	-35
-571	207	-54
-689	110	-76
-610	-67	-38
-364	-211	24
-56	-232	26
171	-113	-16
237	70	-34
159	218	-22
46	260	24
17	203	122
126	118	134
324	70	93
484	81	57
506	106	-75
363	83	-279
124	-20	-331
-86	-170	-242
-170	-281	-137
-125	-288	-64
-21	-182	2
48	-31	-24
28	68	-24
-46	62	-1
-106	-26	-44
-75	-104	-45
52	-81	-22
222	75	64
342	294	147
358	453	164
269	453	192
123	275	45
-17	7	-192
-125	-226	-120
-187	-316	-121
-223	-249	-145
-233	-95	-91
-205	44	-91
-126	97	0
-8	62	64
110	-1	134
174	-22	155
154	31	115
63	140	30
-41	252	-76
-103	313	-170
-89	309	-290
-22	241	-387
44	129	-287
60	-19	-113
8	-211	-126
-83	-443	-78
-158	-681	37
-180	-866	67
-150	-935	123
-113	-838	124
-128	-611	87
-226	-322	32
-380	-58	1
-503	112	-11
-489	177	-58
-264	168	-56
148	131	-54
636	104	-24
1029	80	32
1151	43	80
957	-27	74
517	-114	11
18	-179	-10
-343	-173	-15
-472	-66	-23
-393	121	0
-267	341	15
-237	525	-16
-371	617	-27
-595	598	-23
-764	483	-61
-757	308	-103
-565	105	-25
-289	-90	32
-77	-262	21
-7	-386	38
-47	-432	46
-76	-381	-1
17	-234	-38
245	-21	-31
505	199	-63
641	357	-26
562	415	-5
294	372	-129
-14	273	-106
-199	179	5
-163	129	77
58	131	119
335	154	4
519	157	1
524	112	1
373	31	-97
153	-51	-104
-40	-108	-20
-159	-119	18
-205	-108	21
-205	-98	45
-182	-114	-97
-138	-151	-141
-68	-183	-76
18	-186	-24
102	-143	24
145	-69	-22
143	10	-133
116	62	-122
99	79	-53
116	66	-77
155	41	10
167	26	137
105	22	200
-42	29	160
-235	39	39
-400	45	-68
-484	48	-217
-463	46	-311
-375	39	-205
-262	22	-64
-150	-2	-12
-26	-25	-32
139	-30	-44
351	-1	3
566	64	-24
701	148	-30
681	214	-47
484	222	-35
161	135	21
-184	-41	41
-452	-277	32
-601	-515	-2
-641	-693	-101
-621	-780	-189
-569	-770	-56
-474	-682	-23
-308	-547	-74
-61	-384	-67
230	-201	-20
475	-1	48
580	199	41
506	362	71
301	443	70
63	414	48
-111	287	40
-173	117	20
-162	-28	18
-168	-98	17
-260	-80	7
-434	-4	-9
-605	77	-34
-645	132	-79
-470	161	-54
-71	186	8
431	227	6
879	279	-3
1127	322	-8
1114	316	-21
869	253	-37
490	153	-18
75	53	59
-295	-14	93
-589	-38	95
-805	-37	28
-926	-34	-55
-923	-36	-134
-774	-39	-117
-481	-23	8
-97	14	-42
287	60	-16
554	90	13
648	87	-107
581	59	-166
428	34	-96
284	34	37
219	59	-5
230	85	-83
250	77	-39
205	12	-24
64	-88	-57
-130	-183	-9
-291	-224	65
-329	-190	93
-217	-102	81
-12	-2	124
172	63	69
248	81	-212
193	61	-282
63	36	-170
-40	29	-81
-55	43	-121
13	70	-178
99	91	-44
123	98	40
54	93	70
-68	91	3
-172	97	-51
-188	112	-27
-108	130	-47
18	138	-77
115	123	-44
140	65	24
106	-46	24
65	-217	3
69	-421	-27
127	-604	-9
198	-703	23
207	-668	23
102	-495	33
-132	-246	26
-425	-11	27
-675	114	45
-766	91	-23
-632	-49	-142
-299	-224	-106
122	-334	-62
439	-322	-81
495	-187	-31
228	17	1
-267	224	36
-766	372	44
-1043	437	23
-944	417	20
-502	328	18
111	197	4
632	60	-8
872	-37	-7
809	-63	6
544	-2	13
255	112	-6
48	209	-34
-64	211	-72
-161	83	-84
-310	-136	-66
-497	-346	-50
-634	-433	14
-600	-338	81
-345	-90	11
68	195	-75
498	392	10
793	422	20
861	301	-102
723	119	-47
476	-21	72
222	-67	101
26	-41	46
-97	-16	-24
-164	-40	-21
-189	-124	-127
-176	-204	-126
-115	-206	-7
-19	-96	43
85	94	162
150	275	217
153	368	-9
102	335	-316
36	218	-303
1	89	-288
17	11	-198
71	1	-59
125	21	-64
140	22	-13
97	-33	6
-6	-131	-6
-144	-224	-26
-288	-261	-12
-401	-225	32
-459	-133	94
-437	-29	178
-330	49	246
-156	89	124
41	101	-70
201	106	-108
280	130	-166
275	174	-135
210	239	-50
140	305	-113
106	358	-107
120	373	-90
163	332	-108
209	215	-51
245	40	43
283	-152	89
340	-297	24
399	-336	8
411	-253	-150
310	-92	-312
55	57	-248
-324	91	-140
-726	-45	-36
-994	-332	69
-1023	-669	112
-796	-922	91
-411	-987	110
-33	-826	126
194	-498	130
190	-125	90
-1	162	-14
-273	274	-53
-480	200	-39
-545	-2	-47
-451	-226	-57
-247	-370	-36
-7	-376	24
225	-238	15
411	-11	-18
541	241	13
604	449	24
575	574	22
446	605	18
229	553	-6
-16	449	-61
-210	318	-103
-285	191	-68
-211	92	-25
-19	32	-18
219	10	34
413	12	82
496	16	47
449	12	-12
288	2	-24
66	-2	-39
-168	16	-90
-371	62	-69
-497	122	-6
-538	161	51
-497	150	57
-402	89	59
-292	-4	-79
-197	-86	-306
-122	-123	-219
-40	-104	-78
93	-48	-38
280	10	-4
498	49	-12
677	58	38
724	56	71
620	55	85
382	63	51
110	74	24
-95	67	24
-174	39	-57
-128	-6	-9
-10	-48	93
116	-74	109
206	-70	150
251	-46	190
251	-11	19
202	38	-203
83	102	-251
-119	181	-337
-389	255	-351
-647	287	-207
-811	239	-66
-798	97	16
-605	-103	-38
-280	-286	37
71	-376	138
342	-338	59
476	-205	10
462	-72	-32
332	-41	-153
147	-156	-169
-35	-379	-97
-145	-590	-105
-150	-677	-99
-42	-563	-3
124	-278	75
261	66	-66
273	341	-68
113	458	2
-174	408	29
-481	252	45
-663	78	-27
-638	-59	-8
-426	-159	-20
-129	-233	-5
144	-298	-48
336	-326	-113
446	-276	-79
519	-120	-22
566	106	34
540	318	78
368	406	70
8	315	32
-470	79	44
-896	-192	-17
-1095	-361	-134
-962	-353	-138
-538	-192	-84
26	22	-43
527	170	4
809	198	28
839	132	90
671	65	90
396	77	100
67	180	124
-279	311	81
-603	370	60
-842	289	26
-923	81	-35
-789	-169	-132
-472	-348	-93
-63	-387	94
283	-280	87
472	-92	10
496	98	-80
411	234	-168
317	301	-88
262	323	-54
257	324	-53
270	313	-104
284	279	-75
299	214	-50
328	118	-56
368	11	42
375	-77	57
306	-123	120
136	-123	113
-92	-87	59
-285	-33	-72
-366	24	-178
-305	74	-23
-157	113	18
-14	130	-56
50	122	-24
27	83	21
-26	19	46
-35	-50	80
40	-110	60
176	-141	-111
306	-145	-158
355	-126	-114
297	-103	-151
154	-84	-93
-15	-77	-144
-153	-78	-107
-232	-79	-116
-253	-67	-37
-237	-35	108
-208	23	138
-177	99	68
-140	178	-140
-89	239	-18
-17	260	54
68	228	3
150	147	-215
192	27	-228
166	-116	-51
54	-263	-85
-119	-400	20
-305	-504	-25
-433	-551	-65
-436	-510	-105
-300	-376	-131
-61	-157	-97
193	92	-74
363	291	9
388	372	39
254	311	60
26	126	37
-218	-110	32
-392	-313	11
-468	-429	-7
-444	-457	-17
-366	-425	-27
-275	-373	-13
-187	-314	9
-91	-229	69
30	-88	108
180	114	123
335	338	93
439	505	44
456	557	11
363	471	10
192	299	70
7	129	105
-125	49	72
-161	82	-40
-115	188	-143
-43	282	-154
-23	298	-165
-101	210	-142
-270	58	-93
-469	-90	-54
-599	-188	0
-581	-224	24
-393	-235	24
-80	-262	48
278	-322	24
558	-393	-130
676	-409	-149
604	-322	-64
371	-119	-26
66	155	119
-212	416	109
-366	578	44
-333	591	131
-120	465	81
206	261	-140
530	76	-251
732	-36	-80
732	-45	-30
539	15	-109
237	85	-179
-56	110	-192
-225	64	65
-239	-34	124
-144	-150	130
-38	-230	190
-2	-249	86
-60	-209	40
-175	-126	-4
-271	-32	-28
-296	56	-58
-232	128	-109
-112	179	-234
15	203	-248
111	193	-200
160	139	-126
170	44	19
147	-71	53
101	-181	81
34	-246	44
-40	-246	-84
-104	-178	-170
-149	-64	-158
-169	46	-164
-182	112	-72
-209	93	-27
-242	-18	-52
-250	-190	0
-178	-372	8
12	-485	34
299	-481	39
599	-332	65
780	-72	95
736	229	89
435	492	2
-41	643	4
-524	648	12
-837	522	-65
-872	305	-10
-645	60	52
-280	-159	41
62	-313	-10
239	-391	-9
216	-391	16
51	-338	3
-136	-257	-39
-245	-183	-55
-232	-142	-52
-120	-141	-47
24	-170	-58
151	-192	-40
233	-184	-13
284	-122	-45
332	-16	-20
373	100	-22
380	189	-45
314	215	-14
163	180	37
-42	103	30
-247	28	2
-378	-14	19
-407	-15	34
-361	14	63
-286	39	42
-235	38	-19
-215	2	-66
-203	-47	-105
-156	-78	-168
-54	-63	-129
72	6	-40
183	112	60
234	228	86
218	316	-104
170	356	-135
131	341	-62
124	275	-20
138	171	70
148	45	102
123	-86	-12
64	-200	-222
-12	-278	-204
-82	-304	-20
-137	-275	85
-187	-196	37
-231	-86	-54
-245	48	-17
-191	195	11
-37	341	-79
199	461	-49
447	525	101
608	494	240
605	359	322
428	145	196
150	-93	-33
-109	-289	-165
-259	-394	-273
-282	-411	-452
-228	-361	-356
-166	-296	-165
-144	-232	-40
-150	-161	69
-125	-49	52
-23	119	39
154	317	-12
342	469	24
459	492	11
435	337	-27
276	41	34
46	-288	125
-153	-519	130
-256	-565	7
-249	-426	-74
-178	-201	-119
-124	-27	-115
-137	-5	-149
-229	-148	-137
-343	-368	-135
-410	-527	-150
-378	-527	-69
-243	-342	22
-65	-52	76
69	211	56
91	339	61
-11	296	3
-186	137	-16
-333	-29	60
-369	-116	41
-256	-94	30
-26	-1	69
242	85	9
472	112	-44
590	77	-53
569	32	-24
435	32	37
224	106	-24
1	229	-95
-169	334	-47
-222	362	0
-133	292	-32
66	153	-55
292	-1	-52
429	-110	-65
392	-157	-40
159	-151	-62
-185	-126	-52
-518	-115	11
-720	-119	38
-726	-126	34
-577	-113	21
-353	-66	40
-145	6	1
7	95	63
115	169	185
211	218	121
320	233	-14
421	215	-100
470	179	-185
428	130	-251
291	83	-189
106	38	-111
-61	2	-39
-160	-31	-48
-170	-60	-31
-116	-80	20
-45	-84	17
1	-63	36
10	-23	24
-2	26	31
-4	65	21
25	72	-22
86	51	-16
143	17	101
164	-1	112
125	14	64
46	62	-45
-21	109	-142
-17	108	-113
92	31	-136
267	-121	-51
423	-300	66
436	-443	40
244	-484	-4
-135	-406	-59
-576	-234	-223
-903	-27	-290
-991	144	-238
-809	236	-173
-448	230	-113
-53	150	-30
242	35	84
373	-77	111
373	-157	84
309	-192	52
245	-181	91
206	-122	70
170	-23	39
111	102	56
28	228	65
-59	319	49
-126	341	-3
-162	272	18
-172	111	51
-167	-106	42
-147	-322	0
-103	-475	-6
-33	-512	-182
37	-426	-279
71	-248	-107
30	-45	-86
-68	110	-66
-178	171	-15
-223	138	8
-164	46	19
-30	-45	30
104	-90	-6
161	-59	-66
126	33	-43
52	154	-124
26	265	-225
104	338	-111
261	358	-5
407	332	-4
451	267	34
346	181	47
147	93	93
-52	17	70
-157	-32	89
-152	-54	143
-84	-58	55
-37	-57	-19
-60	-70	24
-138	-97	11
-208	-130	-112
-201	-148	-182
-101	-131	-177
64	-74	-37
234	16	-44
371	114	-18
459	196	62
498	239	79
484	243	83
391	209	-9
184	160	32
-128	104	-1
-494	47	-72
-792	-13	-107
-923	-87	-62
-849	-170	-101
-610	-248	-201
-310	-292	-164
-54	-281	-125
86	-202	-28
122	-77	60
100	51	112
72	126	49
57	108	-17
44	-4	-43
16	-170	-38
-21	-326	-9
-43	-411	-53
-22	-393	-50
56	-295	-32
169	-162	19
276	-48	69
346	13	70
378	24	112
381	25	119
363	45	-14
320	103	-211
211	174	-219
14	221	-34
-271	204	76
-579	122	69
-797	11	84
-822	-80	49
-605	-106	1
-186	-63	-25
299	15	-64
688	83	-81
825	110	-89
688	104	-102
329	101	-99
-68	136	-101
-342	210	-111
-394	279	-108
-247	290	-96
-13	195	-38
166	17	-12
183	-179	-26
49	-300	-20
-150	-296	-9
-281	-181	-17
-270	-29	7
-126	67	59
59	61	97
175	-33	152
166	-142	78
40	-190	-57
-112	-141	-11
-206	-21	-18
-185	100	22
-67	166	132
87	154	84
212	97	-63
266	44	-124
261	35	-7
216	72	-8
172	125	7
132	163	37
89	169	-181
30	162	-358
-42	162	-315
-109	178	-141
-150	195	-72
-147	181	16
-104	118	51
-48	6	-40
-5	-121	-121
4	-230	-188
-20	-303	-82
-58	-343	20
-89	-372	56
-95	-393	98
-75	-400	113
-42	-355	124
-20	-245	123
-24	-85	135
-64	70	56
-124	150	-59
-183	120	-57
-221	-6	-77
-222	-153	-103
-189	-233	-56
-129	-192	-91
-46	-44	-54
57	132	3
191	244	-16
354	238	11
534	127	21
701	-4	15
819	-59	35
831	26	47
705	237	13
411	477	-12
-15	627	-45
-515	595	-46
-983	353	-27
-1286	-31	-37
-1259	-434	-19
-1151	-732	-2
-822	-837	0
-383	-732	-19
19	-482	-76
300	-174	-74
459	92	-36
541	261	-100
583	319	-109
592	290	-86
537	215	-44
378	137	-13
127	70	-16
-150	18	17
-344	-21	5
-377	-53	38
-259	-72	32
-78	-78	5
52	-57	-8
69	-18	-58
0	36	-56
-58	98	41
-2	158	83
184	209	-16
423	243	-3
580	250	69
548	224	19
328	162	3
16	81	-18
-237	-3	-43
-331	-65	-19
-263	-98	-165
-122	-102	-102
-17	-87	127
-5	-69	-32
-71	-53	-153
-137	-40	-166
-142	-17	-83
-70	19	-2
29	60	12
93	90	47
86	89	-114
24	51	-186
-42	-10	-142
-79	-72	-43
-79	-113	-14
-83	-118	-37
-124	-94	-19
-195	-65	-33
-257	-52	-31
-245	-65	17
-133	-93	25
50	-115	-44
238	-115	-8
353	-89	72
373	-52	142
333	-29	176
286	-33	152
272	-57	119
278	-77	-2
248	-63	-106
128	-8	-165
-87	70	-176
-344	136	-101
-546	153	-60
-619	106	-69
-545	28	-31
-359	-39	-30
-142	-57	-46
41	-18	-74
155	46	-103
198	96	-121
179	92	-116
109	40	-36
-2	-37	-22
-139	-102	15
-260	-142	31
-325	-171	9
-312	-210	21
-233	-268	25
-130	-319	39
-55	-318	24
-39	-233	16
-58	-66	9
-69	128	6
-34	279	14
46	331	10
140	272	-13
193	147	13
182	27	36
130	-30	63
90	-6	118
105	80	74
175	179	-9
255	253	-74
288	274	-174
250	236	-273
167	140	-120
107	8	36
125	-133	14
221	-243	10
325	-276	3
340	-216	-70
204	-79	-141
-59	77	-69
-355	179	-26
-547	182	7
-550	85	28
-369	-52	-58
-101	-149	-124
120	-148	12
214	-52	173
167	80	155
44	168	106
-65	150	26
-111	35	-164
-94	-124	-353
-53	-242	-319
-24	-263	-92
-13	-174	281
8	-14	442
67	151	343
162	272	196
249	330	-104
280	332	-530
216	301	-609
71	256	-341
-103	193	-196
-242	104	-34
-310	-15	-55
-308	-157	34
-262	-289	171
-191	-391	163
-97	-433	182
32	-416	74
187	-355	-13
332	-278	-131
401	-208	-187
346	-152	-182
180	-101	-104
-34	-38	-31
-191	53	-3
-231	174	15
-156	301	29
-46	396	79
-14	421	63
-118	359	37
-335	225	32
-561	56	7
-665	-98	-11
-568	-201	41
-285	-249	22
84	-253	-21
407	-238	-1
592	-219	86
611	-186	130
506	-118	84
355	-6	46
216	127	-43
124	230	-124
63	241	-139
7	123	-93
-57	-98	-43
-129	-353	-46
-193	-536	-71
-228	-563	-90
-229	-413	-104
-198	-142	-91
-148	140	-12
-87	337	22
-22	385	58
35	300	-27
71	154	-118
75	38	3
46	12	-21
9	79	-81
0	197	-8
48	300	52
158	338	20
284	299	23
355	202	19
308	88	8
128	-15	28
-123	-85	56
-342	-122	26
-432	-130	-56
-361	-110	21
-184	-67	4
-1	-11	-3
91	40	42
65	70	-9
-26	64	-82
-87	32	-331
-47	-4	-320
93	-25	-43
260	-23	-9
350	-5	26
306	7	105
135	-7	93
-74	-42	-92
-226	-81	-246
-258	-94	-155
-168	-62	-123
-18	6	-48
129	89	5
222	154	-21
245	179	31
207	158	82
116	99	107
-19	20	108
-189	-68	86
-352	-154	-22
-452	-232	-33
-436	-286	54
-288	-296	49
-55	-249	54
180	-150	52
318	-22	-60
313	94	-211
181	160	-245
5	162	-189
-135	112	-142
-193	39	-82
-173	-17	-62
-114	-42	-4
-52	-38	48
-3	-25	74
42	-23	69
90	-37	44
129	-66	44
128	-102	11
67	-141	13
-40	-186	46
-150	-232	48
-200	-262	4
-161	-248	-17
-49	-160	-65
78	7	-78
163	215	-77
181	402	-76
147	488	-69
103	433	-69
76	256	-23
61	23	-8
35	-178	-10
-15	-286	-23
-63	-283	14
-59	-209	28
44	-112	-45
234	-31	-24
435	25	-12
531	79	-95
438	138	-25
154	210	14
-229	265	-80
-569	273	-67
-768	217	-57
-779	112	-54
-654	-9	-64
-477	-112	-63
-303	-176	-31
-156	-203	9
-10	-207	46
139	-199	38
273	-184	66
344	-150	66
306	-88	102
167	-1	123
-10	93	67
-133	168	94
-147	194	-5
-53	161	-210
81	72	-187
170	-43	-33
175	-149	2
117	-204	-14
54	-189	21
45	-105	1
102	18	-78
182	129	-162
222	181	-135
186	152	-106
84	55	-78
-31	-65	60
-105	-157	85
-105	-179	60
-48	-119	20
29	6	-64
94	164	-130
132	319	-118
154	431	-58
159	483	34
148	449	152
107	323	164
36	121	170
-44	-112	13
-105	-322	-266
-113	-453	-289
-77	-473	-167
-24	-401	-76
-2	-277	-16
-36	-157	-9
-109	-70	50
-181	-16	30
-204	28	-83
-161	89	-121
-66	164	-173
33	233	-71
102	254	-17
123	215	-28
105	126	45
65	8	14
19	-99	-14
-25	-181	-4
-70	-237	26
-113	-275	-29
-141	-301	38
-153	-299	116
-139	-252	-8
-109	-153	-84
-69	-22	-147
-32	98	-140
3	166	-79
28	159	-44
34	88	11
7	-5	48
-64	-74	63
-165	-94	74
-250	-58	74
-257	8	43
-141	76	37
86	123	27
355	138	10
562	122	-18
604	79	-64
449	22	-75
151	-28	-50
-161	-52	-3
-364	-33	-33
-392	18	-78
-271	74	-57
-91	92	12
45	42	26
93	-70	17
81	-200	18
86	-276	-62
172	-246	-45
314	-102	-7
428	105	-19
384	295	37
131	395	56
-281	380	58
-695	284	53
-909	171	5
-818	99	-40
-437	85	-100
69	103	-157
493	106	-151
671	64	-159
560	-21	-128
260	-112	-22
-78	-168	-130
-298	-167	-119
-350	-124	56
-263	-81	94
-136	-71	94
-46	-107	81
-26	-167	140
-53	-208	134
-77	-202	107
-55	-141	42
17	-54	-49
110	20	-188
183	53	-284
207	39	-230
180	2	-209
129	-28	-164
86	-26	-198
68	11	-206
69	59	-60
62	91	21
24	79	1
-44	24	19
-105	-55	102
-112	-123	102
-25	-145	67
147	-111	91
335	-24	164
455	84	210
439	182	141
280	244	26
41	264	-60
-180	244	-205
-296	190	-226
-288	109	-122
-195	3	-93
-96	-121	-4
-42	-249	65
-48	-358	48
-82	-413	83
-101	-394	141
-99	-305	75
-99	-163	-44
-136	-7	-103
-228	119	-168
-335	189	-215
-389	197	-181
-333	155	-97
-156	85	-34
87	10	8
313	-42	13
429	-59	32
405	-39	38
278	18	4
121	93	-14
6	160	5
-37	188	39
-27	161	17
-8	80	31
-22	-25	62
-76	-100	24
-141	-101	43
-182	-6	81
-170	155	54
-113	317	24
-43	398	-37
3	340	-19
12	149	-115
-1	-112	-281
0	-337	-184
42	-441	-119
127	-388	-90
224	-222	-1
284	-38	32
278	66	20
201	39	9
83	-99	-32
-40	-277	-96
-150	-401	-41
-237	-413	-87
-310	-313	-115
-371	-149	15
-405	11	15
-388	110	5
-306	134	30
-178	101	47
-38	51	31
76	22	44
145	26	70
186	47	57
228	68	60
288	78	69
358	75	50
407	85	-84
407	125	-32
363	204	24
312	298	-180
297	362	-291
326	354	-205
355	256	-92
300	87	-117
95	-94	-74
-255	-218	-14
-654	-240	-6
-950	-157	1
-1004	-15	-26
-784	110	-15
-372	168	26
71	135	77
383	43	91
470	-57	120
368	-117	91
181	-121	-40
38	-89	-170
1	-52	-133
49	-37	-56
110	-38	-78
107	-33	-45
26	1	14
-93	63	7
-178	121	-130
-181	138	-150
-112	90	-13
-21	-4	2
38	-96	9
42	-125	55
19	-68	72
15	51	111
59	178	137
133	237	137
189	201	145
171	84	91
75	-60	-107
-57	-176	-201
-156	-238	-243
-172	-256	-307
-108	-268	-241
-18	-291	-85
29	-322	31
1	-320	15
-86	-258	56
-165	-130	87
-170	21	60
-76	135	12
96	170	4
279	119	-21
407	29	-18
435	-35	-19
357	-35	-44
196	26	-17
-5	98	-77
-207	124	-37
-383	70	-4
-494	-43	7
-529	-162	45
-481	-228	77
-357	-203	67
-182	-102	43
21	33	32
214	149	-69
363	214	-60
439	229	35
414	209	104
273	182	83
37	158	-30
-227	137	-135
-436	110	-253
-525	71	-309
-459	20	-249
-295	-42	-108
-105	-102	-24
22	-154	12
47	-183	33
3	-188	74
-41	-160	100
-24	-101	33
74	-23	-61
210	58	-88
317	126	-79
351	166	-29
314	168	86
245	131	77
195	59	12
172	-36	-9
159	-133	-127
119	-201	-196
39	-207	-195
-59	-140	-182
-130	-13	-55
-139	129	18
-93	225	68
-28	239	162
4	164	217
-16	43	209
-68	-59	86
-104	-98	-222
-84	-59	-297
-6	22	-120
101	96	-80
190	119	26
226	95	61
198	43	56
122	-4	39
15	-35	13
-107	-60	28
-217	-97	45
-287	-143	63
-281	-171	-32
-180	-145	-159
0	-48	-185
205	92	-119
355	208	-121
398	235	-61
324	143	-15
178	-22	16
28	-179	47
-82	-249	20
-148	-200	30
-201	-85	6
-273	15	9
-369	27	20
-451	-60	27
-473	-188	49
-392	-265	112
-208	-233	179
46	-93	155
325	90	48
553	230	-77
679	276	-177
655	236	-157
455	160	-136
107	105	-145
-317	96	-117
-672	114	-75
-836	115	-10
-744	68	-32
-445	-19	6
-79	-122	-49
195	-196	-70
255	-227	-61
118	-210	-133
-109	-168	-92
-267	-113	-99
-269	-45	-118
-118	33	-72
86	117	-3
234	174	-35
267	179	-12
209	106	70
129	-32	127
81	-191	172
68	-316	63
55	-361	-46
-1	-319	-101
-97	-211	-157
-180	-81	-123
-185	41	-53
-91	137	5
67	200	121
216	233	125
302	230	60
324	201	24
330	160	-28
373	126	-121
444	125	-130
475	162	-34
371	224	-28
104	275	-13
-256	286	-60
-569	241	-38
-669	147	38
-524	35	-17
-202	-71	-72
121	-157	-37
301	-222	54
300	-270	15
184	-304	3
80	-316	18
60	-289	21
113	-219	-6
139	-107	-25
58	33	-25
-137	168	-82
-354	266	-36
-470	294	29
-401	229	57
-181	69	69
79	-150	63
238	-371	-23
222	-519	-64
57	-540	-59
-156	-427	-127
-309	-227	-90
-347	-20	-2
-280	117	-43
-168	150	-24
-70	101	9
-27	26	-79
-36	-23	-116
-78	-25	-90
-110	4	-76
-101	33	-31
-26	43	27
117	43	52
289	67	51
432	124	22
481	201	-79
399	252	-119
212	237	4
2	153	1
-132	41	-101
-139	-28	-169
-35	-14	-135
101	81	-57
175	194	15
145	250	125
32	204	71
-91	78	1
-151	-60	-38
-123	-142	34
-46	-131	96
15	-56	70
12	18	49
-48	39	-75
-118	-7	-103
-140	-77	-28
-89	-114	-6
9	-84	-111
105	3	-299
157	95	-188
156	139	10
129	114	-10
109	44	70
112	-21	49
122	-43	41
107	-20	-15
34	24	-62
-92	47	-16
-242	23	-54
-369	-31	0
-419	-90	-22
-366	-116	25
-214	-102	56
1	-61	16
215	-26	2
363	-14	0
392	-25	-27
287	-51	-6
94	-76	49
-110	-94	-40
-236	-113	-51
-228	-137	-38
-97	-171	-41
84	-202	-34
224	-222	-11
248	-223	7
133	-209	32
-80	-192	68
-319	-170	22
-496	-129	-16
-561	-47	-15
-496	86	-80
-330	256	-178
-113	416	-201
93	505	-231
229	480	-192
258	333	-68
186	110	9
54	-117	74
-77	-281	112
-156	-346	68
-160	-320	53
-110	-246	48
-46	-173	32
3	-127	3
36	-104	-17
77	-71	17
148	2	-16
241	120	4
324	260	76
346	372	-8
297	416	-80
195	372	-60
96	260	-88
44	125	-124
39	11	-71
38	-52	-46
-16	-80	-58
-142	-96	-24
-299	-131	-36
-389	-190	-17
-333	-249	-4
-112	-267	-74
200	-212	-112
484	-81	-33
628	92	-2
581	251	46
383	339	172
127	336	205
-76	248	228
-167	123	205
-158	6	-1
-98	-66	-299
-48	-95	-256
-51	-95	-142
-104	-98	-187
-172	-119	-88
-212	-139	-52
-193	-135	14
-112	-72	-11
13	53	-77
133	213	-18
210	352	8
214	406	31
144	345	5
27	174	-4
-99	-42	-35
-195	-238	-80
-247	-354	-119
-257	-370	-134
-246	-309	-126
-229	-223	-26
-210	-158	144
-176	-129	126
-103	-123	90
26	-106	3
211	-46	-88
411	57	-115
569	179	-116
619	268	-2
498	289	71
203	225	60
-218	90	20
-644	-71	-67
-944	-224	-126
-1016	-322	-27
-837	-368	-27
-480	-357	-28
-84	-308	-12
193	-235	-48
283	-152	15
205	-75	0
69	-15	-26
-7	7	-50
36	-9	-4
170	-55	22
296	-111	-14
326	-141	-40
228	-122	-100
62	-40	-110
-82	88	-103
-125	228	-46
-76	342	3
0	400	28
19	390	47
-46	327	57
-149	241	63
-191	165	40
-96	120	-4
133	109	-66
406	114	-68
589	112	-62
590	81	-11
404	15	-13
125	-79	-65
-115	-173	10
-226	-237	44
-188	-249	75
-58	-199	60
68	-98	30
130	30	48
109	154	91
38	240	144
-42	265	68
-111	222	-6
-165	122	-95
-214	-13	-263
-250	-147	-306
-251	-251	-205
-188	-300	-16
-57	-286	22
107	-221	6
248	-123	-74
308	-27	-149
273	43	-14
172	78	-70
70	71	-126
9	39	-170
-4	-2	-84
-9	-31	130
-56	-33	221
-172	0	210
-325	54	63
-459	112	-44
-487	151	-166
-383	150	-218
-164	110	-158
93	39	-120
311	-35	-13
446	-88	91
498	-103	59
491	-76	-6
451	-21	-13
375	48	-69
244	110	-160
29	161	-64
-257	189	26
-545	189	61
-743	162	55
-774	105	-38
-607	32	-61
-292	-48	-103
57	-117	-113
318	-166	-5
417	-189	61
344	-185	77
167	-158	28
-22	-113	-22
-152	-62	-16
-185	-29	-12
-142	-40	29
-61	-123	17
20	-268	6
83	-441	28
122	-572	1
136	-602	-7
119	-498	-10
72	-291	-11
22	-51	-25
7	150	-65
67	269	-119
208	312	-123
382	313	-64
498	319	-55
468	335	-12
248	335	48
-125	282	26
-532	166	7
-832	20	45
-934	-97	4
-787	-127	-62
-459	-62	-23
-32	62	-33
363	183	-32
626	249	-7
701	252	6
581	221	0
326	197	12
19	195	57
-225	194	74
-329	155	59
-280	47	37
-125	-109	7
45	-263	-86
155	-349	-132
164	-334	-134
97	-238	-127
8	-114	-84
-44	-20	-16
-40	24	-30
4	33	-112
53	46	-156
77	93	-45
67	162	64
34	214	97
-6	205	129
-44	122	46
-78	-8	55
-103	-137	100
-117	-216	3
-117	-229	-103
-101	-194	-145
-78	-149	-248
-46	-112	-298
-7	-86	-92
48	-52	-26
125	8	-21
203	87	54
254	161	-24
245	197	-7
165	183	58
41	136	43
-72	91	68
-126	79	46
-106	99	-12
-45	123	-96
-9	110	-273
-44	39	-282
-156	-80	-120
-286	-205	-21
-366	-286	4
-340	-297	15
-206	-246	40
-6	-170	38
201	-107	47
358	-76	60
439	-65	64
431	-53	108
334	-22	133
157	22	125
-67	51	69
-285	42	-12
-418	-13	-101
-426	-101	-122
-317	-184	-114
-162	-236	-141
-54	-241	-116
-51	-207	11
-133	-144	104
-214	-61	87
-186	41	79
-5	168	2
279	295	-112
546	392	-127
642	418	-114
504	351	-154
156	202	-189
-267	12	-89
-618	-162	-35
-792	-280	-13
-753	-332	56
-552	-338	62
-274	-315	52
-16	-270	-2
170	-192	-6
269	-58	19
295	130	62
273	343	91
239	523	65
216	611	82
222	580	61
255	449	-34
302	261	-62
345	72	33
352	-81	43
302	-190	20
184	-262	-85
11	-301	-218
-178	-302	-227
-329	-260	-160
-392	-177	-75
-344	-70	-29
-202	27	60
-15	90	77
155	114	111
262	112	149
301	110	28
283	122	-16
234	135	-19
167	124	-270
82	68	-368
-25	-24	-202
-139	-129	-75
-230	-202	30
-256	-218	26
-209	-182	-26
-110	-121	-5
-16	-72	48
26	-51	24
5	-46	-16
-45	-31	-8
-65	21	-32
-20	110	-105
78	212	-82
166	285	-5
175	301	41
86	261	98
-68	181	130
-205	90	64
-242	11	-28
-163	-55	-45
-20	-122	-75
86	-196	-67
90	-281	-46
-15	-348	-39
-148	-365	-82
-207	-313	-97
-132	-186	-60
60	-17	-86
279	143	-27
428	241	-18
439	244	-47
338	156	-29
183	7	22
45	-151	94
-56	-269	112
-159	-322	112
-308	-320	74
-509	-279	8
-707	-235	-60
-799	-207	-103
-708	-198	-139
-431	-195	-132
-51	-174	-86
280	-118	-12
449	-18	56
417	121	46
249	279	35
62	431	-33
-38	550	-84
-11	605	-76
101	579	-72
209	480	-23
231	321	32
138	131	112
-35	-46	158
-209	-185	124
-304	-260	81
-277	-270	5
-137	-223	-132
63	-137	-275
255	-47	-312
365	28	-172
363	68	-74
257	71	-74
86	44	-25
-90	9	-22
-225	-17	34
-287	-23	12
-279	-15	-5
-217	-13	95
-125	-31	124
-21	-78	149
86	-135	86
184	-179	95
258	-178	53
288	-121	-85
262	-21	-89
190	95	-46
95	183	3
17	225	56
-10	213	-61
21	161	-359
92	95	-371
158	31	-194
180	-22	-141
132	-64	4
29	-101	35
-97	-126	39
-201	-137	23
-245	-124	-42
-222	-87	-115
-139	-35	-121
-35	13	7
56	38	14
113	38	142
124	25	186
106	26	131
71	55	125
32	109	79
-10	158	83
-64	154	30
-126	72	-31
-176	-80	-90
-182	-246	-92
-115	-346	-186
20	-317	-179
180	-152	-14
291	89	-2
299	313	2
194	428	11
34	400	23
-96	253	59
-139	69	18
-98	-85	8
-40	-182	-101
-49	-233	-231
-170	-281	-169
-361	-345	-141
-534	-413	-112
-581	-438	-23
-472	-388	15
-250	-268	26
-20	-125	-42
123	-26	-77
154	-2	-47
111	-39	-8
71	-71	34
90	-38	49
169	81	76
263	244	74
338	377	41
366	409	7
355	330	-12
314	190	24
229	70	22
69	27	47
-174	65	29
-470	134	-46
-705	171	-72
-768	141	-85
-581	55	-43
-186	-38	-19
287	-95	-4
669	-95	-14
811	-60	33
693	-25	75
389	-15	17
49	-31	-35
-199	-50	-80
-307	-61	-123
-287	-57	-167
-215	-60	-122
-154	-81	-51
-141	-120	-20
-170	-150	-7
-211	-139	21
-226	-76	32
-180	31	16
-61	142	49
122	219	58
332	240	-107
506	207	-172
569	141	-16
481	63	-72
252	-13	-42
-34	-84	117
-255	-138	169
-318	-162	130
-191	-137	41
50	-62	64
280	38	-56
374	123	-154
285	161	-34
57	141	-88
-202	89	-263
-370	46	-252
-392	43	-134
-300	76	-51
-166	106	-64
-68	95	-90
-36	25	-97
-54	-82	-50
-79	-183	31
-82	-237	76
-68	-245	74
-60	-230	13
-75	-230	-11
-96	-257	-16
-98	-286	-109
-61	-272	-192
2	-181	-79
54	-24	24
65	147	30
38	265	-32
15	294	-32
51	250	48
161	179	9
299	135	43
373	121	65
311	101	85
100	14	105
-186	-161	77
-422	-384	10
-515	-564	9
-448	-599	57
-289	-449	-37
-130	-162	-54
-28	153	-32
25	372	3
85	438	13
202	372	14
373	261	36
537	203	-14
625	244	-76
592	351	-92
462	445	-57
291	449	-92
132	331	-99
1	129	-80
-137	-83	-21
-305	-232	0
-485	-288	-10
-619	-261	-28
-644	-196	-97
-532	-140	-96
-324	-114	-83
-110	-121	-18
25	-151	-35
58	-183	-41
39	-207	-49
42	-207	-86
120	-179	-14
258	-129	10
383	-74	38
429	-39	55
360	-47	24
212	-99	24
45	-165	48
-96	-200	48
-208	-160	105
-315	-35	132
-442	143	97
-556	316	86
-595	420	-30
-491	433	-118
-233	370	-78
104	272	-130
403	185	-241
547	127	-213
502	82	-90
324	23	-39
122	-65	2
-4	-176	90
-37	-270	92
-12	-313	32
6	-282	-24
-18	-192	-47
-55	-85	-163
-59	4	-301
6	45	-331
117	45	-268
203	22	-151
198	7	-51
87	17	75
-68	49	142
-182	92	155
-188	117	155
-88	119	109
44	95	98
129	53	58
121	10	4
54	-23	-90
5	-37	-121
33	-33	-40
139	-16	-27
257	1	-96
297	10	-85
212	1	-19
25	-25	-9
-177	-56	16
-310	-76	33
-335	-62	30
-275	-19	8
-191	45	4
-140	100	17
-129	113	-2
-126	70	-41
-93	-24	-26
-16	-131	-26
74	-209	-76
126	-215	-36
104	-137	29
24	-1	45
-64	143	87
-97	235	52
-52	225	19
39	109	-7
109	-82	-109
94	-281	-131
-14	-422	-82
-160	-454	-90
-247	-376	-75
-206	-224	10
-31	-61	22
195	51	51
359	100	34
368	106	-10
211	126	-79
-25	198	-119
-215	330	-58
-253	475	-30
-137	557	3
44	520	17
153	349	-3
94	96	28
-123	-157	77
-388	-332	100
-552	-399	53
-526	-384	-54
-319	-340	-76
-49	-315	-96
142	-314	-154
169	-313	-119
54	-263	-51
-87	-149	-32
-122	12	-52
7	171	-50
265	279	-13
527	311	21
665	279	26
624	228	50
435	188	91
200	171	94
12	163	4
-70	140	-31
-67	92	-116
-32	23	-224
-18	-42	-132
-40	-86	-91
-88	-101	63
-124	-98	149
-126	-93	110
-101	-87	71
-63	-69	-96
-34	-28	-153
-17	41	-272
-7	114	-280
3	161	-54
14	142	104
18	58	120
10	-62	59
-6	-166	-113
-12	-195	-310
16	-129	-291
80	12	-59
160	170	59
211	277	86
198	287	110
104	204	29
-32	68	-27
-151	-57	-31
-188	-121	-16
-110	-113	13
42	-64	6
199	-25	-33
261	-43	1
179	-125	82
-36	-243	139
-304	-338	142
-523	-368	80
-626	-312	6
-595	-192	-77
-475	-63	-102
-338	30	-68
-237	61	-43
-193	31	-12
-175	-35	9
-144	-101	-31
-75	-132	-58
40	-115	16
181	-43	39
320	62	16
432	171	-22
502	243	-91
498	244	-144
417	170	-143
245	41	-32
23	-89	7
-197	-170	-24
-344	-171	-40
-363	-108	-20
-262	-23	7
-97	36	5
49	43	12
113	13	9
83	-13	64
7	7	79
-38	84	62
16	192	64
184	282	-31
422	316	-194
642	282	-157
731	204	-48
614	120	-93
271	55	-27
-222	15	2
-724	-18	24
-1083	-62	43
-1146	-123	55
-899	-185	85
-407	-222	70
140	-211	92
549	-155	-7
707	-67	-101
608	22	-136
371	89	-108
130	113	-95
-12	93	-196
-49	29	-242
-44	-59	-267
-57	-144	-243
-107	-201	-215
-145	-205	-97
-116	-153	76
-3	-58	115
154	44	137
263	125	102
269	165	104
170	168	104
33	160	74
-54	159	46
-51	171	12
21	182	15
92	159	-60
103	89	-48
39	-21	22
-54	-133	27
-121	-206	42
-130	-206	65
-100	-140	51
-80	-46	-30
-107	27	-91
-177	40	-76
-240	-9	-74
-240	-94	-108
-152	-159	-46
0	-159	-23
159	-79	5
262	60	21
289	205	-46
253	298	-46
183	284	-117
102	160	-147
7	-51	-69
-114	-283	-18
-256	-460	0
-393	-527	0
-477	-452	16
-455	-262	-31
-321	-29	-28
-113	166	5
95	257	-26
244	229	-28
291	112	-36
245	-18	10
144	-97	26
36	-92	-14
-46	-19	31
-96	64	27
-113	98	-55
-109	45	-83
-90	-77	-61
-56	-221	-30
-13	-316	-8
40	-315	36
97	-211	34
155	-30	-9
212	169	34
269	332	-58
320	421	-130
346	427	-46
340	370	6
280	277	83
169	187	145
6	115	181
-174	71	94
-343	47	-97
-463	29	-251
-500	4	-360
-443	-34	-230
-304	-78	55
-119	-122	91
62	-157	110
196	-176	69
248	-182	-53
221	-175	-11
131	-159	-42
29	-131	-107
-48	-94	-98
-70	-40	-41
-30	24	-195
54	95	-198
145	160	54
184	205	123
145	221	131
22	198	85
-130	147	20
-242	84	-65
-247	30	-67
-126	2	15
63	2	-9
234	23	-108
290	45	-111
214	53	-10
52	41	0
-106	16	-57
-186	-11	-120
-177	-37	-97
-121	-64	-52
-71	-105	52
-36	-151	100
21	-188	59
152	-192	-2
353	-138	-67
541	-37	-64
580	77	-119
387	153	-109
-13	155	-20
-451	83	24
-720	-29	-15
-702	-133	-67
-420	-202	-85
-45	-241	-46
223	-280	4
262	-343	15
119	-425	68
-70	-484	72
-169	-470	54
-148	-359	27
-89	-179	-42
-114	9	-30
-258	147	-64
-448	211	-107
-516	229	-61
-361	250	-43
-7	301	59
373	372	149
578	412	176
493	372	132
171	248	98
-185	89	94
-383	-29	-21
-321	-55	-132
-67	8	-179
216	100	-115
383	150	-119
373	119	-153
250	26	-82
117	-59	-71
51	-80	-103
52	-19	-107
62	83	-21
40	155	60
-20	150	34
-70	61	35
-72	-61	61
-27	-165	38
24	-210	-47
24	-205	-87
-35	-183	-49
-120	-171	-107
-160	-175	-126
-118	-164	-47
-16	-106	-71
77	12	-105
100	163	-117
37	296	-95
-57	357	-56
-110	328	-21
-71	233	-14
42	119	-61
167	38	-12
233	16	57
204	35	100
113	61	78
14	50	58
-38	-13	21
-28	-119	11
23	-224	30
81	-281	-6
125	-265	3
145	-174	-45
144	-39	-26
121	86	13
74	153	11
13	138	22
-32	50	-44
-36	-74	-96
2	-185	-71
42	-250	-32
13	-257	-38
-137	-226	-20
-387	-186	11
-644	-164	24
-778	-165	19
-692	-171	18
-416	-164	33
-58	-126	-33
203	-56	-125
270	27	-111
158	108	-80
-17	174	-123
-111	224	-76
-45	259	-3
139	284	1
323	295	-17
392	278	-7
302	228	16
127	140	28
-22	31	94
-49	-85	155
43	-185	164
184	-257	125
261	-292	17
212	-286	-158
57	-243	-248
-120	-165	-235
-225	-62	-202
-214	49	-155
-108	157	-61
18	239	34
91	279	43
81	272	102
4	214	110
-85	118	51
-136	7	60
-130	-95	74
-87	-161	35
-39	-175	-172
-14	-144	-253
-14	-86	-129
-17	-27	-156
-2	13	-168
44	26	-70
104	26	154
145	37	259
140	66	253
79	112	188
-15	154	-118
-102	168	-250
-139	142	-190
-105	81	-197
-20	12	-124
78	-40	-89
129	-57	-30
110	-44	34
25	-9	28
-71	28	60
-116	61	-7
-63	90	-104
82	109	-229
259	115	-243
389	98	-53
397	50	106
274	-18	64
62	-89	87
-150	-134	103
-277	-141	68
-294	-114	91
-208	-76	49
-80	-50	101
41	-50	83
120	-68	47
148	-87	-7
143	-97	-113
119	-101	-176
95	-115	-228
86	-153	-238
99	-202	-168
129	-240	-32
139	-234	14
86	-181	12
-74	-101	18
-333	-38	-1
-632	-20	19
-848	-35	58
-896	-44	71
-751	6	84
-473	132	78
-190	299	24
-5	415	-36
42	401	-79
12	222	-71
-10	-71	-30
44	-358	-13
170	-524	-4
300	-490	-16
359	-280	-33
331	4	2
257	241	59
211	339	9
234	285	-39
300	137	-14
336	-11	-45
273	-87	-45
104	-71	29
-105	7	24
-256	88	-48
-281	127	-76
-178	116	-89
-19	81	-169
107	57	-107
143	68	87
94	115	95
16	161	36
-28	171	-33
-8	130	-75
56	45	-92
119	-52	-78
137	-124	22
102	-144	61
36	-111	155
-19	-39	161
-38	44	-86
-16	116	-270
31	166	-202
78	183	-152
107	170	-120
116	126	4
111	53	26
105	-40	21
100	-137	-52
91	-209	-56
69	-233	-18
29	-190	-47
-34	-90	-110
-116	38	-123
-198	150	-44
-262	206	-79
-281	183	-7
-239	93	61
-123	-22	121
53	-112	205
257	-132	241
435	-77	187
534	35	80
505	155	19
339	233	-96
56	244	-168
-279	179	-315
-589	64	-264
-816	-78	-154
-909	-229	-144
-857	-378	-67
-686	-515	-100
-418	-622	-78
-86	-670	-70
280	-627	22
636	-481	89
902	-246	79
995	22	99
853	255	52
476	393	33
-65	404	-35
-610	311	-41
-970	160	-24
-1053	16	-22
-856	-78	19
-502	-114	16
-162	-106	60
30	-90	101
38	-80	25
-56	-79	-106
-128	-63	-108
-70	-8	-71
121	92	-129
373	225	-19
562	353	53
614	431	39
523	431	49
353	345	26
200	199	18
112	34	-30
98	-101	-39
111	-173	-63
104	-171	-21
58	-111	39
-14	-32	17
-79	33	-30
-110	57	-52
-97	43	36
-54	10	102
1	-16	150
60	-13	9
119	17	-194
172	62	-170
212	98	-111
233	106	-144
229	88	-203
211	55	-190
189	26	-69
166	4	13
132	-11	53
62	-30	64
-58	-57	-25
-226	-81	-36
-402	-78	-71
-526	-37	-107
-551	35	-71
-456	106	2
-273	129	102
-67	64	187
99	-93	166
178	-297	-43
166	-479	-155
86	-566	-193
-19	-527	-228
-118	-382	-119
-198	-195	15
-262	-42	83
-315	34	52
-352	45	31
-353	43	35
-287	89	-27
-131	203	-55
114	353	-60
402	461	-19
656	468	65
806	350	127
774	159	124
560	-16	8
202	-109	-13
-191	-105	61
-525	-58	9
-714	-45	-109
-736	-105	-204
-605	-219	-177
-385	-311	-145
-143	-309	-62
64	-190	31
224	-8	-24
332	142	-130
400	193	-140
436	131	-75
432	26	-65
378	-47	98
271	-29	133
134	67	98
5	180	80
-82	247	-19
-115	239	30
-121	174	22
-148	91	-32
-226	19	-51
-339	-44	-17
-421	-121	4
-390	-214	45
-205	-292	59
97	-306	30
404	-222	-40
575	-49	-177
537	135	-141
318	243	-77
31	218	-20
-183	76	9
-241	-99	28
-154	-206	48
-10	-177	29
85	-27	1
71	164	-186
-25	301	-278
-136	319	-115
-185	222	15
-153	66	13
-61	-69	-1
32	-138	28
94	-127	31
121	-68	-22
132	-4	-11
145	38	60
155	50	113
140	46	78
89	43	-24
4	45	-56
-84	49	-104
-142	44	-127
-165	25	-100
-172	-4	-88
-189	-32	-95
-233	-47	-61
-273	-41	14
-264	-17	14
-168	14	-92
18	35	-183
237	35	-139
407	9	-87
455	-37	-11
360	-94	33
162	-133	56
-63	-148	104
-237	-130	116
-329	-97	110
-350	-74	39
-338	-94	21
-332	-176	50
-339	-304	3
-337	-433	-28
-297	-501	-27
-206	-459	-95
-71	-297	-98
72	-57	-36
212	181	-27
333	340	-38
436	380	-48
520	319	-52
541	219	-7
466	152	65
262	150	69
-30	190	49
-320	211	-18
-496	153	-83
-472	8	-110
-272	-174	-151
6	-305	-155
210	-309	-101
257	-175	4
166	40	77
57	240	87
72	336	62
274	301	30
580	181	-21
818	61	-86
794	16	-105
450	65	-25
-128	171	-16
-740	265	-31
-1135	281	34
-1194	201	39
-938	56	68
-533	-105	0
-156	-232	-120
69	-304	-109
129	-325	-84
99	-308	2
77	-259	179
116	-179	187
203	-72	124
279	45	63
294	143	-97
234	186	-184
132	157	-272
46	71	-246
6	-27	-36
9	-95	20
29	-99	-16
38	-50	-14
31	21	-42
24	76	-32
34	88	-40
62	63	-75
91	21	-24
85	-13	-66
27	-28	-3
-70	-33	112
-168	-39	-32
-214	-65	-47
-175	-107	-25
-44	-152	-99
138	-170	-188
326	-151	-214
458	-83	-83
496	21	31
435	131	136
295	225	174
107	268	53
-91	254	-59
-262	192	-40
-385	103	-72
-455	19	-100
-473	-38	-69
-448	-67	-21
-389	-86	47
-315	-117	30
-228	-171	45
-138	-237	21
-55	-276	-28
14	-257	-53
66	-163	-30
102	-24	22
123	103	23
137	158	16
145	114	-12
141	1	-80
121	-111	-112
82	-142	-25
39	-59	-34
19	111	-54
56	290	20
160	387	57
312	354	96
468	213	77
555	41	60
530	-76	-3
371	-85	-66
106	-2	-10
-213	106	-8
-532	157	-32
-775	100	-66
-917	-53	-111
-934	-256	-86
-832	-434	-110
-645	-538	-114
-409	-552	-28
-168	-489	15
58	-373	-19
276	-216	-39
490	-35	-46
688	150	-35
825	301	-75
835	386	-90
669	366	-12
346	256	22
-32	102	62
-318	-30	121
-407	-90	69
-273	-62	-30
-20	17	-42
214	99	-115
310	138	-96
245	129	-3
110	86	38
8	41	217
-6	13	178
32	-5	163
24	-27	85
-100	-62	-160
-331	-102	-201
-547	-119	-94
-611	-96	-8
-455	-28	-76
-130	60	-34
201	139	-37
392	183	-121
373	194	-77
206	179	-162
23	158	-237
-58	136	-114
-12	106	-110
93	60	-157
154	-4	-104
98	-71	24
-47	-123	105
-205	-140	102
-278	-122	109
-237	-86	65
-117	-53	-46
5	-40	-176
74	-44	-175
90	-53	-120
99	-50	-28
153	-20	46
275	40	152
421	120	289
521	205	250
502	270	116
332	290	-27
36	240	-163
-315	119	-269
-619	-54	-208
-784	-232	-21
-762	-363	78
-556	-408	18
-243	-362	-23
72	-257	-111
266	-139	-207
277	-53	-127
118	-13	-81
-111	-4	-16
-288	-2	46
-325	3	50
-221	2	24
-55	-27	16
57	-103	3
50	-214	-46
-53	-322	-14
-163	-372	5
-158	-326	30
17	-191	24
324	1	-1
652	182	-21
858	301	-30
869	328	-21
694	274	-35
397	182	-7
68	96	3
-229	55	36
-456	67	42
-610	120	-16
-676	181	-97
-643	212	-68
-508	192	38
-298	117	40
-76	11	53
89	-90	32
151	-147	0
116	-139	-18
39	-81	-49
-8	-4	-97
16	51	-144
107	66	-91
225	40	21
301	3	127
302	-20	110
223	-14	52
94	5	-37
-38	1	-184
-136	-49	-284
-174	-143	-219
-144	-242	-23
-56	-290	83
60	-248	107
171	-110	44
237	80	-54
234	256	21
169	357	13
77	365	-50
8	305	-58
-2	229	-126
49	177	-133
123	164	-151
162	168	-17
122	147	70
-1	77	162
-162	-38	170
-300	-166	22
-361	-258	-67
-328	-291	-211
-229	-270	-275
-111	-223	-241
-26	-173	-102
12	-129	-55
11	-71	60
-2	25	228
-12	166	117
-15	324	37
-23	438	31
-44	460	16
-69	362	-82
-70	165	-176
-18	-64	-157
89	-263	-190
216	-388	-74
302	-432	24
288	-416	38
162	-370	97
-32	-312	64
-200	-238	38
-253	-142	18
-163	-33	56
26	67	77
202	131	4
262	144	-8
156	119	-37
-69	88	-64
-312	74	-76
-469	76	-97
-481	53	-103
-380	-31	-85
-231	-195	-49
-104	-403	-31
-27	-573	-25
25	-628	-18
96	-531	6
198	-313	-8
300	-71	-12
337	109	42
259	180	34
72	171	44
-162	150	48
-337	191	6
-383	301	-28
-285	435	-70
-110	502	-48
52	434	15
130	237	35
103	-22	4
21	-235	-21
-44	-322	8
-37	-259	8
42	-88	-19
155	111	5
242	264	-1
273	332	7
265	320	-11
254	262	-4
275	201	45
326	166	59
359	166	52
331	197	-45
211	229	-122
25	233	-160
-165	177	-269
-303	57	-246
-348	-103	10
-321	-258	83
-259	-352	11
-201	-355	26
-157	-281	-22
-106	-174	-173
-30	-95	-282
71	-70	-167
164	-96	-16
204	-119	-32
167	-97	41
68	-13	39
-39	102	-38
-101	187	38
-101	197	1
-57	124	56
-21	16	83
-30	-66	57
-78	-78	38
-126	-19	-69
-122	63	-67
-44	106	-106
79	74	-91
190	-28	-89
229	-154	-56
172	-239	16
52	-248	39
-65	-182	60
-120	-69	36
-95	39	19
-12	115	-11
65	147	-7
91	138	-30
40	105	-50
-60	51	-46
-165	-13	-8
-229	-92	11
-225	-173	-16
-157	-248	42
-37	-301	22
114	-319	-67
280	-301	-102
439	-248	-66
545	-162	10
530	-49	31
333	83	54
-35	214	21
-485	325	-9
-857	380	-29
-977	357	-58
-770	243	-85
-298	60	-86
219	-149	-35
531	-322	-38
493	-407	-71
135	-368	-40
-316	-207	16
-605	22	-47
-546	250	-53
-180	398	-27
288	422	-30
597	329	-15
583	160	-33
286	-17	-31
-103	-145	-22
-361	-205	52
-389	-207	130
-223	-183	222
-20	-149	203
82	-103	56
49	-25	-19
-40	89	-84
-69	224	-209
26	330	-283
210	359	-162
378	299	-90
431	171	-97
342	47	77
175	-21	205
24	-13	14
-44	41	-170
-34	74	-231
-5	39	-195
-15	-68	-74
-76	-200	-23
-157	-291	-20
-193	-296	-2
-152	-222	0
-44	-117	-111
85	-36	-71
190	-9	-13
257	-16	-8
294	-16	49
324	25	54
345	105	80
334	183	66
256	215	63
101	171	72
-107	74	93
-308	-30	162
-453	-94	180
-516	-96	109
-509	-56	-15
-470	-11	-113
-419	9	-227
-350	0	-315
-235	-23	-256
-51	-35	-188
175	-23	-98
389	-2	-7
506	12	-44
478	-4	-8
328	-46	4
131	-104	-8
-7	-163	-56
-38	-214	-112
22	-268	-105
95	-326	-83
99	-378	11
1	-389	49
-153	-326	53
-276	-180	82
-300	32	78
-217	251	32
-96	414	7
-19	469	9
-36	421	-23
-119	308	-14
-190	187	14
-176	110	-6
-75	90	47
46	109	127
77	124	141
-39	104	66
-278	37	-11
-517	-58	15
-619	-147	-78
-518	-192	-156
-239	-178	-64
100	-118	49
383	-47	76
536	-4	-15
583	-11	-172
600	-50	-228
646	-85	-213
723	-70	-211
765	3	-88
678	109	-25
423	186	-2
34	179	-23
-383	83	-88
-697	-62	-150
-837	-174	-115
-787	-191	-2
-610	-104	58
-369	32	95
-125	127	13
84	122	51
252	14	68
361	-129	44
392	-222	120
326	-205	102
172	-90	52
-25	59	30
-211	169	-9
-325	194	-56
-339	151	-95
-260	92	-119
-122	62	-129
34	77	-127
181	106	-54
296	119	-22
354	98	71
340	71	133
245	77	87
90	138	48
-76	236	-50
-195	311	-138
-219	295	-111
-138	155	-30
5	-77	-109
139	-329	-133
205	-517	-151
175	-589	-59
76	-553	22
-55	-456	-62
-170	-355	-52
-237	-281	-31
-244	-232	-32
-198	-183	-11
-107	-117	24
13	-39	-24
140	30	11
245	72	48
294	98	81
270	134	136
172	210	101
22	329	57
-159	438	-4
-333	482	-74
-472	390	-44
-547	174	72
-525	-89	12
-392	-292	-75
-156	-341	-86
138	-219	-112
409	12	-168
592	240	-150
636	357	-36
541	328	87
346	186	91
108	17	-18
-120	-105	-30
-314	-149	-129
-451	-140	-238
-511	-127	-227
-481	-145	-182
-354	-191	-85
-160	-227	2
41	-215	10
184	-145	51
226	-41	116
180	58	120
105	120	78
72	135	60
122	125	32
234	114	-34
336	117	-55
368	125	-48
299	123	-24
155	97	17
-1	49	49
-121	3	69
-185	-26	65
-215	-30	10
-245	-18	-59
-281	-10	-70
-303	-14	8
-276	-27	116
-184	-34	112
-49	-24	57
74	-2	-65
136	12	-158
124	-5	-193
72	-59	-263
31	-134	-247
48	-186	-215
125	-181	-17
221	-109	29
280	1	-24
269	91	26
184	113	21
50	44	48
-98	-88	75
-244	-229	63
-375	-312	48
-481	-312	66
-532	-233	-47
-474	-111	-281
-285	7	-169
15	103	98
331	171	80
536	228	113
527	282	111
295	330	17
-51	351	-44
-350	321	-129
-433	225	-62
-262	71	6
82	-110	0
419	-279	5
584	-389	-7
521	-398	-96
280	-298	-147
12	-107	-134
-160	114	-91
-181	286	-46
-113	342	-6
-60	259	22
-101	77	10
-235	-120	41
-389	-236	13
-465	-228	-62
-418	-121	-150
-269	5	-176
-100	62	-82
12	22	-2
37	-85	93
6	-176	70
-20	-183	5
13	-93	14
118	43	12
259	143	32
389	158	25
452	94	16
436	18	34
358	-1	17
252	64	-32
156	171	-33
92	244	45
60	218	56
46	94	-82
20	-68	-111
-35	-184	-45
-115	-192	-63
-193	-106	-41
-231	17	4
-200	104	37
-105	112	-20
17	60	-169
113	-6	-147
147	-41	3
113	-32	29
44	-1	49
-13	18	53
-41	8	9
-46	-16	-48
-64	-26	-151
-124	-3	-76
-218	51	4
-312	106	-11
-352	137	32
-306	130	53
-181	97	43
-18	60	34
135	32	143
258	7	123
360	-33	-70
449	-93	-163
506	-161	-219
502	-205	-224
363	-201	-170
79	-148	-81
-316	-68	5
-690	-11	81
-900	-7	60
-856	-66	-13
-569	-162	-89
-150	-259	-215
245	-326	-266
470	-345	-185
467	-312	-28
280	-222	74
18	-77	97
-201	110	129
-315	305	135
-311	449	164
-236	487	85
-149	387	-80
-94	174	-108
-87	-79	-22
-104	-278	39
-110	-361	46
-63	-315	65
52	-181	9
226	-32	-91
405	74	-151
528	119	-143
541	116	-112
433	95	-92
242	71	-41
27	51	-15
-132	28	-7
-200	8	11
-184	7	14
-123	41	20
-71	110	22
-55	183	9
-68	222	-7
-87	194	12
-76	108	49
-30	4	32
35	-64	-9
99	-65	-17
138	-5	-78
158	76	-141
170	125	-33
186	126	55
203	85	17
202	40	44
156	18	78
61	21	19
-63	28	-111
-178	8	-192
-236	-48	-106
-218	-126	6
-141	-194	44
-44	-226	62
31	-218	105
59	-183	123
41	-142	93
1	-96	12
-37	-35	-99
-54	48	-214
-55	154	-148
-48	243	53
-40	277	97
-37	223	20
-38	93	-112
-46	-63	-238
-65	-185	-341
-104	-226	-260
-156	-186	-100
-210	-111	-76
-242	-66	3
-224	-86	50
-144	-160	1
-8	-233	-93
155	-240	-19
306	-152	67
413	12	49
435	180	151
369	277	196
228	262	187
52	152	46
-99	3	-66
-184	-118	-137
-173	-167	-213
-76	-154	-144
68	-115	-70
195	-87	-109
245	-74	-98
184	-47	-21
11	26	-25
-246	158	15
-534	309	12
-758	409	4
-844	395	-12
-748	247	-50
-465	17	-5
-75	-208	-4
318	-333	-9
569	-322	8
625	-207	-1
484	-62	32
254	29	74
58	34	79
-21	-28	75
18	-93	24
102	-100	-16
136	-30	-35
69	86	-45
-58	188	-8
-174	215	32
-188	154	49
-88	39	72
66	-69	31
180	-118	-35
181	-87	-81
76	-9	-131
-68	63	-161
-160	81	-170
-156	30	-123
-77	-60	-34
13	-137	26
50	-156	3
18	-105	12
-51	-6	29
-109	90	-42
-113	143	-56
-62	131	-49
25	65	-41
128	-22	-1
224	-99	82
299	-133	94
330	-117	59
291	-56	5
178	29	-71
14	106	-93
-134	153	-132
-195	145	-86
-141	92	120
-5	15	205
126	-43	103
171	-57	-58
101	-19	-284
-35	50	-413
-149	106	-359
-169	121	-188
-94	83	0
13	13	152
72	-51	181
46	-87	60
-44	-92	-10
-132	-90	-43
-168	-102	-86
-151	-140	-71
-124	-188	44
-130	-207	85
-170	-174	32
-194	-79	-2
-144	48	-62
-5	169	-70
175	244	-76
306	254	-15
322	208	22
226	127	-6
86	39	-40
-7	-41	-84
-23	-104	-50
7	-151	-69
4	-177	-77
-80	-182	-12
-218	-162	-1
-321	-117	31
-294	-52	34
-110	20	35
159	86	41
396	135	13
486	161	4
419	159	-30
254	135	-45
95	90	-67
-10	29	1
-74	-43	56
-161	-121	42
-318	-190	80
-535	-244	87
-724	-274	97
-783	-281	86
-654	-261	61
-344	-214	-11
61	-138	-123
459	-34	-234
732	85	-282
790	198	-195
606	274	-48
208	292	39
-285	252	99
-719	174	60
-904	95	11
-753	40	-4
-315	18	-127
222	8	-168
605	-15	-127
671	-67	-108
432	-136	-126
69	-183	-38
-174	-170	55
-148	-83	15
115	53	42
428	188	13
581	268	27
470	271	130
175	218	173
-120	147	172
-252	90	34
-188	53	-130
-37	17	-234
46	-48	-243
-18	-145	-144
-185	-248	28
-318	-306	75
-299	-281	48
-111	-173	84
137	-21	-2
309	110	-69
322	171	-12
204	157	-13
63	92	-113
1	26	-122
46	-5	-92
137	4	-86
183	26	-25
122	27	-2
-15	-2	31
-162	-47	2
-245	-78	-56
-251	-71	-103
-223	-31	-61
-209	14	35
-232	28	13
-258	0	77
-241	-56	56
-148	-100	9
5	-94	-33
164	-26	-181
284	77	-143
353	166	-80
381	200	-7
373	162	122
310	71	98
159	-33	65
-94	-117	-3
-402	-163	-221
-659	-177	-234
-740	-174	-6
-588	-163	79
-253	-140	138
117	-98	130
365	-39	7
400	24	-62
248	63	-137
35	51	-149
-103	-13	-118
-95	-104	-25
31	-174	38
183	-179	2
269	-98	-38
258	48	-58
188	209	-57
117	320	-80
72	338	-59
29	255	-35
-62	106	16
-225	-42	52
-426	-137	53
-564	-145	86
-548	-83	66
-344	8	10
-14	75	-24
314	82	-3
526	36	-4
552	-32	26
435	-78	36
269	-80	1
151	-44	-6
111	-5	-74
110	3	-89
69	-29	-22
-64	-82	-6
-289	-113	20
-533	-88	54
-695	-1	26
-711	113	0
-571	202	2
-325	221	-25
-43	152	-118
197	23	-241
358	-121	-241
435	-228	-120
431	-264	-8
363	-235	63
253	-152	117
124	-54	129
16	29	17
-43	75	-98
-40	84	-155
11	64	-186
66	37	-155
87	20	-137
53	12	-154
-18	3	-71
-84	-26	15
-96	-75	78
-36	-117	127
80	-114	154
201	-29	181
276	135	91
277	330	-16
200	473	0
80	487	9
-43	356	-77
-129	127	-119
-161	-100	-123
-144	-233	-87
-95	-230	-94
-33	-122	-181
29	4	-172
88	71	-132
137	47	-93
174	-37	8
183	-116	50
147	-133	90
58	-82	95
-65	-2	127
-195	55	202
-299	58	109
-341	23	12
-325	-11	29
-274	-4	49
-217	45	53
-178	101	-21
-166	109	-131
-182	37	-110
-222	-99	-87
-285	-257	-107
-355	-376	-169
-402	-420	-107
-360	-388	-44
-181	-305	-46
135	-210	-40
523	-125	-24
836	-61	67
935	-21	26
775	-11	-6
409	-36	-63
8	-94	-100
-259	-163	-41
-296	-199	-2
-143	-166	81
60	-43	93
171	148	32
121	345	-47
-39	500	-142
-204	557	-154
-262	507	-100
-198	391	-12
-66	237	29
44	85	-11
93	-47	-13
94	-148	-3
100	-200	-28
147	-186	-2
210	-93	52
221	62	11
118	230	-27
-98	339	-30
-350	330	-19
-530	187	-7
-556	-43	53
-428	-275	115
-216	-426	45
-14	-441	-65
101	-340	17
116	-179	104
69	-33	42
18	50	0
-10	63	-137
-8	34	-125
7	4	-112
31	-2	-224
69	22	-138
134	57	-139
226	90	-282
314	104	-158
352	93	4
302	70	-11
161	41	65
-32	21	49
-199	17	41
-273	35	51
-226	68	24
-91	100	53
58	104	130
148	59	173
139	-29	135
60	-136	224
-21	-213	95
-38	-219	-172
30	-142	-279
144	-8	-347
222	126	-261
200	208	-100
70	207	26
-99	143	87
-223	57	14
-241	-8	-21
-167	-35	-53
-72	-41	-65
-41	-54	-28
-99	-95	-35
-190	-150	-27
-224	-185	-82
-120	-173	-58
99	-105	78
342	-13	93
474	61	56
415	84	34
199	53	-23
-56	-5	-81
-213	-62	-55
-209	-103	22
-81	-140	-11
56	-192	-19
96	-263	-4
7	-322	2
-151	-322	16
-273	-233	12
-291	-70	79
-213	101	104
-118	198	-4
-88	168	-163
-143	28	-211
-223	-135	-147
-213	-216	-26
-42	-147	68
271	60	100
611	317	27
799	504	-205
724	536	-248
373	410	-38
-136	194	21
-645	-8	31
-985	-118	42
-1057	-114	18
-879	-34	12
-532	53	-67
-134	104	-42
211	103	-19
439	76	-71
536	53	-57
506	55	17
409	68	24
284	68	32
175	43	47
106	-6	2
86	-59	10
105	-92	4
143	-95	-1
176	-81	-5
191	-70	-34
175	-76	-80
136	-92	-114
85	-99	-158
37	-72	-162
5	-7	10
-15	83	59
-38	166	-54
-82	208	-11
-147	194	13
-221	129	-24
-268	36	1
-262	-57	50
-207	-139	124
-121	-196	135
-55	-230	95
-36	-243	64
-67	-238	74
-112	-227	-9
-127	-206	-124
-92	-180	-83
-14	-149	-149
63	-101	-182
104	-35	-111
100	47	-88
81	128	-140
81	179	-208
122	174	-92
186	106	-79
225	6	-50
191	-85	-77
80	-114	-111
-76	-65	0
-210	38	121
-267	145	196
-221	199	24
-83	173	-49
107	93	6
306	16	-19
454	2	-4
508	70	37
452	193	57
262	298	110
-23	313	112
-343	207	112
-589	9	77
-686	-225	1
-601	-413	-71
-366	-502	-174
-71	-486	-177
183	-384	-197
325	-241	-244
334	-89	-157
234	48	-62
65	159	-24
-124	240	-23
-308	277	-47
-452	266	-18
-513	208	5
-458	120	18
-272	30	29
1	-35	26
284	-56	24
469	-37	30
478	1	25
313	25	-30
33	9	-40
-247	-65	-5
-443	-190	26
-509	-322	86
-459	-419	116
-346	-419	115
-198	-305	54
-33	-94	-40
159	154	-76
371	359	-77
562	465	-43
679	448	-23
659	345	-6
504	218	-2
262	130	-11
30	99	52
-113	100	78
-143	90	10
-101	30	-61
-61	-77	-203
-80	-192	-353
-157	-263	-262
-225	-263	-47
-200	-203	28
-37	-125	-19
231	-75	-7
501	-60	-24
653	-64	-113
600	-43	52
355	31	93
9	145	-13
-296	250	-62
-459	283	-125
-459	222	-19
-333	83	5
-183	-70	22
-84	-168	25
-76	-175	84
-130	-103	182
-201	-4	103
-232	67	74
-199	85	66
-111	62	-4
6	40	-68
118	53	-98
203	108	-153
242	178	-138
222	215	-86
149	194	-17
34	103	-3
-85	-29	-122
-173	-163	-231
-191	-263	-183
-140	-322	-89
-41	-340	-56
60	-330	7
119	-297	112
118	-234	87
66	-138	-63
6	-11	-134
-22	128	-75
10	247	49
105	305	71
234	277	91
346	163	59
385	-12	16
306	-199	46
96	-352	-7
-199	-425	-32
-497	-393	-34
-702	-270	-86
-720	-82	-116
-546	112	-127
-229	266	-31
110	341	65
346	333	53
429	268	5
343	188	-116
169	128	-189
-20	95	-155
-158	68	-37
-237	10	94
-280	-106	151
-304	-264	118
-313	-416	20
-285	-475	-85
-199	-406	-89
-69	-210	-32
66	40	15
159	251	94
179	345	143
138	311	120
83	204	56
57	104	-28
79	71	-119
128	103	-151
166	145	-140
167	135	-69
125	45	-41
72	-84	-44
34	-176	-59
27	-159	-35
40	-23	18
53	171	-23
52	325	-11
41	357	-14
35	252	-61
44	64	-110
64	-111	-52
80	-203	64
79	-195	54
69	-131	51
69	-80	-43
90	-82	-105
121	-139	24
128	-205	51
82	-227	-19
-22	-177	-23
-144	-67	-158
-229	52	-189
-221	136	7
-124	157	65
16	127	47
129	82	48
172	58	-11
158	78	-101
126	127	-104
124	180	-85
158	198	-57
183	165	-56
140	82	-46
2	-27	-21
-195	-133	-123
-374	-216	-101
-450	-265	-28
-392	-300	35
-240	-329	104
-71	-363	58
29	-393	-13
44	-379	-102
6	-288	-140
-17	-100	-129
19	160	-32
119	424	87
234	603	155
300	624	216
285	477	208
194	224	84
68	-31	-108
-48	-182	-164
-129	-182	-163
-178	-58	-165
-230	98	-80
-306	200	-15
-410	197	14
-509	109	29
-561	-12	29
-511	-107	20
-361	-157	-5
-153	-184	-41
52	-219	-43
186	-275	-26
222	-322	-62
178	-320	-120
113	-237	-115
81	-99	7
107	29	91
163	78	108
198	21	110
175	-102	51
96	-210	-41
8	-226	-190
-29	-120	-227
18	54	-91
131	222	3
250	308	63
309	291	59
280	213	4
193	130	-33
91	89	-114
21	90	-143
-3	100	-63
-8	79	-28
-22	16	-33
-53	-65	23
-81	-127	39
-75	-133	64
-20	-89	136
63	-16	70
135	41	-30
158	68	-114
124	65	-170
59	50	-44
4	44	65
-19	49	-34
-20	54	30
-24	40	24
-57	-2	-118
-120	-70	-123
-184	-151	-215
-214	-209	-116
-195	-232	-45
-137	-196	-66
-77	-106	-23
-41	29	-12
-37	187	112
-37	333	142
-3	438	65
99	477	76
262	453	65
449	372	-14
581	268	-51
590	158	-213
439	58	-244
161	-21	-100
-161	-86	24
-420	-135	97
-539	-179	76
-496	-218	39
-354	-260	-77
-205	-312	-40
-139	-362	-39
-166	-400	-43
-226	-393	34
-232	-326	56
-129	-204	132
56	-53	135
226	79	80
266	153	-24
126	149	-140
-144	81	-254
-422	-21	-268
-584	-117	-120
-563	-185	20
-394	-224	100
-188	-231	84
-38	-216	20
14	-173	-76
7	-104	-79
12	-13	-61
79	79	-89
204	149	-20
334	185	-2
414	194	16
422	195	24
381	203	7
331	211	-23
290	199	-23
254	131	-13
195	4	-58
102	-159	-48
-5	-298	-64
-82	-358	-81
-97	-313	3
-56	-177	96
-2	-4	127
18	153	145
-10	260	-57
-50	319	-148
-51	350	39
16	371	-12
129	373	-57
222	345	-89
225	268	-117
119	143	-55
-48	7	-24
-202	-99	21
-264	-144	-40
-233	-134	-99
-141	-99	-77
-62	-77	-42
-34	-93	-54
-48	-135	-42
-64	-175	-72
-43	-177	-43
19	-123	21
93	-26	-25
139	82	16
149	161	138
138	186	199
138	151	94
161	68	-43
172	-31	-103
122	-123	-190
-24	-181	-161
-237	-194	-19
-436	-162	-29
-526	-95	44
-443	-19	76
-223	49	-18
37	93	-97
211	108	-197
228	95	-190
111	58	-155
-40	3	-38
-109	-69	6
-42	-154	17
125	-238	46
275	-299	45
299	-309	80
144	-257	83
-122	-148	94
-375	-4	48
-481	138	12
-383	241	-29
-143	282	-67
111	261	-55
244	189	-53
202	95	-54
34	-5	-48
-138	-91	13
-205	-158	10
-125	-201	-39
51	-222	9
216	-215	11
287	-179	-76
238	-121	-96
113	-44	-72
-22	28	-61
-122	75	-48
-189	80	-31
-253	41	13
-314	-12	52
-337	-41	94
-263	-3	68
-66	113	16
209	279	-9
466	427	-81
575	475	-147
491	386	-128
256	171	-62
-4	-80	-46
-167	-268	-13
-181	-318	85
-85	-225	49
28	-58	60
79	83	82
57	123	-49
6	56	-201
-22	-68	-225
-15	-164	-115
-9	-175	-41
-56	-101	124
-167	11	175
-292	100	141
-350	129	109
-274	101	9
-87	47	-95
136	-4	-161
292	-41	-154
317	-76	-154
230	-119	-110
104	-167	-66
24	-196	-45
21	-181	-12
61	-112	81
83	-17	4
48	68	-57
-33	113	26
-104	114	-36
-108	97	-179
-30	98	-183
93	134	-78
193	187	-56
216	217	8
151	186	67
26	83	69
-103	-67	51
-191	-208	-17
-223	-289	-19
-197	-283	-48
-128	-196	-26
-31	-66	-19
78	64	-11
167	164	44
202	211	24
156	211	78
31	171	95
-126	117	29
-248	59	-39
-271	14	-40
-182	-16	22
-24	-34	59
127	-51	40
196	-71	-2
159	-91	-68
47	-101	-162
-76	-88	-122
-149	-50	-28
-151	-5	-23
-95	25	-69
-16	20	-102
59	-21	-37
111	-80	11
141	-120	19
147	-123	24
107	-93	24
15	-53	19
-129	-46	-80
-281	-90	-122
-392	-176	-88
-407	-268	-76
-311	-317	-6
-141	-298	45
36	-205	107
151	-77	118
176	49	7
132	135	-19
68	166	-76
33	144	-135
40	90	-116
66	25	-110
69	-36	-64
25	-77	-41
-53	-90	-36
-120	-62	-33
-125	10	24
-51	121	44
69	252	45
176	372	78
207	445	71
150	453	89
33	392	91
-64	275	10
-93	138	-167
-41	18	-269
45	-61	-279
106	-93	-241
94	-95	-99
16	-91	-23
-79	-107	32
-133	-148	55
-111	-196	15
-21	-226	14
96	-213	7
195	-153	63
245	-62	84
245	23	41
205	78	-5
133	90	-86
36	74	-43
-81	54	21
-194	53	107
-262	78	135
-252	109	11
-154	118	-93
-3	86	-145
135	8	-111
189	-93	-74
136	-191	-5
7	-254	-15
-118	-264	-141
-166	-224	-113
-103	-138	-107
38	-30	-135
183	81	-11
256	177	44
212	237	78
81	253	110
-87	224	107
-208	164	65
-240	96	-54
-178	41	-162
-55	12	-60
75	2	1
172	-3	-32
206	-17	56
172	-45	171
85	-84	263
-26	-113	187
-121	-119	16
-173	-102	-209
-160	-66	-353
-93	-39	-375
7	-38	-224
91	-79	-23
120	-154	44
68	-243	41
-68	-313	-26
-262	-336	-90
-474	-300	-115
-632	-214	-97
-675	-109	-96
-562	-22	-44
-296	22	9
60	21	17
407	-3	39
626	-16	19
632	11	53
429	78	111
101	164	92
-200	230	77
-352	244	-8
-296	203	-88
-76	124	-121
190	53	-126
373	26	-80
391	56	-36
258	125	49
49	191	110
-126	215	150
-210	174	155
-189	84	125
-105	-28	54
-12	-114	-60
60	-147	-187
110	-121	-306
154	-55	-185
203	15	-40
251	65	-28
275	81	-3
262	66	-19
208	34	25
133	-5	12
66	-46	-2
17	-90	-20
-24	-129	11
-82	-158	133
-166	-162	151
-271	-130	127
-369	-67	-51
-418	11	-239
-397	84	-276
-310	131	-215
-185	150	-104
-60	150	54
41	148	52
113	153	84
166	163	57
206	161	-79
230	128	-35
222	62	-9
170	-21	142
75	-94	176
-34	-130	24
-121	-125	0
-152	-91	-94
-117	-57	-282
-33	-47	-286
66	-61	-174
144	-81	-69
180	-84	22
167	-55	78
111	-11	3
18	18	-78
-108	0	-12
-245	-72	19
-370	-169	21
-433	-233	-23
-390	-215	-161
-229	-101	-123
34	76	-33
317	244	-36
529	325	30
600	284	30
498	136	26
276	-55	13
18	-219	24
-166	-305	30
-215	-301	-34
-124	-243	-88
44	-168	-110
201	-109	-59
269	-69	-42
215	-39	52
62	-9	161
-134	18	218
-300	31	211
-392	22	72
-399	-4	-109
-335	-29	-239
-240	-33	-244
-136	-10	-211
-44	26	-107
32	46	0
91	38	45
127	7	63
123	-13	32
70	6	40
-31	76	61
-165	174	74
-291	256	57
-375	279	-11
-378	235	-122
-296	147	-106
-150	60	1
19	19	2
166	29	20
255	76	-60
271	124	-131
232	150	-99
162	152	-145
95	141	-67
54	130	29
44	119	61
58	85	112
76	14	18
86	-99	-129
80	-226	-112
52	-326	26
9	-364	100
-42	-334	86
-81	-257	68
-89	-171	-16
-44	-113	-120
50	-88	-66
175	-79	51
287	-55	18
341	3	-48
322	88	-98
245	177	-126
167	229	-90
128	218	-133
144	150	-98
186	45	-115
190	-51	-96
104	-102	-8
-75	-87	-22
-296	-17	-3
-468	74	24
-523	140	62
-443	147	60
-277	85	22
-104	-27	-50
12	-143	-68
51	-219	-63
41	-228	15
19	-174	11
11	-97	-95
6	-38	-130
-26	-30	-117
-104	-72	-7
-218	-137	-5
-330	-192	-7
-389	-207	20
-356	-187	46
-238	-142	7
-60	-97	-38
124	-56	-48
280	-16	-32
386	35	19
420	104	7
389	178	41
291	237	96
147	262	63
-18	253	-31
-168	213	-63
-262	162	-61
-288	113	-34
-247	64	-34
-170	13	-30
-98	-48	22
-49	-109	44
-23	-150	14
11	-143	-78
93	-77	-160
241	36	-77
430	165	8
606	265	-10
681	301	37
599	261	49
355	166	46
18	50	7
-299	-53	-22
-499	-117	-32
-526	-149	-41
-410	-163	6
-237	-185	65
-107	-222	65
-83	-257	9
-158	-259	-52
-274	-204	-129
-360	-86	-115
-370	57	-98
-288	174	-94
-141	211	-34
54	162	28
280	54	8
505	-39	-78
692	-66	-68
778	-8	-72
707	96	-21
462	171	49
83	168	18
-315	74	21
-611	-57	33
-726	-160	-7
-639	-182	-48
-420	-126	13
-158	-47	24
49	1	-51
162	-14	41
180	-65	30
123	-100	-80
29	-71	-151
-75	23	-262
-152	130	-243
-173	185	-209
-117	144	-115
3	23	-30
139	-118	41
234	-203	91
235	-196	83
151	-112	54
26	3	-32
-63	95	-81
-74	137	-63
-6	142	-22
83	132	-38
131	131	64
106	127	108
22	101	40
-68	35	-20
-124	-63	-115
-118	-170	-97
-75	-245	15
-16	-263	21
30	-230	46
62	-158	52
96	-70	-78
133	22	26
175	120	55
212	215	-5
237	301	12
251	349	-17
251	340	21
228	268	32
159	161	16
37	47	-21
-121	-34	-87
-256	-79	-183
-308	-104	-114
-248	-134	13
-110	-186	-4
12	-249	49
22	-292	109
-113	-297	55
-333	-256	-70
-524	-198	-101
-556	-158	-63
-402	-155	-128
-119	-173	-147
158	-167	-19
320	-97	48
333	46	46
245	219	6
144	350	-35
79	366	97
39	255	93
-20	56	71
-141	-144	81
-290	-263	-85
-389	-263	-155
-347	-167	-120
-132	-34	-85
186	72	-132
492	126	-158
642	138	-167
568	153	-157
288	193	-70
-94	262	3
-448	324	74
-680	332	74
-727	253	16
-614	92	-72
-383	-111	-66
-113	-308	-79
107	-444	-83
236	-494	85
254	-449	216
204	-322	238
154	-141	160
167	57	62
259	236	22
392	356	-106
488	397	-228
476	356	-96
346	262	-5
145	149	-55
-42	44	-21
-149	-35	-47
-159	-95	-83
-116	-143	-51
-80	-189	-26
-86	-224	-34
-130	-233	0
-162	-206	29
-142	-151	-19
-53	-80	-43
72	-15	-71
189	36	-83
245	80	-69
236	123	-56
169	177	-4
70	222	-42
-30	233	-78
-122	185	-21
-188	77	4
-209	-61	41
-170	-183	93
-70	-240	53
52	-215	-77
153	-127	-147
179	-26	-137
116	42	-133
1	56	-120
-97	30	-18
-105	4	112
-10	13	54
145	72	-44
263	157	-8
253	224	59
77	235	49
-218	171	43
-524	58	-18
-712	-62	-70
-700	-149	-81
-496	-179	-103
-172	-160	-33
152	-114	3
374	-64	43
454	-18	81
392	31	102
244	90	110
70	155	56
-71	204	-30
-162	210	-77
-193	153	-120
-180	43	-167
-144	-90	-74
-109	-203	-12
-93	-263	0
-100	-265	51
-114	-221	58
-112	-154	20
-70	-93	-15
17	-50	-19
132	-32	-37
236	-35	-96
287	-58	-106
260	-99	77
163	-150	97
33	-191	-11
-78	-196	-88
-131	-158	-164
-117	-78	-126
-59	13	-172
3	75	-127
25	76	-71
-3	16	-58
-63	-72	-48
-110	-140	-56
-96	-147	12
-8	-90	2
127	2	15
244	77	16
279	101	12
211	74	-2
69	31	15
-68	27	95
-134	89	108
-91	206	87
32	325	0
159	391	-74
210	359	-23
151	244	-44
2	88	-37
-176	-54	32
-311	-144	-85
-363	-179	-248
-325	-178	-247
-219	-157	-119
-69	-119	-3
99	-49	20
257	61	93
373	202	168
415	330	174
360	398	155
226	372	72
64	268	-1
-59	126	-128
-107	-3	-181
-80	-85	-235
-32	-121	-172
-17	-139	-18
-67	-163	8
-156	-196	16
-229	-216	-78
-234	-201	-78
-159	-137	-44
-41	-50	-34
66	24	67
119	52	136
118	28	147
97	-22	51
91	-65	-69
107	-72	-74
129	-47	-123
118	-12	-158
61	12	-120
-23	16	-125
-89	18	-2
-97	37	98
-44	89	94
24	161	70
50	228	57
-6	261	42
-138	244	30
-288	187	27
-380	96	-3
-358	-12	-42
-229	-137	-99
-46	-278	-108
107	-426	-128
163	-565	-149
105	-660	-170
-29	-692	-156
-169	-640	-106
-245	-523	21
-204	-368	94
-43	-196	79
209	-37	137
495	105	45
723	227	-49
828	325	-111
740	393	-114
454	421	-48
19	413	6
-463	372	107
-856	321	71
-1050	261	-71
-1017	200	-181
-789	125	-147
-477	28	-69
-182	-83	-17
1	-187	41
57	-248	104
22	-242	152
-36	-166	129
-61	-53	84
-17	49	-14
98	108	-137
262	112	-226
446	92	-195
600	89	-91
692	135	-7
689	225	66
590	305	70
396	324	33
154	244	32
-70	93	36
-216	-76	9
-253	-184	31
-189	-186	-12
-69	-93	-16
42	35	-28
101	122	-130
93	121	-51
44	35	-14
2	-83	-23
-8	-170	-39
13	-184	-37
40	-129	14
44	-44	-9
16	22	-72
-26	33	-98
-47	-9	-23
-34	-80	-5
1	-145	48
14	-179	113
-25	-176	179
-121	-137	142
-227	-76	-34
-282	-1	-119
-253	76	-104
-139	138	-12
4	179	-88
121	179	-86
170	141	21
154	78	-42
103	10	-157
40	-44	-203
-34	-70	-198
-137	-77	-261
-267	-77	-176
-392	-84	-108
-459	-102	-81
-405	-127	-15
-233	-142	-3
0	-135	65
184	-99	160
244	-33	137
159	45	30
3	127	-4
-111	187	4
-91	210	-21
85	189	-78
340	131	17
558	53	61
614	-19	24
462	-66	-26
132	-94	-100
-261	-113	-126
-581	-148	-133
-726	-206	-59
-647	-280	-38
-389	-334	4
-46	-334	19
256	-260	37
422	-116	60
425	60	35
306	224	34
158	329	10
58	354	32
54	296	20
114	168	-12
166	2	-28
138	-167	-36
0	-291	-8
-216	-334	1
-443	-276	-4
-585	-129	-3
-605	56	-23
-501	213	-58
-317	276	-44
-114	233	-11
69	109	14
204	-25	31
294	-101	47
342	-86	46
346	12	32
318	137	42
254	237	41
175	272	0
104	244	-134
52	174	-186
27	96	-137
13	22	-97
-10	-44	26
-50	-104	102
-96	-151	66
-120	-169	-8
-86	-141	-77
18	-69	-110
171	25	-141
319	105	-87
393	137	-44
354	114	-54
203	48	-39
1	-18	-39
-180	-58	13
-264	-59	48
-235	-37	-44
-125	-17	-118
-7	-19	-25
43	-47	63
1	-87	29
-113	-120	46
-222	-131	-18
-250	-121	-154
-157	-90	-205
36	-44	-256
260	8	-81
423	62	61
452	102	81
326	117	161
83	100	127
-201	61	7
-443	21	-69
-581	2	-136
-582	14	-215
-463	41	-202
-259	62	-137
-27	45	-89
189	-4	-63
361	-67	-24
478	-108	11
549	-96	-17
569	-38	36
529	32	116
396	76	85
144	70	42
-200	23	26
-569	-36	30
-857	-71	19
-953	-81	5
-826	-79	7
-513	-99	15
-150	-154	28
121	-227	34
212	-274	48
130	-250	61
-27	-143	55
-140	11	49
-126	154	48
10	224	8
200	194	-55
346	90	-68
403	-30	-71
365	-113	-68
285	-130	-16
214	-98	16
158	-53	-4
91	-31	-55
-28	-44	-114
-201	-68	-154
-391	-69	-172
-509	-19	-92
-496	80	29
-330	193	59
-83	278	108
150	299	138
273	248	92
256	148	24
151	38	11
55	-38	-56
50	-63	-222
158	-38	-252
320	8	-244
432	43	-178
418	40	-43
266	-7	-13
46	-82	31
-137	-149	49
-205	-173	7
-130	-132	-11
34	-38	-33
212	78	-76
321	174	-143
326	213	-83
232	187	-10
72	112	-4
-117	15	60
-303	-70	59
-448	-131	-6
-518	-160	-9
-489	-161	63
-364	-141	32
-172	-100	49
27	-43	119
172	16	53
238	57	53
229	65	-2
183	36	-117
145	-13	-104
134	-48	13
132	-39	-15
109	22	-147
30	114	-207
-102	199	-96
-255	240	-47
-383	225	-37
-428	171	93
-370	109	53
-205	62	-17
25	32	-97
260	-2	-111
439	-66	-89
518	-164	-64
476	-263	-6
342	-313	-13
163	-268	-53
-12	-125	-101
-150	72	-91
-255	251	-72
-336	327	-47
-405	268	28
-454	93	71
-443	-129	111
-347	-322	129
-163	-427	91
65	-439	30
262	-384	-54
373	-307	-110
350	-237	-87
228	-170	11
54	-84	74
-93	37	46
-180	186	17
-198	322	28
-166	391	-1
-110	357	-5
-39	231	-12
38	48	-92
118	-125	-96
192	-239	-103
236	-278	-125
234	-250	-116
190	-185	-55
120	-102	20
44	-4	28
-23	106	51
-80	215	39
-124	300	-16
-140	319	-35
-107	250	-53
-7	110	-56
144	-50	-47
285	-165	-32
325	-188	-4
196	-119	-5
-93	3	-26
-447	118	-19
-720	182	12
-796	183	48
-639	143	102
-336	94	111
-29	56	84
151	33	87
172	12	46
105	-15	-127
53	-43	-197
94	-59	-119
223	-57	-172
346	-41	-125
380	-28	-76
287	-34	-30
123	-61	39
-4	-96	38
-17	-117	12
93	-114	-153
251	-97	-219
359	-86	-156
351	-95	8
242	-117	111
98	-123	112
1	-85	11
-21	13	-103
2	140	1
9	253	60
-42	300	168
-148	266	254
-259	179	196
-318	88	2
-300	41	-211
-221	50	-284
-117	85	-364
-27	101	-306
34	59	-181
72	-32	-139
95	-147	-96
98	-233	-33
74	-272	-31
25	-263	-26
-28	-238	14
-56	-228	62
-45	-233	81
-5	-235	11
33	-191	61
37	-89	82
8	65	36
-29	225	24
-40	333	2
-20	350	6
2	275	-17
-13	143	5
-71	9	30
-125	-70	74
-92	-68	80
84	9	32
355	121	37
592	211	19
635	233	24
391	166	71
-75	28	67
-588	-130	-35
-905	-258	-124
-927	-315	-184
-686	-301	-234
-360	-242	-213
-131	-182	-136
-75	-140	-42
-128	-113	16
-143	-76	23
-4	-1	15
276	104	-15
569	203	3
716	248	67
617	205	89
319	84	98
-39	-65	40
-297	-175	-9
-375	-203	-57
-304	-149	-131
-175	-58	-72
-72	11	-22
-28	28	-26
-14	0	-81
14	-28	-130
78	-18	-48
167	48	-30
253	143	9
325	215	85
387	228	136
432	168	175
438	67	155
358	-26	140
161	-74	-19
-141	-69	-182
-476	-37	-284
-726	-7	-382
-804	-4	-359
-676	-29	-248
-408	-69	-5
-91	-102	105
178	-114	53
346	-104	87
406	-76	28
386	-32	-78
306	22	-180
190	83	-116
52	135	52
-72	161	77
-151	137	112
-158	67	107
-98	-31	72
-16	-119	91
40	-163	95
38	-140	65
-10	-66	-44
-59	19	-182
-60	82	-182
4	93	-134
109	61	-88
202	9	-13
238	-30	10
205	-34	18
126	-4	48
40	44	-9
-26	85	-151
-70	98	-100
-112	75	34
-172	22	57
-245	-44	87
-307	-102	32
-324	-127	-44
-271	-109	-76
-157	-40	-89
-11	57	-48
124	152	-9
214	205	-3
253	194	-5
257	122	22
252	19	16
251	-70	7
250	-121	15
225	-122	-35
151	-98	-88
18	-78	-56
-152	-77	-2
-319	-91	-20
-443	-98	-74
-491	-84	-81
-470	-53	-8
-394	-34	60
-296	-62	110
-185	-147	164
-60	-264	100
75	-364	4
212	-387	-122
333	-298	-228
404	-112	-227
407	122	-135
340	339	-25
226	475	4
93	504	22
-35	422	-16
-135	261	-44
-189	66	-9
-177	-108	39
-87	-213	-46
76	-223	-174
277	-133	-101
446	20	13
506	182	46
411	299	63
175	337	97
-130	300	53
-400	211	-17
-526	104	-11
-468	-3	-30
-256	-109	-123
11	-218	-126
216	-322	-72
271	-393	-88
147	-401	-60
-113	-319	19
-412	-164	41
-631	8	79
-692	140	66
-576	188	47
-339	154	69
-78	82	26
115	27	-2
189	24	-70
153	62	-139
77	103	-126
40	99	-105
90	37	-147
216	-64	-147
359	-159	18
435	-206	96
397	-201	-34
252	-164	-96
70	-122	-127
-63	-89	-8
-88	-51	120
-1	9	87
139	109	137
252	224	66
266	313	6
178	325	-4
34	249	-103
-79	109	-140
-104	-33	-114
-29	-118	-113
87	-120	-21
169	-47	85
158	50	43
52	124	105
-89	143	117
-197	112	22
-217	55	-84
-162	-3	-193
-85	-41	-219
-55	-62	-193
-101	-78	-117
-190	-92	-57
-252	-110	28
-218	-126	29
-81	-138	-60
105	-142	-76
244	-142	-86
257	-144	-63
131	-154	-25
-71	-173	-3
-253	-192	34
-333	-209	74
-280	-203	109
-141	-171	113
0	-107	94
86	-23	54
99	57	-8
77	118	-74
60	141	-96
74	136	-63
100	115	-30
99	100	-2
44	98	40
-55	101	86
-154	96	77
-216	68	-10
-224	25	-57
-195	-20	-104
-166	-37	-128
-139	-11	-67
-93	57	-30
11	150	-74
182	239	-47
373	300	8
496	317	2
476	290	39
302	223	38
44	121	37
-178	6	-13
-267	-105	-43
-208	-188	-44
-71	-233	-124
30	-241	-124
32	-225	-46
-54	-204	22
-149	-186	24
-167	-169	77
-81	-137	6
63	-83	-72
175	-11	87
191	53	91
114	86	27
14	80	47
-36	45	24
2	15	-61
91	11	-100
163	40	-143
158	85	-233
77	112	-283
-23	103	-256
-71	58	-75
-33	6	-15
62	-25	37
145	-19	114
144	15	-38
42	49	-117
-115	63	-180
-250	50	-209
-296	23	-86
-245	1	38
-137	-7	64
-38	-7	49
9	-21	45
2	-54	30
-26	-109	71
-39	-156	57
-22	-167	62
7	-127	48
18	-45	-5
-4	51	22
-37	125	93
-44	148	93
21	106	59
162	10	13
346	-125	-67
506	-271	-189
575	-391	-193
520	-444	-43
338	-400	-19
70	-253	2
-247	-36	31
-554	174	33
-804	305	31
-952	301	28
-944	178	45
-765	0	9
-424	-138	-20
-5	-173	-63
368	-105	-76
592	6	-85
591	84	-85
393	85	-46
92	22	-17
-179	-33	-16
-319	-17	-26
-298	85	9
-150	237	40
42	360	52
212	398	32
312	339	26
336	230	48
300	123	14
229	50	-90
150	3	-108
88	-53	-71
69	-133	-127
99	-218	-215
162	-251	-187
209	-191	-52
188	-49	6
77	116	124
-95	213	155
-250	190	59
-317	50	91
-262	-130	70
-136	-265	-127
-22	-308	-218
10	-259	-115
-52	-179	-84
-142	-120	-21
-172	-99	209
-87	-82	265
82	-24	111
245	90	-101
301	233	-294
221	336	-287
56	343	-345
-87	241	-269
-133	74	-26
-80	-82	62
5	-170	122
35	-177	49
-30	-137	-2
-155	-97	109
-253	-82	131
-250	-81	61
-142	-63	84
12	-8	97
134	81	-38
172	164	-103
150	204	-96
132	186	-268
190	123	-297
322	56	-118
466	14	-59
508	4	1
383	5	54
68	-5	56
-351	-35	51
-727	-70	32
-938	-94	40
-917	-101	16
-681	-107	16
-343	-150	39
-34	-240	20
130	-361	-3
126	-451	9
8	-441	15
-102	-305	14
-95	-71	-9
75	174	-11
357	339	21
626	370	-8
762	285	-43
671	168	-55
401	93	-79
33	103	-74
-288	164	-56
-480	204	-48
-531	166	-27
-489	50	-53
-420	-74	-80
-360	-124	-62
-299	-52	-18
-202	106	5
-49	258	26
139	291	87
312	163	78
415	-81	18
425	-326	-31
358	-464	-84
254	-444	-96
153	-305	-12
61	-140	59
-22	-40	42
-99	-30	15
-153	-70	-20
-145	-85	-63
-52	-27	-123
113	98	-84
297	233	-25
422	310	-127
428	298	-149
306	206	-10
107	89	40
-89	-5	1
-225	-60	-23
-281	-85	24
-274	-104	103
-245	-127	163
-210	-150	231
-178	-145	141
-132	-106	-42
-59	-38	-120
26	32	-241
105	82	-454
153	101	-332
163	101	-97
142	106	47
106	131	164
68	174	210
26	211	150
-23	215	-35
-82	174	-151
-136	83	-239
-174	-31	-232
-176	-131	-138
-144	-196	-144
-87	-208	-96
-17	-174	3
56	-108	-20
135	-37	-9
216	26	46
291	80	50
331	124	35
302	174	37
193	222	50
15	259	42
-182	261	14
-343	211	2
-424	106	-13
-416	-31	-51
-347	-166	-2
-259	-264	32
-182	-315	-3
-122	-326	-8
-63	-332	-36
9	-348	-3
91	-378	65
156	-386	91
175	-343	70
138	-230	39
68	-75	-23
9	69	-98
3	142	-114
50	115	-88
115	12	-6
140	-108	56
95	-173	72
-5	-148	26
-100	-47	-56
-119	77	-107
-40	169	-111
94	203	-88
198	193	-61
190	171	-35
48	168	-23
-170	183	-35
-371	197	-34
-454	183	-4
-402	135	24
-259	74	29
-112	28	10
-28	19	-24
-16	33	-52
-34	40	-32
-20	12	-22
61	-51	-16
199	-119	-1
342	-147	-32
446	-108	-61
476	-17	18
432	86	119
332	150	116
192	157	118
36	115	109
-114	70	33
-217	59	26
-245	85	55
-181	124	-83
-60	131	-217
52	85	-272
99	-9	-273
42	-109	-230
-78	-168	-236
-194	-163	-147
-232	-102	-166
-160	-25	-151
-17	27	-12
128	35	-12
208	11	71
203	-18	98
138	-30	40
69	-17	23
32	2	42
24	5	34
20	-26	-27
-10	-87	51
-74	-159	57
-156	-216	-10
-222	-238	-70
-252	-212	-130
-237	-140	-99
-183	-35	-76
-88	84	-32
49	195	13
222	275	45
403	309	82
531	290	104
547	237	113
423	170	124
184	110	30
-87	67	-65
-308	32	-102
-404	-14	-196
-377	-88	-190
-270	-192	-110
-151	-312	-22
-67	-419	13
-34	-484	7
-41	-490	-8
-66	-434	-7
-96	-330	-7
-120	-200	-37
-128	-77	-9
-118	14	19
-92	59	54
-83	61	102
-126	45	130
-247	38	95
-415	65	36
-546	126	-13
-545	197	-64
-346	241	-68
7	229	-33
392	169	26
645	85	-12
677	27	-96
519	26	-112
302	79	-121
184	150	-140
226	191	-111
365	178	-64
457	112	-35
368	34	-14
84	-15	-7
-279	-16	-13
-549	18	-4
-595	48	3
-434	38	26
-201	-27	59
-74	-124	62
-136	-222	52
-340	-276	-14
-508	-273	-21
-470	-216	12
-152	-109	-4
358	39	-92
854	221	-162
1151	413	-111
1124	567	-82
811	625	-9
346	546	137
-69	333	184
-318	44	155
-364	-218	97
-264	-371	30
-128	-378	-64
-38	-273	-235
-34	-140	-324
-91	-53	-316
-153	-41	-162
-164	-77	-86
-105	-100	-103
0	-71	-45
98	7	-108
132	92	-136
79	128	-47
-48	93	41
-206	5	113
-338	-92	133
-410	-157	102
-400	-176	12
-321	-171	13
-188	-169	55
-37	-182	-103
106	-192	3
214	-171	126
260	-107	-6
238	-13	-75
158	65	-122
52	93	13
-41	52	74
-95	-32	12
-101	-112	-26
-72	-144	-81
-32	-113	-92
5	-36	-113
32	53	-48
44	121	-19
41	147	11
12	132	-6
-53	93	-47
-143	45	0
-240	2	3
-313	-20	-14
-342	-17	-26
-324	11	-15
-272	49	1
-201	67	1
-115	43	12
0	-32	62
150	-136	74
320	-223	61
476	-245	40
565	-180	-24
549	-50	-34
438	97	-44
270	206	-98
107	257	-62
-13	253	-12
-80	233	-20
-110	225	-1
-122	233	-2
-120	233	-30
-94	187	-47
-35	92	-41
42	-37	-15
106	-152	-9
116	-211	-68
58	-207	-89
-40	-167	-52
-134	-135	-72
-174	-137	-88
-145	-166	-12
-72	-181	59
0	-136	54
36	-23	30
34	135	7
14	272	-6
6	335	-102
20	291	-143
47	164	-156
69	6	-219
80	-130	-102
92	-209	5
122	-232	35
175	-218	117
225	-192	108
223	-162	122
132	-123	72
-49	-68	-57
-270	5	-143
-459	85	-168
-569	143	-76
-568	164	94
-486	135	189
-361	71	130
-234	-9	-56
-103	-76	-271
42	-114	-233
203	-117	-116
351	-92	-108
439	-49	-18
428	0	37
306	47	31
130	88	76
-21	121	72
-80	144	-1
-39	155	-77
44	149	-103
81	124	-115
3	81	-144
-187	23	-120
-403	-41	-7
-530	-105	80
-475	-156	152
-235	-190	174
107	-196	161
409	-183	115
541	-145	19
470	-90	-31
253	-28	-125
13	26	-140
-129	53	-62
-118	48	-30
19	11	12
191	-38	-1
302	-77	-41
301	-77	-50
196	-27	-89
46	59	-64
-80	155	-2
-144	225	-79
-154	237	-87
-135	181	-64
-118	67	-96
-113	-71	-18
-103	-202	46
-71	-286	34
-16	-307	17
42	-260	47
64	-161	36
21	-36	-2
-88	88	-7
-215	182	-6
-304	236	10
-292	243	-39
-170	213	-80
26	161	-13
212	101	-11
312	44	26
288	-5	147
171	-42	112
40	-71	38
-30	-96	-71
-2	-115	-253
90	-130	-412
169	-134	-359
159	-120	-171
42	-76	38
-136	4	143
-281	115	147
-310	233	69
-203	320	-189
-18	345	-171
140	290	-8
190	164	-6
106	4	47
-55	-137	96
-204	-216	74
-259	-222	108
-199	-169	72
-66	-107	-29
68	-80	-149
137	-106	-147
125	-171	-81
59	-231	-100
-8	-242	-30
-35	-174	9
-4	-41	31
63	116	46
137	244	43
191	299	20
202	265	-5
164	155	11
83	10	49
-20	-126	83
-112	-216	52
-156	-243	2
-116	-206	-47
3	-118	-60
167	-7	-107
297	98	-122
320	170	5
198	192	98
-42	158	106
-319	81	120
-540	-6	77
-627	-76	-16
-577	-105	-82
-428	-96	-116
-250	-71	-187
-97	-58	-218
7	-82	-157
63	-134	-112
87	-196	-121
87	-232	-96
68	-219	-76
35	-160	-63
1	-75	-72
-16	4	-88
2	61	82
54	98	113
130	133	65
208	177	54
276	225	-6
333	252	20
373	224	11
389	137	-2
358	18	-8
268	-85	-5
124	-125	-14
-48	-86	-75
-195	10	-47
-279	115	51
-290	183	111
-239	201	21
-161	183	-92
-83	161	-127
-21	154	-153
26	155	-166
60	129	-104
72	57	39
51	-60	35
-12	-187	55
-102	-272	90
-183	-281	77
-221	-223	84
-188	-137	22
-99	-77	-59
17	-63	-68
115	-85	4
170	-100	1
183	-72	-81
175	6	-222
172	103	-183
184	170	-78
209	174	-71
219	122	-38
190	38	-9
105	-33	25
-27	-69	47
-178	-78	104
-310	-76	99
-372	-87	86
-350	-108	60
-249	-121	-5
-111	-103	-46
16	-39	-92
91	51	-86
104	144	-88
86	211	-49
72	237	-17
96	228	-16
143	190	-23
172	127	-53
136	28	-35
14	-111	-21
-165	-282	-8
-321	-445	-14
-383	-546	-56
-311	-533	2
-122	-394	46
112	-183	4
322	33	-3
436	174	9
436	206	-10
324	143	-40
119	55	-54
-130	14	-70
-383	51	-42
-555	149	-22
-581	244	-28
-432	269	-66
-149	205	-94
154	75	-65
342	-54	-81
317	-126	-82
86	-118	-40
-234	-58	17
-474	0	29
-502	19	6
-299	-8	37
40	-46	63
346	-55	-30
493	-15	-107
429	58	-76
225	122	-32
4	143	-10
-119	110	-23
-91	50	10
68	3	35
291	-6	49
496	23	56
614	58	22
602	68	21
436	35	54
135	-31	-24
-247	-102	-98
-589	-140	1
-787	-131	-72
-769	-76	-228
-538	12	-128
-202	106	19
100	183	-6
252	228	43
225	219	170
86	157	109
-59	47	53
-130	-80	-10
-117	-190	-46
-60	-244	-121
-18	-228	-170
-10	-147	-38
-8	-33	-136
23	70	-302
103	135	-294
200	150	-145
265	123	-114
263	71	-52
208	15	58
144	-35	-37
111	-75	-14
118	-100	56
126	-108	80
91	-104	118
-7	-91	171
-134	-74	150
-235	-58	140
-264	-45	100
-232	-27	-15
-172	1	-81
-121	39	-134
-81	77	-121
-20	99	-94
94	89	-71
239	40	-11
346	-31	62
342	-106	63
193	-152	8
-45	-157	-7
-255	-115	-12
-328	-50	-33
-252	12	-40
-112	50	-33
-43	51	-39
-124	25	-49
-325	-19	-43
-509	-65	-57
-546	-114	-51
-385	-173	-10
-109	-242	22
122	-312	6
197	-355	-17
113	-334	-4
-8	-226	-32
-17	-39	-43
151	173	-36
419	338	-32
618	391	-9
583	316	-12
300	150	13
-102	-25	32
-392	-126	67
-412	-117	62
-148	-12	-16
238	131	-41
522	251	-110
558	311	-110
340	313	-37
20	282	14
-232	240	59
-302	185	87
-215	105	66
-94	-2	-43
-60	-120	-131
-157	-206	-195
-324	-216	-199
-443	-144	-161
-415	-20	-71
-242	98	15
1	158	-56
196	140	-142
274	72	5
238	3	110
153	-33	20
97	-28	107
107	-6	87
165	4	5
212	-12	35
205	-43	43
133	-66	12
28	-68	-168
-59	-53	-200
-101	-48	-185
-96	-70	-194
-72	-118	-103
-56	-161	24
-55	-160	26
-57	-98	-47
-37	12	-15
13	127	-13
89	198	-7
159	197	15
199	124	13
202	14	-41
171	-100	-7
129	-183	58
93	-223	57
59	-207	54
14	-141	29
-60	-36	15
-161	84	14
-260	174	28
-320	203	21
-307	142	41
-225	12	36
-120	-130	-10
-67	-223	-48
-116	-223	-83
-259	-138	-111
-420	-25	-101
-486	47	-115
-375	39	-130
-86	-39	-43
284	-141	-24
608	-204	-43
769	-198	-28
723	-126	-20
529	-22	-21
278	78	-38
56	161	-13
-103	223	55
-217	272	68
-303	295	38
-357	269	58
-357	174	82
-267	13	81
-104	-174	52
83	-322	-16
205	-373	-85
208	-306	-176
89	-151	-153
-91	33	-68
-243	181	-53
-307	253	-19
-257	241	-30
-117	168	-6
65	66	-59
236	-32	-163
346	-103	-211
375	-129	-177
301	-101	-62
131	-19	-20
-99	94	65
-314	193	96
-445	233	74
-459	177	60
-375	36	19
-247	-140	-6
-136	-286	-18
-79	-333	-10
-54	-265	7
-21	-117	52
50	52	8
156	177	-45
257	225	-37
314	205	-35
326	158	-21
324	123	16
346	119	54
393	129	74
415	120	72
346	68	-31
164	-24	-53
-94	-124	11
-325	-198	-41
-418	-218	-42
-350	-187	22
-173	-129	87
-14	-74	149
40	-39	-18
-18	-21	-268
-103	-5	-281
-108	24	-105
20	68	-127
221	112	-175
368	137	-104
354	131	-41
155	99	17
-135	51	-28
-379	-2	-50
-459	-56	-72
-363	-120	-55
-175	-191	0
-12	-261	50
56	-301	47
35	-288	55
-4	-206	77
2	-74	44
71	64	50
166	165	56
223	198	61
206	170	-15
130	117	-83
46	79	-78
-1	81	-59
9	113	-27
47	147	74
76	149	178
60	105	130
-5	35	47
-104	-31	-127
-211	-63	-353
-299	-64	-260
-354	-53	-90
-360	-60	-60
-310	-97	-5
-208	-148	-5
-72	-181	-18
52	-163	-97
136	-90	-183
166	15	-198
159	101	-137
158	133	-19
188	103	76
237	27	108
257	-46	85
198	-89	93
48	-88	90
-140	-61	85
-287	-37	49
-307	-27	-2
-189	-23	-36
0	0	-79
141	62	-34
147	160	-20
2	259	-18
-213	308	31
-378	271	-7
-405	145	29
-285	-35	6
-93	-211	-55
66	-326	-46
120	-355	-38
72	-301	5
-6	-195	-29
-26	-75	-10
56	27	15
231	93	-14
421	122	-9
539	115	-43
537	79	-96
411	26	-108
215	-25	-41
13	-51	53
-130	-40	125
-186	17	159
-159	104	124
-86	193	12
-11	252	-35
28	253	-70
10	187	-252
-51	62	-201
-126	-91	-69
-172	-232	-127
-157	-319	-218
-74	-313	-273
56	-209	-166
192	-28	-78
292	170	11
326	313	87
276	348	138
150	257	163
-37	83	71
-248	-104	-23
-443	-226	-84
-575	-251	-61
-603	-198	6
-506	-126	127
-307	-94	221
-64	-121	152
147	-179	2
266	-207	-164
278	-159	-295
211	-27	-287
129	141	-186
84	272	-128
85	313	20
103	256	97
86	142	79
8	34	99
-114	-17	53
-217	-2	107
-237	47	69
-148	91	-49
16	89	-26
172	36	-3
253	-50	-100
230	-134	-137
139	-187	-87
58	-192	-124
54	-151	-142
136	-82	-106
260	-13	-74
339	26	-38
306	7	17
148	-66	50
-84	-174	76
-299	-259	87
-420	-275	70
-410	-195	17
-294	-40	-7
-135	126	31
-12	236	25
26	241	30
-26	153	15
-138	21	-57
-249	-80	-102
-308	-108	-83
-291	-64	-76
-206	9	-55
-88	64	-13
25	79	-15
104	60	-9
143	44	22
160	57	32
163	93	11
159	124	53
136	120	82
82	76	71
-11	16	51
-124	-16	8
-221	-2	7
-262	40	-60
-228	68	-138
-118	32	-139
39	-67	-98
212	-192	-54
350	-272	-82
419	-253	-101
396	-142	-128
277	-1	-81
99	88	26
-89	74	-3
-211	-29	56
-231	-147	174
-145	-188	112
-13	-106	39
94	85	0
124	301	-131
81	453	-244
23	477	-300
18	387	-335
103	227	-215
234	68	-10
325	-44	118
286	-109	141
103	-150	96
-166	-196	28
-392	-253	-51
-463	-298	-69
-351	-301	-49
-112	-240	32
133	-126	120
288	14	94
318	140	45
254	227	-69
184	261	-262
158	253	-194
184	228	-57
216	202	15
204	186	126
113	179	129
-42	166	112
-215	129	-8
-355	51	-70
-434	-70	-115
-455	-233	-148
-424	-402	-2
-354	-546	112
-248	-622	121
-110	-602	81
41	-481	-36
179	-271	-116
257	-21	-78
255	215	-97
175	382	-66
60	435	40
-36	369	93
-74	205	94
-37	7	39
44	-157	-52
125	-226	-162
147	-188	-96
80	-77	-18
-65	49	-48
-241	124	-20
-373	119	-11
-410	50	-12
-324	-33	-39
-144	-78	-48
63	-57	-62
211	13	-60
234	84	-51
111	114	-56
-117	76	-2
-361	-12	43
-534	-115	33
-561	-192	-20
-433	-226	-42
-201	-216	-47
50	-176	-38
242	-115	-58
338	-32	-56
350	76	-15
326	197	107
316	301	189
336	350	108
368	313	-21
371	195	-143
324	38	-157
234	-98	-208
140	-163	-129
82	-141	-9
66	-68	6
60	7	81
14	43	98
-93	37	159
-229	13	116
-314	9	-75
-267	48	-222
-70	114	-239
214	171	-207
452	183	-141
529	139	-8
401	68	-9
134	11	-4
-137	2	34
-308	38	103
-318	92	110
-228	121	15
-125	100	26
-93	35	-9
-136	-49	3
-200	-119	51
-212	-167	-12
-142	-195	-85
-16	-228	-42
98	-268	-40
149	-300	-101
136	-283	8
103	-187	-19
99	-5	-4
142	225	48
190	429	36
181	528	15
69	475	-48
-130	279	-80
-352	-2	-162
-515	-280	-232
-554	-474	-222
-470	-543	-93
-308	-495	-61
-132	-371	28
4	-229	49
92	-104	24
136	-11	40
149	60	-23
133	120	-11
93	166	-38
28	180	37
-38	138	55
-83	35	29
-82	-105	26
-27	-236	14
58	-308	38
147	-292	9
210	-196	-27
238	-66	-40
226	49	-46
178	117	-45
110	139	-42
35	145	-89
-16	166	-57
-29	228	-12
4	310	-3
58	379	9
85	391	11
40	332	8
-86	215	-11
-248	84	21
-369	-30	22
-371	-106	9
-241	-150	68
-34	-180	114
151	-210	39
229	-235	-60
170	-238	-56
25	-195	-155
-116	-107	-222
-162	9	-147
-84	123	-39
99	209	20
319	254	-30
506	260	-64
614	243	-35
608	202	47
462	141	57
180	54	93
-195	-55	112
-577	-170	65
-850	-263	-66
-909	-311	-170
-727	-308	-105
-373	-260	-230
10	-195	-255
269	-129	-86
341	-64	-54
257	5	93
139	92	124
113	191	-71
226	281	-128
425	332	-23
596	308	-38
620	200	-54
462	28	82
167	-162	87
-162	-317	67
-418	-389	11
-556	-363	22
-584	-268	60
-542	-141	-1
-459	-34	-45
-348	32	19
-198	61	108
-15	81	6
170	110	-59
287	150	-227
278	179	-326
130	166	-204
-105	105	-84
-321	19	69
-422	-43	125
-339	-42	125
-109	19	81
171	100	45
366	131	21
396	71	-27
266	-69	-19
66	-228	-58
-83	-320	-103
-100	-301	-88
12	-179	-131
169	-29	-170
268	77	-67
242	95	-7
109	43	29
-58	-21	68
-167	-48	38
-173	-21	26
-97	32	14
-3	67	-30
50	59	1
58	18	24
54	-12	-14
92	6	35
189	74	23
318	155	-2
404	199	29
389	173	11
251	89	-38
24	-8	-110
-221	-72	-141
-419	-84	-94
-524	-59	-54
-538	-38	-43
-481	-49	-43
-392	-86	-3
-300	-109	39
-216	-82	13
-148	13	7
-84	143	30
-16	252	62
64	287	53
158	235	58
253	123	24
321	10	-43
326	-61	-125
254	-85	-165
110	-89	-81
-61	-112	-62
-211	-173	-48
-277	-244	9
-232	-281	-57
-88	-240	-83
105	-119	33
284	33	34
407	157	76
452	204	164
428	186	63
363	141	-17
276	125	-168
175	156	-279
50	206	-143
-95	213	-108
-243	134	-136
-354	-28	-61
-389	-222	-38
-330	-372	-68
-201	-427	24
-54	-387	143
56	-292	163
107	-195	149
113	-120	90
109	-57	-50
121	17	-200
135	110	-168
103	201	-116
-18	244	-99
-235	213	-2
-481	117	129
-668	0	135
-704	-79	3
-564	-95	-107
-307	-62	-147
-29	-33	-111
159	-47	-88
221	-104	-34
184	-169	-43
117	-191	-90
84	-141	-28
101	-44	49
143	57	91
169	115	105
158	122	143
128	105	102
121	108	11
167	152	-104
254	213	-205
334	244	-167
346	202	-83
257	85	-29
88	-65	-42
-104	-178	-50
-243	-209	-28
-288	-158	1
-245	-68	12
-150	-7	48
-54	-10	62
13	-64	11
44	-120	-2
59	-121	-35
71	-44	-49
96	91	-67
129	229	-71
172	311	-21
216	311	3
251	243	-40
266	145	-50
237	60	-18
158	9	7
38	-14	63
-81	-25	62
-145	-39	20
-125	-48	-23
-23	-43	-42
105	-15	-2
182	34	20
141	83	-10
-23	108	-37
-260	97	-100
-480	53	-136
-581	-5	-48
-539	-67	-12
-377	-133	61
-188	-208	126
-63	-291	52
-56	-378	23
-152	-434	-59
-272	-425	-71
-330	-334	-65
-264	-178	-59
-95	-5	-57
120	129	-59
280	183	2
342	160	-46
323	92	-103
283	28	-67
299	5	-39
380	21	-66
458	51	-10
428	58	34
215	25	55
-151	-30	-4
-545	-76	-111
-805	-72	-154
-820	-18	-170
-595	62	9
-255	121	107
32	122	138
163	67	171
155	-14	162
111	-66	182
142	-60	12
284	6	-214
462	89	-333
553	137	-248
467	119	-69
214	38	1
-85	-59	-27
-299	-127	-62
-336	-131	-157
-217	-86	-164
-34	-29	-16
111	2	16
170	-5	34
157	-15	19
127	21	34
123	134	51
143	305	-7
152	461	-78
123	515	-144
55	406	-135
-18	161	-40
-59	-132	42
-55	-354	40
-20	-419	20
7	-322	-27
0	-132	-34
-47	43	93
-113	133	139
-172	126	72
-200	75	45
-181	47	64
-114	76	-14
-2	136	-128
124	166	-77
226	113	-68
252	-28	-41
172	-199	20
8	-318	22
-180	-326	-13
-299	-233	-81
-296	-98	-102
-174	-6	-61
-6	-11	32
117	-103	58
151	-223	22
115	-292	-10
86	-263	-51
126	-140	-128
237	23	-121
333	163	-38
311	227	11
111	209	39
-217	136	13
-539	56	-62
-702	-1	-92
-626	-23	-22
-355	-25	43
-34	-33	99
182	-62	127
221	-116	93
111	-171	22
-32	-202	-40
-109	-183	-123
-80	-110	-215
14	1	-221
94	125	-183
105	227	-51
59	279	6
14	278	-12
28	229	16
117	154	-17
238	72	-25
324	3	24
319	-43	12
228	-64	39
90	-68	-4
-34	-63	-36
-119	-66	87
-173	-82	52
-221	-108	41
-278	-129	6
-333	-118	-81
-353	-57	-58
-311	50	-78
-211	174	-86
-93	265	-53
-7	278	-42
19	197	-76
-4	53	-64
-41	-95	-41
-49	-187	-36
-18	-192	-65
42	-133	-53
105	-54	-19
147	-10	-63
172	-14	12
203	-49	71
249	-66	87
302	-34	129
334	47	111
310	138	117
225	188	144
98	168	60
-28	83	-12
-113	-21	16
-152	-101	-205
-165	-134	-437
-188	-130	-289
-239	-121	-162
-304	-126	-99
-337	-144	47
-287	-145	-6
-133	-105	2
91	-15	-11
320	103	-81
469	209	-56
484	275	-33
381	298	9
211	287	30
63	267	84
-6	229	80
4	158	32
52	34	-28
78	-134	-5
50	-306	53
-14	-417	62
-63	-414	30
-47	-296	-90
42	-113	-117
164	54	-103
252	138	-71
245	124	28
132	45	111
-54	-36	164
-255	-76	61
-422	-60	-74
-534	-29	-183
-576	-19	-172
-549	-54	-117
-448	-119	-48
-289	-169	44
-115	-163	68
15	-86	122
40	37	25
-47	162	-58
-193	241	-69
-296	251	-112
-269	194	-157
-96	93	-187
159	-21	-85
369	-122	-23
446	-192	-39
368	-222	-18
202	-212	4
48	-170	26
-22	-110	68
-11	-48	29
20	-2	-31
11	21	-52
-59	21	-81
-137	8	-60
-145	-2	-35
-33	3	-3
180	37	24
418	103	84
575	194	129
592	287	60
469	354	-7
254	366	-26
20	308	-10
-200	187	-8
-378	38	-52
-515	-95	-85
-602	-181	-78
-611	-216	-37
-524	-218	-46
-333	-215	36
-82	-218	110
172	-218	60
373	-189	-27
475	-107	-181
474	19	-186
396	150	-172
285	231	-128
175	225	-26
97	138	-30
60	12	-67
52	-88	-83
64	-124	-9
61	-94	17
30	-37	30
-32	-1	42
-105	-19	-12
-161	-85	-39
-180	-157	1
-159	-192	8
-114	-162	-18
-76	-71	35
-74	42	38
-111	142	45
-178	198	48
-252	206	-20
-299	179	-71
-291	142	-48
-211	106	-7
-59	77	-57
128	47	-7
292	11	47
355	-29	-13
280	-70	-30
85	-101	40
-145	-111	48
-307	-95	-10
-321	-61	75
-194	-20	56
-13	16	-46
122	33	-70
139	35	-114
64	22	-94
-24	9	-25
-32	2	13
56	-4	-44
180	-16	-153
234	-48	-148
149	-99	-139
-47	-158	-113
-243	-196	-67
-311	-192	-49
-193	-142	7
56	-53	69
310	41	147
439	112	78
398	139	-21
222	130	71
23	102	44
-99	75	-164
-108	60	-225
-42	49	-230
24	31	-149
41	-5	-9
0	-58	39
-65	-115	81
-108	-157	116
-101	-165	96
-39	-134	10
59	-68	-18
170	25	-55
262	124	-33
302	210	-48
258	257	-77
123	247	24
-74	183	52
-270	85	38
-378	-8	-23
-340	-65	-78
-167	-72	-86
69	-44	-121
249	-14	-111
288	-20	0
170	-71	104
-45	-155	106
-262	-228	138
-408	-249	147
-443	-203	57
-399	-104	-69
-321	5	-118
-247	86	-129
-165	113	-186
-60	88	-132
70	36	-70
201	-16	-49
275	-45	16
245	-50	8
99	-33	-8
-121	-1	-34
-330	33	-67
-446	74	-55
-432	114	-57
-296	143	-63
-104	149	-57
71	118	-23
172	55	-9
184	-23	20
147	-84	42
118	-108	27
151	-87	-13
261	-40	14
405	-2	87
506	7	32
506	-20	12
381	-56	-50
170	-75	-160
-40	-58	-65
-167	-18	23
-174	14	-37
-88	14	-69
24	-19	-94
96	-48	-89
105	-38	29
81	33	76
72	138	-7
103	221	-13
164	219	142
203	121	182
178	-35	133
75	-179	107
-67	-242	22
-191	-203	-53
-259	-101	-151
-259	5	-235
-228	60	-280
-205	58	-231
-215	24	-64
-242	1	100
-247	11	144
-191	46	42
-74	79	-98
77	83	-138
196	57	-109
232	22	-176
166	-1	-269
21	-1	-62
-138	3	108
-250	-4	4
-262	-35	1
-177	-76	24
-22	-97	9
144	-81	36
273	-23	46
341	46	24
351	103	27
320	123	-4
262	112	-21
181	89	119
75	75	258
-55	77	225
-191	77	110
-291	53	-35
-332	-11	-241
-298	-108	-360
-223	-213	-398
-156	-289	-338
-150	-309	-68
-214	-263	53
-317	-162	28
-390	-30	59
-361	102	62
-206	211	26
55	274	19
344	287	13
569	241	9
679	148	9
636	19	-5
470	-115	-11
216	-233	-62
-52	-308	-40
-295	-332	-25
-470	-309	-28
-540	-251	28
-491	-183	5
-333	-121	-21
-108	-76	-15
121	-45	-14
299	-20	17
373	10	26
344	49	-4
239	98	-20
98	141	16
-52	168	52
-201	164	58
-340	135	81
-453	89	64
-509	42	-17
-470	7	-117
-319	-11	-67
-88	-11	-65
154	3	-227
325	31	-324
383	72	-261
341	127	-91
261	187	39
216	233	164
244	244	166
323	209	96
400	128	63
418	25	-35
365	-67	-148
258	-131	-170
133	-155	-14
9	-153	111
-124	-150	67
-282	-151	28
-448	-156	-44
-561	-137	-141
-547	-86	-84
-366	-1	-57
-59	85	-198
265	130	-233
470	117	-113
475	51	-36
301	-23	49
58	-58	196
-123	-28	265
-176	53	189
-117	134	55
-35	166	-26
-19	116	-90
-90	11	-127
-200	-99	-66
-263	-153	19
-221	-127	37
-71	-43	-45
107	51	-81
234	103	32
249	88	0
169	23	-45
44	-54	-124
-58	-108	-189
-110	-121	-38
-107	-95	-17
-68	-51	-47
-12	-2	5
48	51	9
103	110	-11
128	166	81
100	198	103
5	181	5
-138	93	-74
-273	-47	-179
-341	-204	-173
-305	-326	-150
-185	-379	-34
-42	-359	82
59	-292	84
89	-219	68
68	-160	24
46	-114	29
72	-64	-1
152	8	-19
261	97	-14
359	177	5
413	215	-9
417	197	-26
371	130	-102
260	54	-132
57	7	-103
-250	9	-76
-619	51	9
-953	106	31
-1139	143	38
-1083	139	21
-793	95	48
-354	20	42
66	-68	-10
337	-153	-42
404	-215	-30
302	-238	-18
135	-208	-121
5	-131	-131
-35	-33	-90
16	49	-41
122	88	-5
245	71	-36
355	30	-28
439	8	-9
489	40	-52
476	129	-107
401	235	-105
277	299	-27
151	277	79
59	171	180
24	22	258
22	-108	231
4	-177	171
-66	-180	-19
-183	-142	-282
-290	-102	-359
-319	-80	-282
-232	-70	-154
-59	-57	30
118	-22	84
214	28	-44
194	76	-90
90	99	-24
-8	95	74
-28	75	135
45	53	49
155	44	-67
215	37	-19
170	18	-64
37	-25	-154
-108	-85	-163
-182	-132	-100
-143	-140	120
-31	-90	224
78	6	137
106	121	6
45	215	-56
-56	265	-100
-125	265	-119
-114	227	-43
-37	169	-69
48	103	-97
83	34	10
39	-43	124
-59	-131	129
-166	-225	87
-245	-308	58
-282	-361	-34
-299	-376	-133
-307	-343	-211
-300	-268	-198
-264	-168	-153
-189	-62	-90
-81	27	-12
23	86	-8
96	105	35
121	96	-50
123	74	-142
148	60	-107
226	72	-40
355	104	4
488	138	41
552	145	104
483	110	64
262	36	24
-72	-49	-9
-431	-109	-19
-712	-119	-43
-829	-79	-107
-743	-18	-93
-496	27	22
-175	31	65
107	-7	15
269	-62	19
290	-102	5
207	-102	68
94	-66	68
3	-21	32
-46	10	18
-80	8	-64
-133	-17	-84
-206	-43	-54
-260	-48	-71
-232	-27	-106
-89	10	-12
141	35	21
383	33	3
523	5	-20
506	-33	-75
363	-49	-64
157	-29	-44
-10	29	-2
-84	103	-7
-61	157	0
8	171	-21
78	142	-111
120	93	-94
136	51	-40
140	45	-11
133	76	-3
107	122	-11
49	158	10
-26	158	9
-92	123	26
-105	70	8
-50	26	102
56	9	224
167	19	196
224	40	212
199	45	101
89	14	-82
-69	-53	-316
-235	-151	-449
-375	-254	-350
-459	-352	-259
-470	-429	-140
-393	-474	-78
-235	-460	-78
-12	-380	41
224	-215	82
411	13	40
494	253	16
458	438	-53
331	504	-104
172	428	-67
42	241	-33
-32	17	-15
-58	-163	80
-76	-254	49
-118	-251	42
-198	-199	32
-296	-141	0
-376	-102	48
-392	-66	41
-328	0	58
-189	117	15
-12	267	-52
162	396	-92
287	438	-111
331	362	-42
276	190	24
133	-9	13
-61	-160	32
-251	-215	31
-388	-189	-44
-429	-130	-11
-377	-101	-35
-261	-131	-109
-132	-203	-98
-30	-273	-130
37	-292	-78
96	-245	-71
172	-144	-33
288	-30	9
418	68	24
502	141	70
484	194	60
334	244	82
86	290	76
-191	321	40
-405	313	-33
-503	261	-25
-487	171	-50
-397	70	-63
-288	-11	-54
-183	-53	-67
-75	-57	2
67	-41	40
251	-27	87
446	-33	111
581	-64	68
602	-112	15
496	-157	-45
318	-182	-155
153	-173	-208
69	-134	-182
82	-76	-140
124	-23	-32
111	6	91
-6	-4	77
-204	-46	-44
-397	-98	-116
-481	-131	-107
-410	-124	-172
-217	-74	-197
-10	5	-59
121	89	34
136	154	37
69	193	87
-11	200	110
-48	174	-67
-46	111	-126
-54	1	-68
-120	-153	-88
-248	-326	10
-383	-473	64
-447	-539	71
-381	-485	68
-205	-319	57
7	-88	32
162	140	-14
204	301	4
156	366	15
83	345	36
59	277	22
109	202	-32
191	145	-113
234	108	-151
183	77	-148
41	38	-104
-126	-8	-37
-232	-47	13
-212	-65	65
-66	-48	54
148	-1	-35
344	65	-108
454	135	-84
451	188	-21
363	215	-24
242	213	-43
128	190	55
41	152	49
-24	113	76
-81	86	84
-139	74	13
-191	67	-40
-229	49	-60
-239	7	-36
-229	-69	-110
-217	-176	-109
-218	-282	-39
-234	-368	8
-249	-403	-52
-244	-384	-85
-189	-326	-99
-77	-257	-96
85	-199	-26
268	-160	-100
431	-134	-47
541	-97	69
553	-33	77
451	55	152
238	147	129
-43	203	68
-321	197	22
-545	124	-60
-647	11	-155
-639	-97	-203
-545	-154	-81
-410	-133	38
-272	-40	143
-122	99	205
58	244	124
280	366	9
528	438	-91
732	450	-168
818	396	-253
740	282	-164
527	130	-57
245	-29	-82
0	-153	-140
-153	-215	-112
-206	-214	-31
-209	-173	-43
-226	-136	84
-285	-136	91
-375	-178	42
-443	-226	-21
-448	-240	-120
-377	-201	-80
-263	-126	-30
-172	-65	63
-133	-65	43
-156	-140	31
-197	-249	56
-215	-315	1
-172	-272	21
-63	-101	20
78	149	-100
212	385	-71
296	505	-71
309	475	-188
254	312	-86
166	98	-19
89	-68	-10
62	-133	56
121	-86	95
258	21	22
432	120	1
568	160	35
591	123	-42
468	40	-38
224	-47	-92
-55	-101	-92
-285	-109	-37
-388	-82	-44
-362	-40	37
-258	-2	78
-143	30	-31
-81	58	-126
-75	89	-47
-109	109	-2
-147	104	24
-168	65	21
-168	1	-22
-152	-62	21
-115	-94	-58
-50	-74	-88
39	-13	-71
132	49	-96
188	71	-36
178	26	16
106	-70	80
18	-180	65
-27	-248	46
-3	-254	16
74	-211	-96
137	-155	-107
138	-119	-84
68	-103	-56
-20	-79	2
-54	-6	51
4	125	94
118	279	109
206	392	149
188	392	68
42	267	0
-167	57	-25
-344	-143	-116
-404	-259	-171
-344	-257	-201
-226	-165	-125
-130	-57	-40
-102	10	-36
-119	17	-39
-117	-3	-98
-51	-7	-97
76	27	-31
202	89	-48
255	139	-69
205	149	-104
71	113	-162
-71	64	-98
-168	33	-38
-188	22	0
-152	10	78
-88	-40	22
-20	-136	55
61	-252	91
181	-325	138
328	-311	163
459	-201	95
498	-43	61
398	93	-51
162	165	-129
-134	166	-173
-385	130	-139
-496	102	-76
-451	90	21
-304	76	71
-152	18	30
-69	-89	-11
-83	-224	-69
-159	-322	-122
-241	-341	-182
-287	-263	-88
-279	-127	24
-221	4	77
-115	92	103
44	130	91
267	149	72
536	186	5
769	244	-16
883	298	-30
793	299	-115
501	230	-224
96	106	-236
-298	-22	-106
-540	-109	22
-588	-142	116
-491	-149	133
-361	-175	69
-299	-238	-2
-329	-316	-31
-388	-346	-72
-370	-263	-136
-200	-52	-39
107	233	9
446	495	-10
689	627	30
723	591	32
553	415	53
257	185	68
-21	-3	68
-174	-90	32
-167	-86	-19
-52	-41	-157
74	-19	-273
127	-46	-186
75	-110	-133
-42	-170	-51
-152	-182	15
-182	-140	-53
-104	-64	-59
52	7	-41
216	49	27
312	65	7
285	77	28
136	105	84
-88	152	51
-318	186	93
-477	169	63
-511	70	14
-415	-102	31
-215	-308	46
14	-478	-3
200	-557	-86
288	-517	-119
265	-370	-138
161	-166	-171
31	37	-133
-53	182	-52
-62	243	21
2	215	112
97	134	127
179	39	2
212	-36	-120
191	-64	-195
136	-55	-145
74	-30	-15
20	-17	-30
-26	-37	-11
-86	-81	59
-167	-125	125
-259	-134	135
-329	-94	95
-330	-13	54
-235	72	-40
-61	119	-92
120	106	-145
229	42	-70
194	-34	-2
15	-78	-54
-236	-56	-30
-452	23	-28
-534	124	-12
-448	203	14
-252	223	6
-44	185	-19
81	109	-115
102	39	-147
58	-3	-92
22	-10	-75
38	7	41
90	26	87
118	30	7
74	21	-19
-36	3	-105
-136	-13	-135
-139	-24	-86
-5	-32	11
209	-43	87
385	-54	84
414	-62	-1
262	-61	-121
15	-49	-176
-200	-29	-149
-256	-5	-117
-131	16	39
105	35	178
336	57	126
472	85	190
498	114	164
452	130	39
383	121	-99
302	72	-181
184	-11	-193
8	-117	-110
-228	-223	28
-442	-297	52
-551	-322	77
-503	-291	4
-321	-207	-60
-99	-85	-56
75	52	-91
141	178	-101
121	268	-80
71	305	17
52	284	77
68	215	48
81	117	42
44	16	62
-51	-63	-44
-167	-104	-155
-233	-108	-138
-198	-82	-211
-69	-40	-112
94	2	-68
216	36	-15
252	53	82
202	56	48
110	45	94
24	23	-15
-36	-4	-10
-78	-28	-31
-121	-41	-158
-178	-46	-84
-229	-45	70
-245	-53	12
-203	-80	-39
-118	-131	40
-29	-192	95
20	-238	138
7	-245	132
-48	-194	9
-99	-98	-204
-86	20	-267
12	121	-357
171	175	-306
331	185	-139
419	163	-43
397	144	91
268	145	90
93	161	44
-59	162	29
-131	119	45
-124	23	60
-93	-100	91
-114	-189	109
-237	-196	87
-451	-98	60
-663	58	11
-751	190	-49
-636	210	-118
-321	82	-86
81	-154	-39
421	-394	-47
560	-524	-5
466	-470	4
216	-242	11
-32	68	17
-156	340	-6
-106	482	-2
54	459	34
212	312	63
279	114	64
229	-63	78
119	-186	21
29	-249	-102
8	-264	-130
39	-253	-64
64	-211	-36
39	-136	-23
-30	-31	-24
-83	97	-33
-54	222	-81
75	325	-141
251	383	-138
379	386	-103
373	325	53
231	209	107
10	49	107
-183	-123	61
-279	-268	-162
-271	-351	-282
-207	-351	-87
-149	-286	77
-121	-192	26
-103	-107	7
-55	-52	-71
42	-19	-205
154	17	-182
226	75	-28
216	150	0
131	213	-96
23	230	-83
-49	181	-11
-56	85	-75
-28	-22	-42
-20	-98	26
-74	-125	30
-176	-122	-8
-272	-115	-103
-296	-126	39
-228	-152	177
-101	-168	215
16	-148	203
65	-84	64
50	2	-62
15	80	-165
14	119	-136
72	118	-93
155	99	-88
198	93	-92
159	116	-63
48	165	60
-76	213	120
-143	230	145
-118	199	79
-22	121	-39
96	14	-57
182	-92	-116
225	-167	-129
244	-192	-108
269	-164	-76
306	-89	-30
317	0	-35
251	70	-31
78	95	-19
-176	58	28
-450	-18	41
-652	-103	59
-740	-157	71
-717	-160	16
-621	-119	6
-497	-61	-19
-354	-19	-83
-170	-8	-91
66	-31	-44
344	-66	49
575	-102	27
678	-125	-30
583	-135	-47
318	-133	-93
-11	-117	-83
-277	-84	-81
-372	-29	-13
-298	33	64
-136	81	4
-9	96	-47
15	72	10
-56	25	-2
-140	-24	-54
-141	-50	-88
-18	-45	-176
184	-23	-145
370	-1	-101
439	6	-30
358	6	31
169	13	51
-36	47	22
-159	110	-37
-150	183	-52
-24	236	-88
147	239	19
279	185	123
314	90	134
245	-16	143
104	-99	78
-38	-139	-56
-119	-127	-156
-105	-76	-214
-13	0	-273
110	78	-205
203	142	-26
228	183	127
182	201	152
101	200	112
19	191	60
-47	182	7
-106	169	-16
-177	138	-20
-272	72	-81
-364	-37	-64
-415	-180	-63
-386	-322	-32
-276	-421	27
-130	-437	-20
2	-362	-52
65	-226	-104
58	-71	-68
10	48	-25
-26	105	48
-20	106	84
29	76	33
87	41	48
113	22	126
86	11	78
9	-7	23
-87	-43	39
-162	-90	-131
-182	-129	-331
-140	-136	-371
-48	-100	-202
63	-32	-113
155	44	-16
200	104	137
196	131	56
158	132	-117
124	120	-90
129	109	42
179	106	44
249	110	72
288	114	54
257	110	-10
137	92	-57
-34	53	-74
-201	-8	-46
-307	-97	-33
-325	-200	-3
-278	-291	-2
-207	-333	59
-147	-291	112
-109	-171	127
-78	-5	88
-32	134	-31
20	183	-114
50	113	-48
18	-47	22
-89	-223	41
-233	-319	96
-353	-289	34
-377	-154	-50
-291	17	-151
-138	134	-253
-1	147	-387
57	77	-331
33	-10	-60
-21	-31	51
-28	45	92
50	181	54
187	290	31
302	289	26
322	155	26
216	-59	57
45	-252	51
-99	-329	24
-128	-260	9
-26	-88	8
155	93	-52
317	202	-52
386	211	-4
341	155	65
225	97	57
99	85	35
18	124	17
0	171	-41
21	181	17
44	127	-39
47	34	-57
26	-54	9
-3	-96	-53
-14	-88	-161
-1	-62	-197
22	-57	-68
28	-95	11
-20	-154	-12
-125	-189	-66
-260	-158	-56
-357	-56	-31
-355	79	35
-226	196	101
-7	251	76
207	236	24
322	181	-126
279	135	-251
123	125	-117
-51	150	87
-136	180	136
-96	170	120
22	103	78
113	-24	3
90	-175	-211
-51	-308	-241
-226	-384	-171
-319	-379	-115
-259	-304	18
-76	-178	38
130	-44	19
249	60	-44
230	109	-57
120	93	-24
17	40	54
13	-19	91
123	-45	91
296	-27	8
432	30	-124
468	98	-168
381	140	-256
203	145	-213
-28	109	-81
-292	48	0
-569	-21	109
-827	-90	192
-1017	-157	98
-1067	-218	8
-936	-265	45
-635	-290	24
-252	-278	-29
97	-238	-14
325	-195	-13
396	-167	-4
350	-167	18
267	-182	2
211	-186	-7
198	-155	-44
201	-84	-84
175	2	-78
104	74	-25
6	106	-8
-65	106	3
-60	94	24
31	102	34
187	147	43
346	218	4
454	298	-15
481	356	-16
432	388	-5
336	391	5
216	372	-24
101	329	0
-15	252	5
-121	144	-56
-208	10	-125
-255	-117	-165
-249	-209	-124
-197	-245	-78
-126	-226	0
-70	-180	59
-49	-130	48
-44	-94	38
-20	-55	-40
60	-6	-182
188	59	-72
314	122	133
350	145	70
242	105	54
-15	1	-9
-332	-131	-177
-589	-238	-265
-691	-274	-187
-595	-227	0
-365	-123	152
-97	-7	232
103	77	117
193	114	111
198	115	94
178	106	-119
184	104	-234
224	113	-200
261	121	-157
245	108	-149
159	66	-126
22	-1	-111
-109	-74	4
-178	-129	168
-165	-149	124
-88	-130	-65
-2	-89	-192
44	-41	-153
29	-6	-106
-28	11	-125
-78	19	-37
-75	31	16
1	56	11
128	86	61
242	99	147
269	66	152
164	-24	112
-71	-154	79
-378	-286	15
-651	-363	-28
-781	-354	-54
-720	-254	-91
-489	-102	-106
-175	43	-40
109	139	-21
287	170	21
330	157	-8
283	138	-40
223	150	-27
205	190	-18
245	228	17
320	229	-18
382	166	-49
405	50	-55
381	-85	-9
320	-192	9
226	-246	13
87	-245	-8
-97	-203	-50
-315	-158	-44
-518	-120	-13
-634	-94	51
-589	-70	97
-377	-41	95
-38	-5	49
320	34	51
585	65	40
676	90	-89
569	109	-156
322	131	-138
17	162	-198
-242	191	-205
-390	204	-125
-406	186	-78
