File Name: not saved
Channel 2: 'Channel 2', 30690 values, raw ADC, no filters.
Channel 3: 'Channel 3', 30690 values, raw ADC, no filters.
Channel 4: 'Channel 4', 30690 values, raw ADC, no filters.

-21	13	-46
4	-12	-19
36	-41	24
71	-34	63
94	35	75
93	153	8
72	260	-16
38	287	-15
7	194	-60
-16	10	-97
-30	-194	-33
-41	-320	-1
-61	-311	-24
-88	-177	-24
-111	10	-11
-115	153	19
-92	189	4
-42	114	27
20	-11	52
78	-116	24
117	-148	3
133	-109	-41
132	-49	-48
116	-22	-46
87	-55	-24
43	-122	-7
-11	-181	-24
-67	-184	1
-114	-127	22
-133	-42	31
-124	24	29
-92	43	35
-52	24	25
-20	1	-15
0	12	-60
14	69	-137
31	149	-176
54	206	-111
80	210	15
93	160	93
82	81	91
46	13	74
-5	-19	49
-53	-22	3
-85	-16	-139
-96	-26	-383
-93	-54	-478
-84	-88	-201
-75	-100	53
-61	-78	142
-39	-29	208
-2	29	138
47	74	65
98	99	-54
133	112	-180
142	124	-167
120	149	-162
72	171	-223
13	179	-123
-45	145	16
-91	67	56
-116	-50	2
-121	-176	-68
-110	-270	-21
-86	-304	-8
-54	-259	76
-19	-153	132
16	-22	135
46	76	129
74	100	13
94	43	-70
103	-64	-82
101	-160	-63
86	-181	-2
59	-101	116
21	47	116
-23	187	70
-67	236	27
-101	156	3
-119	-22	39
-115	-214	-50
-91	-316	-202
-49	-273	-302
-1	-105	-211
41	106	-152
69	261	-147
79	294	-46
72	205	32
56	62	63
44	-54	74
44	-97	91
48	-60	68
50	2	46
37	38	25
2	16	16
-51	-46	39
-103	-108	40
-130	-126	14
-125	-89	-15
-82	-18	-34
-20	51	-40
41	91	-26
80	97	-30
89	91	-3
76	89	26
52	97	27
30	99	100
13	68	127
-2	-2	95
-20	-96	75
-42	-172	11
-66	-193	-138
-86	-144	-403
-94	-47	-513
-91	53	-432
-74	106	-282
-50	92	-70
-20	21	48
16	-68	77
52	-127	101
85	-129	101
104	-70	44
104	20	-14
84	106	42
46	160	52
3	166	76
-41	133	179
-77	74	133
-101	4	116
-109	-68	149
-101	-136	113
-77	-189	13
-35	-211	-176
13	-187	-348
59	-110	-312
93	10	-177
107	138	-150
101	232	-121
82	252	-86
57	187	-18
32	65	-44
7	-60	-108
-22	-139	-77
-54	-149	-90
-89	-96	0
-112	-28	120
-115	9	129
-94	-7	117
-51	-62	124
-2	-115	168
41	-121	87
67	-64	-15
75	38	-36
70	139	-22
63	199	-84
58	191	-122
54	126	-61
45	44	-17
23	-18	114
-10	-37	199
-50	-21	187
-85	9	87
-101	21	-32
-96	3	-129
-74	-40	-238
-44	-88	-364
-17	-113	-430
3	-108	-278
19	-72	-63
36	-33	38
58	-5	62
85	0	61
105	-7	42
107	-8	55
84	11	56
34	51	67
-29	90	87
-89	94	111
-127	49	65
-139	-41	24
-123	-136	0
-93	-195	-42
-59	-189	-11
-31	-120	-54
-7	-22	-57
18	65	-85
52	113	-122
93	120	-24
127	97	51
147	64	91
137	30	56
96	-12	-36
35	-58	-50
-31	-102	-7
-82	-120	20
-112	-95	31
-118	-21	-50
-108	71	-68
-93	143	-19
-71	165	-74
-49	121	-181
-16	40	-194
25	-44	-133
74	-92	-84
114	-89	38
131	-49	72
121	5	64
81	48	65
25	65	10
-30	55	-50
-72	23	-103
-95	-23	-84
-100	-74	-12
-93	-111	75
-81	-124	77
-61	-103	35
-38	-50	5
-7	18	-89
28	80	-243
57	112	-306
79	113	-198
85	91	-15
77	68	135
58	61	141
34	77	173
6	104	217
-26	112	154
-56	80	82
-85	-2	17
-98	-113	-133
-94	-214	-289
-70	-260	-352
-39	-223	-333
-10	-112	-202
10	34	-41
20	153	61
27	200	22
39	160	38
62	53	46
87	-67	16
100	-165	2
90	-210	16
49	-210	90
-7	-177	79
-68	-126	111
-114	-57	136
-132	34	107
-122	134	34
-91	215	34
-47	236	45
4	164	-84
54	10	-176
101	-166	-186
132	-282	-181
137	-280	-172
118	-152	-148
71	38	-136
16	202	-34
-37	262	-28
-75	208	-81
-94	83	-50
-99	-40	-22
-97	-104	17
-93	-106	76
-82	-76	91
-60	-57	57
-27	-70	52
14	-88	31
53	-72	24
85	-1	8
99	109	0
99	204	22
89	236	15
71	188	22
42	94	27
11	8	9
-27	-28	14
-64	-16	26
-90	13	-6
-97	17	-37
-86	-16	-26
-62	-68	-2
-36	-106	-2
-12	-105	-38
5	-75	-87
22	-45	-137
39	-46	-122
58	-70	-75
74	-89	-64
78	-67	-95
65	0	-65
37	81	41
1	120	67
-37	87	77
-69	-7	43
-93	-103	14
-105	-139	81
-105	-84	40
-93	33	-95
-64	145	-230
-25	185	-211
23	131	-109
69	19	-63
105	-84	9
120	-122	-24
114	-86	-105
91	-7	-87
56	64	-36
19	88	-12
-16	63	-16
-46	20	-32
-69	-11	-18
-88	-19	17
-96	-14	-80
-95	-20	-68
-82	-50	21
-54	-96	-40
-17	-133	-36
26	-134	-7
67	-90	48
102	-15	124
118	63	98
115	110	1
97	110	-100
63	59	-175
23	-19	-179
-22	-99	-85
-62	-148	11
-97	-142	2
-121	-88	-45
-130	3	-47
-122	96	26
-95	158	65
-54	170	58
-7	127	60
42	51	46
86	-34	82
118	-102	65
134	-137	16
132	-133	-7
110	-95	4
69	-31	-14
17	40	-49
-39	96	-66
-88	115	-61
-122	86	-14
-136	18	-35
-133	-64	-41
-113	-127	-53
-83	-139	-51
-46	-98	-2
-7	-18	-21
30	64	-36
63	119	-27
89	128	-12
104	100	-3
106	57	-1
97	20	49
72	1	50
35	-9	46
-11	-17	22
-58	-36	-40
-97	-62	-44
-116	-86	-89
-109	-92	-121
-80	-70	-109
-39	-27	-78
2	34	-43
34	98	22
54	147	87
63	171	78
70	171	80
75	152	37
74	119	9
57	86	5
25	54	-121
-17	14	-190
-60	-47	-167
-90	-139	-172
-100	-248	-250
-89	-340	-315
-65	-370	-195
-38	-301	59
-13	-143	208
8	58	159
29	225	160
52	289	86
74	232	-151
85	91	-345
81	-46	-303
56	-109	-41
18	-66	112
-26	34	218
-68	114	216
-95	95	70
-104	-37	-57
-94	-227	-155
-67	-378	-198
-33	-403	-182
6	-287	-115
38	-81	-40
61	120	43
75	233	67
80	233	74
79	158	77
76	77	85
65	43	102
44	68	55
11	114	13
-32	127	21
-72	84	37
-98	-5	28
-99	-92	72
-78	-129	82
-47	-101	42
-18	-23	-13
-1	57	-27
8	108	11
18	114	-26
35	96	-89
62	74	-180
87	69	-289
94	71	-353
75	60	-208
29	22	-32
-24	-47	32
-71	-122	63
-97	-175	13
-102	-182	26
-91	-139	0
-75	-64	-4
-58	18	26
-44	82	48
-28	120	78
-5	131	93
21	130	124
44	124	71
58	108	6
65	77	-35
67	14	-42
69	-83	-39
72	-200	-15
68	-301	-57
48	-351	-154
8	-318	-150
-46	-211	-103
-99	-74	-19
-128	41	-23
-122	90	-34
-84	67	-2
-27	10	-40
24	-29	-15
53	-3	-92
58	92	-151
44	225	-76
27	335	-103
17	372	-104
16	316	-46
18	174	-21
18	-12	35
7	-199	74
-12	-338	46
-32	-399	63
-50	-362	97
-58	-237	69
-56	-65	36
-41	96	20
-16	189	26
17	193	43
49	123	-21
77	38	-61
89	-1	-39
82	22	-50
61	92	-41
31	143	-37
2	131	-98
-26	45	-168
-51	-70	-170
-76	-154	-71
-97	-160	6
-110	-89	38
-106	5	83
-80	62	66
-35	53	3
14	-6	-89
55	-64	-104
78	-71	-24
82	-14	-51
72	72	-56
63	138	-6
52	138	8
42	72	1
21	-22	-52
-11	-101	-22
-51	-127	-8
-88	-111	-9
-104	-75	-15
-94	-45	-25
-66	-31	24
-31	-10	31
-4	41	22
11	132	23
14	237	20
17	301	1
29	276	-9
49	136	17
75	-81	13
91	-304	-23
91	-441	-11
69	-443	13
31	-312	-40
-19	-112	-133
-69	61	-232
-105	140	-243
-119	108	-154
-103	4	-57
-63	-97	-3
-11	-127	2
40	-68	-1
72	48	39
85	164	49
80	219	-52
66	200	-62
51	122	3
38	35	48
18	-24	22
-13	-42	-12
-52	-25	29
-95	3	28
-120	29	50
-123	45	57
-99	56	24
-58	60	-33
-16	48	-103
22	12	-103
48	-44	-130
69	-101	-151
85	-126	-30
97	-105	101
95	-45	140
77	19	110
40	52	103
-5	29	108
-48	-40	71
-79	-123	33
-90	-175	-64
-86	-177	-92
-72	-135	-37
-54	-75	-69
-34	-22	-154
-10	18	-223
17	52	-239
44	95	-229
66	144	-125
76	179	-18
72	174	-30
58	116	-58
38	21	-31
14	-70	-34
-10	-125	-46
-40	-122	-12
-71	-79	14
-99	-29	93
-115	-8	130
-109	-21	147
-84	-48	98
-41	-58	-23
7	-26	-108
47	39	-111
72	112	-54
85	156	-83
83	155	-117
72	117	-83
56	67	8
34	33	42
9	23	79
-16	28	98
-39	27	74
-54	7	106
-60	-28	43
-57	-66	-52
-51	-88	-88
-40	-89	-57
-27	-78	-11
-10	-68	-39
16	-66	-84
46	-71	-100
80	-70	-68
104	-50	-12
111	-11	-3
98	35	-19
60	67	-20
8	68	-75
-48	38	-115
-91	-18	-76
-114	-78	-32
-113	-123	-46
-93	-142	-18
-64	-128	30
-34	-86	43
-11	-21	34
8	46	15
25	105	38
40	138	52
54	142	39
60	126	26
56	104	10
37	89	-48
12	79	-141
-17	63	-217
-39	23	-171
-51	-48	-90
-54	-138	-44
-51	-211	37
-45	-229	53
-37	-176	66
-23	-66	79
0	52	40
29	135	1
62	154	-36
87	117	-49
96	61	-51
86	21	-31
59	18	-36
25	37	-4
-8	47	26
-38	25	-11
-65	-32	-11
-92	-97	-12
-113	-140	38
-124	-137	63
-115	-95	9
-81	-33	6
-28	16	3
33	42	-85
84	50	-142
111	56	-111
113	75	-139
96	106	-214
69	134	-230
43	141	-161
21	112	-55
1	48	25
-22	-35	32
-50	-121	-21
-78	-190	-59
-97	-228	2
-106	-227	54
-99	-187	13
-80	-119	11
-51	-38	26
-16	39	56
25	96	94
69	127	77
113	132	64
143	119	67
147	96	38
121	68	32
69	43	33
6	28	-10
-52	23	-84
-96	32	-98
-116	35	-32
-120	22	-8
-111	-25	10
-93	-96	-34
-60	-166	-100
-18	-196	-100
32	-166	-120
84	-80	-127
117	24	-120
124	95	-88
104	101	-96
64	45	-40
21	-29	33
-16	-77	51
-39	-71	86
-56	-27	35
-68	17	15
-83	26	52
-91	-12	63
-91	-63	47
-71	-89	25
-38	-56	-26
4	23	-68
42	109	-51
68	159	-51
78	150	-44
78	98	9
71	41	15
62	13	-26
46	18	-102
25	33	-144
-7	27	-92
-44	-15	-65
-78	-80	-69
-98	-131	-86
-100	-142	-30
-84	-105	-1
-55	-38	2
-23	27	24
8	71	-12
31	88	17
49	92	65
62	93	65
67	94	87
66	81	65
56	38	24
40	-30	34
20	-108	12
-1	-162	22
-24	-174	-48
-46	-138	-243
-64	-84	-265
-79	-38	-142
-80	-19	-152
-65	-26	-175
-37	-34	-120
-1	-23	-60
31	17	41
52	71	-3
57	117	-12
50	129	-12
33	101	-10
15	48	65
0	-11	69
-16	-53	41
-28	-78	32
-40	-82	32
-44	-77	-7
-44	-67	44
-36	-48	71
-24	-18	53
-12	26	12
4	71	-42
19	105	-4
40	112	-13
63	89	-72
85	50	-109
94	11	-62
83	-12	-17
53	-17	-46
8	-13	-97
-39	-15	-114
-81	-37	-18
-109	-72	26
-122	-113	32
-120	-133	23
-101	-122	-11
-66	-78	-8
-17	-15	-45
36	45	-47
84	89	-30
110	106	-38
107	108	-30
83	98	-19
45	85	-17
13	70	-20
-10	45	-22
-23	7	45
-35	-45	45
-56	-101	8
-83	-142	28
-104	-154	-10
-106	-132	-53
-80	-86	-100
-29	-25	-109
30	31	-94
80	77	-85
107	103	-43
111	109	-22
97	101	-2
77	76	17
55	40	51
38	-6	82
17	-47	65
-11	-77	37
-46	-89	24
-80	-83	41
-105	-69	26
-112	-56	-6
-100	-49	6
-70	-43	26
-30	-27	26
13	8	10
49	63	-57
75	121	-198
86	166	-306
81	174	-383
64	137	-455
41	62	-211
12	-27	52
-15	-100	103
-41	-139	155
-65	-139	144
-86	-117	149
-98	-90	51
-95	-79	-47
-78	-91	-108
-44	-107	-62
-5	-107	-25
34	-71	-128
60	0	-140
72	84	-100
72	149	-29
65	166	-35
55	134	-15
44	69	36
30	11	90
8	-16	79
-22	-3	21
-54	27	14
-85	39	38
-98	9	69
-93	-64	48
-68	-149	53
-31	-200	31
8	-185	9
42	-101	-29
65	20	-65
78	132	-45
77	190	11
71	177	-24
58	109	-63
40	26	6
18	-36	15
-11	-56	7
-39	-38	12
-65	-4	-47
-84	24	-70
-93	32	-65
-88	20	-47
-71	-3	-4
-48	-31	-12
-12	-55	-21
29	-71	-27
70	-70	-7
102	-45	41
114	2	66
102	63	40
68	111	-43
27	125	-106
-14	88	-156
-42	11	-231
-59	-78	-154
-68	-139	-42
-74	-150	-13
-78	-113	49
-74	-51	108
-56	3	121
-19	34	69
26	47	54
69	54	53
93	74	32
90	100	-30
68	120	-177
40	112	-242
19	70	-197
5	7	-100
-5	-55	8
-22	-94	-12
-50	-101	-46
-81	-86	-12
-103	-67	16
-105	-58	-7
-87	-55	26
-50	-49	108
-10	-27	101
27	13	-16
58	60	-194
83	96	-229
101	106	-179
105	90	-133
90	53	-127
54	13	-128
3	-24	-43
-47	-51	72
-84	-72	169
-99	-90	152
-95	-98	71
-83	-96	-13
-67	-78	-99
-54	-45	-107
-38	-1	-27
-14	46	18
18	88	26
49	119	24
71	131	95
77	120	139
66	83	118
49	26	113
28	-38	93
9	-92	104
-8	-120	32
-25	-121	-76
-43	-101	-155
-55	-79	-177
-56	-64	-112
-46	-62	-74
-24	-59	-104
-1	-40	-92
20	1	-143
36	58	-153
48	110	-60
59	137	-76
68	131	-12
68	99	-49
53	61	-104
21	32	-54
-24	14	-65
-68	-4	-49
-103	-36	-16
-116	-89	14
-107	-153	38
-78	-202	24
-39	-214	66
0	-177	108
34	-102	56
57	-9	13
68	70	18
69	117	52
63	134	69
57	124	30
49	108	5
41	93	8
26	88	-25
0	87	-67
-34	77	-118
-71	45	-124
-102	-16	-95
-115	-101	-42
-108	-185	18
-82	-229	10
-43	-203	14
-1	-97	-6
39	58	-16
75	204	-3
99	277	-68
111	241	-94
106	113	-71
80	-47	-38
39	-167	-30
-6	-199	-64
-42	-157	-42
-63	-82	-41
-69	-39	-72
-64	-53	-86
-58	-105	-30
-51	-142	40
-45	-121	50
-31	-35	63
-7	77	96
25	162	138
58	181	131
79	141	65
85	80	10
68	43	7
40	48	45
6	80	31
-26	103	-65
-53	96	-182
-75	63	-265
-89	25	-344
-93	-1	-390
-81	-26	-312
-57	-67	-236
-23	-144	-68
12	-237	129
40	-297	163
58	-268	139
64	-134	84
66	63	53
64	235	12
60	295	16
50	215	1
31	49	-111
2	-114	-61
-31	-186	70
-58	-143	162
-78	-32	209
-81	62	170
-71	81	168
-54	26	82
-31	-49	-41
-5	-72	-74
24	-19	-167
51	85	-301
74	174	-310
82	190	-227
72	127	-133
47	28	-72
13	-39	13
-23	-40	94
-55	19	106
-79	82	59
-93	89	-50
-99	15	-54
-92	-117	-53
-72	-243	-49
-40	-301	-22
2	-262	-36
42	-140	-30
72	13	-28
85	140	-21
81	205	43
67	199	96
52	150	53
40	98	13
31	79	-2
18	98	-36
-2	130	-30
-32	129	-34
-63	53	-90
-86	-101	-82
-91	-282	-21
-70	-406	17
-38	-386	7
1	-196	-23
32	91	-33
52	345	-60
63	435	-63
71	295	-10
80	-20	3
87	-356	5
83	-541	-4
62	-490	-12
20	-238	-2
-37	64	-27
-93	253	-17
-132	241	-19
-139	64	-13
-115	-136	16
-63	-226	26
-1	-139	30
59	67	22
106	269	21
131	358	-7
135	298	-5
120	147	-17
88	5	-32
39	-51	-32
-21	-21	-51
-92	44	-54
-162	83	-9
-221	65	72
-248	14	99
-236	-35	103
-181	-60	76
-95	-71	-21
1	-96	-141
84	-135	-229
135	-169	-337
154	-144	-369
147	-49	-179
127	88	-32
109	189	-10
94	181	42
79	56	74
52	-121	45
20	-248	-20
-14	-246	-83
-38	-114	-72
-39	64	-1
-20	185	3
11	187	-21
36	91	-30
38	-22	-22
12	-78	50
-35	-45	90
-86	30	141
-116	79	173
-115	61	194
-84	-3	213
-37	-54	137
3	-44	-6
18	27	-141
7	101	-167
-28	109	-101
-64	27	-128
-92	-107	-225
-95	-210	-206
-76	-222	-148
-42	-131	-145
-2	0	-262
32	97	-254
59	119	-144
78	81	-116
87	43	-60
86	51	-42
74	99	57
52	137	95
22	102	84
-6	-17	115
-28	-175	107
-39	-282	121
-37	-270	74
-26	-139	39
-5	43	49
17	181	53
37	213	23
49	149	-15
48	51	-31
32	-3	-24
10	20	-5
-6	95	-18
-7	156	-56
14	150	-86
46	61	-89
76	-80	-88
90	-228	-57
90	-338	-24
95	-391	-21
126	-388	37
196	-325	105
290	-206	97
366	-41	53
374	136	24
295	277	13
121	339	-36
-94	301	-74
-287	205	-74
-409	94	-69
-434	23	-32
-386	1	-2
-303	0	-21
-236	-20	-55
-217	-76	-44
-251	-143	-57
-324	-178	-98
-399	-137	-105
-443	-25	-50
-432	112	-43
-350	218	-69
-208	252	-44
-35	214	-32
129	136	17
242	46	48
288	-38	49
275	-121	43
234	-206	-8
184	-275	3
151	-296	25
123	-238	6
88	-113	31
37	34	20
-20	130	-40
-58	127	-59
-55	28	-100
-4	-106	-107
77	-200	-84
151	-191	-59
186	-81	-14
176	77	-4
138	209	-4
100	259	-49
82	223	-64
85	128	-33
94	32	-43
88	-33	-63
60	-57	-24
21	-48	20
-13	-27	-6
-28	-2	5
-27	18	96
-23	38	208
-32	51	213
-51	45	178
-64	26	139
-55	-2	48
-12	-15	-96
52	13	-387
109	87	-603
131	180	-425
104	238	-151
44	211	-55
-25	82	46
-72	-121	-11
-89	-321	-19
-82	-429	98
-74	-390	126
-83	-208	118
-110	43	52
-142	261	-90
-156	368	-151
-129	332	-76
-59	191	-140
36	19	-180
133	-120	-113
201	-191	-72
216	-210	20
184	-206	98
115	-204	81
32	-204	70
-43	-185	56
-95	-125	21
-120	-19	5
-121	110	-24
-105	223	-46
-77	275	3
-33	247	36
21	142	33
81	-13	16
131	-166	-2
155	-259	12
141	-249	-11
95	-127	-19
34	54	-3
-21	215	26
-55	275	-12
-76	188	-60
-97	-18	-57
-136	-244	-41
-194	-378	-2
-242	-359	22
-249	-205	32
-189	-5	29
-72	139	49
59	174	53
161	119	19
187	49	-27
139	37	-71
49	101	-70
-31	193	-71
-68	241	-55
-55	202	-54
-18	89	-47
11	-33	-32
9	-96	-48
-21	-66	-41
-62	28	-23
-93	123	-21
-98	157	-32
-78	104	-25
-40	-19	-29
4	-164	-50
50	-271	-65
94	-306	-44
126	-253	-41
139	-130	-32
133	25	-13
107	158	-9
75	215	-24
41	179	-46
13	63	-47
-19	-66	-56
-56	-142	-41
-100	-118	-35
-133	-11	-48
-136	110	-80
-96	168	-60
-22	121	-5
58	4	5
114	-106	35
124	-127	29
95	-41	22
51	99	45
22	196	42
22	178	27
36	43	4
39	-125	2
12	-225	-18
-46	-186	-36
-109	-35	-59
-150	135	-72
-142	213	-8
-93	147	77
-24	-29	152
35	-214	176
66	-299	142
75	-236	115
69	-53	60
66	161	-68
68	311	-257
71	345	-308
62	262	-251
36	103	-289
-2	-85	-317
-46	-254	-302
-83	-373	-210
-105	-409	-61
-113	-351	-10
-105	-218	4
-84	-53	69
-48	80	108
-4	135	172
39	101	192
71	23	96
88	-32	5
86	-19	-44
68	61	-147
44	150	-170
19	183	-154
-10	137	-138
-44	36	-44
-83	-51	16
-118	-80	89
-137	-45	68
-130	-6	40
-96	-25	69
-44	-123	32
11	-246	29
56	-306	40
83	-236	18
93	-40	6
97	190	-9
98	339	-16
98	327	-25
87	171	-33
63	-33	-20
21	-175	2
-29	-188	49
-75	-97	96
-106	15	91
-111	66	29
-99	29	-61
-70	-46	-121
-42	-81	-112
-18	-15	-71
2	139	-35
20	305	38
40	377	46
68	300	24
100	90	12
127	-166	-18
136	-354	-77
120	-404	-163
74	-308	-156
13	-131	-48
-51	25	-47
-102	95	-68
-126	56	-2
-122	-39	5
-103	-124	-10
-81	-133	-37
-58	-48	-42
-43	103	-30
-25	260	-55
-5	369	-51
20	398	4
44	350	22
57	249	49
60	114	60
50	-36	7
33	-190	29
13	-326	104
-5	-422	137
-22	-449	102
-32	-389	71
-30	-263	-8
-15	-118	-105
12	10	-186
36	89	-319
49	120	-306
40	122	-161
14	122	-67
-18	126	5
-43	121	-2
-52	89	-27
-46	23	-9
-31	-52	-42
-18	-107	-58
-10	-108	-34
-3	-52	20
2	29	0
6	101	10
-1	131	48
-22	117	41
-49	84	59
-70	59	116
-61	62	149
-17	78	86
54	84	56
121	58	-13
148	6	-186
118	-50	-330
42	-75	-282
-44	-50	-169
-107	2	-140
-120	49	-93
-97	43	8
-59	-33	32
-38	-168	59
-40	-308	83
-50	-391	121
-43	-378	166
1	-253	109
72	-58	42
149	143	-7
191	284	7
178	325	-4
119	265	-71
36	144	-160
-35	25	-172
-76	-47	-101
-87	-57	-112
-84	-26	-55
-84	8	28
-91	14	51
-99	-11	45
-92	-40	24
-62	-45	77
-13	-5	81
42	66	65
85	135	0
107	169	-112
107	149	-94
89	89	-65
60	20	-67
26	-26	-20
-14	-48	-32
-54	-54	-33
-91	-60	-33
-112	-80	-94
-113	-102	-88
-94	-112	-62
-61	-96	-56
-26	-51	-25
4	3	31
25	47	43
42	71	7
56	82	-34
66	95	-12
69	124	117
62	162	149
42	177	155
18	137	105
-11	27	-63
-34	-134	-171
-52	-300	-238
-63	-394	-324
-68	-386	-378
-66	-270	-231
-51	-100	-94
-24	53	-29
12	138	23
45	143	24
67	108	38
72	85	36
63	101	68
46	147	43
29	171	-2
16	129	7
-2	14	0
-30	-123	31
-67	-210	65
-105	-195	57
-123	-89	62
-109	39	99
-57	101	63
13	48	5
82	-85	-9
124	-212	19
129	-238	91
107	-123	19
75	81	-39
50	262	-28
39	321	-49
34	215	-98
25	10	-205
3	-196	-256
-34	-301	-200
-75	-269	-52
-103	-142	6
-113	-6	28
-103	67	40
-78	67	-16
-44	23	-23
-10	-5	33
20	15	103
46	80	137
64	154	126
74	208	66
72	228	-12
60	228	-114
43	225	-144
25	213	-99
6	174	15
-16	77	46
-41	-86	-32
-69	-272	-39
-95	-413	-96
-110	-444	-99
-105	-345	-139
-77	-152	-207
-32	55	-124
19	194	-78
58	235	-38
79	187	69
81	104	105
65	33	123
49	-6	130
32	-28	101
21	-56	94
8	-100	22
-12	-136	-30
-42	-135	-51
-78	-81	-125
-105	12	-252
-117	96	-290
-102	121	-203
-66	72	-143
-17	-27	-68
32	-119	49
68	-154	72
90	-117	21
96	-31	20
91	45	31
75	75	87
50	46	85
14	-10	14
-30	-53	-26
-72	-56	-55
-105	-22	-85
-114	18	-49
-99	33	-6
-63	7	3
-18	-43	45
24	-83	20
58	-81	-1
81	-25	-66
94	57	-139
94	138	-134
80	190	-132
47	209	-20
2	213	39
-46	214	29
-87	207	59
-103	157	58
-93	35	35
-59	-164	-20
-18	-391	-15
14	-559	-8
30	-578	0
27	-412	21
14	-109	10
3	213	42
1	422	45
12	438	15
30	283	21
44	46	-30
49	-143	-135
39	-204	-80
19	-131	-42
-1	-1	-86
-14	97	-75
-17	105	-86
-13	28	-40
-14	-72	-34
-22	-138	-62
-35	-131	-27
-43	-68	-20
-34	14	3
-2	77	-32
49	101	-55
104	99	29
143	86	61
154	80	10
129	76	-52
74	76	-55
1	77	-8
-77	79	-65
-148	77	-74
-191	50	-43
-202	-10	-31
-180	-107	49
-130	-206	59
-70	-257	37
-18	-215	15
18	-82	57
39	90	91
51	213	42
69	224	-16
91	114	-140
106	-53	-271
101	-186	-256
65	-210	-106
9	-130	-5
-53	-8	24
-98	65	-58
-113	43	-114
-101	-55	-65
-72	-156	-3
-47	-175	83
-27	-84	87
-10	80	57
14	231	-20
46	295	-49
82	244	-24
106	113	-32
106	-27	-37
85	-120	-56
44	-144	-75
2	-119	-13
-33	-80	72
-57	-54	112
-78	-47	91
-94	-44	61
-101	-27	3
-96	8	-70
-70	47	-55
-30	77	-48
19	83	27
61	60	116
88	24	36
101	-12	-92
105	-30	-70
105	-27	-35
99	-4	-100
81	17	-92
39	22	-122
-20	0	-215
-84	-46	-219
-129	-90	-122
-143	-109	-86
-121	-89	-45
-71	-37	-7
-17	14	11
28	41	65
57	31	91
74	3	100
81	-8	49
81	27	37
69	110	1
44	198	-42
7	237	-61
-37	182	-31
-74	45	48
-94	-119	60
-95	-238	105
-86	-251	119
-71	-162	48
-60	-21	-68
-43	96	-108
-16	131	-66
24	80	-138
70	-19	-308
107	-99	-387
122	-121	-204
106	-85	16
70	-27	42
27	5	112
-8	-13	196
-32	-65	228
-46	-115	191
-56	-122	120
-64	-78	103
-68	-7	64
-61	49	34
-40	63	-57
-12	32	-139
16	-13	-184
33	-32	-94
38	-2	12
36	65	-82
36	130	-90
44	155	-40
56	121	-14
63	46	-36
52	-32	-147
21	-77	-184
-22	-74	-179
-69	-39	-198
-101	-8	-162
-112	-6	-40
-102	-36	20
-80	-74	68
-51	-89	65
-20	-59	25
10	7	-10
41	84	-6
68	135	72
87	147	102
92	117	137
79	71	98
50	32	62
12	14	32
-28	9	-12
-64	1	-52
-93	-21	-35
-111	-60	13
-113	-100	-3
-98	-126	-27
-65	-123	-93
-21	-95	-86
25	-52	-82
62	-8	-81
82	28	-106
86	57	-107
80	82	-16
69	100	-32
60	104	-75
47	80	-69
24	24	-31
-15	-55	17
-62	-128	48
-110	-164	82
-136	-136	3
-129	-48	-23
-92	64	12
-33	150	-42
22	163	-21
58	90	-7
71	-36	-19
69	-160	-44
67	-218	-162
77	-181	-139
94	-60	-56
105	85	-32
94	191	-11
54	213	25
-12	144	83
-77	20	94
-120	-113	135
-122	-209	134
-85	-244	131
-23	-215	120
40	-136	41
84	-24	-76
102	106	-234
95	231	-279
68	320	-122
28	337	68
-18	267	63
-57	117	-35
-83	-66	-77
-85	-223	-123
-65	-301	-194
-38	-283	-282
-24	-202	-363
-35	-110	-208
-68	-56	40
-105	-57	161
-120	-87	155
-97	-103	72
-38	-68	56
31	14	77
86	113	41
110	182	-62
102	191	-135
80	149	-92
59	85	8
49	39	102
40	25	183
20	34	160
-19	43	13
-66	31	-31
-103	1	9
-114	-35	-41
-93	-54	-95
-52	-54	-112
-10	-44	-61
23	-34	-12
39	-32	-49
48	-27	-17
58	-5	40
72	38	71
85	85	65
86	109	26
72	89	-70
42	26	-251
5	-51	-378
-34	-111	-312
-69	-125	-116
-102	-100	43
-127	-62	81
-135	-38	53
-120	-36	26
-74	-39	16
-3	-20	11
72	41	-38
127	127	-27
144	197	22
120	215	87
68	168	112
11	81	82
-38	-2	36
-68	-44	-21
-86	-41	-20
-93	-33	-27
-92	-61	-58
-77	-150	-64
-44	-264	-41
-2	-351	-35
41	-337	-11
68	-204	2
74	10	4
56	237	43
31	397	51
14	449	62
12	390	70
24	257	56
36	86	-5
42	-94	-82
37	-256	-97
25	-379	-88
11	-420	-104
-4	-359	-87
-21	-202	-42
-42	2	-54
-68	171	-83
-87	244	-85
-85	203	-83
-53	87	-105
4	-32	-51
68	-89	22
115	-67	95
127	-4	90
100	49	41
44	59	65
-16	29	35
-62	-11	-67
-87	-27	-113
-91	-19	-39
-85	-6	-8
-78	-12	41
-72	-40	22
-62	-65	-1
-42	-59	46
-8	-5	-23
30	77	-96
66	142	-120
89	157	-159
91	110	-223
77	35	-165
46	-27	-54
15	-53	12
-18	-44	10
-47	-33	-178
-71	-41	-273
-87	-79	-202
-93	-119	-124
-88	-133	-79
-70	-103	-37
-44	-35	51
-10	35	22
29	81	36
67	86	139
99	70	87
112	51	57
106	50	100
77	63	118
30	74	111
-20	61	60
-60	24	37
-88	-22	21
-101	-52	11
-103	-48	39
-99	-11	24
-89	34	-29
-70	63	-63
-38	51	-43
9	1	-12
61	-70	-19
107	-137	-40
130	-174	-63
126	-169	-84
98	-124	-96
57	-56	-89
14	15	-112
-22	70	-59
-46	92	11
-60	68	24
-65	-2	28
-60	-100	26
-45	-190	59
-23	-231	64
3	-191	33
32	-71	-12
63	85	-10
102	214	-14
144	257	-15
185	194	0
203	61	-15
172	-65	1
85	-122	-22
-54	-82	-38
-202	18	-38
-311	105	-83
-341	114	-106
-280	35	-131
-166	-85	-140
-46	-171	-78
30	-166	-30
43	-66	-36
16	68	-40
-13	168	7
-7	182	40
36	122	46
94	45	44
129	10	3
116	38	2
61	106	19
-7	153	57
-54	130	80
-63	35	48
-44	-95	56
-21	-194	71
-15	-215	78
-28	-154	5
-43	-47	-48
-39	48	-106
-4	92	-245
52	71	-298
101	16	-387
121	-37	-395
105	-60	-225
62	-49	-99
18	-21	-28
-15	-3	34
-34	-15	112
-48	-53	94
-65	-100	78
-90	-130	28
-109	-127	-6
-111	-95	26
-88	-41	49
-40	11	99
15	50	66
62	77	49
89	97	2
96	121	-128
87	150	-166
72	174	-86
58	174	-27
42	132	-86
25	46	-138
1	-68	-40
-26	-179	57
-55	-254	46
-78	-258	36
-86	-196	48
-78	-88	46
-52	22	11
-16	101	22
18	136	37
41	145	28
48	162	17
41	201	11
33	252	18
35	257	21
47	168	4
66	-36	-23
71	-304	-34
52	-530	-25
7	-606	-40
-54	-487	-80
-107	-223	-84
-137	60	-96
-133	228	-50
-106	211	34
-67	53	90
-30	-122	81
3	-186	20
40	-86	-5
86	124	-37
134	320	-33
170	383	-1
172	283	-42
135	82	-26
64	-98	49
-16	-165	21
-85	-99	-14
-121	37	-70
-132	147	-72
-126	164	1
-119	89	15
-109	-19	6
-90	-92	-32
-52	-88	-32
4	-13	-57
64	87	-127
110	161	-142
121	171	-185
97	117	-151
52	12	-12
4	-112	-15
-32	-223	24
-53	-287	67
-67	-281	-59
-81	-208	-79
-93	-96	-45
-97	10	-8
-82	65	41
-45	58	-35
1	10	-132
44	-29	-75
72	-22	28
78	40	-49
66	122	-112
51	171	-68
36	156	44
22	81	119
0	-7	34
-31	-61	-102
-65	-64	-192
-92	-37	-85
-97	-23	24
-76	-48	20
-34	-105	-48
12	-150	-172
51	-138	-131
78	-55	-22
91	67	27
95	171	129
95	206	171
86	159	128
68	63	77
40	-29	24
6	-77	-7
-27	-71	-35
-56	-38	-48
-79	1	-22
-98	32	45
-115	64	19
-124	109	-45
-116	163	-43
-80	197	-47
-16	174	-70
62	79	-65
131	-77	-34
169	-235	-32
164	-337	-35
123	-346	-24
65	-270	2
14	-157	9
-20	-54	2
-39	-2	10
-51	-3	-8
-70	-29	-41
-97	-49	-59
-119	-40	-48
-123	-4	-41
-93	50	-54
-32	101	-28
44	135	15
113	145	19
156	131	3
160	99	-32
124	56	-53
67	16	-69
-1	-8	-93
-55	-11	-76
-89	0	-41
-99	11	-18
-90	8	-9
-78	-17	3
-69	-52	8
-68	-80	29
-64	-77	52
-46	-38	33
-3	26	3
60	90	-18
122	126	-36
156	124	-25
139	85	-5
78	31	-17
-15	-9	-4
-99	-24	-31
-148	-13	-48
-152	1	-33
-120	-4	-30
-78	-48	-3
-46	-121	20
-37	-196	41
-40	-238	49
-43	-206	46
-32	-106	45
-2	35	42
36	168	-27
74	236	-113
99	215	-124
111	126	-65
109	12	-68
97	-75	-122
74	-102	-119
39	-75	-159
-4	-25	-144
-51	2	-76
-92	-17	75
-112	-69	49
-109	-125	-77
-82	-142	-79
-42	-107	-193
-3	-28	-189
23	59	-45
36	123	95
39	150	74
34	153	37
33	149	67
35	151	22
42	147	46
51	112	32
55	20	-90
48	-115	-222
28	-254	-279
-6	-340	-246
-44	-334	-158
-77	-241	-19
-93	-102	84
-86	14	161
-55	70	164
-14	61	135
30	29	105
61	19	45
76	64	-15
70	164	-61
49	279	-36
21	362	-7
-12	370	29
-37	284	72
-52	114	87
-48	-107	51
-30	-330	-5
-4	-495	-41
18	-541	-77
22	-449	-53
7	-238	-39
-20	18	-25
-39	231	-34
-38	331	-71
-10	301	-68
36	190	-27
81	65	24
110	-11	46
111	-32	21
87	-32	-14
51	-48	7
20	-96	-1
1	-147	-3
-6	-156	0
-10	-98	-4
-17	5	-24
-27	98	-50
-36	131	-51
-35	93	-69
-21	28	-52
-2	-2	-47
9	43	-51
-3	153	-56
-36	261	-48
-85	300	-51
-129	236	-68
-151	85	-42
-145	-90	-41
-123	-228	-40
-99	-296	11
-82	-303	48
-70	-273	36
-58	-234	12
-29	-186	-9
16	-122	-8
63	-37	-35
98	54	-32
107	125	24
94	155	104
72	137	193
58	98	203
58	64	215
61	60	196
52	78	71
26	95	-103
-20	84	-251
-63	31	-427
-91	-48	-584
-89	-130	-534
-65	-182	-508
-35	-186	-465
-10	-144	-194
5	-72	14
20	2	124
40	62	174
71	100	170
101	110	241
114	104	264
99	89	294
54	74	249
-2	56	176
-52	38	114
-84	9	8
-92	-28	-117
-87	-71	-249
-79	-110	-253
-72	-127	-187
-65	-119	-12
-47	-83	68
-8	-29	61
48	29	38
106	90	-104
151	148	-168
163	200	-124
138	233	-48
84	230	28
18	166	-19
-39	30	-35
-75	-157	22
-86	-348	27
-80	-481	56
-66	-502	13
-55	-401	-33
-46	-210	-52
-32	-1	-30
-11	163	-30
21	241	-19
52	241	-14
72	200	-33
69	160	17
42	138	52
4	119	91
-29	76	101
-43	-7	80
-39	-108	55
-24	-183	21
-17	-191	-9
-23	-122	-74
-43	-13	-97
-60	81	-72
-61	110	-94
-37	77	-99
6	17	-45
52	-12	6
84	17	30
89	90	16
69	161	-11
38	179	-40
8	135	-100
-16	56	-157
-34	-6	-169
-48	-31	-179
-61	-28	-101
-74	-31	21
-76	-74	45
-66	-149	45
-42	-213	20
-12	-208	-15
18	-117	2
42	26	2
57	151	-8
65	189	-19
67	126	-52
66	8	-44
57	-85	12
37	-86	57
11	3	81
-24	125	59
-57	197	21
-83	168	-5
-96	46	-10
-98	-97	-15
-89	-187	-102
-68	-181	-104
-40	-99	-7
0	-6	10
44	32	-4
91	-8	-9
129	-95	-27
149	-163	-44
145	-164	-55
122	-89	-56
85	19	-35
39	93	-28
-10	91	-30
-62	13	-9
-118	-91	-1
-172	-161	-20
-210	-156	-35
-218	-79	-56
-188	30	-62
-121	123	-16
-34	170	-7
48	178	-53
107	166	-147
136	159	-214
143	149	-120
137	116	-43
127	45	44
107	-57	110
66	-155	48
-1	-207	76
-85	-186	108
-158	-113	43
-194	-36	32
-177	-5	-8
-114	-36	-75
-31	-101	-56
36	-141	-117
74	-110	-158
81	-5	-75
75	126	-21
78	218	-52
88	224	-88
97	148	-21
86	30	-90
42	-60	-139
-20	-88	-61
-85	-48	-81
-125	23	-22
-133	81	0
-110	98	54
-70	70	76
-31	17	50
8	-42	103
44	-90	46
85	-114	53
119	-111	46
137	-77	40
129	-22	22
94	41	-52
42	84	-94
-8	87	-86
-45	51	-60
-67	-2	-67
-80	-39	-96
-94	-38	-151
-105	-6	-103
-106	22	1
-81	9	68
-26	-60	61
46	-160	1
113	-226	0
147	-202	11
136	-74	32
89	113	34
27	277	58
-22	335	53
-44	259	43
-39	91	32
-22	-85	-12
-14	-181	-35
-24	-167	-51
-61	-77	-43
-103	13	-62
-133	32	-66
-133	-33	-72
-95	-137	-74
-26	-199	-45
52	-167	-44
118	-41	-50
148	118	-39
132	233	-26
84	250	-22
21	174	-2
-32	63	46
-59	-28	46
-62	-66	-27
-52	-64	-84
-44	-62	-94
-47	-89	-81
-62	-144	-98
-78	-188	-89
-80	-185	-81
-62	-117	-72
-26	-1	-19
17	121	24
53	213	63
74	258	119
76	259	176
66	225	161
51	154	119
40	44	86
30	-95	49
17	-229	65
-6	-303	-20
-38	-274	-189
-72	-151	-254
-98	11	-178
-99	129	-97
-70	138	-130
-18	43	-171
46	-90	-236
103	-167	-221
138	-133	-200
142	-5	-117
121	142	-46
82	213	-53
36	168	-76
-6	32	-60
-42	-102	68
-71	-154	85
-93	-104	79
-103	7	74
-100	98	46
-82	104	44
-55	23	67
-30	-83	62
-11	-137	22
-2	-93	38
5	34	57
19	173	87
48	252	136
86	228	178
124	122	169
136	-11	105
104	-116	43
24	-170	-17
-88	-186	-140
-193	-194	-277
-253	-216	-306
-244	-233	-310
-161	-212	-275
-39	-131	-132
80	3	-79
159	143	-54
179	236	-45
149	248	-27
99	195	25
58	123	22
42	75	85
47	65	68
50	62	48
38	21	66
6	-79	77
-33	-214	95
-59	-318	58
-61	-326	28
-45	-224	-1
-30	-53	-3
-31	103	-19
-57	174	-21
-89	150	-9
-100	72	-20
-66	15	-44
7	25	-67
90	95	-70
143	169	-67
136	186	-40
69	116	-14
-32	-4	0
-118	-117	19
-159	-164	20
-149	-133	12
-103	-60	-12
-56	0	-66
-29	11	-94
-20	-15	-98
-15	-45	-128
5	-37	-129
43	16	-110
89	89	-65
119	140	-12
118	139	8
87	90	18
41	19	29
-1	-33	80
-31	-54	97
-46	-50	67
-57	-42	43
-69	-52	43
-85	-77	68
-88	-100	84
-70	-90	42
-36	-28	-80
11	88	-69
55	233	25
89	362	48
106	419	98
113	354	15
116	158	-200
111	-134	-246
97	-427	-191
62	-612	-259
10	-612	-378
-52	-420	-408
-108	-124	-287
-141	145	-124
-143	276	-18
-118	233	-38
-79	77	-11
-32	-87	78
7	-160	105
41	-121	112
69	-19	74
88	63	68
91	78	66
77	33	90
44	-19	107
3	-29	113
-32	5	96
-57	43	82
-70	33	22
-77	-40	-59
-87	-131	-94
-97	-177	-104
-101	-126	-42
-83	1	-32
-35	138	-27
31	213	42
100	194	100
147	115	124
154	46	123
122	38	82
71	83	24
22	125	-43
-12	105	-157
-26	1	-251
-36	-137	-294
-50	-233	-215
-72	-226	-52
-96	-122	28
-104	13	80
-92	100	91
-54	94	60
-8	20	31
36	-55	4
64	-64	-21
77	4	-38
79	112	-8
77	188	9
71	186	7
61	115	-6
40	27	-9
2	-19	-45
-47	-8	-89
-95	26	-79
-129	27	-52
-138	-41	-25
-122	-157	13
-87	-251	53
-43	-256	72
3	-152	64
41	20	45
69	166	4
93	206	-34
102	131	-52
100	-7	-55
80	-112	-60
46	-116	-93
4	-17	-140
-38	116	-186
-75	189	-142
-96	139	-55
-101	-20	7
-89	-210	69
-61	-334	106
-25	-330	40
15	-203	-30
56	-26	-137
91	116	-273
116	164	-255
128	118	-183
128	27	-65
115	-45	35
90	-57	99
46	-13	96
-12	53	61
-79	95	86
-141	87	86
-182	32	74
-187	-40	-5
-154	-96	-59
-89	-113	-25
-16	-85	-27
42	-24	-52
71	55	-62
71	131	-56
55	190	-13
40	214	44
40	192	38
49	120	8
58	9	-1
46	-109	2
11	-195	37
-40	-222	35
-92	-176	37
-121	-94	-16
-120	-11	-96
-92	32	-106
-50	29	-100
-6	1	-70
31	-18	-68
60	-1	42
86	49	50
102	109	-15
104	137	21
86	117	-60
48	54	-76
0	-20	-81
-45	-70	-85
-75	-85	-67
-85	-69	-19
-81	-52	28
-75	-49	28
-70	-57	20
-69	-60	-46
-63	-32	-31
-44	34	-8
-15	126	-30
18	205	-116
47	240	-211
66	200	-192
78	93	0
89	-50	181
100	-192	240
105	-282	234
93	-298	149
57	-232	86
0	-109	-16
-63	19	-217
-113	105	-375
-129	115	-371
-112	55	-283
-69	-30	-108
-23	-83	4
12	-60	5
26	35	-7
24	163	19
14	251	111
-1	252	85
-10	156	59
-8	9	40
8	-129	-24
38	-211	-1
72	-230	26
95	-218	74
91	-207	140
58	-213	144
8	-217	87
-34	-179	8
-43	-72	-59
-1	85	-90
78	244	-127
162	344	-164
215	338	-113
202	235	-75
122	84	-44
-8	-56	21
-144	-136	34
-250	-151	13
-303	-118	-28
-290	-77	-62
-232	-51	-48
-151	-45	2
-76	-48	9
-26	-43	-19
-6	-23	20
-3	12	96
4	54	123
25	93	116
64	122	76
106	137	-53
129	135	-189
119	110	-312
74	70	-312
13	17	-197
-40	-36	-123
-70	-78	-17
-78	-104	84
-69	-111	96
-61	-104	131
-57	-88	152
-52	-65	-12
-35	-37	-124
1	-4	-166
48	29	-185
93	56	-66
116	66	-32
110	62	-52
83	45	-3
49	24	24
20	4	15
0	-15	-51
-16	-32	-79
-35	-54	-45
-60	-78	7
-84	-97	-7
-94	-102	-38
-83	-84	-3
-53	-39	-62
-15	22	-65
18	86	-26
41	135	22
57	153	77
68	130	64
81	78	60
90	11	45
87	-44	48
62	-72	55
17	-67	22
-39	-36	-31
-91	-1	-52
-119	17	-39
-119	16	-5
-95	1	14
-55	-15	-16
-16	-21	-36
20	-18	6
48	-19	14
72	-32	-19
90	-59	-21
98	-86	-50
95	-88	-86
76	-59	-128
46	-13	-104
14	21	-67
-16	19	-60
-43	-28	-14
-67	-97	35
-91	-150	89
-105	-150	111
-106	-90	102
-87	4	44
-46	99	-69
5	163	-218
56	183	-222
94	175	-111
107	150	-110
98	113	-152
67	65	-95
28	9	43
-16	-49	105
-53	-88	131
-80	-89	155
-86	-54	195
-71	-12	155
-48	3	12
-26	-29	-79
-17	-95	-63
-24	-147	-21
-40	-140	-116
-43	-58	-298
-23	71	-422
24	183	-280
81	222	-81
120	169	-37
122	57	21
83	-52	119
21	-113	135
-39	-106	101
-80	-64	116
-92	-31	105
-87	-32	45
-78	-63	-51
-75	-90	-108
-72	-72	-120
-63	-3	-68
-37	103	-11
7	200	3
54	244	-120
97	215	-211
116	122	-155
113	-10	-138
93	-138	-75
59	-230	-11
22	-256	53
-19	-222	86
-58	-141	106
-90	-52	98
-102	7	56
-93	23	55
-66	-6	54
-36	-45	60
-15	-62	-2
-7	-31	-54
-8	45	-19
-3	137	22
20	206	-30
61	225	-30
107	185	7
134	105	-20
128	13	-4
85	-70	-10
19	-136	-45
-47	-177	-66
-92	-192	-77
-105	-180	-84
-93	-137	-29
-66	-64	19
-39	28	19
-16	123	28
7	209	-10
28	261	-21
50	275	-58
68	231	-154
74	126	-177
65	-27	-90
44	-194	-21
21	-322	23
-2	-363	70
-20	-301	68
-36	-163	33
-56	-15	-23
-80	76	12
-98	72	55
-104	2	5
-91	-76	-23
-57	-90	-11
-10	-14	-45
36	118	-94
75	237	-104
101	274	-88
111	210	-41
110	74	50
93	-61	149
56	-134	78
7	-130	-68
-51	-72	-105
-100	-18	-103
-126	-4	-72
-123	-35	-70
-97	-83	-88
-59	-105	-21
-25	-80	58
0	-9	127
21	71	155
43	131	1
69	150	-253
94	134	-303
103	100	-196
89	62	-211
49	29	-184
-2	-4	-47
-51	-41	20
-85	-85	49
-96	-120	64
-91	-135	74
-76	-123	48
-56	-85	25
-31	-36	5
-4	11	-7
23	46	26
46	75	38
54	99	48
50	118	42
36	128	26
21	115	16
13	74	-9
10	6	-33
6	-64	-32
-15	-109	12
-50	-105	-10
-96	-49	-101
-126	28	-122
-126	83	-69
-90	69	-45
-23	-19	-25
46	-150	-40
102	-258	-59
125	-276	-91
124	-186	-97
107	-22	-44
87	131	-9
74	190	48
62	122	26
45	-33	5
15	-184	18
-25	-246	1
-64	-182	11
-92	-38	6
-96	96	-10
-80	142	-14
-48	84	2
-22	-25	30
-6	-98	42
-6	-70	44
-12	49	37
-8	192	30
9	272	21
41	244	9
72	129	12
84	-5	-9
63	-83	-111
13	-82	-173
-46	-31	-115
-98	10	-20
-119	-2	45
-113	-59	72
-86	-119	64
-52	-128	-35
-22	-68	-196
1	32	-231
20	126	-206
37	169	-233
53	154	-112
63	106	27
64	61	116
56	34	116
44	10	13
32	-28	4
18	-92	7
-7	-154	-12
-40	-180	-66
-80	-138	-60
-109	-38	-62
-111	81	-33
-80	168	70
-17	191	59
49	157	59
99	96	-14
116	45	-138
105	10	-84
81	-28	-51
60	-96	-140
49	-196	-138
40	-296	-50
21	-348	0
-19	-316	39
-68	-206	68
-115	-70	53
-137	32	16
-126	66	-23
-92	47	-11
-46	18	-20
-4	26	-1
28	77	21
51	140	-12
69	169	2
87	134	-27
94	53	-62
86	-26	-98
56	-52	-78
13	-18	-51
-31	42	-68
-65	80	-58
-79	52	-7
-72	-27	44
-55	-110	49
-36	-136	58
-17	-88	36
2	15	40
20	118	-19
35	168	-28
43	150	39
44	91	18
34	33	-6
20	12	-60
7	19	-62
-7	32	-30
-26	15	52
-56	-35	89
-97	-100	45
-138	-144	27
-159	-143	-2
-136	-101	37
-69	-41	24
28	8	-8
120	32	-4
179	36	-99
184	41	-232
144	58	-254
85	83	-225
32	98	-160
9	84	-16
6	39	51
7	-20	41
-5	-65	30
-38	-78	5
-79	-56	-8
-110	-22	-22
-117	-4	-89
-99	-18	-193
-62	-61	-155
-25	-111	-8
8	-129	-1
33	-101	-76
54	-25	-125
77	64	-135
92	135	-14
94	158	110
72	131	137
33	85	149
-15	52	115
-60	64	87
-89	113	118
-99	164	115
-92	165	52
-75	79	70
-49	-90	79
-19	-296	-131
15	-456	-241
48	-504	-179
76	-411	-128
90	-210	-93
88	18	-74
75	195	-116
55	264	-155
35	230	-124
18	134	-233
-4	39	-169
-31	-18	-14
-64	-41	21
-97	-54	120
-119	-85	164
-121	-119	200
-104	-130	124
-70	-78	41
-30	43	18
11	188	-83
52	290	-136
94	283	-81
132	171	-23
167	5	6
180	-122	74
162	-149	87
107	-71	37
22	41	29
-74	103	46
-156	58	3
-202	-69	-22
-206	-203	34
-165	-253	91
-102	-182	1
-33	-26	-99
18	124	-187
47	194	-272
55	155	-192
52	56	-80
51	-25	-6
53	-35	12
55	22	19
48	93	31
24	113	52
-14	54	52
-56	-53	39
-89	-148	43
-103	-175	2
-95	-126	-68
-69	-40	-99
-40	30	-133
-10	49	-163
15	27	-50
41	0	31
65	5	90
89	49	147
106	103	150
105	125	140
87	98	18
52	27	-172
9	-47	-248
-35	-87	-221
-70	-74	-219
-98	-19	-205
-111	46	-157
-110	89	-40
-95	84	104
-61	33	183
-16	-50	138
35	-139	80
78	-205	5
104	-212	-32
105	-144	-20
86	-16	-28
53	130	-40
16	225	-142
-13	209	-162
-32	76	-101
-43	-127	-31
-45	-308	-25
-44	-374	-55
-40	-291	-7
-35	-105	35
-28	91	72
-20	207	79
-8	208	14
4	130	-55
11	54	19
18	47	35
20	114	-3
23	203	-40
24	236	-150
25	166	-157
21	11	-88
11	-162	-22
-6	-273	-16
-30	-287	8
-47	-222	24
-56	-134	-22
-54	-74	7
-42	-57	57
-27	-59	32
-12	-38	5
-1	22	-8
16	106	-6
42	171	0
80	186	25
115	145	15
132	74	-22
120	17	-75
68	-7	-144
-8	-1	-134
-87	8	-113
-142	0	30
-156	-25	132
-128	-50	135
-70	-49	151
-5	-22	75
48	19	-21
79	46	-108
87	41	-100
78	16	-128
60	-6	-166
43	-2	-17
27	26	44
11	57	28
-6	59	84
-26	15	97
-50	-58	47
-76	-127	-85
-93	-153	-151
-101	-125	-129
-91	-58	-137
-69	8	-124
-40	51	-53
-8	70	-41
18	75	-95
40	88	-92
55	102	-68
67	101	-41
76	62	-59
78	-19	-58
65	-113	-37
37	-179	-59
-1	-181	22
-44	-123	86
-80	-44	76
-100	9	64
-98	4	37
-83	-38	45
-57	-70	77
-31	-40	48
-3	67	-37
26	214	-98
58	327	-74
89	337	-46
111	223	-49
118	17	-56
106	-192	-75
75	-331	-81
32	-351	-87
-15	-268	-34
-60	-141	28
-99	-32	42
-125	17	60
-132	14	64
-113	-6	58
-69	3	64
-12	59	48
46	148	45
86	223	33
97	235	36
84	165	22
58	33	-2
38	-105	-51
30	-192	-176
33	-202	-215
34	-142	-182
19	-59	-103
-18	-1	-51
-70	8	-64
-122	-23	-37
-155	-56	30
-154	-61	47
-119	-27	-25
-60	27	-62
9	71	-57
68	85	-27
113	71	40
131	56	-13
127	60	-151
104	86	-197
62	106	-127
14	98	-12
-36	40	113
-83	-44	228
-117	-113	253
-129	-129	256
-122	-84	253
-92	-12	137
-46	40	-43
2	34	-153
45	-28	-222
74	-97	-322
87	-122	-328
88	-72	-161
82	31	-67
72	132	-115
58	171	-155
37	119	-172
7	5	-60
-30	-116	47
-68	-178	72
-94	-165	132
-105	-97	180
-98	-28	112
-76	4	28
-46	-4	-124
-14	-25	-200
15	-13	-141
39	45	-126
59	139	-11
69	225	-6
72	250	4
64	198	81
50	83	65
32	-53	74
14	-164	57
-6	-216	12
-27	-206	-38
-49	-157	-53
-69	-94	-109
-83	-48	-118
-85	-29	-105
-75	-32	-82
-53	-33	-58
-24	-11	-28
12	40	53
56	122	53
108	201	64
154	243	93
176	213	79
162	116	47
98	-26	10
2	-159	-28
-100	-230	-29
-173	-216	-30
-191	-129	-34
-155	-20	-15
-84	55	-14
-13	60	-32
36	1	-61
54	-77	-48
56	-117	14
57	-81	87
66	23	119
80	148	109
82	228	108
64	211	76
27	106	-8
-19	-47	-96
-56	-178	-154
-77	-235	-268
-83	-207	-364
-82	-122	-253
-82	-35	-64
-81	14	112
-70	14	166
-45	-8	171
-3	-17	155
48	13	64
89	81	28
110	153	-41
106	194	-184
84	180	-326
52	119	-260
17	39	-227
-17	-24	-215
-51	-55	-127
-83	-61	-34
-107	-63	34
-114	-84	-31
-105	-121	-41
-79	-158	-44
-43	-163	11
-8	-117	69
21	-33	46
44	62	32
63	130	44
77	147	56
82	113	81
75	53	96
52	2	70
20	-26	87
-19	-30	69
-53	-29	34
-79	-38	-11
-89	-63	-103
-91	-92	-136
-84	-98	-175
-68	-64	-243
-49	14	-201
-21	128	-77
11	253	14
46	352	79
82	384	78
107	323	66
125	155	84
125	-87	77
105	-347	72
62	-543	116
5	-603	126
-54	-506	95
-99	-292	37
-115	-51	-36
-97	125	-98
-50	186	-222
9	149	-253
64	84	-160
97	66	-141
102	127	-117
76	228	13
25	294	80
-35	257	55
-91	113	12
-122	-77	40
-118	-219	70
-79	-244	-60
-18	-149	-132
36	-6	-80
58	89	-17
39	72	-16
-12	-39	-21
-68	-174	19
-99	-237	-6
-82	-181	-78
-22	-31	-116
60	134	-102
135	230	-102
175	215	-26
167	120	28
123	7	61
58	-60	126
-6	-58	98
-50	-15	47
-75	18	11
-78	12	-17
-71	-34	-41
-68	-82	-66
-76	-92	-123
-91	-47	-114
-103	26	-22
-97	85	-17
-61	98	4
-3	64	26
62	15	-31
111	-16	-4
121	-5	-16
91	32	-49
32	58	19
-26	48	76
-65	-8	48
-79	-84	17
-70	-136	64
-60	-138	115
-57	-88	60
-61	-13	-76
-59	53	-207
-37	81	-233
6	68	-203
60	35	-331
106	4	-311
126	-10	-191
114	-11	-133
81	-6	-40
37	-9	26
3	-19	94
-21	-31	91
-39	-37	152
-54	-34	201
-74	-25	196
-89	-14	121
-95	-1	16
-83	15	14
-48	38	20
-3	63	-5
46	82	-27
89	82	21
117	64	-20
129	32	-113
125	8	-244
107	-7	-245
72	-18	-140
27	-46	-63
-27	-107	36
-80	-196	66
-121	-282	110
-141	-316	116
-137	-264	68
-112	-134	12
-66	34	-21
-16	174	-55
36	237	-61
80	211	-84
106	137	-115
113	70	-58
99	48	-1
70	71	6
32	101	-21
-3	89	-22
-31	20	13
-47	-81	18
-52	-163	3
-55	-179	-2
-58	-121	-44
-67	-23	-43
-77	62	22
-81	92	42
-68	64	33
-37	10	72
9	-22	112
60	-7	136
101	47	56
118	106	-113
106	132	-201
70	108	-251
24	41	-294
-22	-36	-238
-55	-93	-145
-78	-119	-48
-86	-117	96
-87	-103	110
-83	-88	87
-70	-70	87
-43	-46	49
-3	-7	99
47	41	130
99	93	84
132	130	-15
138	145	-28
111	135	2
59	103	-64
-5	56	-227
-61	3	-407
-96	-50	-341
-105	-97	-124
-92	-126	-51
-72	-133	-100
-62	-121	-68
-60	-91	-52
-62	-52	12
-51	-9	57
-20	33	34
30	79	34
85	126	49
120	166	91
120	183	8
86	161	-34
34	92	-25
-14	-15	9
-42	-131	69
-48	-224	93
-43	-263	129
-40	-242	81
-46	-173	53
-52	-89	15
-48	-21	-74
-27	12	-98
9	14	-115
42	-2	-44
58	-11	39
46	1	35
19	36	33
-4	88	-9
-1	142	-103
30	177	-101
74	174	-19
107	129	-27
99	38	-42
48	-69	-44
-33	-160	-47
-118	-191	-40
-174	-148	-36
-186	-53	-7
-150	43	12
-80	82	44
6	40	55
86	-52	48
148	-134	28
178	-138	-10
172	-50	2
132	90	-5
68	199	-30
-4	206	-14
-67	103	52
-104	-55	119
-111	-176	61
-96	-192	-99
-76	-100	-290
-61	39	-302
-54	138	-279
-52	144	-326
-42	66	-211
-19	-33	-65
15	-90	42
48	-67	89
68	8	217
72	82	276
60	105	171
42	67	56
20	-2	-65
-4	-61	-175
-30	-77	-230
-59	-56	-186
-84	-28	-151
-96	-22	-46
-88	-43	50
-60	-69	-4
-19	-74	-54
22	-37	-48
51	27	-48
67	89	-32
68	118	-13
65	104	58
57	60	94
46	14	38
29	-15	50
5	-24	68
-25	-22	51
-56	-23	56
-79	-33	37
-88	-39	35
-84	-31	28
-65	-3	18
-42	34	-17
-12	64	-89
23	68	-138
59	40	-165
93	-6	-158
114	-54	-129
115	-86	-61
93	-93	-12
51	-81	-12
0	-61	-61
-49	-42	-49
-87	-23	26
-104	2	43
-101	36	65
-80	74	59
-41	93	52
10	79	66
63	20	53
110	-66	26
133	-150	-10
132	-187	0
106	-154	79
67	-57	77
31	65	16
1	158	-62
-28	179	-156
-65	118	-192
-115	8	-197
-172	-96	-144
-209	-145	-126
-209	-123	-69
-163	-52	4
-84	27	37
-3	77	95
51	84	116
68	63	106
59	44	42
48	51	-51
55	84	-18
80	123	6
104	145	-62
107	129	-38
74	74	10
19	-12	-71
-36	-107	-186
-70	-191	-235
-77	-245	-212
-65	-257	-104
-54	-227	-63
-55	-162	-26
-60	-86	-13
-57	-15	-12
-28	32	13
21	57	-52
78	71	-102
116	88	-35
122	106	67
95	121	103
46	115	127
-2	76	81
-40	14	12
-61	-49	35
-75	-89	94
-83	-88	76
-84	-55	80
-75	-7	111
-49	27	15
-10	39	-46
39	33	-74
78	24	-84
97	28	-71
88	47	-115
54	80	-125
9	112	-172
-30	139	-198
-51	158	-149
-48	157	-81
-23	123	8
11	41	20
36	-88	-3
39	-242	77
17	-368	97
-21	-409	54
-54	-337	34
-60	-169	15
-31	29	18
26	179	-48
87	224	-79
127	166	-78
132	58	-163
101	-29	-169
48	-50	-37
-5	-11	51
-51	45	82
-84	59	77
-107	14	39
-122	-70	47
-126	-137	19
-114	-138	-45
-81	-69	-90
-34	34	-114
15	113	-56
50	130	-45
69	89	-60
71	28	-40
66	-1	-46
65	17	-29
62	66	-24
53	101	-11
29	85	4
-11	14	-2
-58	-79	-21
-99	-148	29
-120	-160	121
-119	-118	122
-96	-55	66
-62	-7	-109
-28	7	-198
7	0	-106
39	1	-104
68	32	-86
89	93	-18
98	161	52
90	202	32
68	194	19
37	132	5
5	38	-74
-24	-67	-47
-46	-160	-48
-61	-221	-40
-70	-237	-28
-74	-203	-70
-65	-131	-13
-46	-33	35
-17	60	90
15	126	156
44	150	155
62	138	101
68	110	-150
60	80	-372
44	48	-312
22	4	-135
-3	-61	-37
-28	-148	37
-52	-219	53
-71	-246	20
-81	-201	5
-79	-97	27
-63	24	39
-44	113	9
-22	140	-12
-1	117	-102
16	81	-153
30	70	-151
48	102	-66
70	145	-7
93	158	40
111	100	123
110	-25	98
85	-171	87
34	-274	24
-31	-289	-7
-93	-215	-44
-132	-94	-108
-137	15	-188
-111	66	-252
-62	57	-210
-12	16	-162
25	-15	-5
45	-12	95
52	22	149
59	66	149
64	93	52
67	100	43
56	93	95
28	93	116
-14	98	82
-58	99	0
-85	70	-85
-84	-3	-81
-60	-105	-86
-33	-199	-130
-19	-245	-102
-24	-214	-2
-39	-120	32
-45	-1	47
-24	94	43
29	137	28
99	129	53
157	96	45
175	65	76
142	53	65
69	50	-14
-15	38	-42
-86	6	-80
-122	-46	-201
-123	-95	-247
-102	-118	-169
-79	-102	-154
-58	-55	-224
-44	-4	-251
-24	33	-100
5	47	93
46	47	161
88	45	151
113	56	60
111	77	18
85	93	34
40	88	6
-5	53	4
-41	-2	36
-66	-63	4
-84	-110	-49
-96	-130	15
-103	-125	74
-103	-101	53
-89	-68	4
-60	-29	45
-18	15	50
25	66	-78
63	119	-40
87	163	-37
93	189	-149
83	183	-122
60	152	-26
31	89	-89
0	1	-196
-28	-105	-186
-48	-222	-235
-60	-317	-169
-65	-370	-30
-63	-345	23
-55	-240	100
-42	-75	141
-20	96	87
7	212	-10
39	241	-50
67	187	-184
86	96	-252
86	26	-142
68	17	4
41	60	134
8	109	201
-15	105	281
-30	20	299
-35	-121	225
-38	-256	72
-44	-315	-133
-51	-263	-222
-58	-126	-194
-55	31	-206
-42	133	-192
-10	150	-187
30	90	-155
71	12	-11
106	-28	51
121	-5	56
111	62	63
78	123	32
23	135	44
-37	84	16
-91	-6	-19
-124	-90	4
-130	-128	-4
-111	-113	-13
-79	-64	-30
-41	-13	-4
-8	19	-16
21	31	-23
50	40	-12
82	62	-18
115	101	0
133	140	-30
129	160	-40
89	138	-31
21	79	-17
-58	-4	-13
-121	-82	-9
-144	-130	21
-126	-144	48
-79	-123	24
-27	-80	-28
1	-26	-35
-5	26	-5
-39	68	36
-72	91	41
-85	85	71
-54	52	75
9	3	0
86	-42	2
145	-61	9
159	-47	-57
123	-4	-165
52	40	-171
-24	57	-140
-79	30	-99
-102	-38	-60
-96	-116	-182
-80	-170	-249
-65	-171	-189
-60	-122	-104
-56	-42	-18
-43	36	48
-11	92	77
36	124	72
80	145	13
105	163	5
100	165	93
72	127	125
32	31	65
-4	-121	32
-27	-278	77
-40	-368	87
-52	-330	-35
-69	-160	-159
-88	77	-197
-97	274	-118
-82	327	-3
-37	204	21
29	-37	7
107	-274	-65
167	-387	-19
195	-316	-13
184	-107	-89
139	125	-149
74	261	-161
4	240	-99
-56	93	-167
-98	-83	-160
-119	-187	-109
-125	-176	-13
-121	-74	127
-107	42	99
-87	105	54
-55	96	-23
-18	46	-74
26	14	-9
67	39	39
97	109	34
106	177	52
93	193	42
60	136	8
18	34	48
-23	-61	33
-58	-111	20
-81	-104	39
-91	-66	53
-90	-36	51
-79	-34	13
-61	-51	-41
-37	-60	-68
-8	-37	-60
21	16	-72
46	78	-85
67	115	-52
80	113	30
83	77	82
78	32	71
61	2	40
36	-9	-49
5	-9	-147
-32	-19	-96
-62	-38	-4
-84	-60	-7
-91	-69	7
-80	-53	11
-57	-20	12
-28	12	26
2	20	-27
32	7	-38
54	-11	-88
71	-6	-106
76	35	-49
69	101	-106
52	158	-80
28	166	-23
3	106	-27
-22	-11	40
-42	-144	32
-61	-248	-45
-80	-291	-107
-92	-268	-115
-98	-195	-178
-85	-98	-196
-51	1	-16
-5	90	52
42	162	141
78	201	196
94	193	108
94	124	127
90	11	83
85	-109	-21
78	-185	-39
57	-182	-198
11	-104	-312
-59	1	-147
-135	66	-34
-185	44	-34
-189	-58	-70
-138	-187	-99
-55	-256	-80
27	-213	-17
78	-63	113
85	127	138
67	269	124
49	305	50
49	233	-16
63	106	13
75	-3	3
60	-46	-60
15	-28	-77
-47	9	-12
-101	22	-57
-119	-8	-228
-98	-61	-301
-51	-105	-197
-6	-107	-113
18	-68	-66
24	-17	-3
20	27	26
25	48	42
42	54	64
69	61	54
86	76	84
83	87	87
54	77	41
9	37	65
-32	-24	44
-64	-81	4
-81	-107	25
-84	-92	50
-80	-43	46
-70	11	13
-57	47	-40
-34	51	-4
-4	35	62
28	7	39
56	-11	7
75	-15	-47
82	-4	-34
75	17	-50
57	47	-90
30	86	-99
0	128	-147
-33	161	-110
-61	156	-12
-76	93	-97
-76	-27	-136
-57	-179	-4
-32	-307	-45
-3	-358	-20
20	-301	45
36	-157	61
48	15	39
56	140	-30
63	168	-27
63	101	-22
52	-14	4
30	-103	-27
-2	-118	-48
-38	-58	-12
-70	38	21
-93	117	-50
-102	145	-91
-97	123	-57
-80	75	-18
-48	24	48
-10	-24	76
26	-70	98
58	-118	28
74	-139	-75
77	-107	-188
69	-9	-94
58	123	4
50	215	6
41	205	82
25	66	59
1	-136	43
-28	-301	-37
-57	-334	-120
-77	-216	-224
-81	-17	-249
-72	147	-198
-58	187	-170
-45	99	-83
-31	-34	-33
-15	-110	1
12	-64	29
44	71	13
78	207	13
96	249	62
86	166	52
51	13	101
0	-119	141
-50	-159	126
-83	-102	77
-96	-9	-10
-90	45	-48
-75	28	-63
-55	-35	-34
-36	-85	-34
-11	-71	-30
20	7	-38
52	104	-65
78	165	-45
86	160	-36
77	106	-16
51	47	-121
24	18	-198
2	17	-124
-15	19	-118
-30	-10	-32
-51	-75	40
-76	-148	27
-93	-192	56
-92	-183	47
-62	-135	52
-11	-80	63
46	-45	147
95	-32	171
117	-12	37
110	39	-77
85	124	-40
54	203	26
27	225	-33
8	157	-114
-13	16	-150
-37	-131	8
-65	-224	90
-87	-219	-30
-89	-144	-223
-63	-56	-381
-18	-19	-310
37	-49	-168
85	-114	-15
111	-154	87
117	-119	74
106	-11	1
83	119	-38
50	209	-44
5	215	-56
-53	148	-15
-116	48	3
-168	-25	18
-191	-48	28
-177	-27	20
-133	3	39
-81	12	76
-42	-9	87
-26	-44	49
-23	-64	46
-20	-54	51
6	-12	38
51	43	22
101	90	19
132	118	11
132	120	15
100	106	38
51	78	39
8	40	69
-20	-1	64
-32	-44	-17
-40	-75	-138
-53	-90	-155
-68	-85	-82
-76	-64	-113
-65	-39	-137
-35	-13	-117
5	10	-96
42	31	-24
65	47	41
71	54	48
65	48	8
56	28	-113
50	0	-140
42	-26	-1
28	-39	69
3	-43	59
-29	-41	24
-59	-46	-84
-81	-59	-189
-86	-69	-248
-79	-61	-188
-62	-19	-114
-43	53	-165
-20	141	-93
3	212	-7
30	239	-28
58	209	-84
81	124	-71
94	7	26
93	-121	60
79	-235	166
51	-317	186
14	-352	182
-28	-336	179
-68	-274	97
-100	-181	53
-115	-80	-61
-108	8	-105
-77	66	-108
-30	98	-93
22	114	-71
65	125	11
92	140	104
98	159	62
85	171	33
57	174	15
23	158	-9
-11	122	-86
-40	61	-161
-57	-24	-88
-64	-131	-84
-62	-233	-140
-54	-292	-88
-43	-280	-114
-33	-185	-50
-18	-37	-9
7	106	-45
36	193	-2
72	193	13
102	127	61
118	47	76
110	5	87
72	18	76
15	64	69
-52	97	68
-112	79	66
-151	9	72
-159	-78	-21
-137	-130	-92
-97	-123	-138
-50	-64	-130
-11	7	-39
13	51	-13
27	57	20
36	39	59
50	27	-14
68	40	-105
87	70	-230
90	90	-314
72	76	-207
33	20	14
-14	-53	171
-54	-109	200
-79	-125	179
-82	-100	135
-70	-58	48
-53	-27	-149
-35	-21	-447
-16	-29	-536
9	-33	-371
38	-17	-153
67	20	56
86	58	90
82	81	147
53	80	224
15	63	196
-22	51	152
-44	51	34
-46	57	50
-38	43	23
-33	-9	-80
-42	-97	-58
-59	-186	-74
-78	-226	-58
-79	-183	27
-54	-61	0
-13	91	-21
36	207	-67
77	233	-96
103	157	-117
115	23	-117
114	-102	-42
105	-160	33
85	-139	86
50	-68	16
-2	-4	10
-62	10	-5
-119	-31	-5
-156	-102	-12
-159	-158	-23
-126	-169	22
-63	-134	31
12	-68	85
84	-3	95
136	49	110
156	86	120
142	115	101
97	139	37
36	153	-104
-24	140	-198
-67	97	-276
-85	32	-330
-85	-38	-268
-77	-89	-172
-78	-108	-70
-89	-97	15
-101	-63	54
-101	-21	101
-75	22	65
-22	60	28
44	90	23
102	105	-8
134	95	-30
133	65	2
108	26	43
71	0	26
32	-1	46
-1	24	56
-31	52	-11
-53	58	-89
-76	23	-38
-88	-51	62
-89	-131	10
-78	-183	-106
-55	-183	-147
-28	-134	-124
-3	-62	-84
22	3	30
44	41	11
64	58	-79
77	64	-43
80	77	-80
68	92	-71
44	94	-101
10	68	-100
-25	10	0
-56	-63	64
-80	-130	114
-91	-159	101
-90	-142	11
-75	-92	-62
-46	-25	-8
-6	31	47
35	70	34
68	92	-54
89	106	-140
87	117	-135
75	116	-130
54	100	-156
38	58	-118
23	-2	-48
0	-65	-26
-35	-114	-9
-79	-130	29
-121	-115	112
-144	-75	87
-133	-28	77
-89	11	104
-23	31	19
42	40	-25
92	48	-41
117	68	-66
121	106	-75
114	150	-12
97	183	11
69	179	-10
30	114	-5
-21	-7	-90
-68	-164	-100
-99	-304	-51
-99	-376	19
-75	-348	93
-37	-231	84
-5	-75	60
14	53	47
27	103	75
40	66	57
56	-19	50
67	-81	37
57	-68	-53
23	25	-67
-28	160	-69
-68	259	-206
-77	268	-245
-47	169	-166
2	9	-152
33	-145	-70
20	-233	-8
-39	-232	-35
-115	-163	-14
-164	-71	28
-158	0	-6
-94	40	-14
1	56	24
85	70	-64
132	96	-121
136	122	-151
111	137	-137
78	121	-2
48	76	90
23	13	104
-5	-45	62
-43	-84	95
-80	-97	123
-105	-88	74
-108	-65	60
-88	-37	-45
-53	-4	-177
-18	25	-147
11	51	-147
33	61	-71
52	56	77
76	36	91
95	17	65
105	11	-32
99	19	-133
74	35	-188
34	39	-215
-9	19	-122
-48	-29	30
-80	-87	68
-102	-128	62
-114	-129	8
-113	-85	-28
-94	-13	38
-58	56	69
-8	95	80
42	93	86
85	63	111
111	32	135
117	22	63
107	34	-106
86	60	-231
53	74	-278
11	58	-248
-38	14	-75
-82	-45	-19
-113	-94	-13
-120	-121	12
-104	-122	-71
-69	-113	-70
-32	-105	-95
1	-101	-4
25	-102	92
42	-94	51
58	-71	68
77	-35	42
90	9	46
93	45	7
76	69	-12
44	78	-17
5	75	-14
-31	65	49
-57	59	-13
-70	54	-54
-79	45	-56
-85	30	-81
-88	1	-76
-86	-37	-58
-65	-75	-43
-30	-95	30
22	-83	48
75	-37	-48
115	27	-75
128	81	-74
114	100	-35
75	70	-55
22	8	-99
-28	-61	-95
-69	-109	-15
-94	-114	103
-92	-88	56
-65	-48	34
-21	-19	34
26	-1	6
61	17	-98
64	47	-214
35	93	-148
-19	136	-57
-71	153	8
-94	118	71
-76	41	22
-23	-46	17
33	-110	87
63	-119	55
44	-81	21
-16	-26	67
-91	8	101
-143	4	22
-154	-27	-22
-118	-56	-43
-55	-49	-80
12	0	-233
68	69	-352
113	123	-211
144	127	-131
169	82	-48
171	14	19
145	-34	26
89	-39	62
10	-2	84
-61	48	141
-108	72	145
-115	47	170
-95	-24	180
-67	-110	91
-52	-169	-17
-55	-170	-83
-60	-114	-97
-55	-24	-173
-24	63	-267
24	110	-287
75	108	-196
107	57	-194
111	-9	-189
94	-64	-100
63	-85	-76
31	-57	26
-3	-2	155
-38	64	164
-76	110	147
-108	120	69
-121	89	54
-104	26	96
-60	-51	14
-1	-124	-59
55	-174	-58
94	-192	-34
107	-178	-47
101	-134	-38
82	-72	-26
60	-8	-5
34	41	1
4	64	-12
-31	51	-24
-65	12	-37
-88	-34	39
-94	-65	106
-81	-62	83
-59	-25	14
-38	36	-22
-23	97	-52
-12	136	-158
3	144	-171
22	124	-23
48	94	68
72	64	136
84	48	86
77	41	-32
55	35	-60
25	20	-120
-7	-8	-98
-34	-43	-133
-56	-78	-219
-71	-99	-168
-79	-102	-122
-71	-83	-100
-47	-45	-25
-16	1	38
16	46	66
32	78	99
28	85	103
8	63	115
-14	25	118
-19	-17	112
-1	-44	91
30	-41	14
56	-12	-143
58	28	-179
26	56	-98
-31	52	-87
-86	11	-66
-116	-57	14
-109	-129	100
-66	-175	119
-12	-175	42
36	-127	-42
65	-47	-66
75	37	-109
72	100	-151
68	125	-256
67	107	-309
65	62	-195
52	8	-83
28	-33	17
-7	-54	82
-47	-57	45
-86	-49	24
-115	-44	94
-128	-47	54
-125	-52	13
-100	-53	-17
-55	-38	-74
1	-7	-26
60	35	-10
104	76	20
124	103	19
116	106	5
88	95	74
49	76	44
11	61	-108
-21	59	-155
-46	63	0
-63	53	64
-71	14	50
-68	-61	21
-55	-154	-41
-35	-229	-78
-12	-246	-103
4	-188	-88
14	-68	-53
20	63	37
31	151	87
49	166	65
74	109	58
90	25	43
91	-28	-13
71	-21	-32
34	45	29
-12	120	60
-57	157	10
-100	116	-47
-132	15	-39
-150	-102	-2
-147	-178	-15
-118	-179	-109
-66	-113	-192
-3	-22	-187
52	40	-166
87	49	-125
95	10	-23
90	-41	87
83	-66	138
85	-47	46
90	4	-40
80	46	-13
42	49	-18
-20	1	-44
-90	-72	12
-134	-130	19
-132	-135	63
-82	-78	49
-10	13	-123
56	96	-238
91	137	-270
93	132	-204
74	103	-98
52	75	5
36	63	32
20	57	68
-6	36	30
-48	-16	22
-94	-88	152
-130	-148	225
-140	-160	259
-121	-112	208
-87	-28	64
-47	47	-67
-17	74	-193
8	43	-389
33	-14	-428
63	-56	-225
96	-45	-118
115	11	-110
113	84	-44
86	123	-53
44	110	-52
5	50	32
-22	-26	55
-33	-83	64
-37	-110	12
-43	-114	13
-55	-111	17
-66	-111	-20
-72	-102	10
-67	-67	39
-49	2	31
-24	90	-33
5	174	4
34	224	16
62	225	39
86	183	128
101	112	113
95	26	89
64	-70	126
16	-167	77
-42	-243	-64
-90	-270	-171
-114	-227	-185
-110	-121	-169
-85	9	-172
-48	111	-60
-12	149	17
18	120	41
44	64	79
69	28	52
91	33	32
102	59	-10
98	62	-57
77	11	-88
38	-84	-67
-6	-174	-10
-50	-201	-7
-83	-144	-19
-100	-34	-39
-103	61	-67
-91	84	-155
-64	26	-180
-26	-61	-81
16	-104	38
58	-57	102
89	61	133
97	190	171
84	252	162
48	215	129
8	110	54
-28	3	4
-50	-53	-74
-55	-41	-223
-52	2	-291
-53	30	-214
-64	15	-86
-82	-34	-102
-99	-74	-66
-99	-77	35
-72	-42	41
-22	-4	64
42	2	39
101	-36	87
137	-93	72
142	-121	-115
123	-95	-215
86	-18	-158
44	62	-124
8	96	-147
-25	60	-37
-54	-23	39
-82	-105	98
-98	-140	128
-100	-113	100
-85	-52	-20
-51	-4	-127
-10	7	-148
31	-21	-139
59	-51	-24
72	-51	87
72	-2	107
63	74	45
51	134	-77
35	150	-221
15	110	-211
-12	40	-111
-43	-27	-80
-78	-66	-50
-105	-76	1
-119	-69	46
-115	-64	102
-92	-66	69
-53	-61	-7
-5	-34	-2
42	19	33
87	85	30
122	135	-13
141	150	24
144	121	43
130	70	3
95	18	24
40	-14	16
-28	-27	9
-98	-35	11
-151	-50	-41
-173	-78	-81
-159	-102	-43
-112	-108	1
-48	-76	1
10	-6	2
50	83	26
64	174	84
63	240	55
59	261	-35
62	225	-35
74	127	-76
80	-20	-140
68	-182	-100
29	-307	-34
-35	-351	11
-111	-291	-5
-172	-158	8
-199	-11	-14
-176	79	-69
-108	71	-91
-13	-14	-138
86	-115	-154
161	-160	-172
191	-114	-69
175	1	41
127	123	86
65	191	89
14	181	48
-14	115	116
-22	45	87
-19	7	8
-22	-3	-30
-43	-13	-26
-75	-47	-37
-105	-98	-140
-116	-131	-184
-100	-106	-172
-57	-21	-25
-4	82	84
46	138	28
83	108	-34
98	11	-31
97	-90	18
83	-119	16
60	-52	-63
31	68	-234
-3	161	-162
-37	153	6
-70	39	48
-94	-116	133
-105	-219	160
-101	-214	144
-85	-109	89
-57	28	56
-25	119	-106
11	133	-264
44	97	-229
72	68	-260
87	86	-145
87	137	-12
72	170	-12
50	124	75
21	-5	129
-4	-167	191
-28	-277	225
-49	-274	193
-66	-167	126
-80	-21	-39
-83	75	-268
-72	76	-403
-51	-2	-328
-22	-87	-226
10	-111	-64
37	-48	13
57	67	62
69	168	111
71	200	37
68	157	11
58	75	-43
39	1	-81
13	-36	-48
-20	-46	1
-53	-61	77
-84	-96	174
-101	-143	155
-106	-162	93
-95	-118	39
-67	-14	-40
-28	118	-74
18	215	-59
64	240	-77
105	181	-160
132	79	-97
140	-20	-35
125	-78	-65
90	-87	-84
44	-77	-110
-7	-77	-84
-50	-99	-57
-83	-132	23
-100	-154	57
-101	-144	17
-86	-99	7
-52	-32	38
-8	33	81
35	82	20
62	110	-22
62	117	-53
33	109	-101
-11	85	-107
-44	43	-43
-51	-9	55
-24	-63	49
21	-101	-2
59	-108	-3
63	-85	65
27	-42	70
-39	-8	18
-109	6	-12
-153	-4	-28
-153	-22	-15
-112	-26	-23
-44	-7	1
29	34	-5
90	77	-56
127	100	-112
138	92	-117
120	58	-104
84	20	-120
34	-6	-79
-12	-15	-28
-49	-16	22
-69	-25	20
-77	-49	32
-79	-84	40
-80	-106	-25
-83	-101	-86
-79	-59	-63
-63	1	-54
-32	59	-23
13	94	11
63	98	-71
109	84	-149
136	66	-185
140	56	-103
117	56	1
70	61	64
8	64	43
-54	57	-30
-105	43	-20
-130	14	83
-126	-33	137
-100	-102	100
-62	-184	74
-28	-249	-25
1	-263	-160
28	-195	-170
58	-57	-81
93	106	-81
123	233	-143
133	265	-139
115	197	-94
68	68	13
7	-53	80
-46	-113	87
-75	-90	82
-75	-15	42
-58	53	-35
-39	69	-95
-29	20	-90
-26	-64	-68
-24	-140	-25
-14	-163	-24
4	-126	-13
20	-51	22
24	22	14
11	62	1
-11	63	22
-26	37	51
-18	16	21
20	16	-10
86	47	-30
161	99	19
229	147	26
273	171	-8
279	156	29
242	92	37
151	-11	32
13	-127	23
-165	-228	44
-347	-274	33
-481	-246	37
-529	-149	17
-466	-18	-69
-315	89	-145
-131	122	-168
19	68	-129
81	-45	-147
49	-160	-130
-37	-216	-157
-118	-186	-91
-138	-90	65
-88	15	32
9	81	31
97	84	41
138	50	70
125	27	196
89	51	225
64	121	113
78	195	85
119	228	129
154	188	-13
154	93	-196
103	-12	-407
24	-85	-601
-48	-105	-374
-87	-90	-59
-84	-71	-71
-56	-76	-90
-28	-97	-78
-13	-112	-57
-4	-90	37
8	-23	87
39	66	133
81	143	137
115	174	86
126	154	56
107	97	53
66	31	60
24	-19	43
-8	-47	21
-26	-58	22
-38	-66	-45
-54	-76	-155
-77	-84	-90
-95	-83	-38
-96	-66	-164
-75	-34	-215
-33	15	-163
12	72	-43
49	132	45
69	171	37
78	168	3
77	106	-2
68	-8	48
52	-143	69
27	-249	32
-7	-274	28
-44	-209	61
-74	-84	38
-87	41	-5
-84	106	-23
-71	91	-21
-58	24	-45
-47	-31	8
-33	-24	67
-4	47	16
40	147	-36
94	200	-79
133	166	-65
141	46	-46
111	-100	-16
48	-204	5
-21	-224	4
-70	-163	-31
-88	-79	-63
-77	-24	-32
-52	-29	-20
-37	-72	-30
-37	-109	-18
-46	-96	30
-47	-24	46
-24	79	87
27	163	145
93	197	113
153	174	75
183	123	28
169	72	-113
107	45	-340
16	38	-424
-91	29	-263
-184	-3	-114
-242	-57	12
-253	-120	63
-217	-163	85
-150	-165	138
-71	-125	36
-6	-59	-119
30	1	-209
43	41	-259
44	51	-155
49	39	60
66	26	52
90	23	-19
103	34	11
91	47	21
53	47	-23
-1	26	-64
-51	-19	-62
-82	-65	-59
-83	-97	-28
-62	-94	18
-36	-58	65
-12	-5	77
6	47	94
21	86	104
36	108	55
53	115	-10
68	114	-20
72	103	9
61	84	33
32	55	25
-1	28	29
-35	15	13
-55	19	-113
-63	32	-87
-60	28	-14
-51	-18	-54
-44	-109	6
-36	-218	29
-26	-298	0
-12	-301	-7
13	-213	-1
42	-62	-2
75	89	-59
97	185	-95
102	193	-99
86	131	-75
52	39	-24
12	-34	44
-26	-68	33
-53	-71	-36
-67	-64	-89
-75	-65	-89
-79	-66	-82
-78	-49	-76
-74	7	-77
-57	96	-50
-26	187	-22
17	235	-93
67	203	-97
114	94	-78
147	-57	-89
164	-188	-62
164	-247	-13
141	-216	53
94	-120	66
18	-14	59
-79	50	127
-174	45	131
-245	-12	152
-259	-80	122
-213	-109	39
-126	-78	45
-32	3	-40
32	91	-80
55	143	-36
44	144	-28
28	106	3
28	59	-22
50	36	-126
78	41	-179
83	58	-256
52	56	-267
-10	19	-144
-71	-47	-160
-105	-113	-184
-101	-151	-76
-67	-143	14
-29	-102	55
-5	-48	-16
1	-3	-61
5	30	16
22	52	52
59	79	26
104	104	31
131	122	49
123	115	61
79	81	110
17	28	91
-36	-24	48
-65	-54	43
-63	-65	12
-45	-64	-36
-27	-70	-19
-21	-85	22
-26	-98	37
-34	-94	51
-37	-62	-9
-28	-15	-45
-8	31	-56
17	50	-44
40	43	-57
55	26	-93
58	23	-107
44	54	-135
22	108	-96
-11	150	-92
-41	138	-163
-64	53	-143
-78	-89	-43
-81	-238	11
-79	-326	68
-70	-312	86
-55	-184	52
-26	6	32
15	190	34
65	300	53
110	307	15
132	228	4
131	104	7
104	1	-4
64	-54	-28
26	-66	-35
-2	-65	5
-18	-87	31
-28	-141	53
-34	-209	36
-40	-240	43
-40	-194	76
-32	-72	60
-21	85	-1
-12	203	-23
-12	233	-4
-18	159	-56
-24	24	-150
-20	-100	-272
-2	-153	-238
19	-116	-83
25	-27	-117
1	51	-130
-48	68	-58
-108	14	-24
-148	-75	-15
-148	-141	-33
-105	-145	-17
-39	-84	-22
21	12	-52
56	89	-40
60	120	-131
51	105	-201
46	70	-57
57	50	65
77	53	147
89	76	196
82	88	164
51	76	80
11	34	-17
-27	-15	-12
-49	-54	25
-59	-70	5
-63	-69	-68
-67	-61	-107
-69	-55	-122
-59	-49	-170
-32	-36	-137
10	-5	-100
57	38	-58
88	82	24
94	105	40
78	103	18
48	85	9
23	61	46
6	44	41
-8	28	1
-26	0	13
-53	-54	59
-86	-130	79
-108	-203	51
-106	-242	8
-78	-216	-8
-29	-135	-32
19	-23	-100
54	79	-108
72	134	-115
80	138	-125
82	105	-70
86	66	-19
85	43	19
69	45	18
36	54	28
-12	56	57
-57	32	39
-87	-19	28
-91	-80	-8
-74	-137	-66
-49	-166	-109
-25	-153	-93
-10	-96	-31
7	-3	-52
28	103	-62
61	197	-15
99	244	45
130	235	86
141	161	111
122	41	119
74	-83	82
0	-177	22
-85	-211	-58
-159	-190	-178
-208	-131	-279
-222	-68	-251
-191	-28	-169
-129	-16	-93
-56	-23	-46
4	-26	2
38	-16	77
46	10	66
46	39	30
53	56	65
74	62	39
97	60	-56
102	59	-51
74	54	9
16	34	26
-52	-17	-10
-101	-100	-17
-110	-188	-5
-81	-243	-15
-31	-228	-37
14	-135	-116
41	6	-112
48	135	-81
46	203	-37
45	195	41
45	134	-8
42	74	-109
28	51	-95
4	77	10
-18	110	30
-31	106	28
-34	40	41
-33	-77	13
-39	-189	-43
-54	-241	-88
-72	-204	-32
-77	-99	20
-57	18	39
-14	96	21
33	110	-29
68	80	-50
79	50	-153
67	62	-228
49	121	-132
38	190	-49
40	215	-2
46	163	-8
42	33	-51
18	-130	8
-23	-257	87
-64	-300	93
-94	-251	28
-97	-149	-25
-78	-50	-30
-43	1	0
-7	-3	29
24	-30	39
48	-40	69
68	-5	84
83	72	64
89	160	5
82	214	-70
57	213	-83
21	151	-76
-23	55	-62
-64	-47	6
-95	-127	85
-108	-171	145
-105	-169	170
-86	-131	122
-54	-69	76
-16	-6	70
24	33	9
58	39	-143
77	11	-335
77	-25	-406
60	-40	-264
34	-21	-223
12	26	-173
-3	68	-53
-5	76	-45
-3	34	-52
-7	-25	-83
-28	-66	-103
-60	-57	-78
-98	-4	24
-120	50	49
-113	60	44
-71	4	68
-6	-87	79
63	-152	131
116	-135	134
138	-28	110
132	118	57
111	229	47
87	240	23
69	145	4
49	-3	-102
16	-131	-255
-39	-188	-197
-114	-171	-93
-184	-117	24
-229	-75	81
-223	-60	93
-164	-61	80
-65	-43	49
37	15	50
121	104	5
169	190	-14
175	235	-81
151	228	-165
107	182	-201
51	118	-208
-5	50	-189
-57	-30	-128
-95	-134	-34
-110	-254	-11
-97	-348	24
-63	-360	56
-24	-263	8
6	-77	-19
16	123	7
10	249	63
-3	243	102
-6	121	108
8	-39	119
34	-142	60
60	-131	-74
66	-25	-129
47	105	-125
5	178	-86
-45	154	-8
-86	56	17
-101	-45	45
-91	-85	70
-64	-46	24
-34	34	-13
-10	89	-15
12	71	-46
33	-19	-86
59	-129	-74
90	-191	-20
116	-163	13
124	-54	47
107	78	119
72	163	151
25	169	103
-19	101	82
-52	14	37
-78	-44	-74
-95	-48	-178
-109	-25	-271
-116	-13	-275
-108	-41	-211
-80	-103	-114
-29	-148	-48
27	-127	-100
74	-26	-113
97	121	-82
94	233	23
72	244	152
50	131	109
35	-54	31
27	-225	14
17	-294	-31
-7	-242	-164
-44	-111	-208
-87	15	-136
-116	67	-74
-119	32	-14
-94	-44	-7
-49	-94	-18
0	-66	-7
44	27	58
74	138	65
97	205	65
111	194	24
115	122	4
105	39	18
74	-12	-10
23	-16	37
-35	4	63
-86	11	80
-115	-17	91
-119	-70	54
-102	-113	0
-79	-111	44
-52	-57	107
-30	27	20
-5	102	-100
23	140	-219
52	139	-252
75	126	-76
79	127	-25
63	150	-65
32	171	14
1	150	57
-20	51	62
-25	-123	-62
-20	-326	-298
-20	-482	-336
-28	-527	-138
-48	-433	42
-64	-239	107
-65	-21	69
-42	139	48
1	196	116
44	163	112
75	96	53
84	66	20
72	103	-78
51	187	-233
34	256	-251
21	241	-154
8	119	-113
-14	-72	-19
-51	-254	93
-94	-346	130
-126	-309	93
-133	-169	35
-105	-3	-30
-50	118	-87
14	159	-46
65	143	-5
90	120	47
91	131	55
80	174	60
72	204	87
74	166	66
79	36	-28
68	-149	-156
33	-315	-103
-34	-381	35
-113	-318	41
-175	-164	53
-195	0	53
-157	93	-78
-77	90	-165
20	18	-182
97	-47	-139
131	-47	-82
122	27	-28
89	135	-19
54	208	-98
36	204	-59
33	123	54
35	16	21
29	-60	15
7	-81	37
-28	-50	-64
-66	-11	-56
-100	3	9
-122	-17	29
-130	-49	-20
-121	-60	-84
-93	-34	-50
-42	26	-40
22	84	0
85	115	42
124	106	34
126	68	24
94	20	15
41	-24	16
-3	-62	-56
-28	-101	-75
-34	-134	16
-34	-152	22
-40	-135	-37
-58	-80	-28
-78	5	7
-81	95	18
-56	161	34
-9	195	30
46	193	-8
89	170	-105
107	130	-120
101	68	-72
78	-19	-83
52	-131	-40
25	-242	1
-1	-316	-13
-30	-321	33
-56	-256	78
-72	-150	1
-75	-48	-95
-59	8	-171
-35	15	-132
-11	-5	-56
7	-11	-45
18	21	21
27	85	52
35	151	21
45	182	59
50	162	12
49	102	-54
37	34	29
21	-10	19
4	-23	-101
-15	-19	-189
-38	-22	-166
-68	-44	-89
-100	-78	-16
-122	-103	-26
-121	-96	-89
-89	-52	-134
-31	13	-91
35	72	-31
86	106	-46
110	106	-22
104	89	30
80	71	70
50	59	51
26	57	52
6	45	71
-18	17	61
-47	-27	61
-80	-80	105
-101	-117	132
-104	-131	98
-84	-111	53
-44	-62	16
-1	0	-23
34	61	-55
59	105	-90
75	121	-136
84	104	-155
90	60	-164
89	1	-115
77	-52	-7
47	-82	27
8	-85	38
-33	-65	14
-65	-44	-1
-85	-38	8
-89	-52	-24
-85	-77	-16
-74	-88	4
-56	-70	35
-32	-16	13
4	65	-11
44	150	-66
81	213	-177
102	240	-162
104	224	-56
83	170	-64
45	92	-82
2	1	-45
-43	-81	-14
-84	-143	58
-115	-174	24
-130	-179	-72
-128	-175	-64
-100	-177	21
-47	-195	77
16	-216	104
84	-218	98
130	-171	67
151	-68	2
142	63	-46
113	180	-49
70	237	-65
26	215	-49
-14	135	34
-48	40	37
-71	-30	-53
-89	-59	-120
-95	-57	-119
-91	-56	-45
-81	-70	-100
-66	-97	-233
-51	-108	-280
-35	-81	-178
-15	-16	-65
10	67	-62
36	131	-59
60	158	-13
74	149	63
69	123	120
53	106	152
29	95	103
10	72	66
0	22	10
-2	-55	-54
-3	-135	-58
-15	-178	-7
-42	-163	62
-81	-103	13
-116	-41	-41
-129	-11	-44
-108	-22	19
-51	-45	75
21	-37	126
90	28	127
130	132	68
132	225	4
102	244	-80
52	174	-115
6	41	-137
-31	-89	-101
-52	-159	-43
-65	-156	-94
-71	-106	-132
-71	-63	-111
-61	-56	-53
-36	-79	9
-1	-89	23
38	-53	53
67	30	20
81	135	-38
72	211	-78
50	233	-87
25	196	64
4	132	155
-8	68	138
-12	13	110
-12	-46	26
-13	-124	-40
-19	-214	-98
-30	-288	-187
-44	-312	-225
-52	-261	-233
-52	-155	-165
-36	-30	-102
-6	66	-171
33	112	-142
69	113	-127
92	92	-90
90	76	-2
65	65	72
25	55	134
-22	33	110
-64	4	91
-99	-23	110
-118	-33	128
-121	-27	76
-106	-23	14
-69	-36	2
-20	-71	18
36	-102	41
85	-95	24
111	-29	-63
112	83	-161
94	194	-89
67	250	-64
43	214	-39
28	104	21
16	-27	-12
-3	-123	-8
-31	-144	-47
-65	-108	-79
-97	-54	-77
-111	-32	-52
-103	-58	-26
-71	-109	-4
-31	-139	32
10	-110	53
39	-24	40
58	85	24
69	169	7
78	190	-42
82	151	-67
74	80	-24
54	20	59
18	-6	43
-23	0	-52
-65	12	-109
-96	4	-105
-108	-34	-86
-107	-91	-70
-91	-137	-26
-67	-150	-46
-37	-117	-109
-1	-54	-50
39	13	-18
76	64	-38
102	85	-2
111	80	38
100	56	68
72	31	80
34	11	97
-4	-1	83
-37	-4	58
-60	3	-40
-74	21	-141
-79	46	-187
-75	67	-249
-62	68	-202
-40	34	-118
-13	-32	-30
16	-112	11
41	-165	45
55	-161	97
59	-87	155
53	28	217
44	132	150
35	174	85
26	133	-4
12	27	-101
-10	-89	-163
-41	-160	-226
-80	-159	-231
-112	-104	-148
-125	-37	-58
-112	-10	-16
-70	-36	-4
-13	-94	-24
46	-131	-75
89	-117	-166
105	-44	-138
97	58	-51
67	142	-157
30	171	-167
-7	139	-17
-40	71	65
-62	6	117
-75	-31	145
-68	-30	129
-49	-7	90
-15	19	71
24	31	66
57	24	60
69	5	71
62	-16	130
39	-26	147
13	-24	43
-1	-6	-20
3	18	-10
25	41	-63
51	51	-88
68	36	-92
62	0	-125
27	-51	-140
-27	-99	-117
-86	-125	-46
-124	-124	10
-134	-94	-51
-111	-49	-151
-68	3	-132
-21	53	-84
20	100	-69
44	132	-11
62	139	24
74	109	40
80	39	79
81	-44	82
66	-110	40
37	-121	19
-7	-69	-14
-53	16	-122
-92	92	-163
-111	109	-118
-108	57	-44
-91	-40	4
-62	-129	-1
-34	-164	36
-3	-127	42
27	-36	76
57	67	102
84	142	61
102	165	54
104	139	3
89	84	-135
55	14	-302
11	-46	-263
-36	-92	-88
-77	-108	0
-102	-97	82
-107	-60	67
-97	-16	-17
-75	16	-104
-47	24	-55
-20	7	76
6	-18	90
32	-32	159
58	-23	137
85	7	39
105	43	-6
109	65	-61
92	64	-184
51	45	-282
-4	19	-276
-59	-6	-255
-103	-23	-116
-123	-40	-16
-121	-54	24
-100	-65	74
-67	-64	72
-32	-54	87
4	-39	93
34	-25	82
61	-22	29
81	-23	48
92	-19	32
92	6	-17
80	48	1
58	92	-80
28	110	-190
-1	86	-155
-31	29	-39
-54	-41	33
-70	-93	42
-79	-109	7
-75	-99	20
-61	-78	-11
-42	-60	-86
-19	-42	-78
7	-8	-25
32	54	-19
53	131	0
71	187	44
83	174	10
85	84	-50
77	-60	-63
56	-190	6
23	-240	58
-21	-187	65
-71	-67	24
-119	49	-64
-152	106	-63
-161	88	7
-136	29	-1
-84	-11	-32
-10	-2	35
65	40	84
124	72	-15
157	52	-147
156	-13	-186
127	-83	-135
81	-97	-81
27	-33	-90
-22	71	-72
-64	151	-19
-94	143	-39
-112	41	-95
-115	-99	-106
-104	-196	-70
-80	-196	31
-46	-105	60
-14	19	-8
19	101	22
44	104	102
65	43	41
81	-21	-25
90	-40	-6
85	-4	-12
58	55	12
11	89	-3
-49	66	-58
-107	-4	-59
-144	-83	0
-141	-127	-9
-99	-121	-11
-33	-74	51
35	-17	61
83	26	77
104	49	24
99	63	-30
84	80	-85
68	96	-98
60	103	-99
58	85	-136
53	48	-94
44	0	-41
28	-35	-43
12	-53	-35
-3	-57	20
-23	-61	10
-48	-75	53
-87	-87	139
-130	-83	107
-166	-45	13
-168	19	-49
-126	85	-78
-46	122	-68
48	113	-93
124	64	-176
154	7	-211
132	-29	-179
76	-34	-19
12	-23	70
-34	-21	34
-53	-45	-22
-57	-81	-56
-59	-95	11
-69	-64	32
-83	4	10
-85	74	-35
-65	96	-66
-21	41	35
33	-64	81
81	-167	86
105	-200	150
109	-133	136
100	4	24
84	145	5
67	215	2
43	189	-238
9	78	-387
-37	-61	-325
-82	-167	-253
-110	-209	-95
-110	-189	16
-82	-131	54
-35	-66	111
8	-7	133
35	37	129
43	71	100
36	88	22
25	88	1
18	67	-7
18	44	-5
21	30	8
20	32	8
12	48	-3
-8	57	-67
-40	45	-87
-75	7	-118
-103	-43	-108
-115	-83	-21
-103	-97	-5
-67	-81	-4
-15	-48	46
37	-11	13
81	25	-33
101	60	17
104	97	22
93	126	-2
77	137	11
57	114	-10
35	60	8
9	-13	11
-20	-74	9
-49	-105	45
-71	-102	-3
-81	-78	-96
-77	-56	-117
-60	-49	-52
-38	-53	-74
-16	-50	-139
8	-24	-132
30	24	-100
48	77	-81
62	110	-32
62	106	-36
52	68	-47
31	17	10
5	-25	58
-23	-50	93
-44	-58	68
-60	-63	32
-75	-72	32
-83	-87	61
-84	-91	9
-70	-71	-60
-45	-30	-29
-7	30	-56
34	92	-159
66	143	-261
85	174	-339
86	186	-267
77	174	-58
61	131	60
44	57	98
29	-49	147
8	-164	140
-17	-248	149
-47	-268	113
-69	-218	50
-80	-119	68
-69	-19	55
-42	33	-58
-10	19	-100
21	-38	-55
38	-91	-38
42	-83	-5
40	0	-12
37	131	-69
38	244	-147
38	274	-155
30	190	-88
6	17	-54
-31	-174	-30
-75	-308	-42
-107	-331	-76
-118	-242	-31
-103	-87	-17
-63	69	15
-16	168	47
31	182	55
64	122	45
81	32	-31
85	-46	-6
80	-75	26
72	-45	13
60	24	-9
44	100	24
21	142	28
-8	127	15
-41	57	5
-70	-42	-52
-87	-129	-15
-83	-169	7
-56	-144	-23
-16	-72	-84
26	12	-94
56	76	-67
62	96	-27
44	84	15
12	55	24
-18	43	58
-31	53	44
-22	74	2
1	79	-18
16	53	-13
13	3	0
-17	-54	-70
-59	-93	-140
-96	-101	-116
-106	-82	-59
-88	-56	-13
-48	-40	-30
-8	-33	-71
20	-26	-127
34	-3	-182
40	39	-119
53	93	-17
75	130	-7
97	130	-37
106	88	-33
89	19	-54
41	-49	-34
-23	-95	20
-84	-109	28
-121	-99	69
-129	-86	83
-110	-77	38
-72	-72	30
-34	-58	29
1	-24	-32
30	32	-45
52	94	27
75	131	48
94	126	-18
104	74	-70
102	3	-63
83	-55	-37
49	-72	-10
7	-48	-19
-35	-10	-35
-71	6	-4
-96	-28	49
-105	-99	42
-98	-175	40
-77	-204	14
-46	-162	-49
-11	-60	-89
20	58	-118
40	145	-155
48	174	-93
45	149	-72
40	106	-72
36	75	0
36	60	-31
36	48	-7
24	7	42
-3	-63	59
-45	-136	32
-91	-155	-2
-123	-83	-10
-130	68	-64
-107	233	-113
-58	312	-113
2	239	-32
59	15	53
104	-264	64
130	-473	-35
132	-498	-132
117	-322	-117
84	-36	-36
42	215	49
-2	305	80
-37	197	70
-60	-38	57
-71	-259	53
-71	-338	55
-71	-238	38
-68	-19	-24
-61	202	-85
-42	319	-86
-11	301	-111
30	194	-241
69	84	-257
94	25	-143
93	27	-6
71	45	145
35	35	199
-2	-17	168
-31	-80	100
-51	-111	68
-67	-89	-22
-81	-33	-172
-92	11	-283
-97	10	-330
-89	-27	-265
-64	-59	-100
-25	-40	-11
16	43	37
54	151	120
79	221	137
91	205	175
89	110	187
79	-15	180
60	-103	147
34	-124	68
4	-91	-70
-30	-52	-144
-57	-49	-158
-79	-87	-202
-85	-131	-187
-80	-136	-125
-62	-88	-50
-35	-9	-49
-1	56	15
39	67	26
75	33	9
103	-12	11
110	-20	-50
96	23	-32
66	89	12
30	129	28
2	104	-11
-22	17	-4
-42	-87	-13
-66	-149	-55
-100	-138	-77
-129	-67	-57
-141	16	-20
-119	64	15
-64	59	39
8	17	39
75	-17	44
114	-17	30
115	19	1
86	71	-61
45	106	-42
9	106	-11
-15	75	-22
-28	29	0
-40	-18	28
-52	-60	11
-63	-100	9
-65	-135	5
-56	-154	22
-35	-137	111
-10	-77	129
10	19	71
24	127	-21
30	214	-209
34	259	-359
41	257	-338
53	209	-289
68	129	-162
81	25	-23
82	-89	24
68	-198	51
36	-283	17
-13	-320	48
-71	-308	30
-126	-254	-68
-159	-187	-106
-154	-127	-66
-108	-81	1
-33	-32	93
44	34	163
105	113	68
126	185	33
107	211	0
64	171	-87
12	75	-206
-30	-35	-134
-58	-108	55
-72	-115	55
-78	-66	102
-75	-4	22
-61	31	-68
-36	26	-86
-3	-5	-113
27	-25	-48
46	-9	15
49	40	55
40	99	54
33	129	85
36	121	53
52	85	-3
69	46	-62
71	24	-208
46	19	-219
0	11	-114
-54	-16	-69
-98	-67	-43
-117	-122	41
-113	-153	65
-96	-136	37
-71	-76	14
-49	11	5
-22	91	24
11	139	62
54	147	45
98	119	-22
129	68	-28
138	15	3
120	-33	-17
84	-64	-68
36	-76	-39
-12	-68	-13
-52	-55	-51
-84	-49	-91
-104	-60	-75
-112	-86	-60
-105	-109	-62
-83	-108	-60
-45	-70	-96
-5	1	-48
32	92	19
59	178	18
71	235	22
75	252	65
68	225	93
59	152	65
46	40	-12
29	-98	-47
4	-230	-11
-27	-318	-18
-58	-331	-62
-87	-257	-92
-100	-129	-46
-96	5	-48
-75	87	-96
-41	94	-100
-6	40	-47
28	-27	47
56	-56	97
80	-29	149
95	38	161
101	105	95
94	139	32
69	129	5
26	93	-77
-33	55	-217
-95	22	-344
-141	-8	-283
-161	-56	-131
-141	-125	-34
-91	-189	32
-19	-208	-9
46	-151	-7
91	-20	-16
105	139	-27
93	264	-47
69	298	-47
46	233	10
35	106	-3
28	-21	10
20	-101	-7
0	-117	25
-34	-91	56
-72	-65	86
-102	-66	130
-108	-101	64
-92	-142	-60
-56	-163	-50
-16	-143	23
19	-87	-27
44	-18	-62
66	41	-137
84	76	-121
97	86	-69
100	80	-19
86	66	-5
54	53	-103
10	37	-117
-38	18	-72
-76	-4	-3
-98	-27	-5
-108	-43	22
-109	-48	77
-106	-37	138
-95	-16	159
-71	13	169
-30	43	163
26	66	14
85	74	-119
127	68	-224
144	51	-255
128	32	-275
92	23	-302
46	16	-269
3	6	-132
-28	-24	19
-53	-76	59
-70	-135	97
-88	-178	96
-99	-176	65
-99	-123	82
-86	-30	77
-55	60	64
-18	116	57
23	121	51
55	90	76
75	54	72
83	43	69
81	63	53
74	93	-13
61	104	-20
42	76	-76
12	12	-183
-26	-60	-192
-70	-113	-219
-108	-126	-189
-126	-109	-54
-118	-78	19
-83	-50	22
-26	-31	18
31	-10	45
78	26	-15
99	83	-62
99	140	-12
79	177	-8
52	169	5
24	110	67
-2	16	22
-28	-85	-40
-54	-161	-41
-76	-196	-100
-88	-196	-27
-81	-168	10
-61	-127	-17
-31	-77	-57
-5	-14	-185
13	67	-149
27	159	-17
41	233	61
60	258	69
83	205	51
99	78	7
92	-91	-24
58	-240	-48
6	-312	-56
-52	-287	-36
-92	-185	13
-107	-62	80
-95	20	41
-70	31	-21
-45	-10	-54
-25	-57	-77
-11	-62	-45
7	-4	2
30	92	6
56	174	-79
78	197	-36
82	148	81
69	54	10
46	-33	42
17	-72	17
-10	-60	-77
-34	-25	-74
-57	-5	-86
-81	-22	-111
-96	-65	-147
-98	-101	-130
-80	-93	-69
-40	-37	79
5	46	101
48	117	90
72	149	116
80	143	36
70	123	-66
57	124	-149
42	150	-44
29	178	12
12	163	-33
-10	74	12
-32	-81	-3
-54	-254	-10
-65	-376	-53
-64	-390	-132
-53	-289	-82
-37	-121	-44
-22	44	-48
-4	150	-24
15	175	5
36	153	47
59	121	29
80	116	-31
92	129	-52
89	122	-30
71	62	-57
42	-55	-60
8	-188	2
-29	-278	44
-67	-275	-7
-99	-184	-40
-115	-54	-31
-108	45	-103
-75	74	-152
-25	32	-114
23	-29	4
53	-49	40
51	2	46
22	110	55
-17	233	26
-42	311	26
-39	318	5
-13	250	-24
21	125	-80
42	-33	-70
34	-202	-25
1	-349	25
-41	-434	121
-70	-416	131
-76	-279	145
-53	-64	149
-18	147	34
21	261	-168
54	235	-313
77	90	-331
89	-72	-246
89	-158	-139
75	-112	-60
44	22	82
0	145	75
-44	170	21
-82	71	-26
-102	-88	-97
-104	-207	-45
-90	-207	-6
-68	-91	-9
-46	61	26
-22	158	9
4	149	-89
34	63	-36
62	-20	42
85	-29	22
96	45	-27
89	145	-27
71	194	40
41	145	50
9	18	54
-26	-114	92
-59	-180	106
-87	-156	68
-100	-75	42
-94	2	-59
-66	26	-151
-26	3	-165
15	-21	-177
46	1	-185
57	83	-80
52	185	74
44	251	93
41	229	95
48	122	45
58	-25	10
59	-150	-49
40	-209	-85
2	-207	2
-45	-176	39
-86	-155	38
-102	-157	-12
-95	-170	-99
-65	-159	-230
-31	-107	-235
0	-21	-90
20	67	-56
32	131	-36
40	161	31
45	169	38
45	183	36
40	215	16
25	248	-8
5	241	-15
-16	154	-36
-31	-9	-43
-46	-214	-22
-55	-380	10
-62	-443	35
-62	-376	37
-47	-215	98
-15	-43	143
33	69	132
82	90	96
115	43	-33
119	-8	-133
94	-12	-121
49	48	-156
6	131	-181
-27	177	-114
-44	145	-155
-51	40	-128
-63	-85	-22
-84	-170	-45
-105	-173	-132
-118	-107	-94
-108	-14	-16
-75	53	-24
-26	74	9
24	62	23
60	51	6
81	68	39
85	109	108
79	143	118
66	140	64
51	92	24
29	17	9
0	-52	-21
-32	-89	-93
-63	-89	-123
-85	-72	-128
-93	-64	-83
-86	-71	-41
-67	-83	9
-39	-77	31
-4	-38	38
34	23	87
70	86	84
97	121	49
107	117	-30
101	84	-62
75	41	-57
40	11	-78
3	-8	-92
-26	-20	-101
-50	-41	-57
-63	-74	-1
-70	-105	8
-71	-121	1
-62	-107	-18
-42	-68	-34
-12	-16	-43
18	32	-55
38	71	0
42	106	64
33	143	72
15	178	69
0	192	44
-3	161	33
4	77	6
15	-51	-69
14	-178	-188
-1	-254	-200
-30	-249	-63
-63	-167	-6
-86	-54	87
-86	33	121
-59	52	43
-16	9	13
33	-61	-40
74	-101	-137
99	-81	-175
105	-9	-157
97	70	-165
77	106	-97
49	81	-49
16	5	-20
-21	-68	113
-61	-102	159
-95	-81	102
-115	-28	100
-109	14	35
-78	22	-8
-25	4	-39
30	4	-149
69	61	-83
83	188	-70
66	341	-181
36	438	-125
10	405	-27
5	211	10
22	-93	56
45	-403	6
54	-596	-63
33	-602	-99
-19	-429	-135
-82	-173	-81
-126	41	-27
-136	123	-1
-108	58	46
-53	-85	32
-2	-192	-38
32	-185	1
42	-48	42
44	149	70
46	305	135
52	350	89
61	276	80
57	149	-28
36	40	-246
-1	1	-373
-41	13	-246
-70	21	16
-83	-20	72
-78	-112	81
-65	-200	69
-52	-219	74
-36	-137	123
-15	13	99
16	154	71
52	211	58
85	165	9
100	56	-131
95	-34	-223
69	-49	-228
36	9	-200
5	85	-104
-20	109	-60
-39	45	-9
-59	-72	28
-75	-182	33
-86	-215	53
-86	-160	54
-68	-52	65
-39	45	24
-1	89	21
35	80	52
64	54	86
82	54	67
88	92	-72
83	140	-145
59	160	-128
25	120	-119
-15	33	-65
-48	-67	-30
-71	-137	-26
-79	-159	-3
-72	-139	0
-62	-103	-3
-54	-74	-6
-47	-50	15
-33	-23	43
-11	24	64
21	85	52
57	139	14
85	161	-5
97	131	-15
92	60	17
76	-29	64
55	-106	40
35	-147	-15
15	-151	34
-14	-121	63
-47	-72	-43
-84	-19	-155
-109	29	-215
-112	63	-210
-86	77	-230
-35	66	-215
24	45	-151
78	27	-40
106	35	39
99	77	15
56	142	-15
-6	191	-45
-68	178	-92
-106	76	-116
-107	-113	-30
-76	-334	48
-32	-515	80
-3	-573	79
-3	-482	123
-28	-273	104
-58	-20	-4
-63	181	-25
-28	268	-10
35	239	1
102	145	-66
141	64	-142
134	49	-249
89	103	-261
29	170	-147
-20	187	-67
-44	112	13
-53	-33	57
-56	-188	70
-61	-273	33
-70	-246	17
-71	-126	44
-56	22	120
-26	127	150
11	152	120
40	110	113
54	55	77
56	39	57
55	79	-6
54	148	-86
51	192	-140
39	171	-151
11	83	-122
-27	-41	-145
-60	-143	-147
-72	-185	-118
-61	-161	-30
-34	-101	16
-8	-43	12
1	-13	36
-3	-8	51
-10	-8	118
-3	8	78
23	48	-32
63	96	-16
95	126	31
100	123	21
72	83	5
27	25	-20
-19	-27	-111
-50	-57	-108
-60	-68	-66
-62	-67	-62
-65	-65	-45
-76	-67	-86
-87	-63	-57
-86	-49	-27
-65	-23	-22
-24	8	30
26	28	6
72	33	17
104	24	53
111	20	56
102	35	94
77	75	136
41	116	118
2	129	54
-38	86	-2
-71	-17	-155
-95	-147	-265
-102	-255	-211
-96	-286	-144
-79	-218	-91
-58	-67	-60
-33	108	-105
-8	241	-138
26	272	-92
65	194	-59
105	40	-97
133	-124	-76
139	-235	22
116	-253	-9
65	-188	-13
-1	-77	39
-64	22	13
-110	77	-14
-129	75	-12
-126	33	52
-105	-17	70
-79	-58	60
-51	-82	57
-23	-95	52
6	-96	-30
38	-79	-124
69	-35	-47
94	40	53
100	131	36
86	207	-13
52	233	-24
12	187	32
-25	88	53
-52	-29	-3
-64	-114	-66
-70	-142	-169
-70	-114	-132
-66	-59	-19
-56	-9	-40
-35	16	-44
-4	17	-23
34	11	-43
66	17	-37
87	39	-30
90	66	4
77	85	27
56	81	38
33	51	16
10	11	-49
-14	-26	-36
-40	-48	-35
-63	-56	-50
-77	-56	-69
-72	-58	-41
-51	-65	36
-20	-74	68
8	-74	94
20	-54	44
19	-14	1
10	41	-23
8	97	-89
17	134	-135
36	150	-132
46	140	-112
39	114	-58
5	75	65
-43	21	145
-87	-44	149
-107	-126	32
-96	-204	-57
-63	-259	-87
-23	-260	-119
13	-199	-99
39	-94	-78
63	23	-44
91	106	11
117	137	47
128	116	44
111	74	22
60	42	-8
-12	37	-39
-79	47	-71
-118	51	-91
-118	30	-117
-93	-14	-64
-64	-55	30
-52	-70	-22
-60	-52	-56
-71	-15	-93
-65	8	-126
-32	0	-24
22	-38	-33
77	-76	-118
109	-79	-50
112	-32	-30
93	45	4
66	113	98
44	133	87
28	90	174
10	9	229
-20	-70	172
-57	-110	56
-92	-98	4
-108	-53	21
-99	-7	-123
-69	19	-316
-32	25	-338
3	33	-225
27	63	-87
46	127	21
65	200	-11
86	243	-96
94	224	-166
86	134	-164
51	4	-48
-1	-122	39
-54	-204	57
-94	-233	29
-107	-227	20
-97	-223	52
-75	-238	33
-50	-260	-40
-29	-253	-43
-10	-174	3
13	-23	21
42	158	17
75	295	0
98	325	-32
106	238	-25
93	79	2
62	-68	4
22	-138	20
-18	-113	49
-54	-33	58
-85	39	78
-104	57	84
-112	22	50
-104	-29	6
-78	-51	-56
-38	-29	-76
6	19	-37
44	51	-22
67	48	-7
74	20	3
69	7	-7
59	39	-51
49	115	-130
38	190	-148
24	207	-119
2	134	-37
-28	-15	69
-56	-178	104
-78	-288	91
-82	-297	61
-65	-215	-13
-32	-92	-120
8	20	-203
42	80	-302
63	92	-209
67	83	-2
56	80	14
35	99	64
16	125	75
3	141	43
-6	124	43
-10	75	-32
-14	0	-125
-22	-80	-149
-33	-149	-87
-43	-201	-17
-46	-227	52
-44	-223	60
-30	-183	74
-15	-115	93
1	-27	104
13	61	120
27	129	114
41	170	130
54	180	101
60	174	-64
54	155	-230
33	120	-268
-3	59	-345
-43	-31	-301
-79	-140	-149
-98	-236	-120
-100	-275	-33
-86	-241	16
-60	-137	54
-32	-6	104
-1	99	112
30	147	141
61	130	91
90	85	57
107	51	-22
107	54	-183
90	84	-208
54	110	-112
8	103	-100
-39	50	-133
-81	-21	-60
-111	-83	47
-122	-111	103
-115	-108	88
-92	-93	55
-55	-87	20
-12	-91	0
29	-85	-33
59	-49	-87
75	26	-86
77	117	-26
68	183	-21
53	197	14
40	148	90
31	62	84
25	-24	105
22	-84	44
19	-114	-60
11	-133	-105
-10	-148	-101
-46	-154	-55
-91	-129	-49
-129	-55	-16
-140	52	-16
-112	160	-38
-43	210	-108
42	174	-139
117	64	-69
150	-53	-55
127	-113	-20
65	-81	-11
-8	19	-15
-61	110	35
-83	120	34
-74	13	-32
-50	-164	-34
-33	-315	0
-28	-351	9
-31	-230	30
-28	-14	40
-14	193	20
14	283	18
46	224	47
77	61	8
97	-99	28
103	-160	30
94	-92	4
65	51	21
18	171	68
-38	183	78
-93	79	-52
-125	-86	-248
-123	-208	-299
-88	-218	-151
-38	-114	-122
4	41	-93
21	165	-62
15	193	-16
1	126	-3
0	20	-66
23	-62	-4
63	-80	24
97	-47	18
104	0	31
74	20	85
20	-1	61
-36	-45	13
-71	-85	-55
-84	-93	-109
-78	-74	-4
-68	-44	-8
-64	-22	-37
-59	-12	32
-43	0	16
-8	27	3
42	75	-62
93	125	-123
126	158	-113
127	154	-124
102	111	-69
56	49	-17
6	-13	70
-43	-54	82
-86	-79	46
-121	-90	42
-143	-100	28
-145	-110	1
-123	-109	-84
-82	-89	-120
-29	-45	-125
16	11	-84
43	64	-27
52	104	2
52	127	-13
52	142	-55
58	157	-49
66	168	-33
64	163	-43
44	120	-88
5	32	-75
-39	-90	-38
-77	-208	37
-91	-289	111
-82	-301	144
-51	-256	155
-13	-179	94
21	-108	29
48	-66	-38
62	-45	-84
67	-25	-109
65	25	-78
56	106	-30
40	194	38
19	255	76
-3	261	8
-29	210	-106
-52	124	-155
-68	34	-47
-77	-43	-25
-68	-110	-16
-48	-173	7
-16	-233	-108
22	-269	-217
56	-254	-150
81	-169	-65
92	-31	-28
94	109	21
94	196	-23
97	193	-64
103	110	-30
102	-2	20
81	-85	56
26	-102	63
-55	-64	32
-143	-8	7
-214	25	-2
-235	22	6
-195	1	12
-111	-1	35
-14	32	60
56	96	14
77	153	-34
49	162	-53
1	115	7
-35	31	58
-39	-44	34
-10	-76	39
34	-57	69
59	-12	11
49	19	-83
5	10	-149
-52	-37	-197
-99	-95	-115
-109	-126	-13
-84	-113	-22
-37	-60	-31
10	2	-20
42	49	-46
59	66	-137
65	61	-205
69	53	-129
74	52	-19
75	60	4
66	60	-26
43	39	-111
10	-3	-167
-27	-59	-108
-57	-105	-19
-79	-128	39
-86	-123	107
-85	-101	156
-71	-70	141
-48	-40	104
-16	-13	54
23	19	29
64	53	38
94	89	58
107	111	116
101	114	155
78	96	112
47	65	65
18	35	7
-7	12	-134
-29	-4	-302
-48	-23	-376
-68	-46	-315
-82	-69	-226
-86	-83	-144
-70	-71	-68
-42	-37	-43
-6	10	-20
28	45	13
50	53	-5
56	32	35
49	-2	109
34	-17	143
18	9	177
2	74	168
-14	143	179
-35	174	162
-54	125	12
-68	-4	-153
-67	-170	-236
-49	-308	-313
-15	-349	-266
21	-277	-84
46	-127	-1
58	20	4
54	94	-24
47	68	-12
46	-21	65
54	-102	63
67	-111	49
71	-32	24
62	85	-47
34	163	-43
-4	147	-64
-43	37	-134
-79	-100	-154
-104	-189	-82
-120	-176	4
-124	-78	-17
-114	41	-31
-87	118	21
-39	120	42
13	75	102
59	34	124
85	42	83
89	100	82
72	163	70
52	183	72
36	136	34
27	45	-30
17	-47	-62
-2	-95	-157
-33	-89	-154
-68	-57	-140
-94	-33	-227
-97	-38	-128
-79	-60	-58
-41	-69	-74
1	-41	-12
36	23	54
61	96	101
78	139	87
86	134	49
85	88	1
71	24	-84
40	-25	-151
-5	-49	-124
-54	-60	-53
-98	-74	-35
-122	-101	-54
-124	-127	-69
-107	-136	-21
-77	-107	93
-37	-36	205
4	56	229
44	145	192
77	197	138
94	197	-25
94	141	-165
74	49	-202
42	-49	-263
8	-126	-280
-18	-157	-164
-33	-136	-147
-42	-87	-139
-45	-39	-27
-49	-30	26
-51	-67	49
-50	-130	-19
-39	-166	-82
-22	-134	-50
1	-21	9
26	138	45
51	277	72
74	340	99
87	300	97
90	188	94
77	51	91
47	-61	76
10	-144	15
-26	-212	-21
-50	-282	-35
-58	-351	-64
-52	-371	-127
-41	-307	-119
-33	-151	-54
-30	48	-54
-28	208	-67
-18	264	-26
-2	201	-1
22	81	-20
44	-14	-37
57	-17	-80
54	62	-62
35	161	-51
7	195	-28
-25	127	11
-54	-7	-5
-78	-136	21
-91	-182	26
-91	-129	16
-77	-23	17
-50	65	34
-20	86	62
12	45	61
37	-11	29
55	-24	3
67	22	-16
76	99	-21
81	153	13
77	141	20
60	70	62
30	-24	49
-12	-91	-59
-53	-107	-124
-85	-88	-87
-96	-63	-63
-90	-64	-140
-68	-86	-208
-42	-105	-186
-15	-91	-68
11	-38	41
35	34	46
59	92	-49
80	108	-110
88	87	-174
82	50	-234
56	24	-262
19	19	-211
-23	19	-50
-58	2	-18
-85	-48	-7
-98	-115	27
-102	-163	22
-96	-155	-20
-80	-79	17
-55	37	118
-22	136	111
16	169	84
52	121	98
84	23	54
101	-62	37
105	-82	77
95	-29	55
78	56	80
51	103	44
20	65	-54
-18	-54	-75
-55	-196	-33
-89	-278	7
-112	-256	43
-112	-134	65
-91	19	48
-48	125	61
-1	143	60
44	95	21
77	47	-85
87	62	-123
81	156	-116
63	270	-198
44	319	-199
27	233	-107
16	17	-83
7	-252	-30
-7	-460	56
-29	-527	22
-57	-427	-7
-85	-230	-11
-99	-32	-8
-92	84	-24
-60	102	-37
-13	57	-18
36	21	-17
75	34	0
92	100	5
90	177	17
75	215	46
54	189	79
31	110	104
6	20	99
-25	-38	46
-58	-51	-33
-89	-30	-113
-105	-6	-160
-101	-1	-156
-77	-16	-122
-42	-30	-34
-6	-24	16
23	11	-72
41	59	-117
56	100	-49
68	112	-104
77	91	-38
77	51	104
58	8	75
23	-25	91
-22	-46	24
-63	-67	-21
-91	-86	-18
-98	-103	-127
-87	-108	-171
-65	-93	-117
-37	-59	-16
-11	-17	-17
16	19	-104
42	43	-201
64	53	-170
79	62	-49
77	78	-41
63	99	-42
38	112	-123
10	97	-108
-15	42	-29
-37	-49	61
-55	-153	122
-74	-235	100
-87	-263	105
-91	-225	65
-77	-135	39
-45	-27	31
-3	62	14
40	113	-23
72	127	-2
85	129	-21
81	143	-86
66	177	-59
52	211	59
41	209	113
31	139	98
14	1	101
-14	-174	90
-51	-320	56
-89	-387	-16
-108	-345	-34
-101	-222	-95
-59	-71	-126
-1	45	-59
55	101	-81
89	105	-54
86	92	-23
54	99	-75
9	134	-115
-23	174	-94
-26	182	-41
-1	125	-10
33	15	8
52	-111	7
40	-198	14
-2	-213	-4
-53	-157	-13
-89	-65	-7
-90	11	-11
-53	47	-6
4	45	-35
52	38	-55
75	55	-35
62	103	-46
27	157	-60
-7	171	-103
-24	122	-66
-20	15	13
-6	-106	-51
0	-182	-103
-15	-174	-111
-53	-89	-100
-95	20	3
-121	93	112
-118	82	50
-83	-1	45
-33	-112	39
16	-186	-74
49	-181	-151
66	-95	-189
72	30	-134
75	141	9
79	204	145
78	209	184
66	171	215
37	122	124
-1	64	53
-39	-6	-30
-67	-98	-161
-79	-200	-251
-77	-286	-374
-67	-313	-320
-56	-257	-114
-44	-130	77
-26	22	158
3	148	194
41	207	181
81	206	124
111	174	51
122	153	-33
111	139	-133
81	117	-189
39	48	-144
-3	-77	-47
-45	-226	-49
-79	-330	-57
-103	-329	4
-113	-216	-11
-106	-41	-18
-80	110	-22
-41	170	-48
1	128	-34
38	34	31
60	-25	39
69	-2	5
64	99	-33
52	211	-56
34	261	-31
13	210	-5
-10	76	34
-35	-72	41
-57	-174	75
-72	-196	87
-75	-162	24
-63	-116	-30
-42	-92	-61
-14	-95	-112
16	-95	-127
45	-64	-113
69	5	-117
87	90	-64
93	154	-2
84	171	32
62	143	48
26	97	51
-16	51	57
-58	18	23
-94	-18	-17
-117	-68	-19
-124	-135	-65
-111	-194	-72
-83	-206	9
-36	-153	8
16	-49	-23
67	63	46
104	134	60
117	140	-47
107	95	-76
81	39	-46
50	13	-65
25	32	-23
13	65	-64
5	80	-157
-7	45	-50
-34	-30	-26
-72	-108	-112
-112	-149	-193
-136	-127	-131
-130	-55	39
-98	32	85
-45	99	134
8	127	117
50	121	106
80	93	111
97	55	72
107	15	2
115	-26	-113
107	-60	-127
84	-83	-84
35	-82	-81
-26	-65	-75
-86	-47	-62
-125	-48	-100
-135	-72	-117
-118	-109	-46
-86	-133	24
-54	-124	33
-27	-85	2
-10	-27	-160
11	25	-210
36	58	-163
66	76	-92
94	82	1
107	86	38
96	75	77
58	40	68
4	-17	54
-53	-81	15
-95	-116	-28
-111	-105	-47
-99	-51	-39
-64	7	-20
-21	35	2
20	19	42
46	-23	62
54	-43	68
52	-7	55
44	84	50
40	182	18
42	233	-15
46	204	-8
44	109	-65
33	2	-112
9	-62	-69
-26	-64	-58
-58	-30	-120
-85	-12	-167
-95	-40	-86
-88	-108	-15
-67	-166	-16
-37	-163	16
-4	-80	42
27	47	29
51	149	21
65	169	53
68	98	84
63	-18	105
51	-113	91
36	-134	70
24	-83	24
13	-4	-21
5	46	-31
-5	32	-78
-22	-29	-86
-44	-92	-57
-75	-108	-43
-104	-62	24
-116	22	55
-104	104	-31
-60	142	-77
5	134	-140
71	93	-219
117	49	-229
125	21	-230
94	1	-215
36	-19	-130
-25	-50	-9
-67	-87	8
-85	-117	41
-83	-123	79
-72	-105	87
-65	-74	77
-58	-42	24
-47	-21	14
-22	-3	9
19	19	22
62	53	94
97	95	94
107	128	62
92	147	83
56	152	125
14	169	85
-23	210	-33
-51	269	-83
-64	309	-91
-66	260	-52
-56	83	-74
-36	-214	-108
-8	-546	-208
18	-782	-267
36	-815	-160
44	-611	-181
44	-246	-167
44	129	-69
48	362	15
57	380	53
62	218	7
51	6	8
24	-129	2
-17	-123	-10
-55	-8	-30
-81	112	-76
-86	148	-85
-75	72	-20
-61	-54	15
-53	-145	13
-50	-137	45
-45	-32	21
-30	103	16
2	197	21
43	210	18
82	166	92
107	112	119
109	88	69
89	88	78
48	77	48
0	22	0
-49	-72	-78
-93	-163	-165
-116	-195	-128
-117	-148	-54
-92	-43	-6
-50	55	18
-7	96	11
26	67	-40
40	10	-47
41	-21	-18
35	6	19
32	83	22
34	154	1
36	171	-5
28	114	3
7	8	37
-22	-90	30
-54	-145	11
-75	-143	-60
-79	-110	-82
-67	-77	-71
-45	-65	-143
-18	-70	-206
13	-66	-182
42	-40	-101
69	15	-27
86	79	39
93	126	51
84	142	38
66	120	21
44	71	11
23	6	6
4	-60	43
-17	-121	81
-43	-158	43
-72	-162	17
-101	-124	43
-116	-48	38
-112	38	-14
-86	110	39
-42	137	61
10	114	-12
59	55	-82
98	-14	-254
121	-57	-196
122	-62	12
104	-30	10
65	14	31
19	43	22
-25	33	16
-62	-18	68
-81	-92	12
-86	-158	-208
-82	-185	-438
-77	-163	-471
-68	-98	-254
-56	-15	-25
-38	54	32
-12	106	70
16	144	22
41	186	21
52	236	24
54	279	-19
49	282	68
39	203	23
31	40	-34
19	-171	-40
5	-353	-3
-13	-441	53
-24	-400	-12
-21	-263	24
0	-107	72
30	0	84
54	20	54
61	-18	26
39	-56	-8
2	-37	-83
-33	49	-37
-45	161	75
-29	241	105
4	244	49
26	182	54
20	95	22
-20	33	-104
-81	19	-149
-133	27	-91
-153	21	-59
-136	-32	-52
-88	-116	-34
-31	-187	-21
17	-196	10
46	-132	-3
61	-30	7
68	58	20
72	89	-6
76	67	-30
70	31	-53
56	21	-25
32	47	-8
2	77	14
-26	66	34
-49	-9	49
-62	-123	68
-68	-211	64
-64	-216	34
-51	-121	-3
-30	24	-62
-4	145	-161
17	183	-157
28	136	-63
31	56	22
35	9	17
48	28	-31
74	95	-69
105	150	-155
121	139	-194
107	57	-182
50	-54	-99
-30	-137	43
-107	-149	76
-149	-101	34
-136	-39	-9
-83	-13	-71
-12	-39	-136
41	-91	-227
60	-124	-179
49	-98	-62
26	-22	29
15	69	97
23	125	130
41	122	134
49	68	95
32	0	45
-11	-49	9
-63	-65	-51
-103	-55	-211
-119	-39	-179
-108	-23	-7
-80	-5	41
-49	20	53
-22	54	21
4	76	-12
34	66	10
68	15	4
100	-57	-8
115	-111	-21
105	-110	10
71	-49	68
26	38	3
-18	97	-72
-50	85	-98
-67	4	-55
-77	-102	26
-82	-174	31
-81	-168	60
-71	-88	45
-50	19	39
-18	96	33
21	114	-55
57	85	-134
82	43	-180
88	31	-180
81	54	-149
63	89	-47
41	98	28
16	62	62
-14	-3	99
-40	-64	70
-62	-85	59
-74	-60	0
-70	-17	-107
-55	5	-163
-33	-17	-123
-14	-71	-77
2	-123	-43
10	-127	-7
13	-71	28
17	28	37
19	132	29
21	199	50
20	215	87
14	183	143
5	125	169
-5	56	172
-16	-11	90
-30	-78	-5
-41	-137	-84
-52	-177	-228
-51	-192	-375
-39	-178	-449
-14	-154	-341
22	-131	-90
54	-119	49
78	-103	86
85	-56	114
77	31	85
61	147	40
42	241	-28
23	264	-130
0	186	-117
-27	27	-65
-59	-148	-104
-90	-261	-59
-109	-260	0
-110	-151	-21
-93	15	41
-57	154	138
-15	205	170
31	153	145
72	31	95
106	-95	32
127	-167	-14
130	-158	-116
111	-79	-197
72	25	-144
17	100	-69
-37	110	-84
-81	58	-96
-102	-31	-3
-97	-108	11
-77	-137	65
-50	-108	126
-30	-32	55
-20	53	4
-14	115	-12
-3	135	-100
17	123	-182
44	101	-57
65	86	7
68	90	-9
44	106	31
2	120	0
-46	114	-44
-83	83	-111
-100	24	-138
-95	-52	-57
-79	-134	23
-60	-206	42
-48	-244	45
-37	-229	43
-21	-158	31
3	-44	34
34	71	38
64	152	37
89	169	-17
99	130	-27
95	75	-30
80	45	-28
52	63	50
17	106	1
-23	125	-72
-59	69	-102
-80	-65	-170
-80	-237	-151
-56	-362	-53
-23	-373	18
8	-248	93
24	-33	131
26	188	143
20	337	86
22	379	-15
36	328	-122
55	229	-171
67	112	-78
56	-5	-144
16	-133	-287
-38	-268	-298
-87	-389	-138
-107	-451	26
-93	-420	39
-50	-301	21
-5	-139	-70
26	-5	-24
37	62	76
33	60	7
27	33	-12
31	35	42
47	89	93
62	174	110
65	237	119
46	235	142
12	163	145
-27	58	103
-58	-22	23
-74	-49	30
-76	-29	27
-70	0	-102
-68	3	-262
-64	-28	-385
-55	-66	-364
-34	-72	-209
1	-31	-50
40	45	-9
74	116	10
89	143	87
81	115	100
58	55	78
26	2	44
0	-22	7
-22	-16	-19
-38	-6	-25
-55	-17	-38
-68	-53	-22
-80	-97	26
-84	-117	40
-72	-95	52
-51	-31	11
-20	45	-58
14	110	-111
44	143	-76
68	142	-33
84	119	5
90	80	78
82	30	55
63	-30	34
33	-96	-22
-2	-150	-15
-34	-175	24
-58	-163	20
-68	-119	-5
-67	-64	-63
-55	-26	-116
-40	-15	-155
-21	-23	-151
2	-28	-82
27	-9	22
52	40	13
74	104	30
84	158	11
81	171	-60
61	140	-95
34	70	-49
4	-15	0
-21	-93	-27
-42	-143	-12
-60	-166	-14
-79	-164	-44
-91	-144	-57
-93	-118	-64
-76	-86	-60
-35	-45	-16
15	1	-31
63	54	-74
90	104	-6
85	144	91
51	169	171
7	177	122
-28	168	51
-44	141	107
-39	93	20
-30	19	-68
-31	-80	-79
-46	-188	-156
-72	-271	-271
-89	-297	-318
-83	-243	-156
-45	-121	-21
9	24	104
63	148	113
98	211	40
103	222	36
89	202	-59
64	190	-117
45	187	-113
35	159	-102
29	65	-99
20	-116	-23
2	-338	130
-24	-512	207
-53	-546	166
-78	-400	71
-93	-134	-11
-92	130	-69
-74	274	-163
-40	247	-189
3	100	-50
46	-45	30
77	-85	57
86	10	34
75	174	-38
46	291	-147
14	279	-154
-12	134	-30
-29	-62	-30
-39	-204	31
-54	-224	49
-76	-131	13
-97	-8	14
-111	68	-51
-102	61	-71
-70	3	-51
-16	-44	-18
45	-31	-10
103	43	38
144	130	62
162	178	19
154	158	13
117	88	47
60	13	78
-4	-32	61
-62	-44	-10
-102	-49	-54
-112	-74	-2
-97	-119	-27
-68	-157	-112
-42	-147	-151
-25	-69	-153
-16	52	-168
-6	168	-161
12	219	-87
40	185	-57
70	84	-68
90	-35	-62
86	-120	-8
59	-144	90
16	-120	142
-31	-68	116
-70	-24	65
-94	2	37
-99	9	30
-93	1	9
-76	-16	-54
-52	-47	-97
-26	-84	-56
4	-113	2
33	-120	16
62	-88	13
90	-21	-53
111	56	-92
124	115	-16
121	131	0
96	104	-38
46	52	69
-23	15	128
-102	15	102
-167	58	116
-200	119	-37
-191	154	-125
-135	125	-134
-56	18	-209
29	-135	-171
89	-281	-124
112	-346	-88
101	-291	-49
74	-129	-90
56	70	-150
60	210	-203
84	222	-249
103	90	-155
94	-113	-31
42	-286	5
-46	-339	99
-141	-246	130
-208	-65	160
-218	106	232
-172	183	239
-86	154	237
7	63	196
76	0	107
113	16	-88
123	106	-223
122	213	-276
113	258	-273
93	209	-215
52	90	-176
-10	-36	-64
-85	-109	-24
-148	-109	-68
-172	-63	-28
-150	-25	40
-95	-23	70
-36	-53	48
1	-84	9
11	-76	9
5	-24	54
7	47	82
31	98	45
72	105	28
113	74	-9
125	32	-75
102	7	-52
52	6	-20
-1	15	-25
-41	8	17
-56	-22	57
-61	-59	54
-65	-78	15
-78	-53	-40
-89	1	-37
-84	56	-37
-52	79	-32
3	56	-51
64	10	-93
110	-22	-60
128	-14	-19
120	30	3
94	74	4
62	68	-30
33	-1	-42
0	-112	4
-36	-206	27
-77	-219	10
-113	-131	20
-130	31	8
-125	197	-10
-95	290	-2
-51	261	-28
-4	120	-54
39	-85	-26
77	-275	56
107	-384	167
134	-380	169
148	-270	39
140	-105	-53
111	48	-164
58	132	-255
-2	117	-364
-55	19	-454
-93	-112	-335
-110	-207	-136
-113	-222	83
-105	-147	188
-91	-19	204
-69	101	172
-35	170	124
12	174	22
66	148	-106
114	126	-181
141	130	-273
132	158	-227
85	171	-138
7	140	-81
-83	59	39
-156	-41	140
-195	-117	128
-193	-136	106
-154	-98	79
-98	-35	6
-44	10	-42
-11	16	-64
6	-7	-83
13	-29	-132
24	-24	-82
45	18	-17
76	72	39
99	109	84
104	103	46
86	61	5
46	6	-24
6	-35	64
-29	-49	79
-49	-45	19
-56	-42	6
-59	-51	-5
-59	-72	35
-57	-84	-7
-46	-74	-71
-23	-34	-121
12	20	-123
52	67	-112
89	91	-95
111	89	-7
118	72	20
102	53	55
68	43	72
14	35	64
-51	26	41
-118	11	28
-173	-7	43
-194	-21	-47
-172	-25	-99
-104	-29	-21
-8	-43	20
90	-71	-4
166	-107	-91
198	-123	-156
183	-88	-98
132	6	-50
72	134	-32
20	244	22
-6	272	3
-8	181	-17
11	-16	-24
34	-246	-23
49	-422	10
44	-466	-30
16	-368	-80
-35	-167	-39
-98	43	94
-153	190	178
-183	237	106
-170	205	30
-113	142	38
-26	91	11
64	64	-71
125	41	-91
138	-4	-72
99	-76	-107
29	-142	-172
-39	-163	-201
-86	-120	-179
-95	-30	-113
-83	51	-51
-64	70	-61
-60	18	-58
-67	-72	-30
-75	-134	-33
-61	-116	-34
-22	-15	-55
36	117	-76
92	211	-25
123	225	45
120	163	123
89	80	176
48	29	130
14	31	4
-8	58	-52
-23	63	-46
-41	10	-47
-63	-93	-5
-87	-196	-4
-99	-243	-22
-87	-202	-88
-52	-93	-160
-6	28	-135
35	107	-108
62	116	-88
75	77	-41
75	26	59
70	5	149
63	20	164
52	50	124
33	64	36
4	38	-6
-32	-19	-55
-67	-79	-149
-89	-112	-177
-95	-107	-189
-82	-76	-160
-56	-36	-99
-28	-8	-81
0	10	-46
23	29	-42
43	65	-22
57	123	52
65	178	91
65	199	77
57	153	60
42	40	54
22	-114	29
1	-254	-2
-20	-319	-5
-40	-273	19
-60	-126	38
-75	66	32
-81	228	-3
-71	287	-44
-43	218	-31
-1	52	-18
46	-135	9
87	-254	32
107	-251	46
103	-131	63
78	41	38
46	179	-14
16	213	-82
-5	128	-90
-23	-26	-53
-40	-175	-26
-62	-244	-65
-85	-205	-96
-91	-88	-68
-70	46	-63
-20	135	-58
48	149	-56
111	94	-26
139	17	-12
118	-39	-33
52	-51	-77
-31	-21	-189
-96	23	-170
-120	51	12
-97	45	96
-44	8	119
4	-43	94
19	-87	29
-9	-106	12
-65	-94	-26
-124	-57	-32
-150	-12	36
-126	31	74
-59	65	-7
30	85	-104
107	93	-89
148	94	-66
148	93	-108
111	86	-60
63	71	-92
18	45	-224
-12	7	-152
-32	-38	-11
-48	-84	62
-66	-114	61
-86	-125	2
-98	-115	-35
-93	-88	-46
-64	-51	-18
-20	-12	-26
28	22	-64
67	51	-47
90	70	-87
94	78	-147
83	77	-108
65	64	-37
42	47	-4
18	30	4
-14	14	-3
-48	4	4
-82	1	33
-103	4	28
-103	7	60
-83	2	81
-44	-25	80
-2	-77	22
36	-143	-16
63	-198	-6
76	-204	-84
78	-139	-84
74	-8	-58
65	143	-34
50	252	49
33	256	87
9	147	76
-23	-23	45
-55	-164	18
-86	-200	9
-101	-115	21
-93	31	24
-59	136	5
-7	117	-7
52	-25	11
101	-215	0
122	-322	-43
115	-264	-27
85	-44	-51
49	243	-100
22	453	-118
6	492	-68
-1	345	-9
-14	98	-7
-36	-142	-10
-70	-291	-81
-104	-337	-107
-124	-314	-78
-123	-273	-79
-102	-236	-92
-66	-185	-49
-29	-98	32
4	27	41
29	158	6
49	241	-1
65	250	4
81	193	51
89	114	116
89	55	118
74	33	71
42	23	82
2	-4	134
-46	-57	53
-88	-120	-106
-114	-147	-200
-116	-113	-159
-92	-30	-144
-50	59	-248
-3	103	-273
33	86	-273
56	32	-199
63	-8	-28
61	1	68
55	51	45
49	106	7
38	116	-43
18	62	-153
-12	-31	-166
-48	-116	-130
-80	-150	-70
-99	-127	-14
-98	-77	36
-83	-39	152
-57	-37	142
-30	-57	138
-2	-64	85
27	-33	41
54	39	33
79	119	-10
93	165	7
92	155	-15
75	95	-14
41	23	-21
3	-35	-39
-34	-62	-72
-62	-68	-87
-81	-76	-50
-90	-87	14
-87	-98	54
-76	-90	57
-51	-51	35
-18	15	-27
22	96	-20
60	179	36
89	255	32
99	317	30
89	339	53
64	284	3
31	112	-60
4	-182	-103
-8	-540	-141
-2	-841	-162
17	-963	-97
36	-833	19
44	-497	79
29	-96	84
-5	203	47
-48	291	7
-78	188	-50
-81	9	-104
-54	-92	-126
-9	-27	-124
32	169	-64
49	379	-13
36	474	60
2	406	172
-34	223	171
-59	40	110
-63	-49	13
-58	-31	-142
-50	37	-265
-51	71	-320
-56	30	-270
-56	-56	-109
-42	-115	40
-9	-85	26
32	33	-28
70	177	-59
92	267	-93
94	258	44
81	171	179
62	68	161
42	11	40
21	10	-74
-4	35	-20
-38	39	87
-72	-5	85
-97	-81	-7
-104	-137	-45
-88	-136	-44
-56	-78	-156
-17	5	-315
16	62	-308
40	68	-121
57	35	-20
66	-1	-5
74	-7	58
72	16	47
60	47	18
33	48	-21
-3	8	8
-42	-61	61
-72	-124	43
-88	-150	43
-88	-131	-2
-75	-87	-13
-55	-45	0
-34	-21	16
-9	-12	26
18	0	53
44	29	56
66	72	45
78	117	91
72	142	91
53	147	22
27	136	-63
2	120	-89
-16	93	-112
-23	43	-76
-24	-47	-34
-24	-176	-91
-23	-303	-78
-23	-368	-80
-18	-316	-90
-3	-143	-133
26	96	-115
68	305	-36
113	394	-43
145	313	-14
148	94	18
106	-168	68
23	-361	36
-82	-421	19
-180	-344	7
-245	-192	-35
-258	-54	-48
-225	14	-137
-166	9	-135
-105	-24	-56
-59	-31	-21
-24	20	31
13	110	57
65	189	14
132	202	17
196	136	-21
232	35	-38
216	-35	-15
156	-21	-4
65	78	91
-24	201	144
-89	257	200
-117	182	183
-116	-16	34
-101	-256	-83
-83	-417	-168
-68	-421	-265
-55	-263	-371
-40	-31	-398
-19	159	-278
11	225	-162
46	157	-62
83	30	55
110	-57	160
121	-42	238
107	63	241
70	181	259
19	228	209
-33	158	72
-67	7	-120
-82	-151	-239
-76	-233	-172
-63	-207	-164
-55	-107	-122
-51	3	5
-47	65	78
-31	66	68
2	32	-51
43	7	-143
80	19	-164
96	58	-185
86	97	-213
55	98	-118
18	56	34
-15	-12	93
-38	-72	119
-54	-103	123
-70	-99	82
-85	-75	59
-95	-53	57
-89	-39	89
-67	-31	66
-32	-17	-11
6	14	-46
35	56	-42
52	109	-8
56	161	8
56	205	-14
54	233	4
55	227	39
53	171	-1
42	56	14
22	-103	-15
-7	-259	-107
-36	-351	-128
-59	-338	-173
-69	-227	-145
-63	-69	-92
-40	49	-97
-4	79	-104
36	18	-67
71	-68	10
91	-103	-1
92	-44	-44
75	79	-59
48	178	-40
20	171	40
-8	32	97
-38	-173	110
-77	-326	109
-117	-334	89
-150	-179	115
-156	45	82
-123	209	19
-54	211	-28
31	60	-91
103	-140	-118
136	-249	-184
127	-186	-215
86	20	-193
44	251	-104
18	366	20
13	309	98
16	120	99
11	-81	95
-16	-177	104
-57	-134	45
-95	-5	-15
-115	105	-76
-106	119	-244
-79	37	-372
-42	-75	-361
-11	-131	-300
12	-94	-107
30	14	76
48	116	130
69	153	135
85	113	86
87	35	84
71	-20	86
38	-25	59
1	9	64
-35	33	81
-61	12	108
-80	-53	76
-89	-126	40
-88	-156	51
-77	-122	22
-52	-41	-45
-20	39	-95
18	81	-141
52	74	-86
76	45	34
85	33	32
81	51	-18
72	93	-65
62	114	-162
50	88	-246
29	11	-156
-3	-89	-28
-47	-164	47
-100	-186	82
-137	-148	24
-150	-72	-34
-129	2	-41
-81	57	-70
-19	86	-115
35	103	-86
66	116	-43
71	130	22
59	135	65
46	117	50
40	69	26
43	-11	49
48	-108	61
42	-210	32
20	-291	57
-15	-334	121
-44	-326	135
-59	-265	42
-50	-169	-55
-23	-55	-74
6	40	-124
25	98	-202
32	111	-242
35	93	-222
39	67	-170
52	55	-113
67	64	-76
65	82	-80
40	93	-69
-10	79	-72
-71	38	-4
-120	-16	80
-140	-64	120
-126	-90	127
-91	-84	104
-48	-47	87
-16	7	47
5	61	-4
23	105	-44
45	127	-4
76	129	33
107	114	22
128	93	0
120	74	-22
84	55	-19
23	38	-58
-40	14	-49
-92	-17	-40
-119	-56	-70
-118	-90	-48
-96	-106	-82
-62	-101	-77
-32	-72	-39
-11	-33	-65
0	6	-23
8	35	32
18	53	-26
35	61	-134
57	64	-134
75	61	-68
79	47	-30
62	24	30
26	-11	38
-17	-50	65
-56	-84	54
-79	-106	-22
-86	-110	31
-80	-102	97
-70	-84	86
-60	-59	41
-46	-24	-74
-24	30	-195
11	102	-219
52	184	-160
94	253	-100
116	278	-53
112	236	36
84	126	100
39	-27	72
-5	-181	24
-41	-286	13
-63	-320	0
-72	-283	-51
-72	-214	-69
-66	-148	-90
-54	-112	-87
-31	-107	2
-2	-100	13
31	-62	-37
62	19	-18
86	126	16
99	214	57
105	241	49
105	190	24
100	85	43
87	-26	19
63	-94	-26
20	-101	-21
-39	-60	1
-110	-13	-7
-177	8	-65
-222	-3	-107
-228	-30	-99
-190	-39	-106
-117	-15	-104
-28	36	-116
52	91	-95
104	123	-38
116	126	-38
99	106	-19
65	81	24
34	53	44
14	17	38
4	-38	24
-4	-117	14
-18	-194	12
-38	-231	41
-59	-196	43
-75	-100	-19
-76	31	-25
-59	147	22
-30	208	36
7	209	22
46	166	37
82	106	120
110	48	129
125	-12	-12
119	-78	-167
91	-144	-249
39	-190	-211
-20	-191	-131
-72	-140	-153
-109	-62	-177
-119	-2	-143
-107	9	-59
-80	-30	-30
-46	-82	-6
-14	-95	30
18	-38	-16
46	67	-1
71	170	-22
87	215	-31
91	180	-7
79	89	-47
51	-2	-8
14	-47	21
-28	-34	40
-65	5	57
-93	25	45
-107	-2	74
-106	-64	32
-89	-126	-11
-56	-147	12
-18	-108	24
21	-27	15
53	62	-5
75	126	-71
83	149	-193
82	135	-170
72	103	-80
57	63	-54
37	25	-20
12	-4	32
-17	-21	121
-44	-20	120
-64	-9	91
-69	-11	117
-57	-42	53
-29	-113	-92
7	-198	-184
39	-251	-205
54	-222	-173
52	-98	-104
31	81	-55
2	239	32
-22	301	76
-30	250	81
-21	112	95
-4	-30	57
7	-108	31
1	-103	-37
-23	-55	-54
-53	-31	-70
-74	-66	-116
-74	-151	-135
-53	-218	-86
-23	-207	-50
4	-106	-33
19	35	22
27	135	34
34	141	68
48	59	26
68	-42	6
83	-84	-36
80	-32	-86
49	79	-74
4	164	-124
-49	155	-116
-90	44	0
-109	-103	143
-107	-200	134
-91	-189	66
-65	-78	49
-35	59	63
-3	149	67
34	147	-36
69	86	-108
98	24	-130
107	11	-249
96	52	-316
67	104	-182
30	115	-68
-5	59	9
-35	-37	57
-58	-122	67
-77	-153	95
-87	-121	67
-91	-59	52
-83	-12	45
-60	0	27
-28	-11	-22
7	-13	-47
37	18	-1
59	80	-34
71	131	-109
75	140	-155
71	88	-204
59	-2	-209
39	-87	-175
8	-126	-95
-30	-111	10
-65	-57	59
-91	0	54
-95	34	24
-79	41	55
-45	28	87
-4	1	63
33	-31	51
57	-69	25
66	-98	34
63	-98	29
51	-45	5
39	58	-21
32	175	-72
28	249	-104
21	223	-80
7	92	16
-18	-102	48
-46	-278	45
-68	-359	32
-77	-320	8
-64	-185	-12
-38	-24	-64
-10	101	-38
10	155	8
16	147	45
16	103	40
19	53	-72
33	10	-138
54	-28	-92
69	-55	-118
67	-65	-134
35	-51	-62
-19	-15	-11
-78	20	60
-118	31	86
-126	0	97
-100	-55	91
-52	-96	77
-1	-86	61
38	-13	28
62	90	8
72	174	-21
74	197	-76
70	152	-132
65	70	-165
54	-2	-178
39	-28	-199
17	-15	-150
-6	11	-20
-32	8	65
-58	-32	111
-84	-93	37
-108	-140	-46
-119	-142	-124
-114	-101	-164
-87	-37	-86
-40	13	-48
14	38	28
60	40	59
90	39	41
99	53	24
90	80	-14
71	102	-49
50	99	-81
27	61	-52
1	5	-3
-32	-50	62
-67	-80	65
-97	-81	39
-108	-63	-23
-97	-47	-105
-67	-36	-103
-28	-27	-47
11	-11	33
46	25	40
77	68	19
104	110	24
124	131	57
127	127	38
101	105	-119
41	70	-382
-34	23	-345
-105	-45	-35
-139	-140	-4
-126	-253	24
-78	-345	63
-21	-372	38
11	-308	61
8	-165	-8
-20	4	7
-44	132	43
-34	179	48
11	143	6
77	80	-24
129	43	-41
147	68	-29
123	138	-12
77	204	-6
25	211	87
-19	145	95
-54	31	79
-89	-84	65
-124	-159	9
-153	-187	-30
-157	-180	-106
-123	-160	-164
-59	-137	-179
16	-95	-186
75	-26	-118
101	67	-34
97	152	37
77	194	91
55	174	133
42	106	149
33	31	82
18	-13	13
-6	-15	-53
-38	3	-83
-65	6	-93
-83	-22	-89
-85	-71	-57
-76	-101	-131
-59	-84	-160
-34	-20	-133
0	49	-138
44	81	-26
89	50	76
117	-21	118
121	-81	140
90	-85	91
41	-23	4
-8	59	-68
-42	104	-132
-55	74	-192
-55	-22	-181
-57	-126	-69
-65	-177	6
-76	-143	21
-74	-51	72
-51	47	87
-8	103	61
42	96	70
80	61	34
91	43	-40
78	72	-60
46	140	14
16	204	86
-8	215	29
-27	153	-125
-38	23	-206
-50	-135	-133
-61	-272	-111
-66	-351	-86
-63	-354	-35
-51	-288	-59
-35	-175	-27
-12	-43	20
13	72	57
39	148	32
64	165	-53
84	131	-82
89	79	-94
75	34	-78
46	19	-11
12	30	-5
-19	43	-37
-41	33	-27
-52	-9	-8
-58	-68	8
-63	-111	36
-68	-109	67
-67	-61	53
-54	12	15
-25	72	-63
16	97	-55
56	85	38
86	55	49
99	39	95
91	51	129
69	94	98
34	144	21
-3	170	-91
-40	152	-140
-69	74	-144
-84	-51	-137
-82	-200	-77
-64	-322	30
-40	-378	53
-18	-332	-19
1	-192	-103
12	1	-110
28	183	-114
49	299	-127
81	319	-96
107	253	-56
116	144	8
96	35	81
41	-60	136
-34	-142	56
-111	-223	-15
-161	-291	34
-168	-322	37
-129	-286	8
-58	-174	21
15	-20	108
67	117	69
81	183	-91
57	162	-163
14	88	-194
-24	24	-263
-36	17	-246
-17	65	-127
18	127	-55
46	147	40
50	96	152
20	-2	183
-30	-90	170
-79	-121	149
-103	-87	144
-98	-18	70
-69	33	-55
-34	37	-121
-4	3	-120
15	-33	-121
29	-28	-194
46	24	-239
69	97	-199
92	141	-150
103	129	-76
91	66	-35
58	-12	-46
13	-63	-32
-30	-76	-8
-59	-59	20
-71	-47	79
-75	-59	122
-70	-92	103
-66	-120	32
-56	-114	-48
-39	-65	-79
-8	10	-18
28	79	62
65	113	74
87	110	77
94	86	69
84	67	-50
59	66	-123
30	80	-34
-3	89	2
-38	80	-10
-76	54	-14
-110	31	-30
-133	26	-47
-136	35	-75
-113	35	-77
-65	-3	-122
0	-99	-102
68	-230	-5
127	-345	11
165	-381	34
171	-308	27
150	-145	-32
107	37	-43
56	161	-51
6	178	-56
-36	100	-13
-62	-13	-6
-77	-90	-19
-83	-93	-30
-86	-40	-17
-84	11	-31
-79	13	-65
-67	-46	-48
-46	-116	-2
-18	-136	78
16	-65	108
47	76	103
75	219	77
89	290	34
85	251	-16
57	123	-98
14	-15	-153
-33	-97	-170
-77	-93	-129
-101	-32	-52
-104	26	-2
-86	34	24
-57	-8	32
-32	-61	32
-10	-76	-14
10	-32	-60
31	51	-32
59	129	-4
90	155	-26
114	122	-47
118	58	-58
99	5	-54
54	-15	-22
-2	-7	-18
-60	2	-10
-109	-14	64
-138	-56	134
-144	-104	104
-126	-124	45
-91	-102	4
-41	-48	-53
9	8	-132
50	41	-236
75	44	-211
81	33	-61
74	26	60
56	36	127
36	55	134
15	68	133
-10	59	87
-35	32	-76
-56	-2	-255
-65	-30	-316
-55	-48	-241
-31	-65	-42
-4	-94	150
13	-130	94
16	-160	-8
6	-157	-63
1	-106	-104
11	-20	-160
40	68	-371
77	131	-365
101	147	-52
97	126	102
60	90	111
6	58	108
-48	35	-18
-81	7	-45
-89	-38	17
-71	-101	32
-44	-159	74
-16	-186	91
12	-167	72
30	-109	114
41	-40	117
38	15	84
25	41	54
5	57	25
-10	82	8
-8	124	-30
9	174	-34
29	195	-71
34	160	-166
10	56	-245
-39	-87	-173
-97	-222	-80
-133	-301	-53
-129	-300	-28
-85	-228	21
-22	-115	77
33	3	82
62	103	103
63	171	118
52	213	141
44	224	115
50	197	5
64	132	-151
75	37	-224
69	-65	-186
48	-143	-131
15	-173	-53
-24	-145	-4
-61	-80	29
-97	-5	45
-122	45	29
-132	60	22
-117	47	16
-72	25	-24
-7	16	-51
59	24	-32
106	41	7
122	57	2
106	61	5
69	51	-2
34	35	-60
7	18	-57
-11	0	-49
-30	-23	-53
-54	-53	-18
-82	-85	-31
-100	-107	-35
-99	-105	-23
-72	-72	2
-32	-19	8
12	41	-68
44	88	-85
61	106	-93
66	103	-145
67	75	-116
67	38	-8
62	-3	98
49	-39	171
23	-66	152
-14	-83	120
-52	-83	147
-80	-72	87
-89	-56	-20
-81	-43	-192
-61	-34	-397
-36	-23	-515
-8	-2	-426
18	36	-185
42	92	-64
61	148	62
68	183	180
58	182	164
37	138	171
10	58	133
-15	-36	29
-26	-127	-51
-29	-196	-41
-26	-235	-37
-30	-227	-45
-42	-162	57
-58	-44	94
-68	106	19
-63	241	-79
-43	305	-49
-10	250	32
26	77	53
54	-160	26
74	-366	-57
82	-449	-64
86	-376	-76
87	-183	-114
86	23	-165
78	141	-138
58	123	-67
26	2	-62
-22	-126	-16
-77	-175	34
-129	-111	58
-162	16	57
-165	119	68
-126	131	52
-58	57	5
24	-33	3
93	-52	-1
126	36	24
120	189	6
80	305	9
27	305	18
-16	171	-52
-43	-21	-46
-52	-171	-25
-58	-196	-35
-68	-109	-7
-79	21	5
-80	104	7
-61	92	64
-24	16	130
26	-49	118
69	-43	-1
97	38	-125
100	142	-171
86	197	-171
65	161	-143
44	56	-119
24	-57	-86
0	-119	-35
-30	-115	-7
-64	-72	-44
-96	-44	-90
-112	-61	-111
-114	-109	-52
-96	-149	27
-63	-134	3
-22	-62	-28
27	35	3
74	113	69
113	135	62
134	106	22
132	53	17
102	17	-5
54	6	-81
1	8	-95
-42	4	-131
-69	-26	-165
-85	-71	-67
-93	-105	31
-99	-106	75
-104	-69	69
-100	-18	74
-76	25	52
-29	43	4
30	45	-79
85	51	-103
121	74	-83
130	99	-114
110	98	-66
76	43	-90
34	-60	-157
-2	-173	-106
-32	-237	-30
-55	-208	42
-67	-101	41
-68	24	8
-56	90	-34
-35	51	28
-16	-66	123
-5	-179	85
-3	-190	95
-3	-64	100
5	147	-1
30	335	-77
63	387	-54
88	268	-39
84	41	-35
40	-167	-38
-28	-249	-51
-100	-179	-13
-139	-31	21
-130	70	-26
-83	43	-88
-17	-112	-125
39	-289	-104
71	-370	-9
86	-278	15
94	-51	-19
105	195	-23
110	337	7
92	316	29
40	174	44
-39	18	41
-116	-59	37
-158	-28	51
-148	56	30
-95	108	8
-35	68	2
-4	-47	-6
-19	-171	-66
-63	-219	-82
-99	-153	-45
-95	-3	-25
-39	153	-10
43	241	-21
117	235	-31
151	155	-100
138	54	-119
100	-19	-107
58	-55	-98
33	-65	-33
18	-71	15
2	-84	-8
-30	-95	-63
-71	-96	-42
-108	-80	-47
-119	-54	-54
-100	-27	-47
-57	-1	-80
-14	30	-111
23	70	-98
44	110	-11
61	130	81
78	104	137
96	33	135
103	-53	120
87	-114	62
45	-113	-115
-12	-54	-312
-66	22	-363
-103	61	-242
-115	31	-48
-108	-53	78
-91	-137	147
-69	-165	179
-42	-116	112
-2	-17	47
52	67	-20
109	93	-56
147	51	-71
150	-14	-19
114	-44	-4
54	-13	-42
-3	63	-31
-41	126	-3
-52	120	51
-46	34	38
-40	-93	44
-48	-191	8
-67	-210	-39
-85	-143	-77
-86	-35	-88
-58	52	-80
-10	88	-100
44	71	-36
83	44	20
97	43	24
82	80	12
46	127	21
8	147	-2
-26	112	-7
-45	26	19
-52	-72	16
-48	-145	-30
-41	-163	-45
-36	-133	-24
-35	-79	-36
-38	-27	32
-38	8	39
-31	34	55
-13	63	70
16	99	44
48	132	-14
78	141	-151
91	112	-186
86	43	-189
65	-36	-153
32	-101	-89
-7	-125	-63
-44	-110	-105
-76	-77	-97
-95	-49	-14
-101	-48	24
-92	-68	52
-70	-90	39
-41	-89	8
-8	-53	-3
21	6	-23
44	67	-50
58	104	-78
68	109	-83
69	86	-30
65	57	68
50	40	104
28	45	89
-3	62	101
-37	75	91
-67	67	91
-86	32	51
-88	-17	11
-75	-60	69
-48	-74	58
-18	-47	-34
10	8	-112
34	67	-177
56	96	-147
78	71	-110
95	-5	-124
101	-112	-112
91	-207	-190
60	-260	-234
16	-256	-177
-33	-208	-129
-70	-143	-65
-91	-92	-56
-91	-62	-170
-78	-49	-147
-62	-35	30
-48	-2	82
-36	49	131
-16	112	137
14	171	128
49	207	168
82	215	126
99	194	63
92	140	-11
60	64	-39
16	-23	-16
-30	-103	-3
-64	-155	-31
-84	-162	-62
-91	-127	-121
-85	-69	-129
-70	-16	-55
-53	17	1
-33	27	62
-14	30	107
5	55	141
22	106	155
39	171	140
60	219	81
82	213	-35
100	140	-102
107	17	-192
94	-111	-253
62	-196	-230
21	-210	-178
-18	-153	-91
-40	-65	-27
-49	6	14
-50	29	32
-57	7	39
-76	-39	34
-97	-66	20
-105	-49	7
-85	13	12
-34	94	32
30	153	61
82	160	105
99	106	101
80	17	57
37	-74	12
-3	-135	-57
-25	-152	-121
-28	-133	-210
-27	-98	-287
-36	-69	-267
-58	-54	-229
-82	-50	-121
-83	-44	21
-49	-24	75
11	11	89
75	53	43
109	90	-31
105	106	8
69	101	52
29	76	28
1	43	58
-5	12	80
-4	-12	49
-14	-31	-35
-40	-43	-56
-77	-49	-101
-99	-51	-197
-91	-41	-179
-47	-23	-90
11	-2	16
58	15	100
77	24	111
61	26	78
31	29	51
1	42	-11
-13	71	-34
-10	110	5
-5	147	34
-7	158	84
-20	125	84
-38	38	16
-53	-86	2
-58	-218	-71
-52	-313	-249
-40	-337	-394
-23	-272	-318
-2	-134	-150
24	28	-37
50	164	59
74	227	93
86	201	39
83	106	-39
64	-11	16
36	-96	51
6	-119	58
-22	-80	44
-43	-13	-21
-63	33	-22
-79	21	3
-85	-53	5
-76	-157	38
-47	-233	35
-6	-226	-1
37	-115	14
71	66	0
89	247	-19
93	345	-19
89	317	-20
83	169	-53
70	-28	-86
48	-186	-61
8	-238	3
-47	-180	16
-102	-62	30
-138	37	24
-139	64	-20
-109	20	-100
-60	-54	-202
-18	-90	-143
8	-57	-57
12	32	-58
8	128	2
11	174	54
30	156	41
59	89	56
90	22	37
104	-4	-1
98	9	-47
77	37	-48
46	40	-50
14	2	-60
-21	-66	-58
-62	-125	-94
-114	-140	-89
-156	-105	-27
-176	-38	30
-155	23	21
-93	56	33
-7	58	44
77	50	46
125	51	94
130	65	106
97	81	84
47	76	41
3	43	-25
-23	-8	-60
-36	-58	-56
-47	-80	-67
-64	-64	-84
-88	-21	-61
-101	28	-56
-92	58	-119
-54	55	-100
2	26	-54
58	-5	-118
94	-20	-149
97	5	-127
75	58	-120
41	114	-128
17	123	-112
13	51	14
20	-99	104
27	-290	89
16	-441	-37
-16	-479	-52
-57	-373	24
-87	-158	-108
-86	77	-92
-48	233	18
11	252	74
66	161	178
97	35	169
91	-31	111
57	3	44
20	113	-2
-1	215	-9
-1	225	-61
11	114	-126
16	-78	-159
-3	-254	-206
-45	-330	-178
-98	-275	-62
-135	-133	31
-139	13	89
-105	99	93
-43	105	49
21	64	85
74	35	72
104	53	-39
111	110	-68
107	162	-88
90	168	-41
66	109	54
29	22	36
-15	-50	-82
-59	-71	-139
-92	-48	-78
-104	-17	-75
-96	-12	-50
-76	-48	-9
-53	-98	-9
-36	-117	-14
-21	-74	-25
-2	30	15
26	147	8
60	224	13
93	226	-1
106	160	-8
97	64	40
66	-16	-9
24	-56	-77
-14	-68	-53
-44	-80	-41
-64	-111	-31
-80	-160	27
-93	-199	74
-96	-196	118
-87	-137	93
-54	-40	4
-5	58	-126
50	121	-241
97	131	-217
117	102	-94
109	60	-92
76	31	-66
33	25	-18
-8	39	-129
-36	51	-144
-54	54	-121
-64	37	-30
-72	3	61
-81	-44	86
-82	-100	98
-70	-150	91
-44	-183	112
-6	-179	107
34	-135	151
68	-57	85
89	31	-30
94	98	-62
85	122	-113
69	106	-132
49	65	-147
24	27	-122
-5	5	-7
-37	-1	57
-66	-7	40
-87	-25	1
-91	-51	-94
-81	-67	-83
-61	-52	16
-40	0	9
-20	76	3
2	138	-31
32	160	-115
75	123	-128
122	51	-55
156	-21	-12
158	-59	5
107	-45	-22
19	-2	-112
-83	37	-116
-160	37	-109
-187	-9	-50
-159	-74	-13
-101	-117	-48
-49	-108	-13
-27	-49	49
-36	15	96
-51	35	105
-43	-16	72
5	-121	25
79	-218	36
147	-242	18
172	-160	-34
143	-2	-65
72	149	-94
-8	215	-66
-63	163	-31
-80	21	-19
-66	-124	17
-45	-196	68
-35	-164	111
-39	-55	167
-48	57	129
-44	117	47
-21	106	6
16	58	-30
55	25	-114
80	41	-270
88	98	-353
79	150	-269
61	156	-176
38	101	-103
9	12	-17
-23	-68	45
-59	-106	143
-89	-97	143
-106	-64	65
-103	-41	5
-81	-38	-34
-51	-49	-63
-19	-47	-88
11	-14	-76
35	45	-77
56	104	-63
75	136	-41
86	127	-39
85	85	-32
67	33	-5
36	-3	-19
-1	-16	7
-36	-15	65
-61	-11	74
-75	-16	68
-77	-31	9
-67	-57	11
-52	-85	30
-28	-110	24
0	-125	34
30	-114	36
53	-76	133
67	-2	184
69	85	112
61	158	-33
49	189	-250
32	162	-355
13	90	-331
-13	3	-247
-48	-66	-122
-86	-107	-8
-115	-121	44
-127	-130	-12
-116	-149	-83
