File Name: not saved
Channel 2: 'Channel 2', 30860 values, raw ADC, no filters.
Channel 3: 'Channel 3', 30860 values, raw ADC, no filters.
Channel 4: 'Channel 4', 30860 values, raw ADC, no filters.

-51	-13	-59
-3	23	-75
46	0	-59
87	-34	-47
110	-28	-69
113	38	-53
97	132	-15
66	200	0
27	198	12
-14	123	45
-52	8	51
-88	-95	43
-110	-153	48
-121	-161	22
-114	-140	19
-91	-113	1
-52	-88	-51
-10	-54	-109
27	-1	-130
51	67	-93
62	130	-72
62	158	-30
54	134	-14
48	72	-55
43	2	-63
38	-46	-30
33	-59	10
20	-49	38
2	-34	38
-19	-23	60
-39	-11	123
-53	16	59
-54	64	-18
-38	117	-2
-7	139	-44
35	108	-58
75	20	-64
101	-84	-113
107	-152	-119
89	-144	-95
53	-68	-63
10	28	-52
-30	88	-74
-64	68	-112
-91	-22	-74
-106	-131	-27
-113	-199	7
-111	-188	62
-98	-112	60
-68	-11	34
-30	63	10
12	98	-37
51	106	-113
79	130	-95
93	188	-36
92	267	-74
81	320	-68
60	291	-68
34	160	-30
5	-54	48
-28	-282	87
-57	-449	95
-85	-503	21
-102	-435	-26
-107	-288	-54
-98	-123	-120
-72	6	-156
-38	72	-71
3	85	37
42	71	30
76	60	4
98	66	-7
105	90	8
102	113	26
86	119	44
61	99	78
29	54	43
-10	4	14
-46	-38	16
-79	-56	-8
-98	-50	-53
-102	-23	-70
-88	10	-27
-55	36	-11
-14	49	-13
31	48	-46
69	43	-80
94	40	-117
101	51	-91
87	76	3
59	99	18
22	108	56
-16	84	65
-48	15	-5
-77	-83	-44
-99	-182	-32
-118	-249	-32
-127	-253	-69
-124	-190	-130
-98	-85	-113
-51	26	0
11	106	4
75	138	-7
124	134	-10
154	118	30
155	115	16
136	125	-60
106	130	-61
68	101	-47
28	25	-20
-16	-84	-66
-59	-187	-63
-100	-241	-68
-124	-225	-96
-126	-150	-55
-107	-56	-46
-69	16	-3
-30	60	39
5	86	62
28	124	46
45	183	14
59	241	9
74	251	-32
85	171	-46
84	8	-30
65	-196	-26
27	-353	23
-20	-394	51
-64	-311	4
-97	-144	3
-104	14	40
-95	98	45
-72	90	-4
-48	38	-111
-26	5	-178
-8	34	-223
10	114	-141
27	190	4
44	195	45
56	109	32
59	-31	-33
48	-157	-23
26	-206	16
-4	-171	49
-36	-90	68
-64	-28	34
-84	-26	14
-89	-75	-27
-83	-125	-104
-61	-125	-157
-33	-55	-136
3	55	-124
36	159	-64
65	209	0
86	201	8
95	158	17
93	113	-23
77	81	-45
54	50	-20
24	0	11
-10	-77	22
-41	-158	-6
-67	-208	3
-83	-191	83
-86	-107	116
-75	12	51
-50	117	-43
-17	170	-84
22	166	-120
61	120	-96
94	64	-15
114	16	-4
115	-16	0
97	-36	4
61	-49	24
15	-54	26
-32	-51	18
-70	-48	24
-96	-58	37
-105	-90	17
-102	-133	-64
-91	-166	-57
-70	-153	-46
-43	-86	-98
-10	20	-110
29	122	-141
65	175	-155
94	166	-110
105	109	-40
101	49	43
78	21	32
46	32	4
13	54	-2
-22	51	-11
-56	8	29
-88	-60	32
-112	-114	18
-123	-119	0
-115	-69	-7
-87	0	0
-46	43	-60
2	34	-140
40	-17	-139
67	-68	-104
79	-77	-97
77	-28	-33
67	49	36
49	106	1
25	106	-18
-5	51	33
-38	-17	68
-65	-47	20
-82	-10	-39
-81	71	-6
-66	132	47
-42	117	42
-15	11	38
9	-139	28
28	-249	-43
44	-244	-82
60	-115	-108
78	71	-111
92	211	-44
98	221	-46
89	89	-17
63	-117	65
24	-276	125
-18	-306	110
-57	-196	57
-83	-20	11
-95	117	-72
-89	138	-165
-72	46	-222
-50	-79	-147
-23	-142	-58
7	-94	-28
36	47	-17
61	197	5
75	279	42
72	256	18
52	164	15
22	68	22
-16	19	1
-48	19	-4
-70	19	-11
-78	-28	-50
-69	-134	-71
-54	-256	-25
-34	-321	-42
-15	-279	-24
0	-134	8
12	47	-29
19	183	-39
26	223	-72
32	171	-49
37	89	-33
39	30	-40
34	24	-49
20	45	-54
-5	49	-32
-37	-1	-18
-68	-93	8
-92	-182	39
-102	-214	62
-95	-168	19
-75	-69	-15
-43	29	-6
-6	80	24
30	75	20
64	41	-48
90	28	-97
104	60	-94
103	124	-55
86	178	-47
59	174	-38
25	100	-16
-7	-22	-18
-32	-142	-19
-53	-215	-46
-67	-223	-68
-79	-168	-57
-82	-88	-22
-77	-12	5
-56	42	-38
-18	71	-24
28	86	12
74	94	-21
107	103	-12
120	109	-19
110	106	-26
81	88	-14
43	43	-21
2	-28	-18
-35	-121	-19
-69	-209	8
-94	-261	12
-107	-249	-4
-110	-163	16
-94	-32	0
-63	101	-30
-22	187	-53
22	205	-60
64	166	-25
97	108	-9
115	68	11
116	60	35
97	68	24
61	55	-10
16	2	-59
-35	-90	-15
-78	-181	14
-109	-226	-23
-121	-205	-10
-115	-129	-36
-93	-44	-38
-61	5	-6
-29	-4	-26
6	-53	-38
36	-98	-38
66	-94	-25
89	-28	6
105	72	-23
107	164	-89
96	198	-122
68	162	-132
29	80	-77
-14	-8	-39
-56	-63	-10
-89	-77	-62
-111	-58	-107
-120	-36	-31
-113	-27	-11
-95	-33	-19
-61	-36	8
-20	-17	85
24	28	125
63	94	137
89	155	97
100	187	68
94	178	100
78	128	2
55	50	-153
30	-37	-254
6	-113	-205
-23	-163	-109
-52	-179	-95
-83	-161	-47
-102	-120	-24
-103	-72	-93
-84	-35	-92
-47	-13	-44
-6	-4	-26
27	5	54
46	27	86
53	63	91
55	105	91
53	130	7
54	125	-12
52	82	-52
42	14	-96
17	-56	-10
-20	-106	-47
-59	-121	-112
-91	-105	-43
-105	-62	13
-99	-7	38
-78	55	14
-48	125	-16
-19	195	-33
11	252	-36
40	268	-15
71	221	10
96	99	12
107	-76	-6
103	-257	-35
72	-389	-58
28	-421	-13
-24	-349	10
-67	-204	9
-94	-49	25
-97	58	21
-81	96	3
-55	78	4
-25	44	19
2	29	-10
27	40	-66
49	53	-114
66	43	-121
79	4	-106
78	-43	-95
62	-57	-102
36	-17	-62
2	65	-10
-28	137	20
-49	138	49
-59	47	52
-62	-103	65
-60	-234	32
-58	-270	-28
-52	-185	-51
-41	-21	-72
-22	137	-98
6	213	-86
33	183	-78
56	88	-32
66	-2	44
63	-23	53
51	32	96
34	120	116
16	181	119
-2	170	122
-21	92	68
-40	-20	-14
-57	-118	-187
-74	-179	-338
-79	-203	-317
-72	-200	-247
-54	-179	-230
-25	-130	-106
11	-49	48
46	54	93
78	150	92
97	195	99
101	174	84
87	96	-30
54	4	-80
13	-59	11
-34	-71	24
-75	-49	-11
-101	-30	-53
-112	-39	-92
-108	-80	-53
-91	-118	-77
-64	-122	-48
-34	-72	53
0	12	64
37	90	53
74	131	21
103	127	-7
121	99	9
119	80	33
97	83	36
58	99	45
9	93	70
-37	40	68
-76	-58	39
-99	-164	-9
-105	-232	-62
-100	-223	-74
-81	-139	-64
-55	-23	-111
-22	81	-151
17	129	-119
54	122	-100
85	81	-107
100	45	-82
97	43	-34
78	72	17
44	113	44
5	128	16
-32	97	9
-62	8	25
-85	-108	19
-95	-218	-11
-97	-273	-63
-89	-244	-104
-71	-137	-90
-47	4	-29
-16	118	7
20	148	44
56	74	72
87	-68	93
104	-202	79
105	-251	22
88	-180	19
57	-23	15
20	135	-50
-19	207	-136
-48	150	-96
-70	-3	-13
-81	-163	-17
-83	-237	-34
-72	-186	-56
-55	-41	-32
-26	116	-71
9	206	-129
44	205	-135
71	139	-168
86	77	-90
84	57	21
65	84	34
38	118	-8
9	110	-46
-20	53	-64
-47	-30	-85
-75	-87	-40
-99	-80	-17
-116	-16	-26
-123	59	27
-112	88	44
-79	46	9
-26	-46	22
40	-133	44
106	-163	67
163	-113	91
196	-13	84
202	80	43
175	123	9
123	106	-36
48	55	-149
-36	4	-182
-117	-23	-102
-178	-37	-40
-210	-67	10
-204	-131	29
-166	-219	-7
-106	-286	-85
-43	-286	-141
10	-192	-85
44	-30	43
64	137	100
71	253	68
77	277	-2
79	222	-79
74	126	-98
58	39	-78
28	-17	-44
-11	-49	-8
-53	-69	-4
-83	-90	4
-91	-100	39
-80	-87	43
-53	-42	56
-22	15	45
8	57	-9
32	67	-34
52	56	-61
67	56	-21
80	89	0
88	150	-32
85	192	-13
69	158	10
42	25	-3
7	-173	-104
-29	-341	-173
-62	-393	-99
-86	-301	-4
-96	-106	80
-91	83	113
-74	170	78
-47	126	38
-15	6	-56
16	-94	-182
44	-94	-172
66	11	-118
78	150	-89
81	235	-10
71	206	7
52	85	-18
22	-55	-31
-14	-134	-25
-51	-122	-15
-81	-51	-3
-97	14	-18
-98	27	0
-83	-4	25
-58	-29	-32
-30	8	-19
-2	110	-53
23	224	-64
44	269	-30
61	190	-62
74	1	3
76	-215	43
67	-354	-2
46	-346	-40
16	-211	-68
-20	-26	-71
-52	106	-25
-77	137	4
-89	76	2
-89	-13	30
-75	-57	51
-48	-36	-36
-13	24	-182
25	62	-163
62	44	-33
87	-18	13
101	-65	-17
97	-44	-57
79	51	-56
47	168	-16
9	211	-9
-30	131	6
-66	-62	39
-94	-280	57
-108	-409	16
-106	-380	1
-84	-210	7
-47	7	-4
-2	165	16
44	203	12
80	137	48
105	47	61
114	6	38
109	45	35
91	125	-40
62	178	-95
22	149	-47
-23	43	23
-67	-80	24
-105	-158	-5
-124	-147	-54
-128	-71	-76
-116	16	-65
-93	60	-70
-65	45	-104
-32	-3	-113
5	-36	-4
49	-21	17
94	36	12
130	104	17
150	139	6
142	126	44
109	83	-32
57	41	-120
-3	36	-114
-58	68	-102
-100	119	-141
-122	150	-113
-128	125	-23
-115	37	33
-93	-105	19
-58	-263	-27
-20	-393	-35
18	-451	-18
48	-407	8
65	-269	54
66	-72	87
55	110	54
36	215	49
19	211	4
-2	109	-66
-20	-35	-109
-41	-147	-128
-63	-175	-174
-83	-119	-192
-91	-15	-108
-84	82	-10
-55	139	70
-15	157	41
30	150	22
74	138	38
106	117	74
124	72	84
129	-4	29
120	-89	-16
96	-142	-46
56	-128	-30
13	-45	-30
-32	59	4
-67	124	72
-88	98	71
-95	-9	57
-91	-135	24
-83	-207	-111
-71	-182	-161
-54	-76	-123
-29	51	-164
7	128	-137
42	131	-70
70	84	-58
81	35	-64
70	28	-40
44	57	-13
13	88	-49
-16	74	-32
-37	7	86
-51	-84	188
-62	-149	183
-72	-150	117
-77	-91	60
-70	-11	5
-50	42	-86
-18	53	-182
20	34	-192
54	21	-115
76	40	20
83	84	84
75	125	60
59	127	25
38	85	-42
15	16	-97
-10	-41	-174
-35	-57	-199
-58	-37	-151
-75	-10	-121
-79	-5	-21
-70	-29	62
-53	-64	56
-26	-70	85
2	-27	133
31	51	86
54	126	-22
72	145	-91
82	93	-120
81	-8	-68
68	-106	-54
44	-151	-68
12	-136	1
-24	-90	53
-55	-62	91
-79	-85	34
-89	-142	-87
-86	-191	-168
-74	-173	-165
-53	-68	-129
-31	92	-39
-4	236	21
26	296	46
54	240	96
81	89	71
94	-78	56
93	-195	8
69	-222	-34
32	-165	-42
-13	-76	-43
-54	-10	-48
-82	-2	-54
-91	-43	-92
-83	-105	-86
-63	-138	-13
-38	-122	5
-8	-54	58
18	36	70
45	115	44
65	161	9
79	168	-14
82	145	0
72	117	5
55	96	-16
32	84	-64
8	68	-66
-19	43	-25
-45	2	-2
-69	-44	-32
-89	-84	-30
-97	-99	-3
-94	-88	12
-77	-53	6
-47	-11	-17
-10	27	-33
29	54	-31
65	71	-13
94	81	-28
105	85	10
101	84	-10
77	74	-23
35	50	26
-13	15	-28
-63	-30	-80
-102	-72	-160
-127	-106	-151
-136	-120	-38
-129	-109	-13
-112	-72	-7
-79	-19	-41
-34	36	-102
21	74	-81
79	80	0
125	46	-42
155	-8	-89
155	-59	-50
127	-81	-88
82	-62	-128
30	-17	-66
-17	25	31
-52	32	34
-79	-1	27
-94	-63	42
-104	-112	28
-106	-113	41
-97	-51	18
-71	51	-92
-34	160	-140
12	233	-56
57	250	35
97	211	96
118	129	144
123	23	95
110	-94	35
81	-204	-26
40	-281	-98
-7	-298	-116
-50	-233	-86
-85	-103	-49
-105	38	-42
-111	127	-29
-105	106	-10
-90	-19	4
-67	-191	22
-42	-315	30
-10	-313	1
26	-167	-20
62	65	-40
91	278	-72
107	382	-78
107	335	-31
89	177	13
57	-11	46
18	-144	78
-21	-182	60
-56	-137	32
-82	-60	-31
-93	-1	-74
-88	17	-50
-65	5	-99
-34	-8	-78
2	3	32
32	41	24
52	93	-5
61	127	-35
59	130	-33
51	101	-25
41	55	-59
30	13	-29
17	-19	-46
2	-39	-77
-17	-53	-21
-39	-66	9
-60	-78	18
-77	-78	-9
-84	-60	20
-78	-28	40
-58	15	-13
-27	56	-10
10	91	-53
46	114	-138
74	128	-196
85	133	-154
77	121	-59
52	84	38
20	15	56
-18	-77	17
-51	-169	-21
-78	-230	-124
-96	-241	-111
-105	-199	-58
-100	-121	-60
-81	-45	-9
-49	7	-5
-7	23	7
36	20	39
75	19	-18
100	39	-31
107	80	-39
101	120	-19
84	136	-8
61	114	-50
35	61	5
7	-1	84
-23	-47	90
-52	-59	61
-78	-40	41
-94	-4	9
-95	22	-35
-84	23	-58
-58	-5	-59
-25	-55	-88
12	-94	-116
49	-98	-51
83	-47	-21
107	49	-18
115	157	12
102	225	38
67	209	68
16	104	43
-37	-53	16
-80	-192	-21
-100	-254	-56
-96	-222	-50
-76	-127	-70
-48	-51	-70
-23	-48	-63
-4	-127	-42
13	-226	-6
30	-261	-8
50	-176	-53
69	14	-58
80	221	-28
76	342	-51
54	313	-6
23	157	111
-13	-37	140
-44	-160	149
-68	-153	150
-83	-37	9
-87	102	-160
-84	174	-257
-75	142	-335
-54	33	-269
-26	-82	-162
8	-133	-131
44	-103	-12
74	-14	40
90	70	21
89	113	39
68	102	30
37	57	59
-5	12	101
-42	-16	100
-76	-30	83
-94	-46	52
-96	-70	59
-87	-95	79
-64	-103	21
-38	-82	5
-9	-33	26
19	27	-38
44	76	-172
66	100	-248
80	99	-249
85	88	-247
77	78	-183
54	69	-63
22	58	21
-14	31	40
-51	-14	39
-79	-72	34
-93	-129	54
-92	-167	61
-77	-177	26
-49	-149	7
-17	-93	-11
17	-16	-61
47	63	-122
72	128	-71
87	166	-15
94	164	35
91	130	81
77	72	80
52	14	80
19	-33	16
-19	-57	-51
-60	-55	-119
-97	-30	-121
-120	15	-115
-127	61	-111
-115	94	-62
-87	85	7
-44	17	22
3	-99	-3
45	-232	11
77	-318	24
91	-309	32
89	-190	-15
71	0	-60
46	174	-27
23	257	52
1	204	55
-14	51	51
-23	-114	70
-25	-194	26
-23	-142	12
-12	17	26
6	199	38
27	301	22
49	279	14
62	140	-16
64	-43	-50
50	-185	-99
25	-233	-214
0	-187	-223
-23	-94	-84
-34	-6	-104
-37	34	-149
-39	28	-79
-45	-11	-26
-60	-55	38
-84	-88	9
-107	-101	11
-118	-95	49
-109	-72	43
-81	-33	16
-37	15	-43
13	64	-67
61	103	-40
99	121	-15
122	120	-16
130	108	21
122	96	94
97	84	87
54	67	35
5	36	-8
-46	-8	-74
-86	-58	-46
-110	-97	-38
-116	-102	-75
-107	-69	-30
-92	-12	8
-68	48	31
-41	84	13
-6	85	1
36	52	12
79	8	-28
110	-31	-135
121	-51	-231
107	-55	-266
66	-57	-258
15	-65	-169
-37	-89	-150
-80	-115	-59
-105	-129	85
-113	-119	90
-108	-78	118
-91	-19	121
-60	43	97
-21	80	90
24	83	-14
72	55	-167
111	15	-147
133	-9	-67
133	-5	-66
116	32	-29
82	84	1
40	126	53
-4	142	93
-46	123	107
-83	85	103
-111	35	32
-125	-12	-7
-122	-62	-11
-103	-120	-21
-64	-183	-50
-18	-237	-22
32	-245	5
75	-186	-9
101	-63	-3
111	85	-16
105	200	-21
89	235	2
62	174	3
31	58	8
-3	-57	68
-40	-119	58
-71	-114	-12
-96	-65	-208
-104	-15	-282
-96	4	-176
-71	-1	-174
-36	-5	-53
1	18	-3
35	69	38
62	118	91
84	126	81
94	74	101
94	-14	49
83	-89	49
57	-103	24
22	-48	-24
-20	39	-40
-59	96	-32
-92	81	-25
-112	8	1
-119	-71	14
-115	-90	-4
-99	-17	-35
-76	114	-108
-43	228	-147
-5	244	-198
36	144	-197
75	-37	-123
102	-215	7
116	-313	99
115	-300	111
99	-205	152
69	-97	70
30	-29	-45
-14	-25	-64
-58	-56	-175
-95	-88	-270
-117	-89	-118
-118	-61	-10
-98	-23	46
-63	6	91
-19	26	79
21	49	100
51	87	10
67	134	-128
68	171	-138
57	169	-59
36	119	-32
10	37	-18
-18	-36	-16
-43	-74	-30
-60	-64	-41
-69	-25	-38
-65	15	-5
-52	34	15
-30	30	-13
-3	16	-59
24	5	-34
50	3	-33
74	4	-12
87	-5	25
89	-17	19
81	-24	46
63	-13	33
38	13	-34
10	45	-85
-20	59	-36
-50	40	11
-80	-5	11
-100	-54	33
-110	-82	-4
-107	-75	-48
-87	-42	-69
-56	-7	-82
-18	14	-71
18	22	-35
50	25	5
76	34	3
91	48	-1
98	50	3
90	27	7
66	-17	-2
29	-57	-17
-17	-71	-26
-62	-48	-72
-99	-11	-89
-116	2	13
-118	-36	82
-101	-119	33
-71	-195	-24
-36	-205	-50
8	-118	-79
52	33	-82
97	174	-70
129	233	-78
147	171	-24
139	36	21
109	-93	48
62	-138	46
8	-81	6
-41	25	19
-79	101	45
-100	86	44
-106	-10	-25
-100	-123	-124
-81	-174	-107
-56	-123	-14
-27	-1	-4
5	123	-11
34	179	-9
59	150	19
77	68	8
84	3	-125
77	-8	-172
58	30	-120
27	80	-36
-12	93	-17
-53	63	-74
-93	20	-22
-120	8	53
-130	43	30
-118	93	-6
-86	97	-19
-40	7	-3
11	-161	-24
56	-338	-58
89	-418	-6
106	-340	60
107	-125	100
96	129	161
76	299	175
50	301	56
21	153	-169
-12	-54	-252
-45	-204	-295
-75	-226	-328
-91	-129	-251
-93	2	-183
-77	86	-64
-49	85	3
-16	28	72
15	-17	85
40	2	99
58	85	127
72	171	36
81	199	-26
82	131	-34
72	3	7
49	-120	9
13	-175	34
-27	-141	70
-67	-56	56
-101	21	34
-120	50	7
-128	35	-21
-121	10	-65
-98	12	-84
-56	49	-69
-4	93	-38
54	102	-28
104	52	-31
128	-38	-39
124	-128	-42
93	-173	-30
46	-157	-15
-3	-106	-15
-38	-59	-17
-59	-45	-2
-68	-62	14
-70	-83	20
-70	-82	49
-64	-46	52
-52	2	5
-29	40	-19
1	54	-9
32	54	27
61	61	-1
82	88	-141
91	131	-200
91	162	-111
80	154	-77
54	98	-90
18	14	-91
-24	-62	-77
-67	-106	-23
-100	-106	32
-116	-84	77
-112	-59	89
-91	-52	84
-60	-55	89
-23	-48	70
11	-17	3
44	37	-138
71	92	-186
89	124	-119
93	117	-60
79	81	24
48	33	61
9	-4	87
-34	-15	48
-67	-11	-6
-88	-4	4
-92	-15	-52
-83	-44	-123
-61	-84	-136
-35	-113	-111
-4	-103	-90
27	-39	-43
57	82	-11
84	230	-5
101	350	24
111	389	49
113	301	18
103	100	-17
81	-162	-47
46	-386	-89
6	-492	-89
-36	-454	-57
-69	-313	-5
-94	-159	9
-105	-69	14
-105	-76	-56
-101	-127	-137
-93	-147	-82
-77	-71	-50
-49	90	5
-10	265	100
37	360	90
86	317	70
116	157	15
121	-34	-12
96	-147	9
49	-131	-91
-6	-16	-121
-57	111	-34
-96	158	-2
-115	85	-1
-116	-76	10
-104	-232	39
-80	-297	38
-45	-238	-12
-7	-85	-51
31	85	-33
64	201	-32
88	221	-127
95	162	-124
84	80	3
60	15	39
27	-4	8
-5	6	48
-34	16	96
-54	5	65
-65	-32	-4
-67	-76	-74
-61	-100	-91
-50	-90	-80
-31	-49	-203
-4	6	-235
27	52	-82
58	81	-4
82	90	80
96	88	119
97	86	112
86	82	102
65	75	62
38	53	34
7	19	-96
-29	-25	-202
-66	-70	-282
-102	-105	-246
-126	-124	-95
-133	-120	-24
-119	-98	38
-84	-54	45
-36	5	93
13	71	95
57	132	26
88	165	-23
105	152	-69
107	89	-35
98	-7	12
72	-106	28
33	-174	12
-16	-189	-17
-67	-153	-35
-113	-84	-9
-143	-6	28
-152	63	-7
-139	122	-43
-103	168	-42
-53	189	-111
10	161	-81
76	67	-26
132	-87	-67
172	-254	-24
183	-364	-16
162	-357	-23
111	-218	-20
48	-3	-31
-13	188	-29
-61	264	-8
-89	192	7
-101	20	-1
-104	-157	13
-101	-246	14
-94	-217	31
-80	-108	43
-53	3	44
-16	58	37
27	48	15
71	15	-12
106	16	-74
122	64	-102
118	139	-74
93	187	-33
52	171	-31
1	110	-38
-49	50	10
-89	36	13
-112	75	-19
-116	121	-43
-101	113	-82
-75	23	-90
-40	-120	-96
-8	-241	-18
21	-263	77
44	-168	65
63	-5	-5
75	134	-40
80	175	47
76	109	60
58	-14	26
32	-111	55
-3	-129	62
-42	-71	69
-78	5	-72
-102	35	-200
-109	7	-128
-99	-52	-206
-76	-80	-339
-42	-37	-268
-5	58	-168
28	147	-113
57	161	27
79	84	125
90	-48	101
89	-156	112
72	-179	79
41	-109	-32
-1	-1	-164
-48	68	-179
-89	53	-61
-115	-37	31
-121	-144	54
-109	-198	32
-81	-161	41
-42	-48	31
-1	80	57
34	177	112
64	213	68
83	200	5
91	163	-67
91	121	-121
84	71	-148
68	4	-123
46	-78	-13
15	-148	24
-20	-169	10
-57	-120	38
-84	-16	64
-94	93	77
-85	143	52
-59	106	22
-24	-1	38
10	-121	58
40	-189	54
63	-169	21
86	-72	-38
101	54	-96
109	165	-132
105	222	-149
81	227	-147
40	190	-116
-11	126	-59
-58	38	-27
-93	-72	-36
-109	-194	-21
-107	-300	-29
-92	-348	-35
-68	-318	-30
-45	-212	-21
-18	-69	6
10	54	13
38	120	39
61	116	33
76	68	11
74	17	-5
56	-5	-27
28	7	-14
-4	30	27
-34	41	93
-55	23	126
-67	-17	90
-70	-58	-38
-70	-71	-222
-66	-49	-246
-63	-2	-193
-57	45	-160
-48	74	-68
-31	76	0
-6	58	59
27	43	89
57	43	97
79	55	70
82	66	65
60	61	25
21	32	-87
-23	-10	-98
-61	-47	-55
-77	-65	-155
-70	-60	-227
-46	-38	-186
-16	-15	-150
9	8	-28
24	32	-6
35	64	14
46	105	20
60	132	-7
76	127	-1
85	72	45
78	-13	136
54	-86	117
16	-98	95
-26	-32	52
-63	67	12
-86	126	-47
-91	68	-133
-81	-117	-168
-57	-364	-145
-30	-546	-88
1	-547	-55
32	-344	0
58	-19	29
81	279	30
90	427	31
89	382	26
75	225	42
47	83	26
13	49	6
-26	119	-14
-62	190	-15
-93	148	19
-111	-48	41
-116	-319	22
-107	-517	-37
-79	-515	-58
-39	-288	-41
11	45	-42
62	318	-41
106	398	-59
131	278	-100
131	64	-88
109	-95	-52
67	-111	-16
22	-7	26
-20	114	62
-49	149	99
-71	64	96
-88	-84	27
-103	-196	-67
-115	-201	-116
-120	-111	-161
-112	4	-158
-88	66	-57
-46	48	-1
1	-10	13
49	-40	1
89	7	-57
118	114	-65
131	215	-38
126	244	-20
107	171	-20
72	38	22
27	-84	97
-21	-137	53
-62	-116	-27
-92	-61	-103
-105	-28	-130
-100	-39	-113
-82	-77	-78
-53	-100	10
-20	-72	-25
13	-4	-130
42	72	-149
63	111	-49
74	97	33
71	45	59
55	-4	110
30	-23	142
0	-13	118
-32	6	42
-64	-1	-16
-89	-41	-122
-108	-92	-193
-112	-120	-120
-104	-100	-17
-80	-35	5
-42	40	-11
7	91	-59
57	92	-66
104	55	-32
133	15	-11
145	7	5
131	41	-34
97	103	10
48	147	1
-3	134	-35
-51	53	-51
-83	-78	-92
-101	-213	-63
-103	-306	-17
-93	-326	-1
-75	-279	0
-48	-186	19
-14	-81	20
22	2	26
58	53	12
87	77	9
101	88	7
97	99	-8
78	118	-6
49	138	-8
16	150	2
-16	144	4
-46	112	-25
-72	51	-67
-92	-35	-62
-101	-128	-36
-96	-205	-13
-77	-240	1
-43	-208	0
-5	-113	-2
34	19	-3
65	145	-8
85	227	-17
89	244	-34
78	215	-44
52	185	1
15	179	47
-29	202	42
-68	215	-2
-99	162	-80
-110	7	-95
-101	-233	-91
-72	-474	-88
-35	-620	-66
4	-590	-61
38	-390	9
63	-99	42
79	165	64
84	300	94
83	279	28
78	157	-77
68	24	-151
55	-40	-150
38	-16	-132
15	52	-105
-17	101	-65
-52	81	-32
-87	-3	16
-111	-98	25
-119	-144	-66
-106	-114	-145
-72	-25	-157
-29	68	-63
14	122	32
50	121	36
74	92	77
85	75	45
83	92	40
68	134	21
42	162	-5
9	136	5
-28	43	-50
-63	-87	-1
-92	-206	32
-107	-263	4
-109	-238	22
-96	-149	-15
-68	-35	-48
-31	56	-53
14	101	-40
60	101	20
101	78	26
128	53	16
139	40	-22
131	39	-32
107	32	-63
68	13	-100
22	-21	-65
-29	-57	-80
-76	-82	-76
-112	-85	-38
-133	-58	-5
-133	-14	9
-115	42	17
-82	90	18
-39	117	42
4	116	51
44	80	45
74	18	11
94	-53	-55
100	-113	-115
92	-142	-104
67	-139	-23
34	-111	-43
-6	-77	-27
-43	-52	8
-71	-48	13
-88	-59	7
-89	-71	-8
-77	-71	5
-51	-52	-7
-14	-13	21
28	49	-4
71	122	-70
101	198	-59
111	254	-63
97	260	-63
60	194	-30
16	54	-92
-26	-117	-124
-54	-263	-28
-71	-326	20
-82	-275	16
-91	-145	3
-105	-4	-7
-116	76	24
-117	62	37
-99	-21	35
-58	-103	5
-1	-116	-85
57	-37	-71
105	96	16
132	210	32
136	244	-64
122	187	-188
93	76	-165
56	-24	-87
16	-67	-3
-26	-49	13
-62	-16	-31
-96	-11	-8
-112	-54	8
-111	-122	-2
-95	-166	-41
-64	-149	-56
-26	-64	-11
15	45	-6
53	136	-48
86	169	-14
110	147	9
117	101	10
109	70	22
85	75	22
46	102	26
1	121	-8
-43	103	-25
-79	41	45
-101	-53	32
-107	-154	-67
-100	-229	-81
-84	-257	-43
-60	-227	3
-35	-141	17
-10	-20	24
16	113	16
37	211	-18
52	244	-60
60	194	-74
61	77	-23
54	-66	0
41	-179	-45
23	-225	-89
3	-201	-100
-20	-140	-131
-41	-89	-91
-58	-80	-33
-65	-110	0
-59	-142	52
-39	-135	54
-5	-68	53
34	45	21
75	160	0
106	228	-21
121	227	-47
118	169	-11
94	94	19
55	38	-15
9	16	-53
-38	17	-42
-77	19	-23
-106	7	-18
-122	-9	-51
-127	-12	-39
-120	15	-5
-98	67	-42
-63	112	-65
-17	120	-68
33	76	-52
80	0	-64
110	-70	-37
118	-101	-8
103	-86	24
68	-53	98
26	-44	116
-16	-85	133
-51	-159	90
-77	-218	-2
-91	-224	-54
-96	-157	-80
-93	-49	-114
-77	43	-200
-54	79	-259
-22	51	-176
14	0	-57
48	-25	43
79	10	119
97	90	116
102	171	77
90	202	-5
62	169	-81
23	91	-101
-26	16	-67
-71	-20	-91
-109	-16	-128
-126	-3	-45
-121	-20	-4
-96	-80	-59
-57	-158	-57
-18	-209	-100
15	-189	-46
39	-93	22
54	44	-31
64	165	-35
71	219	-56
77	195	-35
74	109	10
61	9	39
36	-71	84
5	-115	87
-28	-127	49
-53	-122	9
-65	-108	8
-64	-89	16
-52	-60	-42
-35	-24	-51
-12	13	0
13	39	-35
37	49	-69
62	51	-44
80	58	26
89	88	49
81	139	44
59	198	46
29	233	6
-6	210	-68
-40	125	-125
-69	-8	-85
-91	-144	-62
-103	-246	-82
-104	-272	-59
-90	-229	-30
-61	-140	16
-21	-55	43
21	-12	42
57	-16	30
78	-44	-38
81	-58	-86
68	-30	-44
48	36	-25
27	112	-40
5	151	-31
-15	128	-37
-38	45	-10
-63	-56	16
-82	-135	13
-89	-162	5
-80	-135	-12
-53	-86	68
-17	-34	132
18	1	95
44	29	9
63	59	-139
72	101	-181
79	141	-191
78	161	-235
69	153	-192
48	124	-97
13	100	0
-29	97	46
-71	113	61
-98	124	83
-104	88	56
-91	-12	22
-62	-160	34
-33	-299	52
-7	-368	-2
12	-326	0
32	-192	12
53	-23	-88
74	110	-113
90	154	-79
93	106	-32
80	7	-34
51	-83	-75
16	-118	-54
-20	-97	-51
-52	-45	-70
-78	-7	-63
-98	-5	-97
-111	-33	-104
-118	-65	-24
-108	-67	23
-81	-30	33
-36	35	21
18	100	42
67	135	91
107	132	91
125	108	68
122	84	64
104	71	108
74	76	49
36	75	-119
-6	57	-159
-50	13	-68
-89	-47	-62
-115	-102	-78
-120	-134	-30
-104	-131	-67
-72	-100	-151
-32	-44	-111
6	19	-46
38	77	-88
58	115	-93
70	118	-47
72	85	8
66	22	48
48	-44	65
22	-87	93
-10	-84	47
-43	-38	-4
-69	17	-21
-87	48	11
-89	24	-30
-78	-48	-157
-53	-131	-135
-21	-176	-29
17	-144	38
56	-35	27
90	113	15
116	244	39
128	305	51
120	275	49
100	162	49
64	6	12
20	-143	-75
-25	-237	-123
-66	-251	-104
-100	-183	-72
-121	-60	-86
-125	65	-89
-113	142	-52
-84	128	21
-42	27	47
3	-119	22
42	-241	-5
69	-274	-30
85	-201	-27
84	-51	14
72	100	39
54	185	17
32	170	0
8	79	-11
-22	-32	-3
-50	-103	-14
-79	-107	-36
-99	-58	-32
-105	4	-33
-95	43	-77
-68	58	-65
-32	60	-12
9	74	-70
46	103	-56
75	124	-18
90	116	-45
91	63	-13
80	-15	-16
56	-83	0
27	-105	39
-8	-72	5
-41	-20	-12
-67	14	22
-86	-1	44
-90	-57	37
-81	-115	-23
-57	-134	-84
-26	-90	-117
7	-5	-162
40	81	-97
62	124	-11
77	117	-33
78	84	-50
68	61	-33
50	75	19
28	109	38
1	130	7
-26	98	-47
-52	0	-91
-74	-135	-57
-88	-253	-32
-91	-297	-102
-86	-249	-115
-67	-124	-20
-46	28	32
-18	161	103
14	235	120
46	243	47
76	193	-32
100	103	-71
110	-9	-34
101	-126	-96
75	-219	-167
31	-262	-105
-17	-240	-32
-58	-151	41
-87	-28	30
-92	80	-54
-80	135	-51
-53	128	2
-24	85	21
1	57	8
18	83	-20
29	161	-13
38	243	7
48	256	15
62	153	37
72	-63	20
72	-320	-28
54	-507	-46
17	-539	-30
-30	-394	-15
-76	-153	-30
-103	78	-57
-105	191	-46
-85	157	7
-49	26	44
-15	-98	49
11	-126	40
28	-34	10
41	123	-25
56	257	-80
72	289	-126
87	214	-88
88	84	-20
72	-23	39
35	-59	57
-15	-26	42
-65	25	44
-111	37	15
-138	-7	-31
-144	-80	-60
-126	-126	-126
-86	-106	-133
-31	-18	-58
26	98	-57
75	182	-26
105	200	38
111	150	21
98	67	-23
74	-10	-59
42	-50	-64
10	-55	-62
-24	-42	-38
-56	-29	-43
-88	-31	-99
-108	-53	-87
-112	-89	6
-98	-125	50
-66	-149	36
-28	-142	20
8	-93	40
39	-9	61
59	85	22
77	152	-8
86	157	-32
91	92	-79
85	-13	-133
64	-109	-147
30	-152	-100
-12	-125	-37
-52	-60	-27
-86	-1	-54
-105	12	-70
-109	-24	-69
-95	-77	-66
-66	-103	-46
-28	-71	-12
17	6	-22
61	95	-13
97	150	51
117	153	103
119	123	93
105	94	87
79	102	6
44	142	-92
4	187	-48
-40	189	2
-82	115	-28
-115	-25	-61
-129	-192	-31
-122	-322	-5
-93	-370	1
-50	-308	14
-4	-162	2
34	18	44
63	174	48
83	261	-46
94	257	-75
100	171	-63
96	50	-69
79	-61	-124
46	-127	-121
2	-134	-18
-45	-107	13
-88	-86	16
-111	-106	4
-118	-173	27
-107	-256	28
-81	-296	-5
-44	-246	-47
-2	-102	-131
42	93	-121
82	260	-33
111	335	22
116	296	18
101	174	29
66	42	18
26	-39	9
-14	-45	8
-46	-2	6
-71	38	-30
-95	36	-75
-112	-15	-53
-123	-86	-37
-116	-131	-30
-89	-125	4
-42	-66	34
16	14	20
67	94	12
102	153	-13
113	190	-44
107	208	-84
93	200	-117
74	152	-98
54	55	-65
29	-78	20
-3	-208	110
-44	-282	121
-86	-273	84
-114	-184	48
-124	-62	16
-110	26	-64
-78	50	-110
-39	15	-136
0	-32	-205
33	-45	-196
58	-1	-173
75	81	-145
81	150	-65
74	162	-18
53	110	26
21	24	45
-19	-49	53
-57	-77	81
-92	-56	56
-111	-21	31
-116	-7	8
-105	-32	7
-76	-82	11
-35	-123	-19
16	-123	-52
65	-71	-3
107	9	74
132	91	14
139	144	-28
130	162	-40
107	152	-36
76	132	-43
38	109	-36
0	74	22
-42	16	-1
-79	-64	-9
-109	-149	30
-126	-195	32
-126	-177	-9
-111	-92	-68
-79	21	-70
-39	99	-25
5	91	-75
45	-6	-174
77	-147	-200
96	-248	-126
96	-246	-45
80	-129	-40
50	41	-33
10	174	-9
-31	200	-15
-69	108	1
-98	-35	18
-113	-138	17
-110	-134	58
-89	-28	72
-47	103	34
8	169	8
64	120	72
113	-13	87
143	-142	26
151	-178	-18
139	-85	-71
113	80	-49
81	215	-53
41	240	-157
-2	132	-218
-50	-42	-107
-98	-186	-12
-136	-223	-19
-156	-151	-55
-150	-26	-76
-123	70	-6
-80	95	21
-33	60	31
6	18	34
39	19	18
63	67	33
83	127	31
94	145	4
91	97	-15
69	4	-12
26	-80	-61
-29	-107	-81
-85	-77	-32
-125	-25	-38
-137	-11	-54
-123	-55	-41
-87	-138	7
-37	-192	60
14	-163	42
61	-39	-28
99	130	-66
126	259	-48
139	279	-33
137	187	-64
118	31	-68
85	-102	-19
39	-151	12
-10	-95	38
-53	24	48
-91	150	51
-112	228	85
-121	228	51
-116	158	18
-95	31	15
-63	-128	-55
-23	-295	-153
18	-424	-211
56	-471	-202
81	-410	-113
91	-242	-47
88	-24	-5
75	163	19
54	244	-21
30	201	-16
2	67	42
-31	-74	77
-65	-145	95
-93	-123	95
-108	-36	41
-104	49	-40
-83	85	-74
-46	59	-13
-8	15	-35
28	1	-50
53	40	14
69	120	-25
81	189	-29
81	202	-47
75	153	-120
59	66	-100
28	-9	-87
-13	-42	-133
-57	-31	-156
-97	-5	-228
-122	3	-202
-128	-24	-59
-115	-79	4
-87	-127	45
-50	-150	95
-10	-131	112
30	-81	141
64	-16	137
91	48	84
107	100	-5
111	138	-46
100	155	-27
75	148	-36
41	106	-43
-1	35	-82
-40	-52	-96
-68	-137	-62
-88	-195	-32
-91	-211	-18
-80	-183	11
-58	-121	27
-29	-43	8
4	32	7
36	90	14
63	122	2
82	124	-18
89	110	-21
81	89	-15
59	75	-20
29	76	-46
-7	83	-18
-42	85	21
-71	60	24
-93	0	28
-101	-94	6
-95	-194	-15
-77	-263	-18
-46	-265	-20
-12	-182	-35
24	-20	-7
52	177	26
72	345	-11
83	424	-76
85	364	-167
78	171	-169
62	-99	-66
40	-359	-55
9	-517	-91
-25	-517	-49
-56	-368	-21
-81	-137	-1
-86	66	30
-78	169	54
-55	143	94
-27	43	89
0	-52	50
23	-68	0
40	13	-46
52	143	-137
56	249	-190
52	265	-97
37	190	-12
10	71	31
-22	-20	72
-53	-44	104
-76	-13	91
-86	28	17
-82	24	-75
-65	-31	-56
-44	-104	29
-20	-137	-21
6	-95	-135
34	1	-229
63	90	-236
92	110	-190
114	45	-176
119	-68	-75
107	-157	-71
76	-158	-90
34	-74	39
-10	43	54
-50	117	24
-79	102	17
-98	9	7
-108	-97	64
-107	-150	102
-97	-124	83
-75	-44	78
-41	30	64
-1	58	16
36	34	-10
65	-1	-19
81	0	-53
81	51	-85
67	130	-40
44	174	-3
16	150	-47
-15	48	-26
-44	-80	17
-70	-174	18
-88	-194	20
-93	-141	16
-84	-62	24
-61	1	13
-32	22	5
2	12	-10
34	5	-42
64	25	-81
85	70	-128
94	117	-89
90	134	-63
72	109	-99
42	51	-43
5	-5	-11
-32	-41	4
-65	-46	-4
-91	-38	-44
-101	-34	-25
-101	-45	3
-87	-59	21
-60	-53	18
-24	-12	15
16	61	-19
52	134	-25
82	166	-48
96	126	-68
98	17	-15
87	-123	15
65	-237	45
41	-275	67
13	-221	49
-16	-91	29
-44	64	4
-72	194	-8
-95	257	-42
-106	235	-118
-101	135	-159
-78	-16	-132
-38	-179	-38
10	-308	37
57	-358	69
97	-306	45
123	-164	18
131	23	-24
125	181	-69
105	250	-160
71	204	-196
28	75	-51
-20	-65	0
-70	-152	38
-110	-148	52
-133	-76	37
-132	12	16
-108	60	-60
-68	51	-76
-22	12	-99
17	-12	-86
42	12	-67
55	77	-47
54	147	-6
48	179	-12
39	153	1
28	89	38
13	19	54
-6	-22	-13
-31	-39	-114
-58	-47	-211
-80	-70	-172
-91	-109	-104
-85	-137	-179
-65	-121	-92
-36	-44	-4
-4	65	2
22	162	80
42	194	105
52	144	119
54	47	104
48	-43	42
36	-75	10
20	-44	22
1	11	-27
-15	34	-20
-27	-18	87
-30	-129	69
-25	-248	54
-16	-290	42
-2	-218	29
12	-39	8
27	174	-75
42	334	-116
61	364	-132
78	250	-111
87	41	-36
84	-175	17
64	-317	8
33	-334	-67
-7	-238	-81
-46	-79	3
-80	70	19
-104	158	-19
-118	162	-44
-120	102	-58
-109	16	-3
-86	-59	27
-52	-98	17
-11	-103	18
28	-82	25
60	-53	13
83	-21	-56
93	16	-40
90	54	-2
75	96	-15
50	125	-67
13	130	-132
-29	104	-109
-75	50	-38
-110	-16	2
-130	-84	28
-127	-134	15
-101	-165	-27
-56	-166	-50
0	-136	-57
58	-71	11
111	18	39
150	114	9
166	194	-53
157	232	-145
122	218	-160
71	162	-185
16	82	-169
-34	0	-53
-70	-69	22
-97	-124	42
-110	-165	51
-120	-184	74
-119	-178	91
-108	-133	32
-82	-59	-6
-40	26	16
5	97	9
46	129	-15
74	123	-25
85	101	-27
81	91	-68
62	108	-38
36	139	-11
1	154	-106
-37	110	-112
-79	1	-42
-111	-149	-9
-125	-278	38
-120	-330	44
-92	-276	22
-49	-135	-7
2	29	-1
54	150	60
101	181	41
140	130	31
164	40	15
170	-32	-46
153	-49	-81
117	-17	-78
67	28	-64
15	40	-38
-29	-5	3
-63	-92	-11
-88	-171	-75
-105	-192	-147
-114	-134	-100
-112	-15	-38
-99	106	-74
-67	174	-55
-27	151	44
18	55	71
52	-55	28
77	-119	18
83	-98	3
74	-6	15
54	103	46
29	165	77
-1	137	112
-35	34	66
-68	-94	-62
-94	-183	-178
-109	-192	-181
-107	-128	-143
-92	-33	-179
-64	37	-229
-33	56	-203
-1	31	-109
30	0	-33
57	-4	53
78	35	90
89	97	15
89	138	-44
76	134	-11
51	77	54
23	-3	59
-8	-69	94
-36	-99	99
-61	-89	107
-78	-64	103
-85	-46	55
-80	-45	33
-58	-47	-11
-27	-36	-76
16	4	-118
57	65	-72
89	128	-49
104	171	-15
99	183	8
75	173	11
35	155	-25
-10	136	-153
-52	106	-163
-89	41	-72
-108	-71	12
-111	-224	68
-97	-362	90
-70	-433	91
-37	-379	19
-6	-200	-115
22	39	-175
42	248	-165
57	332	-169
72	257	-157
85	71	-87
95	-115	-25
95	-196	26
81	-123	68
53	54	69
12	213	36
-31	233	9
-69	65	35
-93	-215	94
-99	-466	133
-91	-541	116
-70	-390	53
-44	-88	-20
-16	212	-70
14	362	-93
42	312	-143
68	127	-267
86	-52	-188
91	-111	-57
82	-25	-70
57	127	-42
21	228	-20
-21	200	1
-62	58	-3
-96	-111	5
-117	-206	22
-124	-176	54
-116	-55	77
-93	76	31
-60	144	43
-21	138	56
18	88	41
54	53	-14
81	57	-102
93	83	-138
94	83	-148
82	32	-132
59	-55	-107
31	-138	-44
-1	-171	46
-33	-145	91
-61	-94	91
-79	-57	81
-84	-57	57
-70	-77	22
-46	-71	4
-11	-18	34
26	72	27
56	151	-65
76	169	-120
81	110	-122
69	11	-103
46	-70	-30
16	-88	9
-18	-43	-3
-50	19	-47
-76	42	-99
-93	1	-76
-98	-84	-16
-90	-156	-28
-71	-163	-109
-42	-94	-126
-10	15	-84
28	110	-36
63	151	-9
93	138	-19
113	100	-18
120	71	9
111	59	53
88	53	58
52	25	41
9	-30	26
-34	-95	26
-70	-138	6
-96	-132	-24
-107	-80	-54
-106	-9	-56
-91	45	-4
-67	67	-42
-37	64	-58
-3	55	4
29	57	11
57	68	-47
75	74	-82
78	61	-77
69	31	-58
47	-2	-34
22	-28	-18
-6	-46	15
-32	-78	12
-56	-128	-5
-75	-188	-37
-85	-212	-51
-87	-160	-69
-72	-27	-71
-44	135	-47
-5	237	-47
37	204	-30
76	35	-19
104	-187	6
118	-334	15
123	-313	10
116	-118	34
101	142	64
69	320	66
23	310	34
-39	118	3
-106	-140	16
-158	-320	14
-182	-321	-42
-170	-162	-63
-126	54	-48
-66	203	-70
-10	215	-68
28	120	-30
44	8	-22
45	-33	-1
42	18	19
42	114	-3
46	174	-27
46	144	-56
36	38	-118
11	-87	-102
-21	-152	-51
-51	-131	-12
-65	-44	65
-58	45	122
-30	90	152
10	79	68
50	38	39
82	9	57
99	13	-66
104	45	-169
96	77	-215
81	80	-260
56	51	-259
26	-1	-167
-12	-55	-107
-54	-104	-14
-95	-140	48
-128	-166	39
-149	-174	49
-152	-156	-15
-137	-109	-14
-105	-44	-53
-63	13	-45
-13	38	-40
38	28	-76
85	2	-20
119	-4	65
137	28	144
135	96	126
111	158	41
70	174	-55
22	130	-58
-28	40	-71
-72	-47	-155
-104	-96	-140
-120	-96	-24
-122	-71	32
-107	-63	64
-79	-89	101
-37	-131	69
10	-144	11
56	-94	-88
94	19	-117
116	153	-25
121	244	52
107	257	35
83	197	-3
49	108	-30
12	35	-38
-24	-2	-38
-56	-29	-36
-80	-84	-28
-93	-180	-32
-93	-292	-3
-81	-354	22
-56	-312	41
-26	-158	20
8	47	-23
41	215	-50
67	270	-88
82	205	-59
84	80	-5
69	-25	6
44	-51	-16
10	-6	-13
-24	57	-10
-55	78	-46
-80	29	-91
-95	-53	-54
-101	-116	-3
-96	-108	-21
-80	-37	-24
-52	48	-16
-16	92	2
19	65	3
51	4	-2
69	-40	-27
75	-12	-39
68	84	-56
54	198	-100
37	260	-85
17	223	-17
-5	91	49
-28	-89	70
-52	-246	91
-66	-336	69
-68	-346	77
-53	-298	106
-26	-211	67
8	-105	-9
37	8	-90
60	116	-123
76	193	-132
83	211	-251
83	164	-338
72	64	-269
49	-40	-246
14	-111	-105
-30	-123	-15
-75	-96	-20
-111	-59	103
-132	-47	127
-136	-61	86
-125	-80	93
-98	-69	108
-58	-13	129
-6	79	84
50	170	-110
106	233	-183
148	247	-38
169	224	-2
163	181	-25
134	131	7
94	77	-3
48	9	-59
5	-75	-68
-35	-164	-47
-70	-233	-65
-103	-259	-26
-127	-238	3
-139	-181	11
-130	-107	28
-100	-37	-24
-51	20	-56
6	76	-1
60	127	45
100	171	32
119	190	33
117	168	20
99	102	-22
68	8	-86
33	-82	-45
-4	-136	-18
-44	-141	-40
-81	-108	-35
-112	-64	-93
-130	-38	-74
-129	-39	-51
-108	-55	-40
-69	-65	1
-22	-46	55
22	2	100
58	68	101
82	122	74
91	144	39
86	131	5
71	92	-25
46	45	-11
14	5	-76
-24	-26	-104
-60	-50	-44
-91	-76	-4
-110	-93	-25
-109	-93	-119
-93	-62	-115
-60	-4	-47
-19	65	33
24	119	50
63	124	-18
93	77	-52
109	-5	-81
107	-83	-120
90	-120	-112
58	-98	-111
16	-30	-33
-27	41	58
-64	78	57
-90	55	57
-104	-17	-65
-104	-105	-141
-92	-165	-112
-71	-175	-112
-42	-139	-55
-10	-77	-14
26	-15	14
59	34	72
86	69	63
103	103	33
107	134	-24
103	149	-61
86	131	-32
60	74	-70
24	-1	-63
-19	-52	40
-60	-40	29
-94	43	1
-103	159	-18
-87	236	-50
-47	205	-53
4	58	-72
46	-160	-39
72	-345	12
77	-406	48
63	-313	23
45	-109	-6
33	96	12
29	197	10
27	150	-4
17	-2	6
-6	-161	-17
-42	-233	-64
-84	-179	-53
-112	-48	5
-120	70	42
-105	100	8
-70	34	-19
-30	-66	0
8	-117	37
35	-65	29
50	68	-16
59	210	14
60	275	107
58	228	116
49	101	-8
32	-31	-168
9	-97	-267
-23	-81	-232
-54	-17	-192
-81	26	-205
-95	11	-72
-92	-50	56
-69	-114	32
-31	-124	-78
13	-65	-145
50	33	-19
74	116	32
78	143	52
65	110	94
48	51	82
32	12	86
16	20	28
0	72	7
-25	130	12
-57	157	28
-91	121	-45
-113	20	-134
-110	-120	-145
-84	-268	-93
-39	-376	-63
5	-408	-78
39	-340	-88
59	-183	-77
68	17	-11
78	193	-49
87	279	-63
95	252	15
90	131	32
67	-9	16
26	-101	38
-21	-108	45
-63	-47	52
-94	20	45
-105	39	47
-106	-5	40
-95	-81	-9
-75	-124	-37
-44	-92	-30
-4	18	8
38	156	2
76	256	-11
96	278	-34
94	225	-75
78	135	-67
51	48	-48
27	-16	-38
4	-62	-19
-18	-102	-5
-42	-126	-5
-71	-114	-11
-96	-47	-44
-107	53	-50
-93	132	-42
-56	116	-47
-5	-23	-53
44	-246	-49
79	-441	-39
93	-487	-21
90	-334	-3
80	-37	-16
65	261	-50
51	412	-49
30	340	-23
-1	96	0
-39	-176	38
-77	-330	86
-101	-291	117
-98	-105	158
-72	106	176
-33	227	120
4	209	8
27	103	-77
31	4	-121
25	-17	-252
21	40	-397
26	117	-387
42	139	-241
55	82	-66
55	-21	64
33	-108	130
-4	-123	29
-44	-77	-43
-71	-15	57
-76	7	17
-62	-32	-36
-36	-95	20
-14	-130	0
4	-89	-23
18	21	-82
32	154	-190
50	248	-142
64	265	-58
68	209	-37
55	106	34
24	-1	98
-12	-96	101
-45	-167	77
-66	-215	103
-77	-234	94
-80	-210	34
-83	-143	0
-84	-53	-85
-76	26	-113
-51	65	-36
-10	61	-61
37	40	-24
80	45	63
100	99	46
97	185	32
77	244	-11
48	223	0
25	99	-23
6	-88	-74
-17	-256	-98
-47	-322	-106
-84	-252	-96
-119	-80	-65
-141	106	-28
-139	215	-46
-110	200	-34
-61	81	-45
-3	-70	-65
54	-166	-56
105	-159	-5
140	-57	84
163	77	102
169	166	120
151	161	87
113	58	0
59	-88	-51
3	-211	-86
-48	-259	-170
-87	-222	-205
-109	-133	-142
-116	-42	-74
-110	7	5
-94	14	40
-65	5	51
-29	22	-17
13	82	-60
53	168	-4
84	240	-7
98	252	-41
96	188	-17
78	65	15
48	-66	32
9	-163	10
-36	-203	1
-88	-196	-1
-133	-171	-70
-166	-145	-57
-170	-127	-5
-143	-101	23
-88	-47	34
-16	27	20
56	106	5
111	158	-40
144	170	-54
153	147	-35
140	113	-60
116	93	-97
83	90	-80
43	95	-21
2	81	13
-40	35	47
-76	-32	60
-96	-94	43
-101	-129	60
-89	-125	69
-64	-93	72
-34	-53	16
-4	-21	-108
19	0	-186
38	21	-160
48	48	-177
52	77	-190
50	90	-93
42	71	-25
28	20	12
5	-51	22
-25	-113	42
-59	-142	38
-91	-130	42
-114	-93	29
-119	-53	-41
-104	-29	-71
-68	-22	-92
-23	-16	-51
25	5	53
66	43	33
96	92	1
111	125	49
117	132	39
111	110	5
95	75	-68
64	46	-65
22	38	-19
-28	51	24
-76	67	-49
-110	65	-217
-126	22	-98
-122	-58	-2
-103	-164	-10
-74	-254	41
-40	-286	-26
-8	-233	-82
26	-105	-88
57	54	-47
85	174	-72
104	205	-88
109	126	-92
97	-16	-98
66	-152	66
24	-204	77
-20	-152	-4
-59	-34	-74
-85	68	-58
-96	89	38
-93	21	33
-80	-79	62
-59	-117	70
-35	-38	32
-3	143	16
33	338	32
75	428	4
109	348	-15
129	119	-2
128	-153	15
103	-346	33
61	-381	-9
17	-271	-18
-21	-108	-2
-44	10	11
-54	20	-6
-58	-53	1
-61	-142	-9
-60	-167	-70
-54	-99	-69
-35	25	-61
-4	143	-72
31	199	-65
58	182	-75
68	122	-90
54	71	-84
24	58	-43
-12	74	-11
-43	86	5
-65	62	46
-82	2	52
-96	-74	52
-106	-127	43
-110	-135	44
-99	-104	12
-65	-53	-64
-20	-11	-83
31	17	-21
72	38	1
96	61	-59
100	92	-93
90	110	-103
71	103	-127
49	60	-131
22	-5	-79
-9	-68	-54
-44	-107	-80
-77	-112	-80
-97	-95	-119
-101	-77	-99
-91	-70	-6
-65	-71	-24
-33	-67	31
-1	-38	120
33	13	130
64	77	58
92	129	0
110	153	-11
111	148	-45
94	119	-7
54	82	-16
4	49	-2
-50	16	9
-97	-21	-80
-128	-70	-124
-140	-127	-118
-128	-183	-49
-97	-215	-15
-50	-202	-47
3	-138	-1
51	-30	28
91	93	14
114	197	5
124	244	-2
123	224	9
114	135	10
97	16	-1
68	-98	-35
31	-175	-33
-14	-205	-28
-58	-202	-27
-95	-182	-17
-116	-160	-15
-115	-133	-17
-97	-92	-40
-60	-31	-40
-15	40	-64
36	103	-2
81	140	43
113	145	13
123	129	36
107	112	24
69	110	33
18	130	16
-34	161	-7
-76	185	26
-103	192	3
-114	161	-46
-116	89	-53
-112	-32	-61
-107	-189	-65
-96	-346	-97
-77	-449	-129
-47	-449	-51
-8	-326	-13
36	-115	-22
78	109	-39
109	256	-84
125	275	-70
123	179	-48
103	38	-64
71	-60	17
33	-67	101
-1	-1	68
-30	76	93
-48	95	86
-60	34	47
-69	-64	-28
-74	-134	-153
-69	-120	-160
-50	-27	-31
-16	90	79
29	162	32
76	154	-11
105	85	29
111	6	24
90	-27	-108
50	-6	-214
4	36	-167
-37	51	-169
-65	12	-136
-85	-61	-61
-93	-124	-42
-95	-131	15
-86	-75	-1
-65	8	-13
-36	61	62
0	53	51
34	-3	-37
59	-60	-84
69	-62	-74
66	7	5
54	115	11
35	194	7
18	180	46
-2	64	64
-23	-114	38
-46	-270	-25
-67	-337	-11
-82	-286	-1
-84	-153	-24
-68	-4	-48
-41	99	-63
-6	122	-42
30	85	-11
58	32	-24
81	7	14
92	26	59
96	72	42
87	115	20
66	127	-10
32	105	-50
-14	70	-74
-65	52	-50
-113	61	-74
-141	79	-89
-144	75	-57
-119	15	-15
-72	-98	12
-20	-230	-2
30	-318	0
62	-311	-1
81	-201	-17
86	-29	-36
83	129	-64
76	207	-79
62	183	-56
40	85	-25
10	-20	-21
-27	-75	-24
-59	-56	4
-84	8	20
-91	71	3
-83	95	-14
-62	74	-34
-38	34	-52
-10	2	-40
18	-6	-32
47	-11	-36
76	-33	37
97	-87	77
106	-145	95
99	-167	126
76	-124	140
40	-22	174
1	85	87
-33	134	-97
-60	93	-133
-77	-15	-159
-84	-126	-279
-80	-170	-151
-61	-112	-37
-31	16	-28
8	148	19
49	213	-13
82	193	-45
95	108	-131
86	19	-208
60	-31	-221
24	-37	-179
-14	-18	-190
-50	-8	-89
-80	-23	76
-103	-53	107
-121	-82	163
-126	-95	131
-121	-99	60
-96	-105	-31
-53	-118	-97
7	-121	-85
75	-89	-88
144	-16	-122
202	86	-44
234	171	19
234	206	34
191	171	83
107	97	22
-3	28	32
-125	5	44
-226	32	17
-288	74	10
-297	81	-8
-256	22	-42
-183	-86	-56
-99	-196	-16
-25	-252	12
27	-218	45
60	-109	30
83	27	-6
104	137	-25
123	190	-33
138	186	-67
135	148	-69
107	106	-55
57	69	-75
-8	36	-19
-71	-11	14
-116	-71	26
-135	-133	54
-128	-168	56
-101	-153	30
-64	-94	-26
-26	-14	-51
9	43	-62
34	51	-94
51	12	-110
57	-46	-41
57	-82	32
52	-68	76
50	-15	65
53	39	37
56	55	43
54	12	31
40	-68	-85
13	-133	-203
-21	-140	-198
-51	-78	-161
-63	15	-104
-54	81	-84
-24	80	0
16	20	81
52	-33	94
74	-17	86
81	93	-11
77	249	-41
67	353	-26
57	318	-61
43	120	-113
18	-163	-68
-18	-404	37
-63	-482	19
-106	-370	-141
-134	-135	-182
-135	85	-100
-109	179	-52
-66	123	30
-19	-15	71
21	-114	98
49	-94	87
66	45	22
76	221	31
80	313	47
69	268	16
51	102	-16
18	-84	-16
-17	-191	-41
-51	-169	-79
-76	-55	-72
-83	62	-56
-80	104	-65
-65	39	-36
-47	-82	-18
-23	-182	-69
7	-192	-58
39	-108	-46
69	28	-45
90	148	-59
93	192	-79
79	157	-74
52	74	-32
23	-5	17
-5	-48	24
-28	-52	32
-50	-35	34
-68	-28	38
-86	-40	-7
-94	-65	-44
-88	-84	-114
-64	-75	-110
-29	-40	14
12	12	49
49	57	81
78	85	123
96	87	116
105	71	81
103	51	33
89	39	-10
56	47	-108
7	79	-246
-55	127	-298
-113	170	-173
-153	174	-69
-164	114	-35
-144	-21	42
-108	-200	9
-65	-364	5
-28	-441	26
1	-390	0
31	-227	-29
62	-20	-62
95	138	5
121	189	54
127	129	79
111	21	79
74	-56	61
26	-52	41
-16	23	-6
-45	105	5
-59	121	-48
-64	40	-135
-64	-94	-138
-64	-199	-56
-60	-194	3
-50	-59	-16
-32	149	-32
-7	329	-37
20	388	24
46	290	26
63	76	-55
74	-161	-72
72	-326	9
61	-375	25
39	-301	-40
6	-167	-83
-32	-36	-136
-72	37	-172
-103	43	-127
-121	5	-53
-119	-39	-25
-95	-52	40
-52	-22	49
2	46	68
56	121	74
99	171	-20
120	179	-8
114	142	27
86	87	51
44	35	46
0	6	38
-37	-9	40
-65	-15	-38
-84	-30	-76
-95	-55	-54
-96	-74	-132
-87	-70	-224
-59	-35	-268
-23	20	-195
22	75	-22
65	96	22
96	72	22
107	18	-13
98	-38	4
75	-63	94
44	-51	116
11	-15	117
-20	14	104
-48	7	34
-68	-34	-28
-82	-89	-39
-84	-116	-89
-71	-93	-59
-50	-20	-60
-17	72	-104
21	148	-49
61	174	-4
95	157	18
116	114	11
119	71	13
103	41	-17
67	14	-59
21	-31	-80
-26	-103	-140
-69	-188	-161
-98	-254	-67
-112	-271	20
-114	-232	16
-103	-153	22
-85	-74	36
-56	-21	16
-18	-1	10
27	6	29
78	30	49
123	81	13
155	148	-7
159	201	38
132	222	44
81	205	35
14	170	28
-52	135	48
-104	106	42
-132	68	4
-138	-3	15
-129	-107	-71
-110	-223	-205
-92	-295	-254
-70	-283	-233
-45	-191	-145
-12	-57	-50
27	46	12
65	76	13
93	23	22
103	-60	37
97	-110	24
74	-85	47
44	6	5
13	106	-52
-19	157	-22
-50	122	6
-79	27	-22
-99	-74	-37
-107	-121	-50
-95	-94	-57
-66	-15	-69
-28	66	-42
14	110	31
51	105	37
78	74	-2
91	48	-49
92	50	-42
80	72	-53
53	95	-36
16	95	75
-25	71	149
-63	34	82
-89	1	-16
-94	-21	42
-81	-41	21
-51	-71	-52
-14	-117	-111
22	-159	-221
52	-171	-198
71	-137	-173
81	-59	-170
82	28	-125
76	92	-45
63	104	6
46	72	31
25	24	43
-1	-9	57
-35	-9	54
-70	11	39
-103	24	52
-120	2	-27
-117	-59	-59
-89	-135	-40
-42	-186	-17
10	-173	21
55	-90	6
84	38	-4
90	162	-3
82	232	-7
63	218	-9
42	131	6
21	13	16
-1	-93	10
-27	-143	17
-53	-138	-25
-77	-98	-128
-92	-53	-142
-93	-32	-44
-80	-34	46
-54	-41	60
-24	-29	76
9	18	113
41	83	22
71	135	-168
97	147	-211
110	110	-153
110	41	-41
90	-19	42
52	-50	-33
6	-43	-4
-39	-21	24
-71	-15	-46
-89	-39	-72
-91	-92	-173
-86	-136	-189
-78	-147	-77
-69	-105	7
-58	-26	60
-39	54	90
-7	109	93
33	122	61
72	104	45
102	78	20
109	61	0
91	59	22
54	57	35
10	47	3
-30	17	-23
-59	-21	-30
-79	-59	-76
-87	-82	-83
-88	-93	-68
-83	-96	-43
-65	-92	-5
-35	-77	-87
10	-33	-101
58	38	-24
101	127	-40
123	203	-112
120	227	-82
89	183	30
41	87	6
-15	-17	11
-63	-82	17
-96	-83	-55
-111	-41	-25
-107	-13	29
-89	-48	87
-64	-161	138
-37	-301	171
-12	-384	160
12	-340	101
36	-154	-10
62	104	-143
89	324	-218
110	398	-252
123	301	-261
119	87	-254
96	-130	-248
52	-253	-188
-1	-247	-105
-59	-157	-38
-112	-66	58
-141	-43	70
-145	-90	86
-118	-151	108
-67	-155	116
-10	-69	133
46	78	112
85	215	113
102	287	103
101	268	64
90	194	7
77	127	-65
59	99	-132
37	105	-113
4	102	-84
-40	48	-98
-92	-61	-87
-133	-182	-79
-155	-251	-14
-151	-234	46
-121	-136	-22
-80	-15	-46
-33	70	13
8	88	-10
42	57	-9
71	29	-10
89	41	-54
97	101	-43
89	165	-40
65	181	-78
32	120	-106
-5	-3	-108
-40	-130	-53
-65	-202	-13
-80	-189	16
-85	-113	26
-79	-29	10
-63	10	-4
-38	-15	-37
-7	-77	-7
27	-126	11
58	-116	-6
80	-41	14
91	68	43
92	154	28
83	180	-1
69	136	-51
44	53	-100
13	-23	-49
-28	-64	-30
-69	-66	-89
-104	-50	-68
-123	-35	-13
-121	-31	-22
-100	-29	-52
-62	-8	-72
-17	33	-9
31	85	15
75	119	-23
107	115	1
125	76	40
123	17	47
103	-31	23
67	-58	13
28	-69	-3
-7	-84	20
-34	-110	49
-50	-142	26
-60	-162	-17
-69	-144	-97
-78	-91	-128
-85	-19	-78
-81	38	-15
-63	61	-28
-28	54	-49
14	41	-50
55	57	-52
82	112	7
83	189	31
62	244	11
27	238	-43
-9	153	-86
-36	-1	-96
-50	-173	-90
-52	-315	-70
-49	-376	-74
-44	-341	-70
-40	-226	-59
-30	-69	-42
-14	75	-32
12	165	6
40	181	32
65	139	48
79	72	49
78	25	52
65	15	77
44	38	85
20	67	79
-4	66	46
-30	26	8
-52	-45	4
-72	-108	-59
-88	-129	-172
-96	-98	-127
-93	-27	-60
-80	53	-89
-57	119	-50
-26	162	62
13	188	155
50	202	106
86	195	40
109	148	78
120	41	34
114	-105	-172
90	-251	-347
51	-329	-303
-3	-297	-221
-64	-165	-164
-122	9	-72
-160	131	-6
-164	142	52
-129	39	43
-65	-112	54
7	-225	56
64	-228	-11
91	-117	-4
89	41	43
68	164	15
44	180	-21
30	88	-20
20	-54	-55
10	-170	-72
-14	-196	-52
-47	-136	39
-81	-32	84
-99	51	51
-91	77	41
-59	49	26
-14	7	-9
30	-2	-61
62	33	-71
81	103	-83
89	164	-42
91	188	10
88	174	22
78	143	9
54	123	-30
21	116	-40
-19	103	-53
-56	55	-13
-84	-44	28
-98	-178	-28
-95	-298	-61
-81	-351	-55
-57	-313	-34
-26	-198	-2
10	-60	-11
52	46	-8
90	94	-27
119	89	-69
130	70	-59
116	68	-8
78	95	22
22	126	24
-39	127	20
-94	80	31
-128	-7	43
-137	-95	17
-125	-143	-53
-101	-133	-138
-75	-79	-152
-51	-13	-108
-31	31	-43
-9	44	-18
19	39	14
50	39	32
79	58	48
92	89	88
89	109	-10
66	103	-103
32	62	-100
-4	10	-82
-35	-34	-126
-57	-53	-150
-72	-52	-55
-83	-47	-10
-84	-51	-2
-76	-66	60
-54	-74	98
-28	-58	100
5	-14	87
36	41	13
61	75	-63
82	65	-130
94	10	-204
98	-57	-143
86	-105	-40
62	-107	-35
24	-72	-7
-20	-35	-4
-56	-28	-8
-79	-61	-4
-81	-109	9
-68	-126	72
-48	-75	84
-29	43	59
-10	187	44
14	294	60
43	311	57
78	233	29
105	85	-52
117	-66	-157
104	-171	-192
69	-203	-144
27	-174	-86
-15	-119	-47
-45	-67	-64
-66	-43	-95
-85	-45	-20
-102	-62	17
-120	-83	11
-126	-91	20
-111	-78	13
-68	-38	-15
-4	25	-17
58	104	1
105	174	-2
116	208	12
95	190	12
52	121	20
8	31	32
-28	-45	16
-49	-75	16
-58	-56	6
-63	-16	-16
-69	7	-7
-74	-22	-67
-70	-94	-151
-56	-171	-113
-30	-202	-38
7	-153	-50
43	-33	-56
78	110	-14
101	213	-24
112	233	-28
110	163	-19
91	54	-12
61	-40	3
15	-82	15
-35	-67	66
-81	-35	97
-112	-18	69
-115	-36	22
-94	-74	26
-52	-97	68
-8	-78	-44
24	-13	-235
37	65	-263
30	124	-278
18	131	-179
12	94	9
18	37	-42
30	-10	-6
38	-27	97
29	-24	96
-1	-13	69
-42	-13	9
-84	-22	17
-107	-32	20
-109	-32	-11
-90	-21	-78
-56	-7	-107
-18	3	-89
21	10	-49
57	23	-48
91	56	-82
118	99	-43
129	135	26
124	132	54
101	85	16
63	7	-19
15	-62	-68
-34	-94	-85
-77	-86	-92
-111	-68	-105
-128	-94	-38
-126	-178	15
-104	-296	47
-62	-372	62
-10	-341	52
41	-189	63
83	33	53
110	229	-1
122	312	-38
123	261	-5
115	134	21
93	23	6
57	-8	-2
8	45	-38
-44	118	-41
-96	131	-30
-132	46	-35
-145	-101	-8
-139	-229	22
-117	-257	34
-84	-164	8
-42	1	-23
2	150	-52
46	211	-80
86	174	-88
113	85	-72
125	8	-40
117	-12	-19
94	16	-32
54	50	-58
4	44	-56
-56	-9	-42
-116	-87	-32
-166	-148	-58
-188	-165	-51
-175	-140	8
-125	-97	39
-51	-59	31
27	-33	40
91	-5	77
129	39	75
142	101	23
136	157	-116
119	177	-186
89	150	-107
43	92	-116
-19	33	-109
-88	-2	1
-147	-11	47
-176	-21	42
-165	-61	-39
-121	-138	-5
-60	-222	-5
-1	-257	-38
41	-203	32
66	-61	-14
83	116	-21
96	261	-74
107	313	-162
113	265	-209
102	157	-193
74	38	-164
30	-43	-97
-17	-92	33
-55	-123	82
-83	-164	124
-95	-211	75
-96	-241	60
-87	-219	99
-69	-137	99
-43	-19	41
-9	92	-29
26	156	-16
58	166	-55
80	153	-84
91	151	-54
95	183	-36
89	223	-42
78	222	-72
53	133	-39
20	-38	22
-23	-242	48
-68	-393	80
-105	-424	53
-121	-326	19
-113	-154	-34
-85	7	-104
-44	91	-105
-1	84	-83
33	30	-52
59	-5	-49
75	17	-34
83	93	16
83	168	29
74	187	24
50	126	14
14	11	-13
-29	-99	-38
-72	-153	-32
-102	-131	-17
-114	-65	-35
-104	3	-28
-81	35	-20
-53	29	-13
-28	11	7
-10	12	1
9	49	13
30	106	18
52	153	9
75	157	6
86	114	-10
77	44	-45
44	-25	-96
3	-69	-117
-41	-87	-90
-75	-90	-71
-87	-90	-72
-84	-94	-34
-68	-92	21
-49	-76	57
-24	-38	69
4	9	87
35	50	87
68	77	30
95	88	20
109	95	24
105	105	-34
86	120	-128
60	123	-119
33	92	-20
13	16	-35
-7	-94	-102
-30	-196	-145
-61	-249	-189
-102	-218	-179
-138	-120	-138
-161	-3	-166
-154	71	-88
-115	60	18
-50	-25	1
21	-135	9
81	-196	14
115	-163	57
119	-43	34
98	106	-15
63	215	24
26	233	64
-5	157	74
-31	36	7
-49	-72	-21
-62	-133	-61
-68	-144	-110
-66	-131	-100
-53	-118	-91
-27	-112	-48
8	-99	-24
46	-53	37
82	22	49
107	110	38
115	171	38
106	177	-5
83	125	4
46	47	8
2	-18	14
-44	-49	32
-84	-43	29
-109	-27	0
-114	-20	-22
-98	-28	-82
-65	-30	-108
-28	1	-72
4	75	-65
22	174	-51
29	251	-56
31	252	-26
37	157	-4
50	-8	3
66	-182	23
71	-290	48
54	-287	76
17	-186	53
-36	-40	26
-87	68	-12
-120	91	-37
-126	24	-56
-105	-82	-52
-69	-153	-36
-28	-145	-38
10	-53	-27
40	72	-28
63	170	-52
80	195	-86
88	143	-48
87	61	2
74	-3	11
49	-20	35
17	1	29
-17	24	-26
-49	17	-65
-75	-30	-35
-94	-92	-15
-99	-128	-21
-89	-113	-11
-57	-46	0
-13	43	24
39	122	-6
84	158	-11
107	153	19
102	112	-16
74	57	-1
35	-1	-19
1	-55	-121
-22	-99	-114
-29	-121	-92
-34	-114	-150
-43	-79	-182
-62	-33	-155
-85	-8	-35
-100	-21	34
-95	-68	-46
-65	-122	-68
-21	-135	-18
31	-82	26
77	32	56
106	163	8
121	248	-50
120	241	-63
105	138	1
74	-22	24
29	-179	67
-24	-278	115
-78	-294	68
-117	-235	55
-129	-132	66
-113	-24	87
-76	64	45
-26	119	-13
24	137	-132
64	123	-184
92	85	-209
107	35	-224
109	-7	-149
97	-23	-121
71	-6	-27
32	32	16
-16	66	15
-66	76	-3
-110	46	8
-141	-8	53
-158	-57	5
-159	-71	-20
-144	-41	-42
-117	17	-39
-79	69	-32
-32	83	-40
20	43	-1
69	-27	48
110	-92	81
133	-111	81
143	-72	45
133	5	20
111	81	7
78	113	-13
36	88	-28
-8	19	-62
-49	-51	-57
-82	-90	-11
-97	-80	-16
-95	-36	-22
-72	3	6
-36	10	11
7	-23	17
46	-69	18
78	-94	-42
93	-61	-125
92	23	-104
77	123	-43
52	193	-30
24	191	-6
-3	123	-7
-27	29	3
-47	-34	5
-63	-37	11
-76	6	32
-83	43	-19
-86	18	-94
-84	-85	-181
-75	-234	-181
-54	-346	-174
-23	-348	-166
18	-218	-67
60	-6	12
93	191	98
110	283	91
101	236	70
69	91	41
28	-64	2
-17	-150	6
-52	-131	57
-77	-49	95
-91	34	47
-98	63	47
-102	36	-34
-99	-4	-168
-85	-14	-199
-54	30	-144
-10	98	-105
41	139	-71
87	117	-10
115	39	24
123	-49	41
111	-95	29
85	-78	1
52	-27	30
19	9	59
-14	-9	-7
-44	-71	-52
-69	-128	-98
-82	-123	-141
-75	-35	-85
-48	98	21
-8	205	62
33	215	61
62	126	102
71	-21	105
61	-143	48
38	-178	-17
13	-119	-69
-10	-13	-165
-27	65	-184
-46	68	-139
-65	-5	-115
-87	-110	-72
-105	-183	-51
-111	-191	0
-100	-133	13
-68	-44	35
-21	33	34
34	78	-5
86	90	-27
127	95	2
145	103	57
138	119	31
106	131	12
56	122	19
3	90	37
-43	37	28
-71	-17	5
-83	-61	-34
-81	-86	-94
-76	-93	-91
-68	-85	-92
-56	-63	-85
-32	-29	-18
8	18	19
62	68	51
111	108	46
144	123	12
139	104	-4
99	57	-33
36	1	-60
-27	-41	-151
-74	-60	-174
-97	-53	-75
-102	-36	-40
-104	-27	-50
-112	-26	-64
-123	-37	-51
-133	-45	-47
-121	-45	-33
-86	-42	21
-29	-48	48
33	-74	24
85	-107	-22
113	-130	17
119	-113	8
110	-46	-40
94	51	-35
80	137	-80
63	161	-72
38	106	11
4	-4	52
-39	-106	68
-84	-137	50
-118	-66	-30
-131	81	-50
-119	228	-56
-86	295	-107
-35	229	-101
17	51	-71
62	-168	-42
89	-326	21
94	-346	96
78	-224	120
49	-8	92
20	204	91
-4	325	79
-14	317	8
-14	190	-24
-8	9	-133
1	-158	-227
10	-259	-193
20	-282	-153
30	-243	-98
42	-177	-45
52	-106	35
59	-41	34
60	17	-3
50	80	28
34	135	81
9	174	69
-18	177	30
-46	135	14
-71	59	22
-87	-27	-12
-92	-91	-116
-85	-116	-130
-70	-101	-85
-56	-62	-52
-43	-27	-51
-34	-12	-54
-19	-21	-33
2	-33	-41
32	-29	-50
65	5	-20
89	62	12
96	119	15
82	147	2
56	127	-13
25	67	-8
-2	-10	17
-22	-70	32
-43	-97	29
-68	-87	7
-100	-55	24
-130	-30	44
-148	-20	-3
-136	-23	-71
-95	-22	-106
-28	-4	-74
48	35	-13
110	85	24
145	121	6
141	129	-61
111	105	-59
63	55	19
14	0	24
-25	-43	9
-51	-65	-54
-67	-67	-145
-75	-53	-196
-79	-29	-198
-74	0	-187
-60	23	-132
-35	32	-39
-1	17	15
36	-23	74
66	-76	65
84	-120	72
86	-130	2
72	-98	-14
52	-30	53
30	45	20
9	96	9
-10	99	-19
-31	50	-57
-53	-27	-39
-75	-106	-2
-86	-156	37
-85	-159	51
-65	-121	43
-29	-54	35
12	22	33
54	91	40
86	135	-19
107	153	-50
115	143	-61
111	114	-141
95	81	-108
62	58	7
17	62	62
-35	89	72
-86	123	68
-122	136	45
-136	99	0
-123	-3	-81
-91	-155	-142
-43	-308	-176
11	-406	-193
64	-401	-104
110	-280	-25
139	-84	6
140	117	-12
107	241	-35
45	251	-22
-34	149	-36
-111	-2	-17
-161	-131	0
-174	-187	29
-152	-157	24
-110	-81	-11
-66	-8	-15
-32	25	-22
-10	17	-5
6	0	-5
24	4	-21
44	41	-6
63	99	-12
74	145	-27
72	153	-9
62	123	16
50	76	8
44	35	-12
40	23	47
30	37	40
5	62	-38
-37	79	-71
-86	74	-88
-124	42	-43
-131	-16	-80
-103	-92	-106
-48	-174	-41
12	-233	-47
60	-242	-76
85	-177	-145
87	-48	-174
80	102	-75
71	209	9
68	219	118
60	123	192
40	-32	161
2	-167	82
-49	-210	8
-100	-147	-35
-132	-19	-72
-135	91	-134
-108	115	-216
-59	39	-172
-6	-82	-101
38	-166	-81
67	-156	-15
81	-43	26
82	113	0
75	236	36
62	262	103
43	189	102
21	53	53
-6	-85	19
-32	-173	0
-53	-196	-46
-65	-170	-93
-64	-119	-157
-56	-66	-119
-40	-21	-74
-21	16	-9
0	48	75
24	74	51
52	93	38
81	106	12
102	112	27
112	110	19
103	94	13
74	59	43
32	5	60
-16	-59	57
-59	-113	-12
-92	-135	-37
-110	-114	-85
-113	-61	-150
-101	-1	-189
-75	39	-235
-39	51	-158
1	41	-42
33	28	-44
51	32	-32
54	49	8
44	66	14
34	59	-6
23	21	-19
17	-40	27
8	-97	53
-16	-120	20
-51	-102	-33
-95	-58	-48
-121	-23	15
-121	-18	60
-85	-47	30
-20	-88	4
49	-100	-12
103	-65	40
124	13	40
115	102	-25
86	160	12
53	162	29
30	114	-6
15	51	-45
6	11	-135
-10	14	-144
-35	41	-62
-71	57	-42
-109	23	-37
-133	-68	-38
-135	-181	-45
-110	-257	-55
-63	-245	-70
-5	-134	-50
47	31	-43
84	177	-27
96	235	-46
86	180	-63
63	43	-44
37	-99	-34
14	-177	-21
-2	-163	21
-15	-81	71
-27	6	115
-41	45	145
-53	22	119
-60	-29	75
-56	-54	59
-40	-11	1
-10	98	-128
29	215	-266
68	279	-321
99	244	-221
111	117	-96
102	-49	18
77	-181	93
38	-227	127
0	-185	133
-35	-94	77
-58	-14	24
-76	14	-28
-85	-19	-51
-86	-88	-97
-76	-147	-105
-52	-161	-63
-14	-117	-66
32	-29	1
77	74	91
102	163	116
104	215	75
82	227	24
44	192	-9
5	123	-78
-26	31	-176
-44	-65	-157
-56	-152	-124
-67	-199	-155
-81	-194	-98
-94	-138	-64
-97	-48	-28
-88	41	-10
-61	103	36
-24	119	107
12	100	106
42	68	81
65	49	45
78	51	76
86	56	95
91	45	-1
89	5	-138
77	-56	-174
51	-117	-194
13	-153	-137
-34	-154	-8
-82	-135	-7
-118	-118	-9
-137	-117	0
-133	-118	-32
-105	-98	-84
-55	-39	-84
4	55	-68
54	150	-58
91	210	-39
103	206	-30
91	155	30
66	92	82
36	55	95
9	55	91
-16	65	59
-37	47	40
-56	-29	7
-72	-143	-36
-76	-245	-42
-67	-274	-43
-44	-208	-74
-19	-71	-59
4	72	-46
19	165	-78
31	182	-68
42	150	-53
61	117	-24
82	120	22
93	145	40
85	157	25
51	103	1
-3	-15	-12
-58	-156	-6
-102	-245	-48
-119	-222	-36
-109	-94	37
-83	71	68
-48	174	87
-16	151	38
12	8	-78
37	-179	-179
62	-306	-197
85	-304	-135
101	-178	-102
105	-3	-66
94	124	13
67	147	74
27	66	99
-17	-47	52
-63	-127	4
-99	-129	-23
-118	-69	-96
-118	5	-111
-93	46	-109
-56	43	-239
-15	17	-204
22	5	-38
48	30	-41
64	84	100
74	137	185
75	165	86
69	155	56
54	123	31
30	87	32
-4	50	-72
-41	5	-217
-74	-61	-173
-94	-147	-86
-98	-225	-77
-90	-253	-36
-70	-206	-6
-44	-84	48
-14	76	84
20	215	44
52	290	6
79	279	-30
94	201	4
93	83	12
78	-39	9
53	-144	8
21	-214	22
-11	-242	22
-44	-223	1
-71	-159	-13
-91	-75	-42
-95	-1	-35
-83	34	-27
-51	26	-13
-11	-6	-28
30	-28	-31
59	-10	-18
72	45	-18
65	112	-6
44	150	-12
20	137	-33
0	83	-35
-10	21	-10
-13	-13	-25
-11	-13	-16
-15	4	10
-32	0	-9
-57	-42	7
-85	-106	22
-93	-152	-2
-77	-132	-18
-34	-40	-18
26	92	13
82	204	17
118	244	-19
124	200	-22
107	106	7
77	15	-37
45	-35	-158
18	-45	-193
-6	-48	-106
-33	-85	-33
-66	-161	16
-100	-251	65
-126	-300	84
-134	-271	81
-120	-163	12
-88	-20	-57
-42	94	-172
5	143	-317
46	129	-280
75	97	-106
90	100	-30
89	163	-17
69	255	12
42	305	0
10	255	8
-20	79	55
-41	-170	100
-54	-403	100
-62	-521	91
-67	-482	38
-64	-317	-74
-52	-101	-142
-23	71	-97
16	151	-112
61	138	-90
96	88	-34
113	59	-75
111	85	-42
92	154	-19
65	213	40
36	215	96
8	142	137
-20	17	122
-50	-110	1
-79	-189	-92
-103	-195	-123
-114	-142	-128
-111	-65	-30
-91	-3	62
-56	27	61
-15	31	87
31	30	56
74	45	6
107	79	-59
125	123	-87
123	160	-32
101	171	-39
59	149	-28
13	89	30
-33	6	33
-67	-89	12
-89	-171	-25
-97	-223	-62
-93	-219	-82
-80	-165	-96
-59	-72	-61
-32	25	-23
0	95	-19
29	115	-18
52	90	-19
66	46	-16
67	12	-24
58	2	-20
45	16	-27
29	29	-16
13	23	-20
-6	-12	-36
-23	-59	-24
-35	-97	-40
-40	-108	-24
-36	-87	-11
-26	-52	-5
-16	-18	6
-12	2	-36
-19	15	-43
-28	33	-12
-26	65	20
-7	113	68
27	159	110
62	187	135
72	179	101
44	134	-18
-20	56	-141
-100	-42	-268
-161	-142	-313
-180	-227	-160
-148	-268	-42
-84	-254	-36
-15	-183	-34
38	-72	-12
66	34	16
82	109	-21
95	132	-62
115	121	-68
130	98	-107
126	85	-84
93	77	-10
32	45	70
-34	-34	130
-86	-159	65
-111	-278	-2
-110	-326	-69
-95	-263	-8
-76	-106	1
-59	68	-33
-39	171	-50
-8	150	-190
32	32	-111
75	-92	-56
105	-126	-16
115	-36	10
102	129	26
77	272	81
45	299	20
17	195	52
-10	22	60
-40	-117	21
-70	-157	-31
-96	-101	13
-105	-13	36
-96	27	3
-65	-3	-4
-25	-70	-78
12	-98	-70
41	-35	-70
60	99	-63
72	233	-59
80	271	-5
81	183	26
70	7	-1
46	-160	36
13	-230	-12
-27	-183	-55
-62	-66	-50
-87	33	-35
-99	52	-27
-98	-8	-30
-87	-92	-52
-62	-130	-10
-30	-91	34
15	6	22
59	103	56
96	154	106
113	149	130
107	120	77
82	106	15
45	115	-10
8	122	-40
-23	86	-137
-50	-7	-215
-72	-134	-203
-96	-235	-229
-111	-261	-211
-115	-208	-51
-97	-118	-30
-56	-59	-80
4	-67	14
71	-122	30
131	-161	24
172	-118	26
187	10	22
171	174	16
127	287	13
58	282	21
-22	163	-43
-102	-1	-83
-162	-119	-54
-194	-142	26
-191	-80	45
-162	-2	54
-118	27	39
-75	-14	-40
-40	-84	-44
-14	-112	-72
11	-59	-106
36	65	-90
68	191	-85
91	248	-66
99	201	24
86	89	75
55	-14	59
18	-45	-9
-15	8	-103
-37	83	-97
-49	93	-92
-55	-14	-117
-60	-216	-127
-62	-419	-85
-52	-512	12
-28	-426	33
12	-191	36
59	92	57
102	300	58
124	356	61
122	268	49
93	120	58
45	3	67
-8	-32	33
-56	4	-47
-88	49	-71
-97	50	-54
-89	-6	-85
-67	-82	-59
-48	-117	-25
-31	-82	-26
-17	7	28
-2	98	44
25	136	6
62	111	-9
102	54	-12
128	24	22
126	51	46
94	121	24
40	179	-56
-18	165	-176
-60	58	-186
-81	-101	-77
-85	-241	-39
-79	-300	-8
-71	-254	59
-67	-149	54
-55	-49	-33
-35	-5	-112
-8	-28	-82
18	-80	-16
36	-108	7
42	-77	9
42	6	13
45	97	24
52	150	-31
63	139	-94
60	79	-132
33	5	-161
-16	-36	-40
-83	-26	93
-137	22	102
-166	79	117
-159	100	85
-124	72	-6
-77	4	-57
-30	-74	-99
10	-126	-123
43	-134	-179
75	-98	-210
102	-43	-173
118	4	-95
111	24	-30
81	17	16
29	-2	66
-26	-17	76
-70	-14	98
-94	5	93
-94	28	95
-80	43	86
-56	45	-9
-31	37	-157
-4	30	-181
29	31	-61
64	35	-130
99	36	-165
127	17	-8
149	-23	59
158	-76	66
156	-120	67
138	-134	65
97	-112	61
27	-64	38
-68	-17	16
-170	7	20
-251	0	-7
-280	-29	-27
-245	-53	9
-152	-49	-10
-34	-8	-42
75	57	-70
144	122	-104
167	162	-96
150	165	-26
113	140	32
71	103	41
33	68	24
-4	40	-4
-43	15	21
-85	-18	-19
-119	-63	-82
-136	-108	-78
-133	-140	-92
-109	-149	-101
-71	-127	-53
-30	-81	-3
11	-21	-19
49	35	-43
86	82	-84
115	109	-109
132	116	-67
132	104	-57
114	77	43
78	39	112
32	2	24
-14	-28	3
-55	-49	-25
-91	-60	-49
-114	-69	-44
-124	-78	43
-118	-84	118
-93	-79	54
-50	-59	9
-3	-25	-43
42	20	-58
72	61	-82
86	88	-177
85	90	-226
67	68	-143
44	34	-21
16	-5	17
-16	-38	-15
-47	-64	-6
-69	-74	34
-78	-69	41
-63	-53	42
-33	-29	40
3	-10	47
31	-3	-9
39	-14	-71
26	-28	-51
2	-28	-61
-19	6	-160
-22	83	-127
-5	183	-4
18	265	34
35	279	79
28	199	65
-4	21	42
-52	-202	7
-94	-395	-37
-111	-497	0
-96	-459	47
-56	-302	24
-11	-89	-30
28	110	-45
47	233	-94
54	262	-109
58	224	-180
67	165	-204
84	126	-81
98	129	-38
97	155	13
76	163	68
39	121	64
2	8	88
-23	-153	81
-25	-321	41
-8	-434	6
12	-451	-1
19	-358	-16
6	-182	-38
-26	19	-43
-62	187	-4
-83	275	-1
-78	274	-30
-47	205	-2
0	110	-49
38	31	-68
59	-16	-81
52	-34	-39
20	-41	46
-27	-48	72
-69	-57	103
-100	-60	40
-104	-47	-37
-83	-19	-105
-43	14	-147
2	38	-115
39	51	-79
56	57	-91
56	67	-62
44	90	-66
31	112	-119
26	122	-108
30	98	-104
34	41	-58
25	-27	-1
-1	-86	33
-44	-112	53
-90	-104	59
-117	-72	87
-116	-43	74
-87	-27	77
-38	-23	117
8	-19	95
44	2	0
63	38	-111
71	82	-160
76	109	-147
81	110	-211
79	83	-185
68	37	-55
38	-8	-24
-5	-46	-9
-53	-66	32
-90	-70	128
-105	-48	127
-98	8	96
-76	96	41
-45	190	-25
-18	243	-70
5	207	-165
20	60	-106
33	-159	11
42	-373	-46
52	-488	-80
56	-444	-113
56	-259	-162
48	-23	-77
30	145	-45
4	174	40
-26	63	100
-55	-102	32
-76	-211	-9
-78	-199	6
-61	-77	28
-34	75	24
3	169	-5
33	166	-41
57	105	-6
69	66	44
78	106	3
82	219	-65
81	320	-65
74	313	-59
52	158	-32
20	-101	15
-21	-339	12
-65	-441	24
-102	-355	17
-123	-148	-12
-123	58	-31
-102	155	-19
-63	106	6
-16	-13	-9
30	-97	9
68	-63	49
94	75	58
106	229	63
102	287	57
81	200	13
44	12	-65
-5	-169	-179
-57	-238	-264
-103	-174	-217
-127	-36	-119
-129	70	-74
-110	68	-44
-78	-31	-10
-44	-154	42
-14	-201	40
10	-130	11
38	23	9
70	171	-10
107	237	-36
139	192	-66
154	83	-52
139	-13	1
93	-46	22
19	-17	43
-63	28	79
-140	35	55
-188	-12	14
-202	-89	-44
-176	-145	-78
-121	-149	-97
-52	-98	-108
8	-28	-13
51	22	64
72	41	77
79	43	60
81	54	80
83	88	39
86	125	-145
80	137	-329
55	105	-246
14	39	-17
-38	-29	32
-87	-59	24
-115	-44	-54
-113	-6	-144
-83	14	-157
-34	-15	-139
22	-89	-52
72	-170	-21
107	-208	-46
122	-179	-40
113	-100	11
85	-4	48
42	61	107
1	79	155
-29	52	186
-47	16	215
-50	-9	174
-47	-17	51
-46	-16	-106
-52	-24	-167
-57	-41	-194
-57	-52	-145
-47	-35	-56
-28	22	-52
-7	106	-24
10	187	-42
17	225	-41
21	200	-25
27	115	-28
39	1	14
56	-100	-12
65	-161	-25
60	-162	5
31	-117	-4
-13	-47	20
-60	18	39
-95	58	-37
-106	60	-55
-93	23	-42
-63	-41	-48
-28	-115	-36
5	-168	-44
33	-178	-33
57	-130	-18
80	-35	-34
94	76	-18
100	166	-1
91	195	-16
67	158	-9
29	68	-14
-14	-28	-22
-56	-93	-20
-92	-105	-36
-117	-70	-25
-128	-26	36
-126	1	60
-108	-5	38
-74	-28	9
-26	-42	-55
29	-26	-63
86	24	-66
133	84	-51
166	123	10
172	122	9
154	82	28
105	25	15
28	-23	-44
-64	-44	-162
-153	-42	-246
-218	-27	-174
-240	-8	-117
-211	10	-52
-143	32	-5
-59	55	16
14	75	48
63	72	64
85	38	64
91	-22	12
93	-84	3
100	-117	25
111	-107	26
113	-57	7
98	3	1
62	42	-12
15	38	-9
-33	-5	9
-67	-69	-82
-85	-133	-112
-90	-173	-75
-82	-186	-67
-68	-169	-34
-48	-124	4
-20	-53	6
16	36	-6
57	122	-22
93	181	-21
114	189	-28
111	148	-21
86	76	-27
40	11	-60
-20	-21	23
-80	-10	77
-130	30	56
-159	70	-23
-159	90	-91
-128	80	-68
-75	51	-81
-13	17	-69
41	-14	-36
77	-41	-67
87	-70	-57
78	-96	56
59	-108	123
38	-99	135
21	-66	109
10	-29	-25
-3	-4	-70
-15	-5	-84
-30	-27	-165
-47	-53	-72
-61	-64	-22
-66	-54	-24
-55	-37	-6
-30	-25	-124
10	-29	-182
57	-33	-165
95	-18	-58
118	31	60
117	104	62
98	168	39
67	185	56
34	139	60
5	50	32
-24	-45	-42
-53	-101	-89
-84	-98	-87
-109	-54	-67
-123	-5	27
-121	16	27
-99	5	-4
-64	-21	31
-24	-29	11
12	-3	-30
41	50	-128
63	105	-221
77	129	-209
81	106	-133
69	43	-17
50	-38	64
20	-113	97
-11	-166	98
-34	-178	84
-46	-153	56
-45	-95	-9
-40	-20	-52
-35	52	-22
-37	101	-18
-39	106	-26
-32	74	-11
-12	13	-6
28	-42	24
75	-72	1
113	-69	-25
130	-44	-23
113	-14	38
72	7	59
17	11	3
-36	6	-15
-77	2	-42
-100	2	-54
-111	5	-52
-114	6	-63
-111	1	-55
-97	-8	-14
-68	-12	-17
-23	-7	-63
33	10	-61
87	41	-3
120	81	-21
123	117	-63
99	133	-34
57	117	-31
16	58	-24
-14	-35	-6
-28	-138	-50
-34	-218	-60
-39	-243	-20
-56	-204	-9
-83	-121	-3
-112	-30	-35
-129	35	-95
-120	65	-36
-80	70	65
-14	79	103
64	102	89
132	135	5
172	158	37
171	145	74
131	99	-27
65	37	-162
-5	-7	-236
-65	-23	-134
-106	-23	-37
-124	-41	-3
-125	-98	-54
-116	-187	-47
-98	-264	21
-68	-278	-7
-30	-198	-100
16	-45	-176
62	119	-147
97	224	-97
117	228	9
116	147	53
104	38	66
83	-39	85
54	-55	35
21	-26	-1
-19	5	-22
-60	0	20
-98	-44	65
-117	-101	-16
-109	-124	-141
-76	-93	-157
-24	-15	-58
28	68	30
65	122	26
82	128	3
81	100	-21
69	65	-63
55	48	-13
42	50	49
24	55	35
-1	45	45
-38	19	46
-78	-13	20
-108	-31	-36
-122	-25	-41
-111	0	-16
-76	29	-44
-23	45	-1
33	40	2
85	17	13
121	-22	16
138	-70	-30
133	-129	9
107	-186	13
70	-222	-30
29	-211	-74
-8	-144	-57
-39	-40	-30
-65	70	-77
-93	140	-105
-124	147	-59
-154	98	-12
-170	25	-44
-160	-36	-117
-112	-70	-117
-33	-78	-44
56	-66	12
130	-43	42
167	-1	53
162	61	53
123	129	-19
76	160	-89
36	118	-97
17	-2	-74
6	-159	-69
-10	-271	-62
-41	-278	22
-86	-165	75
-126	4	110
-148	138	142
-132	169	150
-85	95	115
-23	-13	0
35	-69	-151
72	-22	-242
83	102	-231
74	215	-131
58	244	-37
42	158	4
27	11	66
10	-113	79
-17	-149	13
-51	-96	-64
-87	-14	-92
-113	26	-124
-116	-8	-180
-97	-87	-172
-58	-144	-115
-12	-126	-41
35	-32	19
74	90	57
102	178	52
120	191	11
123	147	18
115	86	43
91	50	53
54	43	75
10	33	80
-34	-13	48
-67	-108	23
-88	-211	21
-89	-270	-86
-79	-238	-169
-57	-125	-101
-33	15	-35
-8	117	-63
16	138	-87
36	94	-36
55	29	-16
68	0	-22
69	21	-24
64	70	-14
46	100	-4
24	75	46
-1	1	85
-25	-88	84
-44	-141	99
-59	-138	101
-65	-91	52
-65	-33	-68
-54	4	-138
-36	18	-59
-11	27	-24
15	61	-54
35	129	-56
49	218	-63
50	295	-71
42	319	-124
28	273	-187
9	155	-159
-11	-16	-78
-31	-219	-56
-48	-416	-30
-61	-562	7
-68	-612	54
-69	-527	69
-63	-317	5
-49	-34	-11
-30	224	-1
0	366	11
30	345	2
59	190	-22
82	-8	-10
90	-142	-3
83	-150	54
59	-44	82
29	94	79
-4	174	75
-30	145	61
-45	29	36
-50	-100	-111
-43	-164	-219
-33	-130	-194
-22	-26	-137
-15	85	-78
-17	141	1
-22	133	29
-29	88	26
-27	56	19
-14	68	-78
13	120	-129
43	165	-84
66	159	-101
67	89	-109
36	-23	-38
-17	-126	-6
-83	-182	36
-134	-173	85
-152	-112	82
-133	-43	14
-80	5	-65
-12	15	-60
50	-4	-41
92	-35	-77
109	-56	-68
107	-59	1
95	-47	21
83	-24	38
66	1	44
48	20	44
22	26	42
-11	14	-1
-47	-15	-19
-79	-53	-12
-96	-86	19
-97	-97	24
-78	-74	24
-45	-19	37
-4	56	-26
37	132	-116
72	188	-103
98	205	-68
111	171	-115
111	103	-107
104	10	-34
85	-77	-11
54	-127	2
14	-127	22
-37	-81	-31
-95	-15	-14
-142	28	37
-169	13	30
-162	-64	36
-122	-174	13
-63	-254	-30
-3	-250	-38
42	-143	-77
66	32	-103
74	205	-88
68	305	-105
63	291	-136
56	188	-158
46	62	-74
26	-19	32
-7	-17	85
-45	41	59
-81	94	35
-100	79	85
-98	-28	6
-80	-181	-32
-48	-303	-59
-16	-321	-83
14	-216	-37
39	-37	-47
57	132	-6
69	210	9
78	174	26
77	61	35
67	-49	40
52	-94	49
28	-53	-3
0	33	-69
-28	96	-81
-53	85	-70
-65	-5	-127
-65	-124	-96
-51	-200	-58
-32	-188	-30
-14	-91	3
-5	36	29
-6	126	35
-8	134	0
-4	71	7
13	-15	-14
34	-66	-34
48	-56	-7
42	-1	33
12	54	16
-32	61	-66
-74	9	-181
-93	-72	-207
-87	-135	-64
-58	-134	-33
-21	-72	-19
14	22	41
46	100	11
78	131	57
110	120	56
141	92	36
156	76	20
140	81	-3
88	93	-2
7	84	-35
-84	39	-43
-158	-32	-26
-197	-103	-35
-197	-142	-64
-168	-136	-79
-124	-97	-43
-80	-49	32
-41	-12	60
-4	10	81
37	26	62
86	47	46
140	75	50
187	103	-28
210	110	-68
194	98	-70
132	67	-98
39	31	-120
-66	-4	-61
-154	-42	-42
-202	-90	-105
-199	-149	-82
-159	-192	-63
-107	-189	-30
-59	-108	64
-32	45	52
-14	215	-66
6	327	-151
38	305	-74
84	139	13
124	-117	31
141	-354	35
126	-469	-88
82	-410	-131
24	-212	21
-24	26	67
-53	199	-2
-65	250	26
-67	195	52
-71	105	9
-77	50	-30
-70	54	-50
-48	79	-3
-4	58	-20
47	-36	-116
96	-179	-139
120	-282	-91
117	-267	-2
97	-113	-12
69	106	-46
45	274	-10
27	283	17
6	123	55
-24	-117	65
-61	-305	1
-95	-330	-48
-118	-192	-58
-119	23	-76
-97	188	-79
-60	224	-67
-20	135	0
16	13	32
46	-43	5
69	3	26
87	114	32
94	202	30
86	193	46
56	81	43
6	-74	21
-53	-182	0
-115	-192	-71
-157	-118	-182
-172	-26	-200
-159	16	-147
-118	-11	-116
-62	-74	-30
0	-108	52
56	-74	69
98	21	65
121	130	29
125	190	-52
117	181	-114
99	123	-57
76	70	-27
45	56	-47
12	81	-64
-25	98	-5
-60	60	24
-87	-47	45
-99	-196	106
-93	-319	48
-75	-351	36
-43	-268	9
-7	-106	-23
27	61	-24
58	170	-27
81	186	-75
92	129	-130
87	45	-124
66	-13	-135
32	-29	-90
-6	-15	-57
-39	0	-24
-63	-13	-5
-72	-52	21
-75	-94	80
-69	-104	47
-64	-61	8
-58	26	36
-43	131	57
-16	206	49
26	222	12
82	165	-40
138	53	-38
186	-70	-78
205	-167	-90
190	-195	-89
135	-149	-74
48	-47	5
-54	67	-17
-153	142	-9
-224	143	40
-248	65	56
-226	-49	22
-164	-141	-19
-84	-154	-30
-11	-72	-39
38	62	-16
59	177	-5
59	195	5
54	93	-27
54	-86	-131
58	-253	-194
58	-319	-164
42	-246	-122
9	-84	-63
-39	70	15
-84	126	34
-111	52	56
-114	-96	26
-94	-223	16
-62	-238	72
-26	-123	24
10	57	-9
42	213	-7
75	270	-24
102	229	-36
117	142	-26
113	89	12
93	100	69
57	145	42
17	162	-92
-19	97	-88
-48	-39	-12
-68	-186	-13
-84	-263	-84
-93	-230	-120
-89	-121	-106
-65	-12	-143
-27	29	-155
19	-11	-150
57	-84	-51
75	-115	62
67	-59	80
43	63	69
15	187	16
-3	233	5
-11	179	10
-10	52	-24
-11	-75	-54
-16	-145	-17
-28	-148	42
-40	-111	38
-44	-85	-23
-41	-83	-64
-30	-91	-18
-13	-69	26
11	2	37
40	108	58
76	199	52
111	227	22
135	179	-70
135	85	-137
105	-1	-91
51	-39	-58
-13	-35	-34
-74	-19	-40
-119	-30	-65
-148	-77	-15
-159	-131	-16
-153	-153	-2
-130	-114	20
-85	-29	-79
-27	63	-86
38	120	-20
89	130	-29
114	116	-32
107	110	-67
78	132	-89
42	156	10
12	131	93
-8	24	130
-24	-151	164
-38	-332	152
-55	-432	81
-69	-393	4
-70	-238	-71
-51	-37	-98
-11	112	-96
38	155	-168
83	99	-177
110	13	-131
111	-23	-100
86	24	-76
38	126	-127
-17	209	-79
-68	215	24
-101	148	100
-110	53	174
-99	12	176
-80	56	149
-65	150	70
-60	205	6
-58	143	-106
-49	-52	-234
-19	-308	-291
29	-492	-262
81	-504	-170
116	-325	-86
122	-43	-32
102	198	21
69	289	28
41	207	-2
26	32	45
18	-117	31
4	-156	-27
-28	-89	-47
-70	9	4
-112	43	51
-132	-22	56
-121	-140	104
-85	-215	124
-34	-166	136
14	2	75
55	208	-99
87	341	-177
111	335	-113
125	203	-69
126	31	-86
107	-83	-116
69	-95	-63
23	-35	9
-23	24	8
-55	19	8
-75	-53	-70
-82	-145	-91
-80	-189	30
-70	-150	78
-52	-45	42
-26	65	32
5	124	22
31	118	4
44	69	-38
50	27	-66
49	19	-17
51	45	-1
55	76	-48
52	75	-40
28	40	-38
-26	-15	-96
-98	-56	-61
-166	-69	-56
-200	-58	-50
-186	-43	-19
-125	-43	-19
-42	-52	49
32	-61	46
83	-47	13
106	-13	0
115	30	26
121	59	76
125	65	70
118	55	61
86	51	71
26	65	-9
-52	85	-195
-124	88	-157
-170	43	-94
-179	-51	-172
-156	-163	-144
-116	-243	-130
-76	-234	-190
-42	-119	-158
-11	71	-119
27	274	-106
72	403	-9
122	399	33
159	250	45
172	0	69
151	-275	84
105	-481	48
42	-557	10
-15	-488	-52
-57	-309	-71
-77	-96	1
-77	75	57
-64	145	80
-51	116	70
-38	26	102
-28	-61	110
-12	-88	105
9	-36	64
39	76	10
69	190	-12
93	261	-38
96	261	-68
77	202	-105
39	116	-108
-8	36	-64
-50	-15	-72
-83	-47	-158
-102	-71	-151
-110	-99	-101
-113	-125	-127
-110	-129	-125
-96	-100	-6
-65	-34	82
-18	43	89
43	111	119
107	147	98
155	143	40
175	119	-24
164	91	-31
123	68	-24
66	48	-40
6	18	-12
-45	-29	7
-86	-87	22
-109	-131	11
-119	-145	-32
-116	-117	-51
-96	-57	-110
-64	7	-180
-24	56	-115
13	72	-23
42	65	10
54	49	37
54	41	10
46	45	-62
33	49	-74
22	39	-50
8	1	-40
-11	-58	-52
-37	-127	-7
-68	-178	29
-93	-198	-48
-105	-183	-54
-94	-142	-49
-64	-91	-42
-24	-37	7
20	9	18
59	51	40
93	86	52
115	114	5
127	125	-55
121	120	-93
93	106	-119
42	100	-95
-22	114	-53
-86	153	-28
-136	200	-24
-162	215	-11
-160	162	-11
-133	20	-21
-88	-192	51
-35	-409	72
21	-546	49
69	-527	55
105	-334	38
117	-28	-43
106	283	-86
82	468	-72
56	438	-55
40	221	-50
31	-95	-59
19	-362	-22
-6	-466	-35
-53	-376	-82
-111	-159	-79
-158	65	-15
-169	185	-3
-136	166	-10
-65	53	-21
17	-56	-18
89	-77	35
132	6	7
148	144	38
144	256	103
132	275	112
117	197	106
97	67	86
65	-41	68
21	-91	-3
-30	-77	-56
-76	-37	-107
-108	-12	-168
-121	-15	-121
-117	-33	-151
-102	-36	-160
-78	-3	-64
-47	59	-34
-11	124	48
30	160	36
66	151	-49
96	101	-101
104	31	-61
90	-43	38
58	-109	26
14	-162	-101
-28	-194	-142
-62	-202	-54
-83	-179	-3
-90	-129	13
-88	-68	36
-79	-20	30
-68	3	3
-56	5	52
-38	5	-1
-14	19	-98
16	60	-87
47	106	-86
71	135	-84
81	123	-69
68	72	-44
38	6	-3
-2	-50	74
-47	-75	136
-81	-70	133
-96	-54	149
-95	-49	110
-77	-53	-21
-50	-58	-120
-19	-48	-187
15	-13	-231
44	39	-265
69	87	-215
86	110	-111
90	102	-26
83	74	22
68	43	-9
49	22	8
32	8	45
19	-9	49
5	-43	53
-14	-90	26
-40	-130	40
-74	-142	100
-99	-105	84
-106	-25	29
-85	76	-17
-40	160	-50
16	198	-50
62	180	-61
86	115	-46
83	33	13
60	-37	12
35	-67	-16
18	-57	-71
10	-23	-99
1	4	-75
-20	-3	-35
-54	-53	1
-97	-136	6
-129	-211	28
-139	-243	34
-117	-207	7
-67	-118	-25
-8	-13	-15
50	74	-5
97	122	-30
124	145	-28
134	170	-19
125	208	-7
101	243	16
59	223	-38
9	110	-78
-42	-98	-80
-84	-334	-85
-107	-504	-31
-110	-523	36
-93	-370	84
-59	-115	-24
-16	126	-89
29	252	-106
74	233	-144
107	122	-68
127	20	-31
131	4	54
117	74	83
92	171	72
55	219	61
13	170	-15
-33	47	-20
-83	-81	-53
-123	-145	-95
-150	-125	-132
-156	-52	-116
-138	10	-41
-107	22	-127
-64	-12	-114
-24	-51	8
13	-46	65
45	12	86
72	98	45
93	159	15
98	160	-18
89	101	-43
57	17	-44
15	-45	-40
-32	-67	-71
-74	-56	-82
-100	-46	-53
-112	-56	-74
-110	-91	-93
-97	-122	-54
-76	-120	0
-45	-74	38
-7	2	43
36	77	47
81	121	6
117	123	-50
136	98	-53
136	63	-49
116	33	6
80	14	19
34	-6	10
-14	-32	-21
-53	-56	-44
-81	-68	-46
-89	-59	-40
-75	-33	-2
-39	-4	-23
10	10	-18
57	6	-18
89	-8	-11
90	-14	8
57	8	6
3	49	-3
-52	88	-8
-89	91	-1
-93	45	-7
-71	-41	4
-44	-134	-18
-28	-192	-14
-36	-191	8
-58	-138	16
-79	-68	20
-76	-15	20
-44	7	38
7	11	22
52	34	-28
84	99	-63
88	200	-78
78	290	-95
61	313	-92
46	230	-82
33	50	-79
7	-160	-69
-27	-320	-20
-71	-368	26
-109	-297	82
-126	-160	130
-115	-42	152
-82	-5	136
-38	-52	53
2	-140	-54
35	-189	-192
64	-150	-235
93	-21	-215
119	140	-189
136	257	-176
135	279	-203
111	203	-121
66	83	-48
16	-17	-9
-28	-54	33
-60	-29	78
-79	21	147
-91	55	109
-98	49	42
-100	13	15
-91	-25	-29
-64	-40	-102
-26	-30	-154
22	-11	-75
62	5	30
89	9	46
96	10	9
86	21	-30
66	45	-105
40	66	-122
11	61	-30
-23	20	0
-55	-51	33
-86	-117	79
-107	-151	84
-111	-134	43
-97	-78	60
-65	-16	54
-26	30	19
17	48	9
58	51	-82
89	59	-92
107	84	-75
111	113	-68
99	125	-81
74	105	-103
40	50	-89
5	-17	-68
-28	-70	-21
-56	-96	-5
-77	-88	2
-88	-64	9
-92	-40	3
-84	-24	-14
-59	-13	-36
-20	0	9
32	15	37
85	27	27
126	25	40
138	13	21
115	-6	-14
58	-16	-37
-12	-11	-58
-79	3	-60
-121	6	-32
-133	-14	-21
-119	-59	-27
-96	-110	-10
-75	-137	-12
-59	-121	7
-37	-58	37
0	29	47
62	115	34
132	177	22
187	201	16
196	192	-48
144	150	-112
49	85	-173
-57	0	-234
-135	-96	-205
-158	-180	-65
-126	-230	52
-71	-224	103
-28	-156	136
-22	-42	160
-51	85	151
-93	181	10
-114	213	-172
-95	162	-260
-38	35	-136
31	-132	-84
86	-289	-144
111	-376	-151
104	-351	-143
80	-216	2
52	-22	63
32	155	118
16	239	127
-2	200	82
-26	66	79
-53	-84	-36
-72	-167	-120
-78	-149	-156
-63	-43	-128
-34	79	-63
-2	153	4
28	150	74
52	93	4
71	43	-93
83	39	-59
86	90	-37
80	153	-39
57	174	-59
28	128	-42
-5	28	47
-28	-74	38
-40	-130	39
-41	-122	43
-35	-69	35
-30	-12	42
-25	15	26
-20	8	18
-8	-5	8
8	-2	19
27	31	25
44	78	14
50	106	-10
49	96	-39
36	48	-64
23	-12	-59
6	-56	-20
-16	-70	14
-43	-66	24
-71	-62	-22
-96	-75	-47
-106	-102	-57
-98	-120	-93
-71	-111	-151
-37	-63	-164
0	8	-81
26	84	-57
46	143	-21
58	171	-18
67	171	-7
69	147	85
63	104	25
44	43	-55
10	-21	-51
-29	-81	-24
-69	-129	-10
-96	-159	40
-105	-178	129
-95	-192	143
-68	-205	91
-28	-198	-17
19	-154	-79
70	-66	-40
117	47	-80
150	148	-194
155	188	-290
129	150	-280
72	57	-80
5	-37	-20
-56	-86	-38
-93	-66	-13
-101	-7	-4
-90	35	85
-72	22	84
-70	-44	51
-82	-120	25
-96	-149	1
-99	-96	-44
-75	14	-97
-18	127	-71
61	183	-63
141	159	-53
203	81	-4
226	6	43
201	-17	51
128	18	49
21	79	95
-101	112	130
-203	84	119
-262	1	22
-259	-97	-80
-197	-154	-71
-101	-142	-92
-6	-61	-154
58	49	-155
81	142	-124
69	180	-89
52	148	-32
46	62	32
59	-36	25
82	-104	17
93	-111	14
78	-52	-7
38	40	-30
-13	113	-50
-61	112	-7
-93	17	27
-106	-138	-11
-104	-286	-51
-91	-345	-71
-67	-278	-35
-28	-112	-6
22	67	-55
77	171	-15
121	160	54
140	57	32
133	-51	17
103	-88	-22
62	-24	-41
23	97	-77
-10	190	-87
-38	192	-58
-67	99	-101
-95	-33	-63
-115	-121	-18
-114	-127	42
-91	-63	64
-46	8	83
5	33	145
50	0	167
79	-54	173
91	-69	71
94	-17	-58
90	83	-115
81	164	-179
64	168	-379
33	81	-382
-11	-52	-222
-63	-162	-176
-109	-195	-99
-136	-148	-17
-139	-65	52
-116	0	56
-76	14	76
-25	-9	134
23	-26	138
62	-6	115
85	57	48
89	131	22
78	180	-3
54	185	-90
28	157	-75
4	126	-45
-16	110	-50
-35	95	-40
-58	47	-31
-83	-56	15
-102	-207	24
-106	-348	1
-89	-402	-21
-47	-326	40
6	-141	93
58	75	23
97	221	-10
116	238	-75
117	136	-140
107	-7	-154
93	-100	-172
72	-86	-48
44	14	22
8	128	42
-33	179	36
-69	129	-25
-95	15	-71
-107	-102	-135
-106	-157	-124
-101	-138	-96
-93	-82	-32
-80	-42	-15
-50	-51	7
0	-95	48
63	-127	42
125	-107	58
162	-27	53
155	79	19
106	155	-20
32	165	-59
-41	113	-60
-88	33	-21
-102	-30	-5
-94	-59	13
-79	-64	21
-69	-67	-17
-67	-89	-44
-59	-112	-55
-34	-112	-19
11	-59	-5
60	35	-20
97	143	-42
104	215	-59
77	219	-10
34	161	38
-6	72	13
-29	1	-23
-37	-31	39
-43	-23	63
-54	-2	24
-76	7	45
-91	-5	15
-88	-34	11
-54	-60	11
4	-74	-39
63	-68	-31
107	-46	-21
124	-12	10
117	34	21
97	84	-106
77	122	-187
58	125	-176
36	77	-171
3	-21	-129
-42	-137	-93
-92	-223	-124
-130	-243	-151
-148	-188	-155
-138	-93	-106
-112	-6	22
-72	35	37
-34	25	53
7	-2	66
47	-7	52
90	33	74
127	104	7
151	165	-89
151	174	-91
123	122	4
75	32	59
16	-53	71
-44	-99	49
-89	-98	43
-112	-69	62
-113	-45	0
-97	-37	-44
-74	-34	-61
-51	-17	-61
-37	28	-45
-27	85	-38
-16	121	8
7	109	22
42	40	-10
80	-49	-56
105	-116	-62
103	-118	-17
67	-59	-30
11	24	-65
-47	77	-90
-83	66	-30
-87	7	44
-60	-61	48
-22	-85	51
16	-41	12
38	43	-5
42	115	-1
31	122	-25
13	53	-50
-2	-57	-90
-12	-153	-97
-9	-183	-77
2	-141	-70
20	-62	-56
30	0	-21
20	15	0
-12	-20	10
-63	-66	18
-117	-86	15
-154	-58	14
-154	2	7
-117	68	39
-52	115	101
16	131	70
75	132	24
111	127	-14
128	118	-40
131	91	-37
130	34	-120
121	-43	-126
100	-117	-36
58	-154	-11
4	-143	14
-57	-98	-4
-109	-54	-116
-137	-44	-151
-138	-69	-54
-113	-94	32
-72	-78	61
-25	4	66
21	135	77
58	259	49
86	312	-27
97	262	-86
91	129	-192
65	-32	-147
26	-162	28
-19	-215	0
-60	-196	-131
-88	-143	-205
-98	-90	-63
-90	-65	51
-66	-64	-71
-35	-69	-71
1	-57	-40
34	-22	-44
58	28	-47
71	79	-54
70	110	-16
56	119	-22
33	105	-10
11	80	-40
-11	49	-32
-24	17	4
-34	-9	-15
-41	-36	21
-48	-53	37
-57	-61	40
-64	-56	41
-65	-39	17
-57	-15	-16
-34	8	-65
-4	20	-125
32	17	-108
62	3	-30
85	-11	5
93	-11	44
87	6	50
72	37	62
48	59	57
22	61	11
-8	34	17
-37	-8	30
-64	-41	10
-85	-44	-9
-91	-9	-34
-89	43	-49
-75	91	-43
-54	101	-39
-31	68	-36
-4	6	-32
29	-67	-4
66	-126	8
105	-163	16
132	-173	24
140	-157	19
117	-119	9
63	-63	-47
-6	-5	-91
-68	38	-65
-107	43	-57
-109	4	-90
-82	-61	-137
-38	-117	-141
-1	-123	-19
17	-66	4
15	33	-20
-1	132	21
-14	189	61
-13	183	82
2	129	12
25	72	-69
41	42	-128
38	53	-43
13	88	55
-27	109	11
-69	91	-72
-101	28	-19
-108	-61	80
-95	-153	40
-65	-216	-49
-29	-238	-142
7	-211	-150
38	-140	-125
66	-37	-91
90	72	-5
102	159	91
100	195	113
79	168	124
42	92	135
3	0	82
-30	-67	29
-47	-92	-34
-52	-82	-56
-51	-56	-113
-55	-46	-194
-64	-55	-158
-70	-66	-57
-63	-56	-82
-35	-11	-155
10	59	-131
57	125	-71
93	153	-57
101	132	-49
89	79	29
64	18	39
39	-19	43
20	-32	-1
1	-31	-115
-26	-42	-143
-64	-70	-120
-109	-108	-71
-144	-130	-20
-154	-122	14
-130	-80	30
-76	-17	54
-8	45	51
56	98	42
102	135	20
123	165	-16
122	189	8
106	197	39
81	183	44
49	135	60
15	56	30
-16	-43	-9
-42	-150	-28
-58	-248	-33
-64	-330	-4
-62	-379	-8
-56	-379	-31
-50	-311	-26
-39	-174	29
-23	0	86
6	162	28
44	256	-4
80	253	26
104	171	-7
102	64	-101
72	-5	-122
23	-14	-50
-29	24	-32
-71	57	-2
-97	45	7
-106	-22	1
-107	-106	-17
-102	-154	-130
-93	-130	-195
-75	-45	-170
-38	55	-117
13	120	-31
68	120	40
114	78	43
136	34	40
132	24	26
105	58	18
68	105	-30
26	127	-105
-11	100	-86
-45	35	-62
-75	-33	-42
-94	-79	8
-101	-88	15
-87	-75	5
-54	-58	1
-10	-52	28
36	-45	78
70	-23	68
87	17	40
86	63	9
72	86	0
56	66	31
40	7	43
24	-61	16
3	-102	-85
-27	-99	-121
-64	-63	-129
-104	-30	-188
-135	-28	-142
-147	-64	-174
-132	-110	-190
-93	-126	-46
-38	-91	9
18	-8	60
66	86	102
99	151	90
113	168	99
111	144	39
98	114	-28
72	98	-45
38	98	10
-3	86	70
-43	37	60
-77	-58	7
-96	-175	-59
-101	-260	-75
-91	-270	-83
-70	-186	-165
-46	-36	-187
-18	125	-122
13	235	-54
48	259	-23
87	201	-87
126	104	-71
154	24	14
159	-4	67
130	23	50
68	64	41
-15	65	18
-107	-17	-82
-180	-184	-147
-215	-379	-95
-207	-519	-42
-157	-524	11
-84	-371	69
-2	-112	54
61	149	56
105	305	39
123	313	45
124	203	32
115	65	-31
94	-11	-97
67	15	-99
32	103	-67
-10	168	-59
-50	147	-21
-88	30	-10
-109	-118	42
-115	-215	76
-102	-202	79
-77	-87	69
-43	64	42
-7	170	-8
24	189	-107
48	136	-125
65	63	-107
75	28	-123
79	43	-117
75	85	-57
64	110	-12
42	85	27
13	13	49
-23	-80	46
-59	-151	25
-89	-180	-26
-105	-171	-49
-105	-138	-58
-93	-98	-37
-68	-49	43
-38	11	79
-1	83	74
38	150	50
78	186	33
110	171	54
127	103	-30
123	3	-172
94	-94	-211
46	-154	-135
-7	-163	-75
-58	-132	-43
-95	-87	-65
-115	-54	-112
-116	-44	-125
-103	-52	-77
-78	-63	-3
-43	-57	39
-4	-25	71
38	30	75
77	92	87
105	142	64
119	169	29
115	168	-24
97	143	-57
68	100	-30
37	45	37
8	-17	84
-17	-81	100
-38	-133	56
-61	-157	-57
-88	-129	-124
-117	-57	-138
-141	43	-206
-151	127	-278
-133	157	-189
-86	101	-96
-17	-20	-49
56	-154	-65
111	-242	8
132	-237	59
117	-141	-25
71	-6	-74
17	98	-79
-29	119	-1
-56	52	23
-68	-60	57
-66	-153	65
-59	-171	50
-46	-106	37
-26	3	-17
4	105	-8
40	158	33
74	158	46
100	136	40
109	126	36
106	143	-9
99	168	-43
93	165	-64
81	103	-45
51	-12	15
-2	-142	5
-80	-237	-84
-164	-254	-111
-224	-190	-40
-234	-76	-20
-186	43	8
-96	117	11
2	127	4
79	76	32
111	-11	34
110	-96	-1
89	-144	-42
68	-142	-18
59	-92	-55
51	-12	-67
35	57	-56
0	84	-59
-47	52	-14
-92	-21	-11
-120	-98	6
-119	-140	26
-97	-119	37
-60	-45	66
-20	45	-8
18	114	-118
52	134	-99
82	113	-47
103	79	-57
107	61	-35
95	68	-23
62	85	-50
22	82	-46
-21	40	-72
-57	-31	-157
-83	-106	-194
-99	-153	-114
-103	-158	-18
-96	-122	-19
-75	-69	26
-39	-17	83
2	30	98
43	76	112
75	122	68
94	160	58
101	164	16
102	116	-27
96	20	-36
80	-92	-65
52	-171	-92
11	-178	-100
-39	-113	-10
-86	-9	12
-116	75	-51
-124	92	-36
-112	38	-5
-87	-51	16
-58	-121	5
-28	-127	15
1	-62	26
32	41	22
65	131	-17
95	170	-27
111	145	23
110	84	28
91	27	-14
58	8	-100
23	32	-151
-5	67	-142
-32	71	-78
-51	9	-74
-69	-120	-144
-84	-275	-121
-87	-388	-14
-72	-398	50
-33	-289	59
27	-97	20
95	103	22
151	232	41
175	244	-16
152	161	-71
84	36	-93
-14	-57	-78
-110	-82	-41
-181	-45	5
-205	10	42
-185	38	24
-138	23	-11
-91	-20	-1
-59	-51	12
-50	-44	21
-48	2	33
-36	60	-7
-4	100	-4
49	103	7
105	80	-4
139	53	-23
139	45	-77
107	55	-82
56	64	1
4	48	43
-32	7	36
-54	-49	14
-61	-94	-26
-63	-101	-69
-60	-74	-133
-50	-29	-143
-33	7	-89
-6	22	-22
23	19	-44
50	13	-41
71	21	2
81	43	-27
80	66	12
68	68	-2
49	43	-39
23	-4	-4
-7	-60	1
-40	-99	-47
-72	-113	-38
-98	-102	14
-112	-79	32
-113	-52	43
-98	-30	-45
-64	-11	-61
-20	11	-38
29	34	-92
72	56	-96
99	68	-41
105	74	39
89	71	54
62	74	91
31	91	91
4	125	9
-18	168	-16
-39	191	16
-58	165	-11
-72	63	-85
-80	-111	-89
-70	-317	-90
-43	-488	-54
-6	-546	-25
36	-447	-54
74	-210	-71
99	84	-56
111	325	-25
117	429	-30
110	370	-102
91	201	-129
53	13	-74
2	-109	-81
-63	-141	-64
-126	-119	-33
-172	-103	40
-188	-136	87
-173	-201	76
-132	-242	71
-79	-196	12
-21	-52	-16
29	137	-24
77	286	24
115	317	43
149	219	35
167	51	9
163	-92	-26
132	-140	17
75	-86	-33
6	26	-98
-60	114	-91
-105	131	-137
-123	72	-153
-118	-20	-75
-101	-95	16
-83	-122	74
-64	-99	61
-47	-50	13
-20	0	1
22	41	-57
71	77	-125
114	106	-126
130	118	-52
111	104	-11
56	56	-24
-15	-5	13
-87	-52	47
-137	-52	57
-156	-2	47
-142	64	74
-107	100	94
-59	61	62
-14	-45	5
25	-176	-50
51	-259	-90
65	-241	-197
68	-124	-141
65	40	1
60	170	-57
50	203	-163
37	131	-145
17	5	22
-12	-110	84
-46	-159	71
-80	-134	49
-100	-67	31
-103	-11	35
-86	8	-31
-52	-3	-77
-10	-13	-105
32	7	-11
68	65	53
99	135	45
121	181	42
133	169	-11
131	103	-34
111	8	-131
69	-81	-231
15	-133	-251
-43	-147	-172
-94	-134	-51
-124	-112	32
-135	-92	112
-125	-71	119
-102	-50	64
-71	-24	-16
-38	3	-84
0	26	-122
40	43	-75
82	60	14
116	76	45
132	90	53
123	101	93
89	94	128
37	74	91
-18	47	-54
-65	29	-157
-98	21	-120
-112	12	-66
-113	-11	-70
-103	-64	-90
-87	-134	-74
-60	-188	-54
-24	-182	-26
20	-98	4
66	43	11
107	182	9
136	244	5
148	197	12
144	62	31
125	-78	44
89	-148	42
40	-112	13
-27	-9	0
-99	67	-4
-169	36	-15
-213	-114	10
-222	-311	-18
-187	-429	-75
-119	-382	-80
-38	-157	-51
32	143	-16
81	377	15
102	437	24
107	311	-15
105	85	-32
101	-105	-26
92	-170	-45
71	-102	-79
37	26	-30
-6	114	72
-44	104	53
-69	11	12
-76	-105	-106
-65	-167	-194
-52	-145	-131
-42	-61	-95
-40	31	-56
-32	92	-12
-15	108	49
15	100	87
51	96	55
78	102	18
84	109	-40
59	94	-102
16	49	-114
-37	-10	-178
-82	-66	-185
-109	-100	-95
-117	-112	-27
-108	-117	-28
-86	-126	-10
-55	-133	101
-16	-117	115
27	-64	100
69	23	74
104	114	20
123	169	10
127	160	-42
113	93	-76
85	2	-67
46	-68	-25
3	-94	2
-40	-81	-5
-75	-55	-2
-97	-50	-17
-100	-69	-23
-84	-94	-68
-59	-93	-120
-28	-47	-79
-2	31	-20
20	109	-52
37	152	-56
54	143	-12
71	100	-26
82	51	-17
81	23	-7
60	20	-8
26	23	-20
-15	8	-40
-51	-34	-83
-77	-91	-92
-91	-137	-44
-93	-147	-18
-93	-113	6
-85	-48	1
-66	24	34
-32	80	42
20	114	30
77	124	25
127	119	-16
154	100	-72
150	71	-70
119	33	21
71	-4	36
20	-33	51
-25	-53	68
-62	-67	51
-94	-91	-3
-115	-128	-55
-119	-169	-40
-102	-191	-46
-62	-166	-41
-10	-90	-68
42	20	-98
79	127	-38
89	201	41
78	241	66
50	265	78
20	295	45
-14	312	-24
-44	266	-81
-72	98	-68
-93	-201	-78
-103	-565	-147
-102	-845	-127
-91	-904	-52
-76	-670	25
-57	-229	24
-34	237	-71
-6	519	-183
34	505	-153
83	244	-88
128	-75	-34
155	-253	63
154	-186	70
127	64	122
81	329	113
30	430	91
-19	312	61
-59	53	19
-95	-180	-10
-118	-252	-110
-126	-147	-109
-117	45	-89
-86	190	-64
-44	204	-36
-6	117	-22
20	22	-8
34	12	-39
44	98	-54
57	209	-71
76	241	-131
90	136	-128
89	-62	-76
59	-254	3
7	-329	101
-49	-255	104
-92	-90	68
-107	56	68
-94	100	37
-63	40	18
-33	-53	-22
-8	-91	-83
13	-33	-126
33	87	-180
58	183	-153
85	179	-63
99	72	-10
92	-80	-15
62	-182	8
19	-183	26
-26	-95	-26
-61	11	-55
-83	57	-49
-91	17	-21
-88	-82	14
-78	-162	23
-57	-167	13
-29	-90	-36
8	26	-32
50	115	-9
84	140	-11
104	106	19
103	55	60
84	29	51
49	43	10
9	77	-11
-31	85	-68
-68	48	-42
-99	-26	-44
-122	-102	-79
-130	-143	-47
-128	-131	-105
-110	-81	-85
-79	-22	-4
-39	20	14
4	36	18
44	41	13
78	47	3
99	62	-38
107	76	-19
107	68	57
98	36	84
83	-21	57
59	-80	10
29	-124	21
-10	-141	30
-52	-130	-4
-92	-107	-43
-116	-77	-94
-115	-45	-142
-90	-11	-200
-45	27	-167
8	68	-74
52	108	-2
80	142	54
86	179	62
77	215	22
57	253	-83
35	268	-178
20	236	-98
8	125	15
1	-60	16
-5	-280	22
-13	-460	3
-20	-537	-7
-27	-469	-18
-28	-286	-4
-22	-69	34
-6	88	48
17	134	94
44	78	55
67	-11	-21
74	-53	-57
60	-9	-58
25	98	-43
-17	196	-17
-60	218	-10
-91	137	-10
-102	-2	8
-102	-129	-99
-93	-176	-186
-84	-129	-103
-71	-30	-21
-54	55	-57
-31	82	-84
0	53	-100
24	13	-79
44	9	-36
51	51	-47
51	119	-36
47	160	52
44	138	87
39	62	35
24	-32	16
-6	-98	4
-52	-111	42
-99	-85	26
-125	-51	33
-125	-43	110
-92	-60	60
-41	-77	-101
10	-56	-200
48	12	-130
72	110	-51
87	198	11
99	233	-4
111	197	-43
120	109	-48
115	5	-69
91	-80	-35
49	-126	-18
0	-140	-14
-47	-143	5
-82	-149	44
-100	-154	56
-103	-144	22
-94	-106	-22
-79	-38	-131
-54	45	-207
-26	116	-148
7	150	-93
39	137	10
65	88	71
81	25	43
84	-29	41
79	-53	37
65	-59	7
48	-53	-27
26	-53	-8
0	-63	1
-32	-80	-12
-63	-86	-27
-88	-71	-56
-97	-36	-57
-84	10	0
-50	53	13
-3	81	41
46	89	60
87	87	38
104	88	53
94	100	37
59	122	2
10	141	-47
-42	138	-64
-86	101	-79
-114	23	-59
-124	-72	-47
-122	-167	-84
-109	-230	-119
-88	-243	-122
-57	-210	-54
-20	-150	-31
20	-87	-26
60	-39	-16
96	-15	-26
120	0	-22
132	20	-4
131	53	21
118	92	-9
90	110	-52
44	92	-56
-16	31	-22
-87	-45	-16
-150	-108	8
-191	-127	41
-195	-95	31
-160	-31	20
-93	33	-45
-18	68	-71
49	76	-28
92	64	4
107	61	19
107	76	6
97	99	-74
82	112	-106
66	96	-44
42	54	-57
11	2	-61
-29	-41	-55
-66	-62	-31
-96	-70	1
-108	-75	16
-100	-92	10
-77	-113	-57
-42	-117	-67
-5	-86	-84
32	-9	-15
64	88	93
87	166	107
98	186	23
91	137	-99
70	37	-88
39	-70	-133
3	-139	-126
-30	-151	-74
-56	-111	-44
-71	-56	67
-80	-19	45
-80	-9	46
-70	-16	14
-51	-10	-47
-22	26	-40
18	89	-65
59	143	-36
94	154	-27
113	99	-20
110	-8	52
90	-119	65
58	-183	29
26	-167	9
4	-85	5
-8	14	18
-12	77	5
-18	72	10
-31	17	-2
-54	-38	-38
-79	-38	-17
-89	28	-20
-77	132	-51
-38	203	-97
14	179	-100
57	52	-42
75	-126	-34
58	-263	-34
16	-283	-49
-31	-174	-106
-64	9	-112
-78	165	-51
-77	209	-38
-70	117	-21
-71	-57	34
-77	-224	26
-76	-290	38
-56	-233	36
-15	-90	-1
37	67	-36
86	165	-43
111	178	16
111	128	30
91	68	82
61	45	169
34	66	163
11	113	103
-10	149	19
-32	141	-84
-54	88	-178
-71	6	-198
-78	-79	-144
-70	-145	-117
-52	-177	-153
-29	-171	-173
-4	-128	-157
17	-58	-95
37	21	-38
57	83	-54
76	99	-37
85	57	11
81	-30	-7
58	-121	-78
24	-174	-66
-12	-160	-33
-43	-90	-15
-62	-7	77
-68	40	90
-65	27	67
-57	-29	-9
-50	-86	-47
-42	-93	-10
-35	-35	-31
-21	61	-35
0	154	-41
31	193	4
65	170	36
93	109	58
102	53	72
82	30	34
36	36	33
-24	45	28
-82	26	21
-118	-30	-35
-127	-106	-63
-112	-162	-70
-84	-166	-122
-54	-121	-96
-27	-46	-45
-3	21	-50
24	63	-48
56	76	-44
87	77	-42
107	82	-16
107	90	-26
86	95	-23
49	80	14
10	46	36
-24	3	69
-47	-27	81
-61	-34	60
-69	-24	28
-67	-17	-37
-51	-33	-79
-14	-77	-86
42	-129	-96
107	-157	-62
162	-133	5
180	-53	22
151	55	18
83	150	16
0	193	-21
-77	164	-74
-121	77	-80
-130	-37	-72
-120	-136	-63
-107	-189	-32
-106	-185	-25
-116	-130	-3
-123	-52	32
-109	20	22
-65	62	10
1	63	29
69	31	-14
121	-12	7
142	-29	48
139	-5	-28
121	60	-105
99	141	-170
75	197	-114
41	197	-54
-7	130	-76
-71	13	-69
-134	-117	-101
-177	-223	-132
-181	-274	-36
-147	-261	65
-84	-187	84
-19	-69	43
32	64	-22
63	179	-43
80	236	-49
91	210	-25
104	105	11
114	-40	21
110	-167	44
86	-217	86
41	-173	77
-12	-63	-6
-57	41	-53
-89	81	-112
-97	35	-130
-91	-65	-88
-78	-149	-147
-62	-158	-245
-46	-81	-190
-21	41	-16
13	138	57
53	168	49
91	123	49
113	56	77
113	17	91
87	34	90
42	90	31
-13	131	-8
-64	114	-16
-104	31	-28
-128	-78	1
-130	-159	44
-117	-166	68
-88	-104	13
-48	-11	-58
-3	63	-83
42	88	-84
82	74	-122
111	43	-126
123	32	-101
120	43	-46
101	64	7
69	74	27
33	55	66
-6	15	44
-44	-34	22
-84	-77	-6
-116	-108	-23
-138	-131	8
-139	-144	23
-113	-140	58
-62	-104	24
-1	-37	-34
54	41	-60
91	103	-119
103	115	-164
93	77	-153
74	10	-119
55	-40	-71
41	-45	-17
31	-7	14
20	45	14
5	63	24
-17	26	34
-44	-54	9
-81	-131	4
-119	-151	-5
-150	-91	-10
-156	31	4
-123	154	10
-52	213	52
41	171	64
128	56	-18
179	-84	-83
175	-173	-56
123	-168	29
53	-79	29
-7	43	-62
-39	129	-111
-48	129	-100
-49	45	-70
-56	-76	-15
-70	-168	21
-80	-184	7
-65	-117	-3
-23	-10	-57
40	89	-64
97	139	-43
131	147	-55
129	135	-54
103	125	-31
66	119	-21
36	89	-50
11	16	-39
-13	-95	-10
-47	-198	57
-93	-240	93
-140	-194	3
-172	-90	-108
-177	1	-109
-150	7	-72
-102	-83	-80
-47	-211	-168
2	-282	-147
42	-226	53
69	-39	57
94	185	14
111	331	9
115	324	8
106	174	66
77	-21	36
31	-152	4
-17	-153	6
-60	-53	2
-87	59	-23
-93	103	7
-83	50	3
-57	-45	-54
-24	-108	-14
14	-80	17
49	30	53
82	158	18
101	233	-44
106	221	-67
93	148	-177
64	64	-176
27	14	-88
-14	-2	-30
-51	-15	17
-81	-56	-34
-101	-131	-53
-110	-199	-38
-108	-216	-56
-93	-159	-16
-64	-49	-20
-26	57	-25
16	112	53
52	100	72
77	49	44
86	12	5
83	17	-34
68	57	-40
44	93	-43
18	83	-57
-15	14	-45
-48	-79	12
-80	-153	13
-101	-169	12
-107	-127	66
-95	-60	68
-65	-9	33
-28	8	-10
13	3	-58
49	1	-70
82	25	-108
105	71	-108
115	114	-84
115	127	-45
94	97	9
56	41	-27
7	-11	-66
-45	-36	-72
-88	-37	-70
-111	-31	-62
-110	-40	-2
-87	-69	49
-45	-95	43
2	-92	22
48	-35	-26
81	57	-68
93	147	-77
80	181	-17
42	134	55
-6	25	83
-52	-98	96
-78	-176	107
-78	-176	107
-52	-109	38
-21	-23	-103
-2	29	-183
-8	26	-210
-36	-22	-189
-67	-69	-107
-84	-80	-74
-72	-37	24
-36	41	130
12	119	168
57	165	138
89	168	69
107	136	49
119	81	-43
120	6	-158
110	-89	-234
78	-195	-261
19	-291	-161
-55	-338	-68
-124	-304	-149
-167	-196	-30
-169	-61	34
-132	36	-34
-78	52	-8
-24	-3	-51
11	-71	-22
29	-77	-46
41	15	3
56	174	22
77	324	33
90	372	97
90	289	48
67	119	28
25	-49	-24
-18	-138	-38
-54	-120	3
-71	-37	68
-75	35	81
-62	47	94
-44	-4	121
-20	-61	30
11	-76	-91
46	-16	-123
83	86	-130
109	169	-181
119	186	-182
110	127	-195
83	35	-137
48	-40	-29
8	-67	5
-29	-50	16
-63	-31	24
-95	-38	79
-118	-80	65
-128	-129	54
-123	-150	13
-101	-114	-55
-67	-34	-27
-29	55	-1
7	122	-11
41	148	-30
69	140	-2
94	118	-7
107	94	-40
105	68	-12
85	26	-3
44	-37	-5
-4	-120	5
-49	-196	1
-82	-245	56
-96	-242	117
-94	-192	54
-80	-120	-39
-60	-45	-40
-39	11	-32
-17	45	-101
8	62	-185
36	71	-190
59	80	-193
76	85	-157
72	84	-30
54	74	59
21	57	123
-16	38	149
-50	25	160
-76	18	93
-87	11	-2
-91	-3	-49
-83	-36	-125
-63	-83	-150
-35	-134	-138
5	-167	-120
49	-154	-43
91	-92	14
122	8	-37
137	111	-94
133	183	-18
110	202	97
70	174	84
14	126	2
-48	79	-32
-110	41	-32
-153	-3	-28
-165	-71	-54
-141	-169	-99
-91	-260	-48
-28	-296	-7
24	-240	-20
54	-92	-8
64	85	-69
60	213	-125
51	231	-116
44	140	-84
39	3	-59
33	-93	-28
23	-87	16
10	13	45
-4	142	69
-25	217	49
-55	182	29
-94	45	12
-129	-133	0
-145	-278	-14
-125	-336	-75
-67	-299	-121
12	-194	-84
91	-66	27
136	50	64
147	139	70
122	192	38
89	198	-18
63	161	-49
47	86	-76
35	3	-9
9	-62	3
-34	-86	-23
-81	-65	-25
-118	-28	-33
-125	-1	-50
-106	-5	-101
-64	-29	-76
-23	-48	-13
12	-38	25
39	11	54
62	72	47
91	122	8
113	131	2
122	104	27
107	59	17
66	22	46
13	1	82
-39	-10	75
-76	-24	85
-96	-53	65
-102	-90	28
-100	-115	-52
-92	-111	-279
-71	-74	-398
-41	-20	-242
3	30	-96
49	58	-28
86	67	-38
103	71	-53
99	88	-20
81	121	-113
54	154	-106
28	161	-50
0	115	-12
-30	13	37
-60	-122	11
-89	-250	62
-102	-322	96
-97	-321	106
-69	-242	76
-30	-116	5
12	6	1
44	90	64
61	120	43
64	105	-43
53	72	-19
39	49	46
24	47	86
5	55	8
-16	52	-125
-38	23	-196
-59	-32	-203
-75	-92	-155
-76	-126	-93
-62	-118	-57
-38	-71	-49
-6	-4	13
20	59	17
39	106	-13
46	132	-14
46	147	-40
45	152	-31
44	143	-21
46	118	-9
42	70	-7
26	10	-14
-3	-50	-5
-44	-95	2
-85	-123	-15
-112	-150	-31
-116	-182	-46
-100	-218	-69
-65	-233	-38
-24	-206	10
16	-119	20
52	6	21
84	122	58
109	185	70
123	171	43
121	106	-19
97	32	-101
55	4	-137
6	30	-114
-39	79	-60
-70	103	-14
-93	63	20
-110	-30	37
-128	-131	43
-143	-181	32
-144	-147	19
-118	-46	4
-58	66	-25
21	138	-44
94	143	-53
137	103	-31
139	61	-10
109	54	-18
65	82	4
30	110	43
12	97	52
2	20	29
-12	-99	18
-37	-206	4
-68	-249	-43
-94	-205	-68
-96	-98	-142
-68	15	-241
-23	82	-209
24	74	-170
58	14	-130
74	-51	9
77	-79	26
72	-47	53
68	20	68
60	85	18
47	106	39
24	76	13
-7	8	40
-41	-60	34
-71	-97	5
-92	-90	33
-99	-40	7
-93	26	-86
-72	97	-117
-40	159	-22
0	197	-38
40	204	-63
76	157	-12
96	50	9
101	-103	30
91	-259	-33
72	-363	-155
47	-371	-115
16	-270	22
-23	-103	30
-61	59	52
-92	152	22
-101	152	-56
-81	84	-44
-35	7	-24
24	-25	8
76	-4	-32
102	45	-53
98	76	-51
70	58	-51
34	8	-11
7	-40	19
-10	-47	49
-12	-5	64
-18	53	64
-32	81	22
-60	45	-27
-95	-41	-70
-121	-133	-106
-130	-177	-82
-117	-149	-18
-83	-60	4
-40	41	-24
2	114	-54
32	135	-69
52	116	-70
61	89	-87
65	76	-113
66	77	-119
61	74	-74
47	50	-18
21	4	18
-15	-53	45
-54	-94	74
-86	-106	82
-103	-94	33
-105	-74	-37
-88	-60	-55
-57	-55	-54
-16	-48	-30
30	-23	65
80	24	152
122	82	191
150	130	178
154	150	141
130	137	58
88	101	-108
40	60	-252
1	24	-371
-21	-6	-355
-30	-43	-213
-36	-91	-284
-51	-144	-243
-79	-186	-12
-109	-192	52
-128	-153	93
-121	-68	123
-86	38	170
-31	138	205
21	213	158
57	248	40
69	240	-78
65	190	-163
52	106	-195
36	-8	-106
18	-133	-70
-7	-246	-95
-41	-313	-28
-79	-311	21
-104	-230	14
-105	-87	10
-78	81	16
-29	221	-15
26	281	-45
71	230	-6
103	74	48
116	-145	117
121	-351	133
115	-457	125
99	-419	91
65	-246	-21
14	-11	-88
-43	183	-93
-95	256	-88
-124	182	-12
-128	21	0
-111	-121	-30
-80	-155	-54
-48	-57	-77
-17	119	-37
12	275	-74
44	327	-137
76	255	-133
100	109	-61
107	-24	-57
90	-83	-27
53	-55	21
6	7	30
-37	48	61
-64	27	68
-72	-40	84
-65	-114	55
-51	-150	4
-35	-127	-47
-24	-66	-97
-16	-1	-92
-7	43	-111
6	62	-130
25	72	-29
48	86	33
68	110	57
77	127	67
67	123	45
40	88	5
-1	32	-89
-43	-21	-127
-79	-59	-93
-100	-76	-65
-105	-83	-20
-98	-92	60
-78	-108	79
-50	-121	56
-11	-115	-22
35	-78	-122
83	-11	-166
118	65	-127
127	124	-122
106	145	-151
58	124	-76
1	74	-3
-49	11	45
-80	-42	37
-88	-80	-2
-85	-98	-15
-82	-105	-2
-84	-104	-42
-89	-96	-109
-91	-77	-98
-77	-43	-55
-44	0	16
-1	45	39
43	81	77
82	93	101
107	79	120
123	43	133
129	8	59
126	-20	-2
111	-20	-72
83	2	-109
42	35	-19
0	55	52
-38	43	28
-67	-6	52
-89	-85	20
-107	-154	-44
-118	-186	-111
-120	-160	-170
-100	-74	-167
-55	39	-137
7	135	-65
74	174	-84
116	150	-75
121	72	-9
86	-17	25
29	-79	43
-26	-96	1
-62	-72	-13
-76	-40	17
-72	-23	-13
-64	-34	-124
-59	-61	-97
-52	-78	-11
-35	-61	2
-3	-10	32
40	59	45
81	121	61
107	153	36
113	145	-7
101	114	24
80	72	32
51	40	1
16	17	11
-29	6	22
-82	-2	-15
-132	-13	-53
-166	-28	-70
-166	-54	-55
-130	-90	-15
-65	-131	-19
8	-163	-79
71	-164	-119
112	-121	-119
131	-34	-134
133	74	-91
127	164	-3
111	197	15
86	155	49
46	50	40
-5	-78	12
-60	-179	12
-108	-222	-21
-137	-196	-7
-143	-126	-9
-124	-48	-11
-85	12	-6
-26	43	-7
36	57	-9
94	72	-47
128	108	-21
129	170	-1
95	247	-42
33	311	-67
-27	324	-60
-70	261	-79
-84	105	-103
-68	-112	-75
-46	-343	-44
-35	-507	-125
-47	-543	-154
-74	-436	-64
-99	-227	-34
-101	1	-22
-69	158	-34
-19	197	-36
39	139	6
79	55	44
94	20	112
85	66	141
67	162	104
50	233	39
40	208	-6
34	81	22
22	-98	-6
-1	-238	-71
-31	-272	-45
-60	-196	-16
-78	-66	3
-78	34	-6
-55	58	-76
-22	17	-56
21	-35	-1
64	-38	-5
101	26	-21
125	124	-16
129	195	1
107	193	-22
62	117	-29
2	14	1
-61	-59	-17
-111	-76	-44
-131	-46	-38
-125	-18	-60
-95	-27	-76
-56	-70	-74
-21	-116	-12
4	-111	68
12	-38	30
12	79	-35
8	188	-26
8	236	10
14	206	-6
23	122	-68
33	33	-116
35	-31	-99
27	-64	-72
4	-92	-45
-28	-135	-38
-60	-198	-54
-86	-254	-8
-91	-261	5
-80	-202	0
-51	-91	37
-14	26	66
25	102	56
58	115	-20
85	85	-56
101	49	4
107	48	78
102	84	52
84	128	-52
52	141	-94
15	101	-63
-24	16	-51
-57	-72	-91
-81	-129	-144
-90	-130	-106
-91	-93	-18
-81	-47	31
-58	-17	63
-29	-7	39
9	-1	-13
48	19	-70
82	63	-128
99	113	-111
95	145	-109
74	150	-101
39	127	-48
4	97	34
-28	70	79
-49	41	65
-59	-14	72
-62	-116	49
-58	-251	31
-50	-376	-31
-42	-417	-112
-36	-334	-74
-30	-137	-7
-23	106	14
-10	308	19
12	393	-13
40	350	-43
69	235	-71
89	113	-138
86	36	-135
59	-3	-49
13	-46	9
-35	-129	40
-79	-248	24
-101	-345	-5
-105	-361	-28
-98	-263	-16
-85	-90	26
-72	79	20
-57	161	33
-38	129	19
-8	31	-4
32	-50	22
75	-45	6
111	46	-60
125	164	-67
111	219	-34
70	166	-39
16	29	-46
-36	-116	-43
-71	-178	-3
-86	-127	-2
-80	4	-35
-56	131	-49
-26	180	-53
8	130	-81
44	16	-108
79	-90	-57
105	-130	-15
115	-94	24
105	-12	44
75	64	11
32	98	-28
-4	80	-16
-30	31	26
-42	-24	-4
-52	-64	0
-70	-86	31
-100	-93	42
-131	-85	42
-148	-64	11
-130	-28	35
-79	17	21
-3	60	-16
69	91	9
121	101	9
132	97	-46
111	92	-113
68	91	-137
22	92	-113
-17	80	-84
-50	36	-104
-78	-39	-147
-99	-133	-192
-111	-215	-156
-105	-253	-101
-78	-229	-96
-33	-154	-98
13	-52	-43
50	37	68
72	96	101
82	116	128
88	115	102
98	111	83
110	117	120
113	122	75
99	110	1
58	65	-44
3	-16	-65
-55	-112	-111
-98	-191	-102
-117	-219	14
-116	-185	86
-100	-105	102
-78	-3	10
-52	88	-113
-22	161	-161
12	215	-226
50	257	-169
85	269	-18
106	225	7
107	99	29
92	-103	67
58	-321	54
14	-474	32
-37	-488	13
-87	-345	-13
-126	-114	-41
-147	100	-56
-135	193	-64
-93	138	5
-30	-5	71
36	-123	67
85	-121	45
102	21	-10
90	237	-56
59	413	-94
32	461	-115
15	358	-106
16	162	-123
23	-41	-111
25	-192	-24
8	-280	13
-35	-326	25
-92	-354	58
-144	-353	43
-169	-289	20
-152	-147	-6
-93	48	-13
-4	224	-30
82	298	-65
149	238	-87
172	86	-52
155	-64	12
106	-127	22
42	-77	34
-19	40	69
-68	131	94
-102	129	95
-117	28	93
-115	-103	74
-99	-182	32
-72	-160	1
-42	-52	-9
-13	70	-30
14	139	-78
36	127	-190
63	65	-238
89	16	-246
109	20	-229
116	71	-158
103	127	-132
71	134	-12
29	77	17
-13	-20	-25
-44	-104	28
-65	-136	91
-79	-115	43
-87	-68	-74
-92	-38	-68
-87	-41	-6
-65	-60	87
-26	-64	56
25	-28	24
79	45	43
121	124	14
141	171	-76
140	168	-172
113	113	-138
66	38	-75
4	-37	-39
-64	-97	-15
-126	-141	-55
-165	-173	-39
-172	-186	68
-147	-171	46
-99	-120	9
-46	-43	-60
-2	39	-31
22	96	39
34	113	0
41	95	42
50	65	53
64	53	84
76	64	81
74	93	69
56	121	2
26	147	-136
-9	174	-205
-43	214	-185
-67	252	-157
-80	243	-92
-79	137	32
-60	-90	57
-28	-394	46
17	-684	-19
59	-817	-5
89	-719	38
93	-406	5
74	-1	25
44	325	48
21	438	38
11	325	-29
12	79	-101
14	-142	-132
4	-218	-88
-20	-129	-22
-46	38	15
-64	166	3
-63	177	-25
-49	85	22
-31	-20	22
-22	-42	-23
-24	51	-38
-24	209	-65
-11	330	-90
21	327	-60
58	193	-14
84	-4	-1
79	-169	-4
41	-227	-20
-5	-183	-28
-42	-97	-40
-56	-44	-64
-53	-59	-103
-51	-118	-76
-65	-163	-18
-92	-143	-7
-110	-56	41
-97	59	69
-44	143	70
37	164	45
107	131	15
140	83	13
122	61	-3
66	71	-52
6	93	-64
-34	88	-50
-48	35	-112
-51	-48	-120
-59	-128	-69
-81	-161	-57
-104	-137	-25
-109	-74	-20
-83	-5	-12
-26	38	30
42	56	28
98	58	46
127	66	50
132	85	17
122	106	9
107	114	18
90	93	46
61	50	-18
23	-5	-49
-26	-61	-8
-69	-117	-91
-98	-169	-165
-105	-216	-102
-94	-248	-78
-79	-238	-35
-60	-177	-10
-44	-68	-19
-20	52	4
18	148	-95
63	185	-142
105	165	-96
122	110	-113
107	59	-123
66	34	-41
14	35	30
-32	45	13
-62	51	32
-77	43	85
-83	38	111
-86	41	138
-86	56	45
-76	60	-72
-51	35	-67
-14	-25	-101
27	-107	-81
60	-174	26
80	-199	49
83	-175	32
75	-121	-12
62	-71	-67
48	-53	-45
33	-63	-31
12	-81	-26
-13	-82	32
-41	-54	57
-66	-13	13
-84	17	-23
-92	26	-29
-86	14	-51
-66	7	-91
-31	22	-118
20	65	-115
71	116	-82
111	150	-21
120	143	38
93	103	61
33	51	59
-38	12	51
-94	-4	38
-118	-5	-11
-107	-11	-67
-72	-30	-60
-34	-63	-30
-7	-84	-40
2	-74	-62
2	-28	-47
-1	32	-6
8	84	-9
28	106	-61
60	99	-75
94	78	-43
118	60	-37
121	55	-28
96	51	-12
42	33	18
-30	-9	63
-102	-67	75
-156	-112	93
-178	-120	65
-162	-86	-22
-121	-31	-170
-69	8	-228
-20	4	-118
16	-43	-23
44	-101	3
68	-130	19
90	-100	78
105	-15	107
109	85	70
94	149	-22
58	139	-75
9	64	-58
-42	-44	-86
-87	-131	-205
-114	-166	-224
-122	-141	-157
-109	-83	-44
-82	-23	74
-40	20	-14
7	46	-31
55	68	-62
96	90	-129
122	106	-145
131	105	-100
120	71	-2
93	17	4
55	-39	34
14	-70	17
-26	-69	25
-58	-47	89
-79	-25	120
-87	-23	133
-80	-27	85
-63	-19	63
-41	25	58
-15	95	41
7	153	-2
28	149	-92
48	58	-85
68	-85	-47
83	-210	-84
90	-241	-63
81	-143	2
55	39	53
15	214	13
-32	279	-31
-75	195	-4
-107	-2	-18
-125	-208	-38
-128	-322	-19
-118	-292	-39
-91	-157	-95
-53	2	-98
0	101	-100
61	100	-76
120	38	-20
165	-21	3
184	-17	6
169	50	-25
119	137	-62
43	175	-95
-42	130	-89
-124	13	-34
-181	-117	9
-204	-192	7
-191	-183	18
-153	-106	35
-103	-14	54
-54	40	85
-15	41	76
18	12	45
44	-9	19
72	11	-10
97	68	-57
107	134	-97
101	166	-98
75	141	-46
36	69	4
-3	-16	-11
-35	-80	-83
-57	-109	-136
-72	-105	-121
-80	-90	-94
-80	-77	-101
-63	-64	-77
-32	-45	-8
15	-6	51
63	48	130
101	102	175
117	132	147
111	131	149
94	103	84
69	71	-59
49	53	-264
25	51	-378
-7	49	-209
-48	19	-89
-95	-53	-85
-128	-157	13
-137	-254	41
-120	-301	-5
-80	-272	-55
-32	-167	-96
10	-26	-54
38	97	-75
57	161	-60
69	154	15
79	101	58
85	39	166
78	7	141
57	15	22
20	49	18
-24	82	27
-66	89	-66
-97	62	-164
-107	3	-172
-98	-68	-58
-72	-138	26
-41	-189	-21
-11	-204	-58
15	-173	-109
33	-91	-97
46	27	9
60	145	86
77	224	90
89	225	83
89	147	60
72	28	22
35	-70	-23
-14	-98	-54
-62	-37	-26
-93	70	-26
-98	158	-25
-81	161	-5
-49	55	-9
-18	-109	-44
9	-254	-35
29	-291	14
52	-195	37
82	-4	26
111	186	-25
132	274	-30
127	215	-48
91	35	-67
22	-173	-43
-61	-312	-55
-139	-316	-24
-189	-203	29
-201	-47	40
-175	64	41
-125	80	14
-68	18	-48
-19	-60	-100
19	-85	-128
44	-25	-129
64	89	-65
81	195	-18
94	235	-4
95	193	49
82	98	48
53	8	-8
12	-36	18
-28	-31	75
-61	-6	37
-82	0	-64
-87	-28	-71
-84	-79	26
-72	-114	77
-58	-104	28
-36	-45	-41
-4	39	-82
34	114	-102
72	155	-155
97	155	-282
103	131	-327
87	93	-270
58	47	-230
24	-5	-136
-7	-72	-18
-32	-144	60
-53	-205	135
-69	-233	151
-84	-215	110
-88	-164	81
-77	-96	62
-49	-34	80
-8	17	92
39	62	27
82	114	-5
111	171	19
123	219	-13
117	233	-27
98	191	-16
71	98	-53
41	-25	-21
10	-139	8
-25	-209	-47
-62	-222	-40
-102	-184	-52
-136	-122	-50
-156	-62	-57
-148	-25	-67
-109	-5	-31
-45	8	-22
25	26	4
85	56	-4
111	92	-11
104	122	-6
72	131	-4
34	112	4
4	68	18
-10	14	24
-14	-31	45
-23	-59	69
-40	-68	43
-64	-67	18
-81	-65	-11
-78	-66	0
-50	-64	-25
-5	-49	-96
41	-13	-88
76	41	-57
91	98	-24
87	133	-30
74	132	-48
54	92	-82
34	27	-125
8	-39	-143
-22	-83	-102
-54	-98	-21
-84	-90	-19
-100	-75	-8
-104	-63	-8
-93	-57	-58
-71	-50	-37
-44	-30	-1
-12	-1	85
23	33	164
59	57	99
93	62	15
113	54	-54
116	43	-71
99	51	-106
66	76	-165
26	103	-107
-12	114	68
-43	89	130
-66	35	71
-85	-29	69
-101	-77	-105
-112	-95	-234
-113	-97	-247
-100	-113	-372
-67	-165	-279
-17	-238	-26
38	-292	31
86	-263	33
114	-129	103
115	85	112
96	298	54
59	398	37
21	329	69
-12	106	26
-39	-174	-4
-58	-383	0
-74	-427	1
-83	-304	-6
-81	-88	-24
-65	106	-42
-35	197	-71
2	173	-86
42	91	-36
71	34	37
87	53	26
92	132	16
87	215	27
76	230	31
55	154	22
26	14	-20
-14	-119	-46
-56	-184	-55
-92	-162	-32
-107	-78	-4
-97	8	-1
-69	52	26
-32	45	15
3	14	-17
31	-1	-59
52	22	-52
66	78	-13
80	128	-39
84	140	-20
75	99	-7
52	15	2
16	-72	22
-22	-133	34
-56	-144	28
-80	-120	-18
-93	-79	-48
-94	-49	-72
-89	-38	-52
-77	-41	-66
-51	-44	-112
-16	-30	-89
26	3	-51
64	48	-27
90	89	-27
99	112	7
89	110	27
66	82	14
37	41	57
4	-5	65
-31	-44	-9
-65	-76	-64
-95	-96	-92
-111	-108	-125
-108	-110	-137
-90	-100	-90
-54	-75	6
-15	-34	84
24	14	65
56	62	17
81	99	15
96	115	-10
95	112	-97
80	90	-101
49	61	-77
10	30	-59
-30	3	-23
-63	-21	-147
-83	-44	-238
-89	-68	-195
-83	-92	-74
-65	-104	5
-45	-99	7
-20	-69	38
8	-21	29
32	27	68
49	56	62
56	47	34
55	6	58
49	-52	18
44	-95	-12
38	-100	14
30	-66	10
14	-17	-18
-10	16	-4
-34	12	3
-51	-25	2
-53	-62	-8
-37	-63	6
-12	2	8
16	123	-1
36	258	-50
46	345	-90
46	336	-43
45	211	-50
41	8	-40
30	-212	-33
13	-368	-4
-13	-405	37
-36	-320	45
-52	-157	37
-56	6	15
-51	102	7
-50	96	-49
-59	13	-69
-82	-88	-66
-100	-135	-72
-104	-93	-56
-79	27	-13
-28	168	-6
31	259	-29
82	262	-46
103	188	-82
97	79	-66
69	-7	-47
39	-38	-10
10	-17	44
-16	17	85
-40	25	95
-65	-18	42
-83	-97	-28
-83	-180	-59
-62	-224	-58
-26	-202	-89
17	-120	-97
54	-2	-72
77	109	-24
86	180	22
93	192	32
98	150	51
100	77	48
90	4	57
62	-43	12
13	-58	-93
-41	-55	-221
-88	-51	-333
-111	-64	-210
-110	-92	-61
-90	-120	-80
-62	-119	-128
-35	-81	-80
-9	-3	38
19	89	97
46	168	137
72	215	144
85	225	167
80	205	166
58	162	76
27	99	-92
-4	9	-227
-30	-106	-142
-52	-226	-108
-72	-313	-153
-95	-330	-88
-112	-261	-14
-118	-129	4
-99	13	-10
-58	105	42
-3	118	69
49	61	52
89	-11	5
106	-47	-36
104	-19	-31
91	57	-46
69	129	19
44	147	39
13	93	-11
-23	-6	6
-59	-102	4
-88	-147	-10
-101	-129	-18
-96	-70	-23
-74	-11	-20
-43	22	-51
-12	25	-98
18	18	-46
42	27	-32
68	57	-67
87	99	-36
99	127	-17
97	126	0
74	104	12
32	85	33
-23	90	39
-81	117	20
-127	135	-2
-152	105	-22
-147	-4	-42
-114	-174	-32
-59	-351	-8
3	-452	-54
65	-427	-102
116	-280	-102
154	-67	-62
175	119	-32
181	211	-27
162	191	22
111	100	32
33	8	12
-58	-31	44
-141	-7	81
-186	39	82
-181	58	54
-130	24	-15
-63	-45	-46
-13	-102	24
1	-101	28
-16	-24	48
-42	93	64
-48	199	-90
-16	244	-267
44	215	-315
105	135	-241
139	41	-116
129	-37	-23
83	-95	-26
18	-137	-24
-41	-170	-71
-84	-179	-89
-109	-157	-34
-121	-98	-68
-123	-21	-52
-112	34	-35
-81	40	-47
-30	-8	-14
29	-78	7
79	-114	9
105	-85	42
107	11	74
90	123	116
66	194	121
45	182	9
28	95	-79
5	-21	-47
-23	-108	-36
-60	-130	-91
-91	-97	-56
-107	-43	4
-101	-8	24
-76	-4	24
-38	-13	33
1	-6	47
35	35	-5
64	101	-44
87	159	-40
99	173	1
99	131	45
83	49	44
49	-40	-39
5	-102	-99
-40	-126	-100
-82	-118	-135
-110	-94	-137
-122	-68	-91
-122	-44	-7
-106	-23	49
-75	-2	46
-26	8	18
30	7	47
87	-5	65
135	-16	41
162	-8	18
164	23	7
141	70	16
105	106	-24
59	113	-59
12	90	-103
-30	62	-91
-70	53	-51
-101	74	-56
-121	99	-41
-126	80	-53
-114	-16	-55
-88	-183	-30
-48	-348	-12
-7	-416	-2
26	-320	-31
50	-76	-61
60	213	-15
63	401	8
60	380	-29
54	153	-19
42	-167	2
25	-416	23
-2	-460	29
-33	-299	37
-59	-25	22
-77	198	-1
-79	261	5
-65	157	8
-40	-17	22
-11	-129	30
18	-103	34
46	44	70
68	213	89
84	298	4
85	249	-118
67	106	-173
36	-37	-215
-8	-108	-182
-51	-85	-117
-89	-20	-175
-110	16	-121
-115	-16	-113
-110	-100	-129
-97	-170	-11
-78	-174	72
-53	-96	45
-22	19	-17
14	110	13
50	137	36
78	98	37
93	41	-38
91	9	-106
75	18	-76
50	47	-95
19	57	-65
-12	22	-49
-44	-50	-59
-68	-123	19
-87	-162	94
-89	-144	140
-76	-92	49
-46	-30	-4
-5	12	-1
37	32	-42
77	44	-51
105	63	-59
117	92	-78
114	117	-48
97	116	-5
68	82	-17
31	20	9
-7	-44	18
-46	-88	47
-79	-101	97
-99	-94	110
-104	-81	110
-90	-69	63
-61	-58	4
-25	-35	-71
13	6	-87
44	60	-67
64	110	-80
77	142	-79
85	147	-88
94	126	-78
104	93	-59
106	47	-63
86	-8	-40
36	-80	-82
-44	-154	-109
-138	-205	-59
-222	-203	-49
-262	-131	-9
-250	-14	45
-185	101	45
-86	150	31
14	100	23
92	-29	12
134	-171	14
149	-241	-25
145	-189	-81
132	-32	-63
113	155	18
80	279	68
31	277	41
-29	150	32
-87	-38	32
-121	-203	31
-125	-279	16
-102	-258	-6
-65	-171	-35
-31	-69	-72
-6	7	-108
10	53	-145
28	80	-225
54	104	-205
86	131	-54
109	158	19
111	176	95
88	183	161
44	181	171
-2	163	125
-36	117	77
-52	19	49
-55	-125	-34
-54	-286	-185
-57	-403	-320
-65	-412	-282
-69	-291	-125
-64	-80	-52
-44	131	-41
-13	257	-45
21	253	-112
48	144	-57
63	15	-3
63	-57	-37
48	-41	-43
22	31	-30
-12	90	16
-50	78	30
-84	-12	34
-108	-124	20
-111	-192	-36
-94	-174	-7
-59	-79	46
-14	34	58
30	106	46
69	112	18
96	76	61
109	45	7
109	57	-63
96	106	-95
68	154	-134
29	145	-82
-17	64	-2
-60	-59	39
-96	-176	61
-110	-227	69
-105	-199	62
-83	-118	34
-48	-28	-35
-12	27	-59
21	41	-50
49	33	-42
74	32	-12
94	56	-19
107	101	14
116	142	16
113	154	7
96	127	6
66	64	-11
27	-12	-30
-16	-85	-71
-57	-138	-61
-95	-167	-80
-117	-169	-75
-122	-144	-56
-103	-102	-51
-61	-49	-27
-7	2	-22
46	39	-11
80	61	-5
89	68	-4
72	72	-25
44	77	-24
19	77	-33
4	65	-28
-2	35	13
-12	-13	34
-37	-66	52
-81	-102	63
-130	-109	95
-164	-80	104
-168	-26	70
-131	32	-11
-70	75	-120
1	92	-108
59	84	-78
93	57	-238
105	29	-295
101	5	-170
92	-6	-166
77	-5	-122
52	7	-18
20	21	-25
-22	26	15
-62	11	51
-93	-32	22
-104	-97	13
-93	-169	29
-69	-221	108
-39	-227	139
-8	-178	41
23	-83	-28
54	28	-19
85	123	-17
107	174	-93
118	177	-165
107	137	-156
77	77	-98
32	13	-69
-16	-45	-63
-57	-99	-19
-88	-147	-7
-105	-184	28
-109	-189	45
-104	-145	-6
-83	-50	-62
-48	74	-99
-3	185	-74
50	249	18
99	247	41
132	194	43
144	120	38
132	59	34
104	19	49
59	-15	18
12	-62	56
-40	-134	60
-86	-203	47
-125	-237	56
-152	-204	17
-158	-113	-13
-143	-3	-19
-109	72	-21
-61	81	-41
-11	38	-51
36	-13	-39
72	-18	-28
101	39	-68
116	130	-84
121	202	-56
111	203	-80
84	130	-110
40	14	-113
-15	-85	-62
-68	-125	-14
-112	-106	-26
-135	-61	-25
-131	-33	-18
-103	-40	12
-56	-68	1
-1	-81	-43
51	-51	-39
94	17	-6
118	98	14
119	145	13
100	143	26
65	95	49
26	33	83
-7	-14	24
-30	-33	-100
-44	-35	-115
-58	-43	-17
-78	-62	34
-102	-92	48
-121	-104	48
-119	-88	9
-90	-42	-60
-30	17	-192
41	64	-179
100	84	-104
127	77	-32
118	63	24
83	53	-38
41	57	-101
6	65	-81
-17	67	37
-39	61	79
-65	48	21
-95	36	0
-117	20	-32
-112	-16	-94
-72	-84	-98
-5	-175	-101
71	-254	-45
128	-274	8
151	-200	-24
138	-47	24
107	117	46
79	211	-12
63	178	-40
55	32	-68
42	-148	-45
13	-259	10
-33	-245	-8
-87	-123	-21
-130	23	-15
-150	98	-26
-142	66	-8
-113	-33	4
-77	-110	12
-40	-89	22
-5	31	24
25	177	2
59	249	-21
85	193	-47
101	37	-65
96	-112	-56
68	-162	-38
25	-81	-14
-20	74	-6
-56	186	4
-77	177	-15
-79	41	-5
-68	-131	1
-52	-238	-3
-36	-209	28
-22	-66	7
-10	102	-12
1	204	-53
8	197	-77
16	113	-66
27	25	-68
37	-7	-32
44	23	33
46	68	61
34	77	41
7	18	9
-31	-78	-40
-70	-161	-116
-98	-185	-111
-107	-147	-20
-95	-78	9
-64	-21	39
-28	1	64
12	-1	42
46	5	-65
76	39	-172
94	95	-124
103	136	-48
98	135	-54
79	78	-63
49	-4	34
14	-69	20
-18	-85	-9
-45	-41	-21
-64	27	-84
-75	84	-45
-69	90	-18
-46	43	-27
-6	-40	-122
44	-130	-98
93	-192	9
120	-208	11
113	-167	22
72	-84	12
16	18	1
-36	103	-19
-64	138	-17
-66	115	-5
-58	45	-3
-56	-24	21
-75	-61	-5
-109	-37	-29
-139	28	-47
-143	86	-114
-111	89	-108
-48	16	-24
26	-99	-12
86	-195	22
122	-204	64
130	-106	49
125	59	55
115	218	42
101	291	17
77	247	-17
34	110	-38
-22	-48	-81
-81	-160	-78
-128	-196	-44
-147	-171	-50
-134	-134	3
-98	-121	23
-55	-137	10
-12	-149	3
25	-119	-34
57	-29	-55
89	97	-59
115	206	-102
132	250	-103
130	210	-43
110	117	6
69	20	22
23	-37	24
-21	-37	46
-58	-2	38
-86	35	-36
-105	51	-120
-116	41	-109
-114	25	-48
-97	11	12
-61	8	85
-15	0	57
38	-23	56
82	-60	65
105	-96	-29
107	-109	-89
90	-90	-64
58	-47	-24
21	-6	-66
-16	9	-107
-51	-10	-88
-81	-49	-80
-100	-84	-105
-108	-95	-71
-101	-77	23
-84	-41	26
-53	-3	-3
-18	31	-17
18	66	1
52	109	-21
78	153	-197
91	181	-248
93	169	-169
80	105	-54
55	0	46
24	-109	44
-11	-178	51
-45	-184	66
-76	-131	71
-97	-56	29
-107	0	15
-100	14	57
-80	-8	98
-46	-33	85
-5	-23	37
37	39	37
75	135	41
101	224	-13
119	256	-92
123	205	-122
114	86	-145
84	-56	-110
30	-159	-84
-40	-182	-100
-117	-121	1
-173	-23	84
-194	45	110
-169	34	70
-107	-66	-9
-29	-210	-83
40	-316	-164
84	-308	-166
101	-162	-145
94	71	-104
82	298	-40
69	410	34
60	362	68
50	175	61
34	-58	68
10	-248	52
-20	-320	19
-50	-278	-33
-75	-173	-52
-91	-67	-30
-93	-4	19
-84	28	82
-59	56	46
-23	106	4
21	171	-14
64	211	-4
98	187	-17
115	89	-83
110	-44	-109
89	-152	-168
55	-179	-149
16	-120	-82
-22	-18	-49
-56	63	-4
-83	72	8
-101	9	-28
-107	-88	1
-99	-151	28
-81	-140	-10
-47	-61	16
-6	43	81
40	123	96
86	149	77
123	124	54
143	84	16
136	61	-63
103	64	-226
44	78	-245
-22	68	-209
-84	23	-171
-125	-51	-25
-140	-123	-43
-133	-162	2
-114	-153	17
-89	-106	24
-61	-48	74
-33	-3	4
1	24	12
40	47	13
78	80	13
104	124	41
109	165	48
94	171	1
63	126	-53
24	30	-69
-13	-87	-62
-45	-184	-85
-70	-229	-120
-92	-210	-16
-103	-149	64
-102	-70	37
-84	-9	15
-47	23	-56
-1	26	-106
44	19	-96
81	15	-72
99	19	-19
101	34	24
92	50	27
77	61	43
57	64	41
33	51	4
2	26	2
-34	-11	4
-68	-51	1
-95	-86	6
-105	-101	24
-97	-92	-8
-72	-60	-49
-39	-15	-56
-2	27	-7
35	62	11
