File Name: not saved
Channel 2: 'Channel 2', 30850 values, raw ADC, no filters.
Channel 3: 'Channel 3', 30850 values, raw ADC, no filters.
Channel 4: 'Channel 4', 30850 values, raw ADC, no filters.

189	82	-114
202	149	-151
190	138	-119
135	70	-40
39	-28	14
-76	-114	30
-183	-176	22
-251	-208	-1
-267	-215	-3
-237	-200	1
-176	-159	4
-105	-97	-23
-31	-25	-60
36	32	-75
97	60	-66
148	55	-40
179	40	-14
181	39	-7
144	68	-8
77	121	-23
-8	171	-55
-83	190	-76
-121	166	-62
-113	116	-15
-63	68	5
3	43	9
58	40	-9
81	33	-32
63	-4	-44
20	-83	-59
-31	-183	-70
-70	-260	-108
-93	-273	-93
-97	-201	-54
-84	-65	6
-57	83	71
-22	186	80
10	201	47
23	131	-4
-1	11	-37
-65	-110	-33
-154	-192	4
-221	-216	13
-222	-190	12
-130	-131	2
36	-58	-17
225	18	10
372	101	7
419	183	-15
360	248	1
229	269	-10
86	233	-50
-8	131	-87
-28	-3	-121
13	-127	-136
66	-205	-127
83	-216	-66
26	-185	-2
-99	-145	23
-262	-131	10
-404	-148	-33
-477	-167	-38
-456	-156	-5
-344	-87	28
-180	28	48
-3	158	68
138	252	55
219	283	9
237	257	-38
196	195	-79
128	128	-87
48	63	-71
-19	-8	-44
-63	-97	-35
-83	-202	-35
-77	-292	-32
-50	-332	-28
-5	-286	-28
52	-162	-35
121	-1	-36
188	138	-21
238	213	-4
260	218	10
244	171	26
195	123	17
122	95	1
46	88	-21
-21	79	-44
-74	47	-44
-113	-6	-53
-142	-62	-61
-158	-90	-60
-149	-70	-64
-104	-11	-64
-20	62	-21
89	115	21
193	136	52
258	132	74
255	132	70
180	158	59
46	203	7
-108	243	-46
-241	233	-78
-329	150	-103
-352	-8	-108
-319	-201	-79
-249	-384	-50
-169	-503	-40
-104	-539	5
-62	-492	24
-44	-393	41
-33	-274	81
-8	-163	64
42	-64	-3
122	23	-70
212	106	-134
285	187	-192
324	251	-196
302	275	-126
229	249	-44
116	171	1
-6	66	44
-115	-41	57
-190	-122	51
-226	-154	34
-226	-137	13
-200	-77	-16
-168	13	-42
-138	121	-45
-117	233	-44
-97	325	-48
-68	372	-47
-24	341	-15
38	219	20
107	13	48
162	-229	61
172	-434	49
128	-540	7
30	-502	-48
-101	-339	-87
-224	-109	-99
-304	98	-93
-308	209	-77
-237	190	-52
-108	67	-31
40	-88	0
165	-195	36
242	-199	30
263	-97	-3
242	67	-10
204	223	-24
169	304	-17
144	289	-3
120	195	4
85	70	-4
35	-37	-27
-17	-97	-13
-50	-110	7
-50	-98	19
-19	-86	32
24	-84	37
51	-78	0
47	-52	-44
23	5	-75
5	89	-76
27	171	-66
99	227	-61
200	235	-40
285	207	-12
302	162	-4
234	125	-28
77	106	-52
-116	96	-48
-299	79	5
-426	36	51
-484	-27	56
-472	-102	24
-400	-167	-24
-282	-209	-81
-130	-225	-128
41	-221	-117
196	-203	-91
302	-174	-105
321	-127	-138
245	-63	-168
100	7	-194
-59	56	-134
-180	59	-22
-234	-1	42
-221	-110	65
-172	-227	41
-115	-292	26
-67	-270	36
-18	-157	32
44	18	43
116	190	52
172	313	21
175	357	-31
106	327	-64
-24	244	-56
-164	137	-20
-248	15	28
-237	-120	59
-136	-252	80
3	-353	84
118	-381	62
165	-312	35
140	-158	1
79	29	-29
23	171	-60
2	215	-84
11	152	-84
29	28	-66
34	-76	-65
27	-100	-85
19	-25	-91
32	106	-66
76	228	-15
133	279	6
175	244	6
171	150	30
107	36	36
5	-47	43
-98	-92	45
-159	-100	26
-156	-98	15
-91	-96	12
5	-94	14
92	-82	11
139	-45	15
132	8	-5
86	71	-46
23	125	-76
-26	155	-108
-43	158	-130
-33	130	-156
-9	88	-134
14	39	-78
22	-2	-32
13	-29	-3
-7	-36	14
-36	-25	62
-69	-7	53
-107	8	-8
-140	10	-64
-150	2	-98
-114	-11	-153
-20	-11	-168
111	7	-126
242	38	-67
314	71	8
288	82	35
162	66	70
-29	25	87
-211	-21	100
-329	-50	75
-354	-56	-4
-310	-52	-44
-239	-62	-82
-186	-111	-79
-173	-198	-17
-177	-294	30
-159	-355	39
-83	-342	7
54	-246	-54
226	-97	-103
373	48	-123
454	131	-90
434	131	-27
324	64	-3
154	-24	-12
-32	-88	-54
-189	-104	-57
-299	-85	-30
-345	-67	-3
-325	-76	8
-247	-111	6
-121	-149	21
28	-147	4
172	-86	-30
274	29	-50
302	161	-36
254	268	-20
147	327	-15
21	335	0
-85	313	20
-138	276	31
-138	229	24
-108	156	24
-76	49	6
-67	-80	-12
-83	-196	-14
-105	-256	-9
-113	-228	-13
-92	-113	-22
-46	37	-21
10	161	-35
57	207	-49
85	168	-52
94	84	-56
96	4	-71
96	-26	-59
90	-11	-13
72	23	32
38	27	68
-8	-23	82
-54	-106	94
-80	-183	67
-76	-202	6
-44	-151	-64
-2	-47	-142
35	58	-176
59	117	-181
75	114	-140
90	66	-76
113	18	-30
136	-1	3
156	18	-23
162	58	-50
159	85	-68
156	81	-67
159	46	-45
155	9	16
116	-3	68
14	30	38
-154	99	18
-357	171	-12
-526	211	-18
-589	182	32
-516	74	80
-328	-96	68
-93	-280	34
111	-426	-7
221	-489	-82
225	-451	-116
160	-333	-109
79	-188	-84
20	-71	-61
-5	-22	-66
-8	-38	-112
-9	-87	-148
-19	-119	-132
-30	-103	-78
-30	-35	5
-10	53	34
24	129	40
55	171	28
75	186	3
75	201	-11
65	233	-26
59	279	-4
60	304	30
63	270	61
50	169	74
13	23	77
-51	-113	41
-124	-192	-17
-184	-200	-55
-213	-163	-64
-206	-130	-39
-174	-141	-26
-125	-192	-12
-68	-237	5
2	-217	29
98	-106	48
212	72	41
324	253	46
390	364	22
373	362	-19
266	268	-79
104	137	-135
-50	31	-157
-141	-29	-150
-145	-51	-135
-89	-78	-100
-23	-133	-66
0	-206	-52
-28	-254	-23
-71	-229	-28
-72	-117	-30
4	49	-35
143	205	-10
279	286	34
328	274	53
242	191	60
30	99	41
-233	45	32
-459	47	-4
-581	77	-34
-569	81	-69
-456	19	-88
-291	-116	-62
-129	-282	-20
10	-424	8
121	-481	7
210	-426	10
279	-279	11
314	-81	16
306	108	-14
251	244	-22
161	307	-23
63	299	-18
-18	244	-6
-61	180	-16
-64	124	-12
-40	84	-24
-10	48	-20
7	1	-26
0	-65	-38
-34	-140	-6
-79	-203	4
-116	-225	-46
-126	-196	-102
-97	-127	-138
-36	-48	-139
35	11	-103
87	32	-43
96	22	41
52	7	102
-20	5	112
-94	26	79
-125	53	11
-95	62	-63
-7	31	-123
101	-34	-155
188	-106	-113
216	-149	-49
175	-133	18
90	-58	56
5	51	29
-37	154	26
-16	213	26
52	221	19
122	181	20
150	124	-4
110	81	-18
13	67	-48
-106	84	-99
-199	105	-106
-239	104	-50
-226	53	0
-189	-39	0
-156	-157	-13
-142	-249	-34
-138	-277	-69
-121	-218	-100
-72	-91	-104
4	55	-84
85	163	-49
138	193	4
144	152	62
111	76	67
68	14	24
41	-4	-25
44	6	-45
65	6	-27
69	-45	-23
31	-150	-2
-55	-269	20
-165	-340	26
-256	-314	32
-294	-192	23
-258	-23	6
-160	125	-3
-22	203	-1
121	206	-12
245	169	-33
336	141	-77
366	140	-108
326	153	-98
212	137	-59
45	71	-16
-129	-38	14
-255	-150	19
-285	-215	1
-214	-216	-39
-85	-170	-78
41	-123	-64
110	-109	-38
103	-130	-49
57	-150	-66
26	-120	-70
58	-24	-58
151	114	-21
261	233	54
314	268	122
260	200	119
98	63	70
-119	-74	-9
-307	-152	-78
-406	-142	-143
-383	-77	-152
-269	-6	-69
-117	19	17
15	-7	83
92	-56	87
111	-87	38
93	-63	-8
56	5	-48
24	84	-84
7	130	-115
8	123	-160
32	70	-168
76	7	-117
128	-30	-55
171	-30	-13
179	4	-1
132	51	9
38	96	34
-83	131	34
-187	163	-2
-249	188	-22
-247	194	-21
-194	168	-20
-120	96	-11
-52	-10	20
-12	-121	48
10	-198	53
21	-219	32
39	-189	5
65	-139	18
93	-108	20
106	-111	-6
93	-133	-8
52	-137	0
-9	-87	21
-72	26	22
-120	169	-10
-137	283	-25
-115	319	-32
-58	256	-52
17	122	-80
91	-22	-103
143	-123	-136
167	-157	-143
161	-133	-121
133	-92	-105
92	-64	-77
38	-69	-54
-31	-89	-39
-107	-101	-4
-175	-85	49
-212	-44	107
-202	-6	130
-150	6	133
-75	-23	87
-6	-80	-5
34	-134	-86
52	-158	-133
64	-136	-142
90	-78	-118
124	-8	-69
144	45	-38
113	66	-30
24	53	7
-104	19	37
-216	-21	32
-262	-49	14
-228	-59	-14
-130	-47	-30
-29	-6	-57
34	52	-77
44	120	-64
30	174	-72
33	191	-87
82	168	-82
169	109	-65
253	45	-51
287	8	-44
253	17	-40
159	63	-41
44	115	-32
-59	127	-9
-128	72	44
-166	-34	68
-181	-154	82
-182	-228	134
-166	-216	140
-126	-125	82
-66	3	-23
8	108	-132
82	150	-192
144	120	-174
188	55	-80
211	3	-4
205	-2	39
162	38	52
76	91	24
-41	116	20
-157	89	3
-237	24	-10
-247	-33	4
-187	-38	39
-82	31	43
28	148	10
111	255	-28
165	283	-86
194	197	-112
209	-2	-124
212	-254	-98
189	-481	-36
129	-601	17
34	-578	32
-63	-429	-12
-138	-216	-21
-176	-21	-6
-193	96	-52
-223	113	-97
-285	55	-106
-370	-23	-91
-431	-75	-37
-418	-76	26
-303	-43	68
-110	-7	72
96	0	56
245	-21	12
312	-44	-14
305	-37	-24
265	20	-59
233	106	-80
208	182	-70
169	202	-95
86	152	-136
-40	59	-106
-169	-21	-49
-250	-46	25
-240	-3	96
-143	75	123
-7	137	79
106	144	2
152	95	-83
132	25	-134
76	-10	-139
24	15	-128
-2	95	-59
-7	174	-8
-12	205	4
-37	149	4
-78	22	-6
-114	-126	-10
-123	-240	-5
-95	-277	-13
-40	-240	-27
18	-157	-27
57	-68	-28
75	-9	-33
75	14	-38
77	13	-32
90	14	-29
107	32	7
123	71	54
120	120	94
96	154	149
54	159	150
11	124	85
-24	61	-8
-42	-13	-98
-43	-81	-172
-28	-125	-186
1	-144	-137
44	-139	-75
104	-113	-23
171	-69	-5
232	-12	16
262	53	14
242	121	-10
156	173	-32
8	197	-44
-170	185	-33
-344	137	-28
-459	67	-32
-497	-7	-36
-450	-70	-38
-335	-118	-42
-201	-149	-43
-87	-173	-26
-16	-186	12
11	-187	36
21	-164	8
46	-103	-27
105	-7	-11
198	110	12
297	218	47
363	279	46
368	268	19
296	182	-40
161	39	-99
-5	-119	-80
-162	-248	-88
-272	-321	-81
-321	-331	-63
-312	-298	-56
-259	-251	-40
-184	-207	-58
-101	-173	-74
-16	-134	-69
78	-80	-56
182	-8	-91
280	74	-112
343	147	-92
334	203	-61
234	244	-20
50	279	21
-156	299	45
-329	287	52
-415	224	85
-401	91	108
-319	-89	127
-216	-264	135
-140	-371	102
-97	-359	46
-66	-240	-18
-17	-64	-71
74	86	-128
194	158	-163
302	143	-140
360	85	-89
344	40	-46
258	43	-41
128	89	-80
-7	131	-96
-121	129	-78
-204	66	-44
-247	-29	-4
-250	-117	18
-208	-154	54
-120	-133	89
8	-80	91
159	-24	77
297	13	32
387	41	-10
406	77	-22
354	131	-10
251	196	28
131	238	87
31	229	107
-33	158	47
-71	43	-34
-104	-74	-105
-148	-160	-172
-211	-196	-193
-273	-191	-127
-304	-159	-28
-277	-121	18
-195	-82	28
-84	-37	-12
21	15	-46
83	71	-37
99	117	-59
85	141	-84
69	138	-78
72	110	-72
89	70	-58
96	27	-40
72	-13	-49
17	-48	-40
-52	-79	-48
-104	-100	-58
-119	-108	-51
-95	-104	-49
-50	-89	-15
-15	-68	-7
2	-48	2
4	-26	68
12	-4	90
37	24	87
82	52	62
125	75	-8
145	78	-31
130	63	-56
86	45	-65
32	41	-62
-16	64	-80
-42	104	-100
-50	133	-109
-46	117	-95
-38	29	-70
-28	-121	-31
-17	-292	-14
-15	-425	-21
-24	-466	-3
-50	-401	14
-88	-248	9
-121	-67	4
-137	83	-1
-125	159	25
-90	160	43
-44	103	28
-5	36	17
17	-6	19
18	-9	12
-3	23	12
-44	72	22
-106	117	11
-172	136	-3
-221	123	-10
-232	81	-25
-191	23	-49
-109	-30	-75
-16	-61	-88
52	-54	-72
89	-21	-60
106	22	-51
136	41	-11
198	21	5
275	-38	-17
324	-107	-46
299	-142	-63
184	-120	-74
27	-42	-83
-107	55	-74
-151	127	-45
-95	143	16
22	104	76
127	43	105
166	12	66
131	36	0
63	106	-44
8	181	-91
-6	209	-80
6	162	-36
10	56	15
-23	-63	52
-89	-145	37
-156	-162	30
-184	-120	24
-161	-56	21
-96	-12	30
-22	-2	23
34	-23	-34
64	-39	-130
83	-21	-182
97	37	-194
106	118	-126
97	183	-32
54	199	-6
-12	152	8
-81	58	-17
-111	-47	-58
-86	-130	-58
-16	-174	-28
62	-183	4
109	-174	36
110	-167	45
82	-167	-5
61	-159	-72
81	-118	-156
132	-32	-182
189	95	-133
194	233	-46
121	338	20
-21	372	24
-176	319	9
-279	189	-20
-291	12	-19
-214	-177	6
-103	-339	21
-20	-448	30
-15	-481	9
-85	-429	3
-194	-308	22
-291	-144	29
-338	8	31
-332	107	0
-295	124	-22
-250	72	-44
-202	-8	-51
-137	-63	-15
-37	-59	11
106	1	9
260	84	2
380	143	-3
417	160	-25
357	132	-33
223	98	-22
65	80	-12
-53	84	-14
-101	92	-25
-76	77	-27
1	25	-16
94	-50	-21
175	-114	-32
222	-138	-27
231	-113	-42
197	-53	-63
128	7	-72
35	42	-71
-55	41	-56
-123	15	-32
-150	-25	-10
-130	-68	0
-81	-105	11
-22	-124	20
26	-114	4
56	-65	12
69	20	21
68	130	4
56	227	-8
27	282	-22
-19	283	-26
-79	244	-24
-136	188	-18
-174	139	3
-182	100	26
-162	51	4
-129	-21	3
-101	-121	19
-84	-218	6
-69	-279	-4
-46	-268	-19
-1	-189	-30
66	-76	-69
139	29	-105
202	92	-117
229	113	-130
219	117	-120
179	130	-100
122	153	-74
63	161	-27
9	121	-10
-32	22	-20
-55	-119	4
-60	-246	28
-45	-299	50
-22	-254	77
-3	-127	87
-5	25	48
-31	149	-39
-78	213	-128
-116	224	-187
-128	210	-208
-105	195	-168
-51	174	-55
10	128	9
61	30	49
90	-111	67
107	-263	39
126	-373	19
148	-394	14
161	-332	8
131	-213	-51
41	-96	-104
-113	-21	-102
-289	2	-86
-426	-3	-50
-472	-5	7
-394	16	21
-234	56	-5
-40	98	-42
110	127	-61
175	138	-35
169	143	-11
130	144	-13
118	131	-8
159	83	-7
231	-19	3
279	-157	21
245	-299	12
109	-384	15
-98	-378	13
-299	-279	7
-397	-130	6
-350	5	19
-169	82	54
62	92	49
241	64	29
287	46	6
188	72	-30
-8	143	-47
-210	229	-64
-330	283	-69
-325	274	-50
-221	199	-36
-70	80	-38
59	-44	-41
135	-133	-32
161	-166	-24
169	-136	-26
194	-61	-25
245	32	-9
297	114	21
314	162	48
272	168	57
172	140	54
47	101	30
-51	65	-9
-98	39	-47
-95	14	-84
-75	-30	-109
-79	-100	-98
-117	-182	-83
-178	-244	-65
-222	-253	-43
-213	-192	-27
-148	-84	-32
-45	32	-84
46	114	-136
100	137	-151
107	117	-140
89	85	-95
70	76	-20
61	96	35
61	123	91
50	125	133
19	80	168
-27	-1	202
-61	-82	196
-66	-117	121
-37	-87	-8
9	-5	-93
42	92	-151
42	154	-215
8	160	-227
-41	108	-165
-79	26	-70
-84	-59	12
-56	-131	-3
-12	-183	-69
36	-224	-141
81	-256	-176
119	-275	-159
154	-272	-103
178	-233	-6
174	-156	56
121	-47	80
14	77	65
-131	190	34
-279	265	19
-378	278	30
-394	209	16
-325	65	22
-193	-114	38
-37	-273	4
99	-345	-22
181	-301	-21
200	-153	-7
165	31	-7
96	169	-11
18	208	1
-55	143	8
-117	36	7
-166	-35	-4
-205	-15	-8
-232	93	-30
-237	224	-65
-215	291	-54
-159	237	-47
-75	74	-30
24	-127	-5
110	-263	-20
169	-268	-25
202	-154	-40
216	15	-48
240	141	-32
273	164	7
302	72	48
301	-70	52
234	-190	37
104	-227	10
-62	-165	-43
-212	-43	-57
-285	81	-23
-259	157	-12
-150	170	-46
-6	139	-86
118	98	-95
189	79	-109
199	80	-85
169	88	-35
118	76	3
64	25	53
9	-58	70
-45	-153	29
-92	-223	-13
-115	-240	-48
-104	-192	-102
-64	-101	-131
-18	6	-106
9	86	-53
2	120	-47
-33	113	-37
-64	82	-9
-67	60	26
-26	61	75
42	78	56
107	82	24
139	45	-9
123	-37	-88
71	-151	-147
3	-246	-162
-58	-282	-126
-106	-241	-15
-138	-127	38
-157	11	23
-159	127	9
-135	187	-28
-85	186	-55
-17	143	-54
48	95	17
86	65	71
84	64	55
50	80	29
8	96	-19
-18	95	-29
-13	68	-24
17	24	-38
60	-24	-19
102	-64	9
130	-82	22
144	-74	7
143	-42	5
119	5	-15
64	62	-54
-22	119	-76
-123	163	-79
-214	180	-48
-262	155	-55
-247	79	-49
-173	-50	-31
-69	-202	-28
25	-345	-5
85	-430	38
95	-426	53
62	-330	38
2	-170	31
-66	6	37
-133	150	21
-185	225	-22
-215	223	-56
-217	157	-100
-188	46	-117
-132	-71	-113
-66	-167	-99
-11	-204	-49
22	-173	1
27	-77	46
14	45	84
-3	137	85
-8	153	13
7	77	-42
40	-47	-76
81	-151	-101
119	-165	-87
144	-66	-56
161	100	-1
175	256	8
205	327	-10
257	286	-20
325	166	-16
386	32	36
404	-56	90
351	-90	95
216	-86	52
32	-86	-32
-164	-104	-136
-307	-126	-215
-364	-122	-247
-339	-79	-194
-262	-15	-88
-180	24	-30
-117	8	-4
-85	-55	6
-60	-120	4
-25	-127	26
27	-51	22
84	80	48
122	200	76
127	243	28
95	193	-7
46	85	-30
3	-11	-63
-25	-43	-95
-37	-17	-122
-45	25	-99
-52	25	-81
-61	-32	-32
-58	-115	30
-45	-159	38
-24	-118	57
-10	0	48
-8	143	35
-20	237	37
-30	236	24
-24	149	18
4	30	-1
39	-52	-22
68	-70	-56
71	-39	-75
44	-2	-67
1	2	-84
-40	-34	-57
-61	-86	-43
-57	-119	-58
-27	-117	-37
22	-85	0
84	-54	38
140	-41	53
172	-43	65
159	-34	55
80	15	32
-54	106	-22
-215	213	-67
-337	278	-79
-377	255	-91
-305	130	-79
-152	-58	-36
25	-246	-7
162	-362	26
205	-362	62
154	-258	34
35	-93	-6
-97	57	-47
-200	127	-77
-253	86	-91
-248	-51	-92
-195	-228	-74
-104	-368	-65
12	-408	-70
137	-331	-70
252	-164	-59
319	24	-45
318	161	-21
238	205	-11
99	161	20
-64	83	72
-201	25	96
-269	28	63
-249	90	-14
-152	171	-69
-20	233	-117
104	244	-131
175	215	-90
175	174	-19
124	139	52
55	115	69
5	80	47
-7	17	-2
15	-70	-51
41	-151	-59
46	-186	-36
16	-153	-15
-31	-66	-18
-68	27	-7
-66	81	28
-18	69	70
59	12	134
126	-52	177
154	-77	120
137	-46	8
99	15	-129
70	72	-262
78	92	-311
115	69	-270
151	22	-183
148	-20	-95
81	-41	-48
-42	-44	-37
-190	-40	-30
-310	-39	-35
-364	-42	-37
-343	-40	-42
-262	-25	-31
-153	-1	-3
-43	19	49
41	27	110
99	20	108
130	19	67
140	35	18
133	80	-8
116	138	-15
92	186	12
67	199	47
52	165	44
46	102	37
48	35	34
44	-8	37
29	-19	9
-3	-7	-18
-47	7	-54
-87	1	-128
-106	-36	-120
-91	-112	-103
-41	-216	-89
35	-338	-60
116	-451	-62
175	-519	-70
190	-508	-83
141	-395	-67
41	-200	-37
-101	35	-9
-245	237	-13
-352	335	-15
-393	300	-4
-358	157	-11
-259	-25	0
-130	-164	-4
-20	-199	-6
37	-126	1
26	12	5
-40	150	11
-120	221	13
-169	204	47
-140	115	56
-28	8	15
141	-61	-1
311	-65	-13
405	-6	-37
383	77	-85
241	135	-86
34	129	-34
-159	59	-38
-250	-39	-37
-212	-116	-31
-71	-127	-20
90	-66	-7
192	41	-13
190	140	-12
99	183	-14
-18	150	-24
-89	56	-40
-77	-46	-66
8	-110	-102
111	-110	-110
179	-59	-74
175	10	-28
115	58	41
28	68	134
-45	52	168
-83	30	133
-86	28	65
-62	48	-22
-29	80	-135
10	98	-241
52	93	-273
91	66	-179
113	31	-58
107	1	13
74	-24	68
20	-48	75
-38	-81	56
-84	-119	37
-112	-148	5
-125	-151	-15
-133	-117	-3
-129	-53	17
-110	20	0
-63	81	-25
8	115	-62
90	126	-84
157	122	-96
183	118	-120
163	110	-111
101	96	-106
20	65	-79
-60	17	-23
-125	-40	4
-168	-100	-2
-191	-150	-1
-191	-186	1
-172	-201	0
-127	-191	18
-65	-152	35
-6	-87	15
41	-11	4
62	53	39
61	79	15
54	49	-10
58	-26	-12
85	-120	-34
123	-196	-19
154	-231	-15
142	-214	-37
77	-160	-40
-36	-82	-40
-166	1	-52
-264	75	-48
-303	131	-23
-262	161	23
-160	153	60
-30	106	61
97	40	46
202	-10	9
271	-9	-23
306	59	-48
292	179	-52
225	298	-52
95	354	-49
-75	312	-53
-234	170	-80
-337	-32	-97
-339	-232	-87
-249	-375	-39
-111	-427	24
7	-393	109
59	-296	162
48	-157	147
14	-7	58
9	125	-72
59	213	-193
141	244	-282
202	215	-282
188	147	-192
89	76	-54
-57	27	39
-190	15	75
-253	23	69
-236	19	57
-162	-19	44
-76	-84	42
0	-143	37
66	-156	-7
130	-93	-46
196	28	-91
238	157	-111
230	230	-95
155	215	-31
38	123	31
-69	-5	47
-120	-109	34
-98	-153	0
-34	-133	-75
19	-79	-138
20	-23	-140
-29	7	-138
-91	6	-98
-110	-13	-35
-63	-39	17
33	-58	35
132	-66	43
184	-54	36
176	-18	11
126	43	7
71	119	1
42	183	13
41	206	21
52	168	24
58	76	10
50	-42	5
33	-140	24
17	-189	16
-5	-180	2
-48	-134	7
-123	-82	14
-225	-43	1
-318	-24	-30
-370	-11	-50
-347	11	-63
-259	37	-72
-130	56	-74
-5	43	-68
94	-3	-46
166	-70	-32
222	-129	-23
261	-148	-7
270	-122	-22
226	-68	-11
115	-23	-1
-50	-6	-18
-207	-22	-42
-300	-46	-68
-288	-47	-40
-184	-12	-15
-39	49	-19
84	105	-21
141	129	-7
137	118	38
105	95	70
88	89	64
98	115	41
118	158	19
116	180	-40
68	148	-130
-16	52	-165
-101	-70	-126
-148	-170	-84
-130	-200	-62
-63	-157	-57
25	-72	-70
99	-1	-78
132	23	-48
123	6	-4
83	-17	20
28	-1	27
-28	68	19
-74	166	5
-103	239	1
-113	232	16
-102	131	56
-84	-31	85
-67	-192	77
-68	-291	59
-85	-298	16
-104	-226	-99
-107	-124	-223
-83	-42	-270
-29	-4	-259
35	-3	-188
85	-9	-88
113	3	-14
116	40	36
111	85	54
107	110	52
113	96	31
117	45	3
103	-17	7
68	-59	38
13	-60	58
-46	-24	56
-88	21	32
-94	45	18
-57	23	20
15	-37	24
107	-109	49
199	-154	81
254	-140	107
241	-57	80
141	74	9
-32	214	-91
-244	317	-189
-433	336	-217
-532	247	-185
-496	55	-147
-331	-192	-99
-84	-424	-40
172	-562	-2
358	-540	-2
414	-353	-24
324	-58	-63
122	241	-105
-121	438	-90
-321	473	-36
-412	339	45
-361	110	112
-200	-114	147
3	-251	166
166	-270	138
240	-192	70
216	-85	-30
145	-1	-99
78	34	-106
55	30	-90
69	20	-76
86	30	-70
67	68	-56
8	122	-38
-63	169	-53
-101	193	-84
-72	185	-75
9	153	-62
102	104	-69
154	48	-50
138	-5	-31
69	-50	-28
-10	-76	-8
-67	-80	-2
-86	-66	8
-77	-47	29
-65	-36	55
-61	-41	84
-58	-56	95
-35	-64	96
16	-52	57
84	-12	6
142	43	-38
159	91	-87
132	112	-118
82	97	-133
37	56	-138
20	9	-92
18	-27	-48
6	-52	-37
-43	-72	-45
-128	-98	-50
-217	-131	-24
-264	-161	-21
-237	-171	-30
-138	-147	-27
-5	-94	-23
111	-27	-19
171	31	-22
172	65	-14
140	83	-4
107	96	-11
88	118	-25
81	148	-22
62	166	6
8	144	47
-83	68	97
-190	-42	112
-287	-153	89
-347	-218	59
-347	-214	11
-289	-144	-57
-182	-49	-124
-47	27	-137
96	60	-136
212	50	-101
275	29	-40
270	25	-32
206	51	-44
113	93	-51
25	115	-39
-25	101	-51
-39	41	-56
-41	-32	-37
-54	-97	-49
-89	-133	-62
-126	-144	-76
-127	-158	-55
-69	-184	-33
39	-222	-24
150	-233	0
206	-187	7
175	-68	17
77	99	45
-33	256	68
-89	341	69
-63	321	60
18	205	21
93	48	-27
96	-91	-47
8	-169	-57
-137	-179	-46
-262	-145	-15
-311	-101	-13
-254	-63	-34
-117	-32	-69
42	3	-114
179	53	-120
259	105	-68
290	142	-12
288	144	43
273	114	42
248	65	15
212	31	13
162	30	-16
94	58	-23
17	99	-16
-65	120	-24
-149	106	-19
-222	57	5
-272	-3	32
-285	-51	4
-247	-72	-42
-164	-66	-32
-60	-49	-25
27	-30	-17
77	-13	7
76	8	-4
44	39	-39
4	77	-55
-21	107	-60
-22	106	-74
-8	60	-62
5	-28	-25
10	-126	-11
4	-200	7
-14	-221	32
-36	-177	19
-65	-96	5
-100	-15	-6
-126	31	-26
-126	28	-49
-83	-13	-44
13	-59	-12
147	-77	-5
295	-51	-33
415	15	-66
484	85	-98
483	125	-130
398	104	-136
221	18	-86
-45	-99	0
-366	-202	103
-683	-248	167
-904	-226	164
-946	-153	83
-775	-84	-74
-436	-58	-214
-43	-91	-306
271	-142	-302
417	-152	-192
381	-70	-46
238	99	42
102	292	65
52	412	57
96	389	59
171	215	94
196	-28	100
132	-232	58
3	-297	21
-118	-202	18
-166	-14	11
-113	161	-24
1	233	-52
114	186	-60
175	71	-56
179	-19	-37
161	-24	-12
164	51	30
198	150	79
239	194	78
238	147	41
169	25	-2
39	-104	-69
-91	-175	-107
-168	-162	-94
-166	-83	-59
-108	4	-31
-44	55	-39
-20	52	-63
-50	23	-84
-103	4	-95
-138	15	-70
-121	53	-38
-57	88	-4
20	97	19
74	70	20
79	24	24
42	-15	21
-6	-34	26
-44	-36	21
-60	-39	0
-63	-55	7
-68	-85	-8
-86	-107	-45
-105	-102	-60
-113	-62	-76
-91	3	-54
-36	63	-16
31	93	3
94	79	8
122	31	-31
113	-25	-75
70	-65	-95
23	-74	-86
-3	-56	-57
5	-25	-21
46	-1	4
96	2	17
122	-26	23
103	-76	9
39	-127	-19
-47	-166	-32
-119	-169	-34
-145	-139	-43
-130	-86	-52
-96	-31	-53
-80	4	-36
-106	20	-45
-169	26	-63
-236	45	-64
-260	84	-93
-226	129	-121
-138	148	-98
-35	106	-34
44	1	74
77	-139	176
68	-250	233
48	-276	184
41	-196	37
57	-43	-95
86	110	-202
107	201	-243
111	193	-206
93	115	-106
70	27	11
54	-8	87
51	23	124
49	94	125
38	145	91
7	129	36
-36	41	-21
-75	-72	-78
-89	-155	-100
-60	-160	-115
10	-90	-95
106	17	-19
204	105	16
270	141	3
287	124	6
248	90	13
175	68	38
106	79	85
65	106	105
66	123	82
94	110	15
111	65	-50
82	13	-105
-8	-21	-147
-148	-25	-132
-290	-12	-70
-392	-12	-63
-426	-51	-84
-383	-137	-98
-285	-240	-129
-162	-318	-141
-40	-326	-129
66	-256	-96
144	-121	-65
190	33	-41
194	150	-13
151	199	10
76	174	31
-15	106	68
-95	36	77
-142	-1	62
-150	2	65
-126	30	43
-91	55	27
-51	53	13
-15	22	-25
21	-23	-57
64	-56	-71
111	-56	-25
154	-24	8
170	28	2
156	74	4
107	97	-5
37	90	23
-39	58	49
-109	15	43
-163	-34	9
-198	-81	-72
-203	-126	-155
-173	-164	-202
-93	-187	-244
30	-190	-218
179	-168	-97
306	-127	2
363	-81	71
320	-33	82
172	10	64
-26	51	80
-217	92	44
-324	118	11
-319	116	-4
-215	72	-24
-67	-8	-36
60	-98	-40
122	-158	-21
106	-160	13
38	-100	26
-44	-5	9
-103	80	5
-116	116	-5
-85	95	-5
-20	35	-10
59	-20	-33
135	-34	-25
184	-3	-28
188	60	-49
135	120	-59
32	152	-47
-95	144	-31
-212	106	-15
-273	62	5
-262	22	2
-175	-7	-5
-40	-26	-7
104	-38	-5
216	-40	0
273	-28	4
269	7	-1
216	63	-24
137	136	-57
54	205	-65
-16	244	-26
-70	239	-11
-115	160	-7
-151	16	-6
-181	-173	-28
-204	-359	-25
-206	-492	-21
-180	-521	-5
-119	-430	12
-33	-248	5
64	-30	-39
159	158	-107
225	271	-128
250	311	-123
225	311	-128
157	313	-134
63	337	-113
-27	357	-94
-88	323	-72
-108	183	22
-92	-60	102
-67	-356	82
-60	-611	36
-89	-732	13
-134	-683	13
-162	-490	17
-135	-242	-1
-37	-27	-26
111	89	-54
268	111	-118
371	85	-165
388	79	-158
314	127	-112
178	228	-23
16	331	22
-139	387	13
-266	359	29
-360	252	32
-407	101	41
-403	-50	65
-346	-161	54
-247	-213	63
-132	-207	66
-31	-160	67
33	-94	45
65	-25	-8
89	28	-11
125	63	-8
191	81	-42
265	89	-72
312	96	-75
292	106	-47
201	112	-14
55	99	6
-93	56	5
-202	-21	-5
-243	-115	-30
-221	-196	-59
-165	-238	-80
-103	-218	-108
-57	-149	-108
-23	-54	-89
13	27	-75
63	74	-53
130	84	-32
196	67	-9
244	50	30
257	41	54
232	53	65
178	78	55
107	110	32
32	147	14
-40	183	-16
-108	209	-26
-165	202	-32
-209	145	-36
-231	29	-21
-221	-125	14
-179	-285	69
-114	-393	85
-34	-413	43
36	-340	-13
86	-205	-81
107	-60	-141
99	41	-205
69	81	-229
28	62	-178
-18	20	-145
-61	-15	-104
-96	-25	-63
-112	-19	-62
-107	-13	-48
-78	-19	-39
-27	-29	-32
29	-18	-9
66	37	52
68	143	137
27	269	160
-39	364	137
-97	373	88
-109	279	-12
-54	98	-92
53	-117	-138
172	-292	-107
253	-381	-3
258	-368	82
191	-282	120
79	-177	83
-30	-81	24
-103	-7	-39
-130	60	-112
-133	140	-151
-132	233	-138
-133	301	-95
-129	299	-39
-96	200	17
-26	22	20
69	-168	20
151	-287	30
184	-272	54
156	-125	31
84	80	-46
6	241	-64
-47	275	-78
-63	174	-79
-57	-4	-60
-51	-160	-38
-57	-215	-17
-64	-154	-35
-49	-20	-46
4	100	-40
87	141	-31
174	86	-20
226	-31	5
225	-151	27
175	-223	13
105	-223	-11
29	-170	-29
-41	-94	-30
-115	-26	-19
-201	23	-23
-291	50	-19
-354	60	-14
-360	56	-39
-291	41	-42
-169	28	-51
-28	26	-76
83	48	-67
139	94	-82
148	143	-89
139	171	-50
141	148	-23
162	70	-10
179	-41	40
161	-145	72
91	-203	75
-23	-192	64
-130	-121	32
-186	-23	8
-143	59	-18
-8	96	-28
175	87	4
322	56	51
354	43	53
236	81	-1
-14	173	-57
-310	283	-61
-554	345	-32
-645	301	-10
-561	117	-21
-345	-175	-77
-101	-486	-138
77	-703	-207
140	-745	-215
111	-599	-170
56	-322	-70
52	-25	28
127	187	71
244	273	58
332	256	26
326	205	15
212	183	-13
37	209	-19
-117	244	-42
-195	233	-37
-175	136	-7
-93	-27	4
-5	-192	17
36	-291	14
18	-283	-11
-38	-192	-38
-96	-74	-41
-116	18	-21
-89	56	3
-16	61	10
75	62	37
159	89	46
216	131	27
237	161	5
223	153	-11
188	104	-38
152	42	-65
120	-2	-78
90	-17	-76
52	-9	-51
-4	-5	-42
-72	-22	-10
-135	-57	24
-166	-88	53
-150	-86	57
-93	-43	15
-20	21	-25
30	77	-66
42	103	-85
24	97	-75
-2	81	-51
-9	71	0
7	80	47
33	85	52
44	71	13
26	27	-21
-17	-42	-54
-63	-108	-105
-91	-143	-109
-91	-137	-44
-70	-97	-6
-53	-43	10
-48	8	16
-45	47	9
-23	84	6
41	118	-24
150	149	-56
283	168	-84
387	165	-67
411	150	-32
322	142	-71
119	158	-132
-166	191	-127
-470	205	-133
-714	142	-122
-844	-40	-74
-829	-334	-40
-675	-673	28
-419	-935	69
-132	-1017	91
117	-857	107
290	-509	93
371	-92	38
373	250	-15
336	411	-32
287	382	-53
242	239	-72
198	98	-90
145	46	-109
77	102	-137
-4	206	-112
-81	272	-35
-129	237	10
-132	99	44
-89	-81	39
-10	-219	24
77	-261	24
137	-200	11
148	-80	13
102	45	2
14	134	-26
-82	183	-31
-152	203	-26
-170	210	-13
-128	205	-8
-43	171	5
52	103	9
130	4	7
169	-95	41
164	-159	65
126	-167	77
75	-123	85
27	-55	69
0	11	24
2	61	-27
34	99	-77
87	135	-113
139	174	-117
160	204	-106
120	204	-96
16	166	-88
-130	100	-80
-271	31	-61
-350	-15	-45
-331	-29	-26
-218	-36	-6
-54	-64	22
98	-129	44
192	-211	21
211	-263	8
175	-243	-24
115	-137	-86
66	16	-98
41	147	-99
34	196	-89
32	141	-68
32	24	-55
36	-93	-10
46	-145	51
57	-116	104
48	-33	115
4	45	35
-78	70	-74
-177	28	-145
-257	-53	-200
-280	-127	-202
-234	-156	-124
-136	-127	-27
-22	-53	51
69	34	99
115	117	65
115	177	-9
86	206	-28
55	199	-33
36	147	-31
37	52	-8
52	-66	-18
71	-177	-25
82	-246	-1
71	-251	8
38	-203	-3
-20	-133	-28
-89	-78	-30
-158	-58	-23
-212	-64	-47
-233	-70	-45
-212	-46	-52
-142	11	-40
-32	71	14
97	97	67
211	56	100
263	-35	97
226	-131	65
88	-171	16
-107	-118	-39
-298	6	-92
-416	141	-97
-417	210	-67
-312	180	-45
-144	68	-44
11	-52	-60
114	-105	-47
155	-52	-36
162	81	3
175	225	72
223	305	66
282	290	19
319	194	-42
291	75	-108
189	-19	-133
37	-62	-118
-110	-79	-13
-195	-90	78
-199	-121	87
-129	-156	67
-25	-162	-20
67	-117	-72
127	-26	-60
149	77	-79
150	148	-97
147	163	-89
139	135	-63
122	98	-8
77	79	35
-1	81	27
-101	70	4
-193	12	-30
-250	-112	-89
-260	-274	-175
-227	-413	-241
-176	-466	-226
-126	-401	-150
-97	-242	-74
-78	-47	10
-54	110	61
-12	193	74
57	201	96
141	171	83
216	147	86
261	151	72
261	183	47
219	211	26
155	221	-9
89	200	-30
41	161	-26
17	114	24
16	66	54
18	17	41
5	-43	9
-38	-105	21
-115	-153	16
-209	-169	-47
-295	-140	-91
-333	-81	-112
-305	-25	-119
-202	-14	-138
-60	-63	-94
80	-160	-25
171	-263	4
184	-316	41
121	-292	21
8	-192	-8
-117	-56	-28
-222	66	-71
-282	135	-78
-295	134	-48
-251	79	20
-151	-4	103
-3	-77	138
167	-113	127
318	-102	81
397	-43	17
374	39	-34
265	126	-84
117	193	-147
1	219	-141
-30	200	-99
29	143	-68
130	68	4
205	-6	22
202	-66	-4
115	-110	-30
-10	-133	-84
-113	-137	-112
-159	-120	-98
-148	-74	-74
-115	-5	-50
-93	75	-35
-88	137	-41
-74	162	-65
-20	135	-76
80	71	-64
195	-2	-62
266	-54	-48
234	-58	-47
85	-14	-35
-147	64	-1
-377	147	3
-526	197	22
-554	191	62
-459	114	96
-291	-17	93
-103	-167	76
49	-282	28
145	-313	-21
184	-238	-20
188	-71	2
175	119	-11
165	264	-65
169	301	-66
184	227	-57
202	81	-39
198	-55	60
158	-122	192
71	-97	237
-39	-5	209
-147	93	123
-214	149	-54
-224	138	-211
-180	78	-276
-106	-8	-306
-35	-100	-276
16	-196	-252
44	-308	-235
65	-417	-120
87	-497	-21
107	-496	43
117	-393	82
98	-202	87
51	18	84
-3	195	27
-34	279	-45
-18	272	-78
42	215	-124
124	171	-133
182	165	-65
183	186	28
116	190	102
1	147	77
-122	52	74
-217	-53	41
-259	-129	-25
-249	-150	-43
-206	-126	-59
-161	-98	-35
-133	-91	-21
-129	-105	-6
-133	-109	0
-124	-67	4
-80	24	7
9	132	-24
128	203	-50
258	195	-50
358	116	-31
407	20	-17
392	-30	5
310	1	3
178	91	-11
13	175	-4
-152	190	8
-285	101	0
-363	-58	-28
-366	-218	-10
-298	-309	29
-179	-288	62
-56	-179	90
37	-32	95
89	92	84
104	164	63
113	182	-4
138	168	-129
182	143	-184
222	124	-171
226	106	-111
172	86	-58
68	62	-53
-52	40	-48
-145	20	-69
-186	6	-52
-174	-17	-41
-135	-53	-27
-102	-110	-4
-87	-170	-4
-80	-215	5
-60	-219	22
-12	-169	47
59	-78	57
132	27	81
171	105	57
162	130	-15
111	97	-130
49	23	-246
7	-54	-299
-7	-107	-268
-1	-117	-163
2	-95	-56
-14	-61	20
-43	-39	49
-67	-36	42
-65	-37	34
-33	-23	34
15	23	29
48	98	32
43	179	39
1	235	53
-52	233	80
-70	160	74
-28	29	21
83	-123	-58
216	-254	-116
314	-320	-113
302	-301	-70
148	-199	-35
-132	-41	-9
-477	129	-19
-765	265	-25
-902	325	22
-829	286	45
-566	150	60
-206	-51	56
147	-263	19
373	-423	-32
431	-469	-82
342	-380	-114
186	-182	-109
42	50	-67
-35	227	-22
-29	274	7
31	181	14
109	2	-11
172	-176	-66
212	-264	-104
228	-233	-86
216	-104	-27
178	58	30
115	188	72
40	253	131
-29	267	196
-67	261	215
-64	261	194
-24	259	90
29	228	-44
68	139	-186
84	6	-328
69	-136	-400
39	-230	-376
4	-238	-222
-28	-167	-26
-50	-61	130
-62	24	179
-56	61	87
-28	56	-30
22	48	-157
81	72	-270
125	135	-289
141	206	-208
122	229	-54
78	170	80
20	30	150
-33	-139	170
-81	-276	152
-124	-330	120
-161	-289	78
-184	-194	33
-180	-92	0
-137	-19	19
-62	19	36
30	40	24
118	78	1
190	140	-19
249	218	-2
302	275	-11
350	279	-40
363	221	-47
306	117	-50
154	3	-44
-95	-88	-31
-379	-152	-6
-617	-196	10
-740	-256	7
-700	-331	-25
-537	-411	-48
-318	-449	-74
-129	-405	-84
-22	-263	-71
3	-51	-66
-18	165	-4
-29	312	42
9	343	57
101	267	22
222	139	-46
328	38	-96
373	9	-136
339	46	-116
234	99	-50
95	96	46
-31	1	107
-97	-165	97
-85	-333	54
-5	-417	-15
100	-368	-69
180	-191	-104
208	41	-125
175	244	-116
110	345	-104
46	330	-75
9	239	-42
1	132	-20
1	68	19
-16	58	26
-59	83	7
-125	105	-6
-189	93	-36
-224	43	-48
-221	-23	-56
-179	-77	-80
-119	-98	-32
-49	-82	19
17	-43	65
74	-9	91
116	9	75
132	6	47
121	-8	-32
82	-23	-107
27	-33	-122
-22	-42	-111
-51	-55	-109
-52	-69	-120
-38	-83	-89
-22	-77	-18
-13	-44	54
-6	17	107
11	91	96
45	152	58
99	178	25
148	162	-10
171	112	-52
154	48	-67
105	-6	-60
44	-43	-48
-6	-67	-33
-40	-90	-51
-66	-120	-61
-101	-157	-78
-154	-191	-94
-212	-204	-75
-252	-190	-52
-253	-152	-30
-205	-99	4
-133	-47	16
-62	-4	25
-14	32	51
12	71	70
34	116	93
69	162	86
123	197	76
175	205	90
205	183	69
188	133	9
127	74	-43
46	20	-97
-32	-22	-149
-88	-47	-154
-117	-66	-137
-128	-78	-72
-130	-78	1
-125	-58	30
-111	-14	21
-86	43	-71
-49	96	-182
-10	109	-236
23	65	-215
44	-31	-163
59	-153	-82
65	-260	-4
59	-322	32
36	-322	64
-7	-275	54
-59	-199	61
-104	-121	91
-114	-51	99
-84	12	115
-18	77	107
60	149	90
120	219	48
150	279	-4
151	311	-46
136	301	-107
127	254	-124
120	177	-113
109	85	-61
78	-11	20
27	-89	70
-30	-150	100
-69	-181	54
-67	-183	-35
-25	-163	-95
40	-124	-149
93	-80	-164
109	-32	-125
82	8	-93
31	38	-105
-14	56	-123
-33	58	-114
-23	51	-65
-6	38	-36
-4	28	-9
-35	25	34
-95	33	72
-161	46	166
-202	54	256
-199	49	281
-149	23	246
-65	-17	123
24	-64	3
91	-101	-98
119	-114	-204
106	-98	-248
67	-52	-227
25	6	-186
5	54	-184
14	74	-201
47	53	-202
83	1	-208
90	-62	-172
54	-105	-105
-20	-107	-50
-103	-57	-20
-163	17	26
-172	90	54
-121	129	93
-31	125	145
69	92	149
145	54	122
172	37	100
144	46	104
66	71	66
-38	93	42
-143	93	37
-207	72	57
-212	32	82
-158	-9	62
-70	-45	19
-3	-70	-69
8	-84	-139
-52	-90	-184
-147	-94	-192
-216	-105	-165
-201	-133	-133
-80	-183	-86
121	-246	-21
328	-296	42
468	-297	85
491	-225	91
397	-83	55
216	92	12
1	237	-17
-201	301	-36
-366	265	-51
-465	155	-51
-489	29	-30
-434	-68	-25
-311	-111	-64
-158	-112	-89
-10	-93	-90
94	-66	-72
144	-29	-20
161	35	31
170	126	52
194	215	25
227	255	24
245	212	26
226	92	13
159	-51	10
69	-139	11
-13	-126	-14
-61	-25	-87
-75	89	-159
-66	129	-200
-61	47	-158
-66	-122	-101
-68	-294	-76
-50	-368	-75
1	-292	-55
72	-105	-11
143	104	53
182	244	115
178	276	134
136	225	115
81	161	71
28	138	-4
-17	162	-105
-58	183	-133
-101	135	-89
-147	-5	0
-181	-199	72
-194	-362	101
-176	-416	86
-131	-322	2
-74	-130	-48
-15	74	-85
33	203	-126
77	222	-102
117	150	-80
159	56	-58
196	-3	-63
224	0	-90
230	45	-65
205	91	-48
144	99	-30
51	62	1
-63	3	30
-182	-49	47
-269	-71	61
-305	-68	74
-278	-48	40
-203	-34	2
-108	-33	-31
-27	-36	-85
16	-35	-110
26	-22	-54
19	0	-51
14	17	-91
17	19	-64
18	5	-23
5	-17	51
-31	-34	91
-76	-36	56
-105	-23	34
-91	-9	21
-26	-6	9
67	-25	-24
161	-58	-86
214	-96	-122
205	-114	-124
134	-102	-100
25	-59	-56
-89	-5	0
-174	32	5
-198	34	-37
-151	-5	-98
-38	-68	-168
102	-123	-193
221	-139	-134
273	-106	-7
234	-39	110
124	30	190
-21	72	195
-143	78	138
-217	49	74
-242	21	-22
-242	15	-91
-241	35	-111
-236	75	-121
-211	99	-101
-142	93	-72
-29	49	-24
94	-7	17
184	-52	16
198	-69	49
139	-53	63
46	-21	22
-27	8	-19
-44	22	-54
-7	22	-96
53	20	-137
97	24	-105
105	38	-32
89	57	15
78	72	56
87	80	96
121	84	84
151	87	37
148	90	-27
106	93	-100
44	84	-157
-6	57	-141
-22	18	-85
-3	-24	22
28	-57	189
36	-72	311
9	-70	320
-51	-59	186
-114	-47	11
-153	-34	-180
-152	-20	-328
-120	0	-397
-79	19	-357
-44	27	-214
-28	8	-92
-23	-43	-18
-16	-115	-14
1	-179	-61
28	-207	-96
57	-185	-85
81	-118	-50
90	-32	-28
81	46	35
48	101	122
1	136	188
-59	166	222
-114	202	213
-141	239	119
-130	250	-51
-75	215	-183
7	124	-261
85	-4	-255
120	-130	-149
95	-216	-27
14	-238	52
-94	-210	92
-186	-172	68
-227	-161	4
-193	-188	-34
-95	-235	-38
38	-253	-5
163	-196	24
240	-55	37
245	137	56
183	312	56
70	397	6
-48	353	-72
-138	190	-139
-170	-31	-177
-145	-237	-147
-84	-361	-96
-22	-379	-52
6	-309	-2
-14	-190	42
-77	-71	65
-152	22	45
-200	84	56
-194	124	61
-126	155	44
-12	179	-5
116	187	-34
222	171	-35
276	138	-44
272	95	-24
216	60	-15
134	43	-4
42	39	-20
-33	30	-39
-86	0	-23
-105	-53	-7
-96	-114	-11
-61	-151	-30
-16	-137	-53
30	-71	-42
71	28	-16
106	119	23
135	174	65
166	181	87
195	150	91
210	109	45
194	81	-1
131	68	-14
25	60	-26
-101	40	-76
-219	-3	-175
-288	-59	-249
-299	-124	-276
-253	-177	-280
-175	-215	-244
-97	-241	-173
-32	-245	-57
10	-222	74
42	-151	199
75	-31	276
106	117	212
129	257	123
128	334	27
86	321	-115
1	223	-168
-114	79	-145
-229	-56	-114
-303	-138	-75
-313	-157	-47
-250	-133	-47
-136	-109	-44
-12	-111	-53
84	-140	-61
131	-176	-67
139	-185	-77
131	-151	-56
132	-79	-13
151	7	34
164	74	17
145	108	-7
78	112	3
-22	101	1
-113	92	-3
-152	89	19
-121	86	74
-44	68	111
29	31	127
53	-22	144
19	-64	144
-46	-79	104
-92	-53	48
-85	5	0
-21	68	-77
69	116	-162
151	130	-182
192	119	-137
190	101	-102
161	93	-80
118	103	-80
67	108	-75
4	88	-48
-71	15	-13
-151	-100	4
-215	-227	25
-241	-316	24
-219	-322	1
-152	-238	1
-50	-85	-48
64	70	-91
178	168	-72
261	166	1
284	74	44
231	-56	36
104	-160	21
-52	-182	-17
-185	-120	-34
-231	-13	-30
-180	76	-22
-66	97	-18
46	45	-28
101	-41	-15
92	-104	19
46	-101	16
18	-28	6
35	74	4
81	144	-48
107	149	-75
77	85	-84
-13	-6	-116
-117	-76	-115
-175	-88	-92
-157	-50	-20
-78	-4	46
5	12	65
35	-20	77
0	-77	26
-71	-114	-74
-126	-98	-149
-130	-25	-194
-87	67	-160
-30	137	-91
-2	149	-32
-7	110	-10
-26	51	-18
-20	14	48
21	19	110
84	54	105
128	88	30
121	85	-45
68	43	-105
-1	-23	-155
-42	-75	-145
-36	-93	-98
8	-75	-2
52	-39	47
65	-11	49
40	3	68
-7	15	61
-42	45	40
-50	106	-3
-31	190	-47
-1	260	-43
17	279	-14
20	227	18
12	110	50
6	-34	52
0	-167	27
-8	-256	-1
-33	-297	-56
-77	-303	-110
-118	-289	-145
-135	-263	-178
-102	-222	-159
-14	-143	-94
114	-35	-34
240	89	37
318	194	64
314	251	21
211	244	19
28	194	35
-198	113	50
-402	31	52
-531	-55	57
-537	-160	54
-409	-286	32
-177	-420	47
95	-516	16
323	-523	-20
446	-403	-30
433	-179	-30
306	82	-41
124	299	-59
-40	406	-87
-132	395	-106
-139	311	-127
-85	218	-154
-16	171	-140
25	170	-112
27	179	-52
4	148	-2
-10	56	14
9	-81	32
63	-209	57
131	-281	38
178	-275	8
172	-200	-4
102	-92	-15
-19	21	0
-163	121	32
-295	206	48
-374	272	29
-371	305	-30
-281	290	-123
-130	210	-168
39	80	-137
172	-65	-76
214	-174	-17
162	-209	28
42	-169	49
-77	-81	28
-135	1	21
-103	40	31
-2	21	8
115	-32	-57
197	-86	-81
207	-104	-69
165	-75	-98
106	-14	-113
71	53	-88
74	99	-70
100	110	-62
115	89	-11
99	42	75
54	-12	127
0	-61	135
-42	-93	78
-63	-96	-9
-70	-65	-64
-79	-9	-109
-96	54	-140
-113	105	-90
-117	122	-10
-91	106	-8
-35	66	-48
33	29	-60
87	11	-35
106	10	-4
83	10	32
29	-16	65
-28	-70	90
-75	-141	85
-88	-192	49
-70	-196	11
-37	-142	-42
-1	-53	-79
16	26	-79
8	56	-65
-25	21	-43
-68	-57	-13
-107	-140	-4
-125	-192	-25
-119	-198	-66
-96	-175	-101
-63	-148	-99
-32	-132	-84
-1	-124	-59
34	-100	8
65	-44	63
87	42	74
81	131	65
43	191	35
-23	193	19
-84	144	-16
-105	82	-71
-63	43	-117
39	60	-160
169	124	-194
284	207	-209
346	265	-177
330	274	-80
244	225	29
107	136	68
-50	33	71
-209	-61	52
-332	-127	53
-399	-164	59
-387	-170	36
-296	-156	29
-156	-137	26
-8	-126	19
92	-126	2
122	-122	-13
93	-100	-45
48	-38	-77
28	54	-90
50	153	-79
99	215	-52
127	211	-40
105	139	-12
29	34	17
-63	-51	41
-126	-80	36
-125	-50	35
-65	6	57
10	40	45
58	27	9
48	-21	-21
-8	-55	-26
-76	-37	-22
-109	38	-22
-83	135	-60
-5	183	-138
96	136	-164
175	-6	-133
210	-184	-116
178	-318	-108
91	-345	-72
-28	-260	-24
-150	-117	26
-239	9	75
-272	59	116
-237	29	150
-143	-41	138
-22	-94	76
104	-89	-22
198	-32	-87
248	43	-119
252	98	-101
219	110	-57
159	89	-37
85	58	-3
15	43	10
-33	45	5
-48	48	14
-33	36	7
-2	5	-31
14	-38	-60
-3	-72	-65
-55	-81	-102
-120	-63	-133
-153	-34	-148
-125	-14	-124
-34	-11	-67
81	-21	-70
169	-27	-82
188	-13	-58
132	33	-31
36	106	45
-45	191	143
-63	261	189
-12	284	192
75	244	183
131	139	131
100	-3	-14
-39	-131	-155
-253	-192	-181
-469	-157	-188
-602	-39	-182
-589	92	-150
-425	156	-105
-167	96	-36
95	-75	-3
280	-277	26
335	-393	35
267	-353	21
131	-157	20
-1	99	15
-72	274	28
-66	268	42
-7	83	39
61	-182	33
97	-386	41
86	-419	24
39	-278	-18
-13	-50	-74
-42	142	-130
-33	211	-159
13	157	-166
78	43	-150
139	-38	-103
184	-41	-59
198	20	-16
181	89	34
131	110	60
59	70	44
-23	4	-1
-98	-37	-26
-143	-27	-40
-145	23	2
-103	72	32
-28	86	16
54	62	37
124	21	42
167	3	51
179	22	35
162	60	29
128	86	39
82	67	3
27	9	-35
-33	-61	-58
-90	-108	-46
-138	-109	-51
-166	-82	-89
-166	-50	-112
-141	-40	-88
-104	-46	-93
-68	-43	-158
-42	-4	-155
-26	81	-109
-11	188	-59
18	269	-17
65	286	28
126	233	81
178	129	86
196	24	58
170	-43	32
101	-65	-3
15	-61	-38
-68	-68	-50
-128	-111	-41
-166	-186	-19
-195	-268	-6
-228	-314	-26
-261	-291	-51
-275	-195	-65
-248	-48	-59
-166	102	-41
-45	209	-36
75	244	-15
150	206	8
149	122	-3
78	36	-11
-31	-27	15
-137	-56	49
-211	-74	86
-234	-105	99
-208	-164	79
-138	-241	30
-26	-291	-23
119	-282	-49
273	-191	-64
387	-46	-62
414	103	-37
331	195	-26
164	202	-27
-18	134	-41
-134	37	-90
-136	-31	-129
-45	-47	-165
66	-20	-170
119	17	-114
74	23	-48
-36	-5	-11
-139	-53	38
-168	-84	91
-109	-69	78
-7	-6	76
66	83	98
67	164	85
15	215	22
-32	227	-45
-12	213	-104
81	179	-158
198	135	-184
258	77	-170
215	1	-83
81	-79	-1
-74	-145	46
-169	-174	29
-172	-160	21
-101	-112	59
-23	-55	87
13	-18	172
-2	-7	200
-34	-11	170
-33	-5	83
15	23	-102
91	77	-292
143	133	-409
135	166	-403
69	162	-316
-21	122	-166
-88	68	-40
-112	20	49
-101	-14	110
-86	-40	106
-88	-69	87
-107	-108	91
-121	-147	128
-107	-166	125
-59	-151	91
5	-90	30
62	-1	-20
100	89	-62
117	161	-116
127	194	-130
140	188	-133
148	148	-100
130	88	-59
71	12	-55
-22	-74	-59
-130	-163	-51
-221	-251	-30
-259	-326	-3
-243	-376	1
-177	-388	21
-79	-354	46
41	-281	36
162	-171	19
262	-45	26
322	80	37
302	188	19
204	261	9
36	295	-11
-142	287	-45
-277	244	-42
-336	165	-40
-312	58	-38
-248	-62	-18
-184	-171	-24
-153	-238	-30
-145	-237	-40
-133	-161	-60
-90	-31	-57
-12	112	-30
75	219	-4
129	261	9
130	236	42
86	164	47
28	79	28
-12	6	19
-26	-42	-26
-26	-76	-75
-32	-99	-99
-56	-118	-88
-81	-128	-28
-78	-120	34
-26	-90	115
63	-39	160
151	19	124
201	81	26
190	140	-77
141	190	-147
97	221	-156
85	213	-129
111	160	-119
141	53	-127
132	-78	-160
63	-192	-177
-47	-246	-247
-148	-215	-262
-195	-120	-158
-161	-3	-48
-66	78	53
46	84	91
132	21	94
170	-75	85
166	-148	78
136	-164	59
111	-114	33
100	-28	19
103	56	11
109	104	4
110	108	-25
91	80	-20
45	40	11
-27	11	25
-115	-5	91
-188	-7	152
-218	-5	190
-178	-6	199
-77	-7	142
56	-10	20
170	-7	-124
211	0	-205
166	18	-254
44	42	-230
-109	70	-172
-253	99	-120
-345	117	-56
-376	114	-22
-352	79	-2
-285	13	-15
-195	-74	-38
-96	-166	-58
-1	-240	-43
68	-276	-20
100	-267	-6
80	-218	-3
15	-141	-4
-67	-57	21
-128	16	19
-136	72	2
-81	106	8
25	130	-9
141	144	-17
228	159	-33
248	170	-32
205	171	11
122	161	65
37	135	156
-15	99	225
-25	57	225
-3	20	123
24	-11	-33
36	-32	-196
27	-45	-325
5	-58	-358
-11	-80	-301
-6	-117	-162
20	-168	-35
54	-223	-11
79	-258	-78
81	-246	-132
61	-175	-157
27	-58	-160
-10	66	-118
-42	147	-38
-69	140	46
-92	45	100
-114	-95	105
-129	-217	81
-135	-259	48
-121	-196	23
-84	-55	30
-23	103	49
53	213	61
127	247	78
181	213	85
196	158	78
165	118	39
94	113	4
5	125	-22
-77	121	-55
-134	75	-57
-163	-7	-44
-166	-89	-51
-155	-132	-58
-130	-113	-61
-86	-36	-40
-5	63	-25
105	153	-8
225	205	57
314	221	85
332	206	74
262	179	34
133	136	-19
4	74	-95
-72	-11	-173
-67	-112	-218
-1	-207	-189
63	-274	-136
58	-296	-87
-48	-270	-15
-228	-209	-19
-411	-127	-47
-497	-43	-24
-442	34	16
-255	91	3
-18	116	10
171	101	53
238	51	54
175	-8	49
44	-47	22
-72	-42	-17
-110	0	-42
-59	47	-46
27	55	-32
86	-2	5
78	-111	32
19	-222	39
-35	-272	49
-30	-236	22
49	-129	-36
166	-7	-105
259	71	-174
278	80	-168
222	34	-116
127	-13	-43
50	-18	22
15	31	53
4	101	95
-18	142	97
-79	118	106
-170	30	120
-251	-86	39
-281	-182	-76
-246	-224	-176
-170	-207	-282
-97	-151	-331
-55	-71	-253
-40	11	-119
-21	88	9
33	153	96
123	194	112
214	202	66
262	178	41
232	137	20
138	106	-27
21	104	-50
-69	123	-46
-109	144	-5
-107	128	26
-92	68	29
-93	-20	26
-116	-97	10
-140	-121	11
-142	-81	-4
-102	4	-24
-27	82	-36
63	116	-49
137	90	-20
175	25	20
171	-40	32
131	-81	25
77	-90	11
19	-85	-29
-22	-91	-75
-44	-115	-103
-48	-148	-97
-46	-167	-69
-51	-155	-48
-65	-109	-32
-82	-43	-32
-76	23	-19
-36	81	-7
41	122	24
136	160	64
212	185	46
241	197	-12
207	179	-75
129	124	-86
36	40	-24
-35	-54	48
-78	-140	98
-97	-201	125
-108	-235	141
-124	-243	83
-141	-227	-48
-154	-186	-167
-151	-121	-262
-136	-33	-262
-115	61	-180
-86	139	-120
-39	183	-19
37	185	68
143	153	74
252	103	44
312	53	9
276	9	-33
136	-36	-69
-76	-90	-74
-291	-152	-57
-431	-208	-21
-448	-235	26
-358	-207	57
-209	-121	42
-58	3	-6
57	122	-80
133	195	-127
183	194	-149
221	125	-154
242	28	-81
238	-48	14
199	-63	97
131	-8	119
60	86	55
0	178	-41
-44	215	-107
-83	183	-97
-134	88	-43
-191	-37	30
-232	-155	98
-217	-238	147
-129	-274	108
13	-264	-20
170	-214	-104
271	-123	-179
284	-1	-209
209	130	-152
90	241	-74
-23	291	4
-92	265	46
-107	169	87
-86	35	101
-55	-85	47
-34	-158	-4
-21	-167	-5
-8	-129	3
14	-74	1
42	-22	-34
69	20	-77
83	58	-48
78	100	-11
62	141	4
42	170	3
25	168	-22
13	129	-63
-6	64	-81
-38	0	-58
-87	-47	-11
-142	-64	63
-190	-67	85
-202	-72	70
-161	-103	22
-60	-164	-56
74	-237	-141
190	-296	-207
242	-306	-217
192	-253	-169
53	-140	-62
-124	7	21
-264	150	116
-308	248	196
-248	275	225
-120	227	187
-1	121	93
54	-3	-40
29	-104	-180
-36	-154	-254
-81	-147	-269
-56	-97	-177
44	-35	-58
183	16	6
300	38	17
353	38	-7
337	28	-1
275	29	13
200	48	20
132	88	30
75	137	11
20	174	-12
-36	187	-23
-81	153	-55
-101	75	-70
-96	-38	-55
-81	-154	-52
-85	-238	-66
-130	-261	-89
-215	-208	-92
-303	-98	-81
-351	33	-57
-325	143	-7
-228	201	18
-89	195	29
35	140	43
111	68	52
130	0	52
107	-51	48
76	-92	37
52	-125	-4
41	-153	-10
31	-167	-23
8	-151	-16
-26	-98	13
-59	-14	23
-74	82	43
-53	166	13
1	221	-20
77	240	-42
150	231	-86
201	202	-80
219	162	8
203	113	53
162	58	15
101	7	-4
34	-35	-16
-30	-62	-23
-83	-85	-42
-115	-114	-114
-124	-171	-149
-108	-249	-142
-72	-322	-120
-28	-362	-71
14	-338	-24
41	-249	10
49	-122	25
35	-2	22
12	88	20
-11	137	74
-18	164	119
-14	187	110
-4	202	24
-10	194	-124
-44	132	-273
-111	15	-375
-189	-129	-345
-246	-248	-222
-250	-288	-79
-181	-240	57
-47	-127	116
119	-15	141
269	53	169
357	65	161
363	47	124
280	43	51
139	76	-8
-36	135	-37
-202	179	-33
-325	169	22
-392	92	65
-380	-23	71
-304	-124	18
-183	-174	-54
-52	-155	-127
56	-95	-171
138	-24	-141
192	27	-89
240	59	-48
291	86	-32
337	120	-26
354	164	-23
313	200	-18
204	214	-30
42	197	-26
-123	156	-1
-245	106	5
-291	54	25
-264	4	24
-203	-56	5
-139	-124	3
-97	-185	0
-78	-214	-12
-60	-188	-1
-26	-112	21
29	-13	15
93	64	22
147	88	20
171	49	-17
170	-19	-33
149	-71	-27
124	-81	-28
103	-40	-3
84	18	15
62	61	4
32	66	-40
-5	45	-86
-47	31	-88
-89	52	-142
-126	120	-187
-150	201	-161
-150	244	-66
-115	213	90
-42	92	180
57	-76	150
156	-229	49
211	-301	-49
188	-282	-165
86	-198	-252
-69	-117	-211
-226	-99	-113
-325	-165	-16
-335	-282	97
-259	-384	172
-132	-408	145
0	-329	68
97	-180	-17
138	-21	-98
122	96	-171
57	149	-180
-41	165	-96
-150	183	22
-241	233	81
-281	298	30
-249	325	-28
-147	272	-82
-3	129	-141
127	-54	-169
202	-205	-113
203	-254	-15
143	-190	17
68	-55	32
21	77	49
26	148	33
79	144	26
154	101	51
221	75	59
254	97	37
245	162	16
194	229	11
99	251	-16
-23	210	-50
-144	116	-56
-236	6	-52
-260	-96	-38
-209	-178	-23
-101	-240	-3
18	-281	1
100	-287	-8
118	-241	-2
77	-126	8
8	31	4
-40	188	-15
-50	284	-21
-20	279	-8
23	185	38
51	38	81
53	-97	70
35	-177	3
15	-190	-51
2	-157	-96
-2	-110	-182
-14	-69	-185
-38	-43	-136
-76	-15	-66
-106	23	34
-105	71	66
-58	120	62
31	154	52
139	166	-31
234	155	-86
280	128	-76
269	90	-72
204	43	-57
105	-8	-43
-2	-62	-35
-92	-112	-30
-143	-147	-48
-157	-163	-48
-144	-163	-36
-131	-150	-10
-147	-126	48
-200	-93	86
-281	-48	85
-358	-2	17
-378	26	-53
-313	20	-118
-158	-29	-172
44	-108	-164
229	-178	-114
337	-196	-63
333	-144	-52
234	-30	-23
84	99	8
-51	187	15
-130	197	39
-140	131	53
-96	35	37
-25	-42	24
42	-58	16
91	-17	11
117	49	-18
115	97	-12
87	98	-5
34	65	-33
-34	27	-46
-98	22	-47
-135	53	-32
-135	97	-30
-102	106	-13
-56	48	16
-22	-76	52
-8	-227	72
-15	-337	41
-22	-352	-41
-10	-261	-88
25	-98	-124
78	74	-155
127	195	-116
159	238	-80
172	212	-17
169	157	2
156	106	18
132	77	42
98	58	44
44	38	72
-18	1	72
-70	-39	72
-100	-67	41
-89	-68	4
-46	-40	-92
9	-8	-198
52	12	-164
71	9	-109
66	-3	-51
44	-1	16
18	31	19
-15	86	18
-54	136	9
-102	149	-18
-147	106	-48
-169	28	-21
-156	-56	-14
-102	-105	-83
-34	-99	-92
20	-50	-83
36	12	-49
20	50	55
-1	55	144
7	32	164
66	8	149
163	-4	97
255	3	2
283	14	-117
216	17	-198
63	11	-225
-128	-1	-207
-290	-5	-151
-379	-4	-102
-378	-14	-91
-315	-58	-62
-227	-151	-26
-143	-274	0
-80	-391	35
-17	-446	35
50	-400	45
122	-265	49
179	-83	47
198	86	20
169	191	-31
111	214	-50
65	182	-65
63	129	-40
114	90	-12
189	77	4
241	79	16
226	80	35
126	70	61
-29	58	57
-201	56	60
-328	64	35
-385	80	-2
-361	79	-16
-274	49	-14
-152	-3	-20
-15	-57	-44
106	-92	-53
188	-89	-83
207	-52	-97
154	-5	-113
36	34	-133
-104	51	-127
-209	50	-153
-234	34	-121
-161	9	-47
-25	-28	10
111	-81	109
184	-135	171
166	-171	124
78	-162	48
-15	-93	-37
-45	21	-141
13	143	-199
136	225	-160
260	244	-39
323	203	37
299	138	80
207	88	86
105	71	72
36	84	85
12	98	68
4	90	24
-28	55	-35
-101	7	-60
-204	-34	-104
-288	-61	-147
-314	-84	-133
-262	-117	-82
-162	-168	-19
-55	-223	4
21	-248	32
53	-223	40
62	-148	8
67	-51	-43
86	17	-76
104	30	-81
107	-9	-68
82	-62	7
32	-86	46
-22	-54	55
-55	21	59
-55	99	57
-32	139	49
-6	123	-7
6	72	-44
-1	20	-41
-16	0	-59
-25	19	-87
-17	55	-78
8	84	-83
44	84	-68
81	65	-64
99	47	-84
87	47	-60
26	65	-51
-89	80	-64
-248	71	-66
-417	22	-30
-532	-56	7
-540	-157	17
-412	-251	14
-170	-326	-1
120	-371	-40
378	-362	-62
521	-294	-66
524	-154	-86
409	30	-71
237	209	-47
63	321	-2
-68	325	49
-148	223	68
-183	61	84
-189	-82	98
-179	-157	102
-148	-145	72
-99	-81	-5
-33	-13	-83
34	30	-156
95	43	-214
141	59	-195
175	96	-109
198	155	-37
206	207	15
196	215	57
161	166	42
101	71	32
30	-22	37
-32	-78	33
-66	-79	21
-71	-41	5
-57	0	-20
-43	24	-30
-41	27	-10
-48	27	-13
-53	39	-16
-39	66	-21
-5	91	-4
35	89	9
60	51	-1
63	-8	5
40	-59	-19
13	-79	-32
0	-62	-28
6	-33	-8
15	-27	1
-1	-65	-35
-49	-144	-62
-125	-227	-69
-186	-268	-65
-191	-241	-49
-122	-143	-36
2	-16	-27
130	93	-1
211	143	28
212	122	36
147	49	-4
50	-32	-40
-28	-85	-39
-76	-92	-34
-116	-57	-16
-182	-11	-2
-296	23	7
-436	28	32
-542	4	90
-545	-35	162
-409	-70	216
-165	-90	196
111	-90	61
336	-68	-132
439	-32	-323
436	22	-447
358	90	-450
273	162	-282
214	224	-79
175	250	22
135	228	33
64	157	-47
-30	53	-166
-119	-57	-218
-168	-147	-159
-157	-192	-86
-99	-189	-16
-29	-142	14
19	-65	26
38	22	61
40	99	59
49	140	72
75	142	79
111	104	86
132	47	96
118	-3	81
65	-21	64
-11	-7	48
-87	13	13
-143	11	-42
-173	-39	-59
-178	-128	-48
-170	-222	-18
-141	-263	19
-95	-226	26
-23	-105	15
63	58	-5
144	201	1
204	278	8
219	275	8
196	218	1
148	150	-24
97	101	-15
62	85	19
50	81	36
50	71	78
48	38	108
28	-9	63
-19	-59	-46
-77	-97	-135
-129	-120	-152
-143	-141	-158
-100	-173	-139
-1	-218	-92
121	-258	-66
216	-263	-57
231	-218	-57
139	-114	-46
-38	22	-7
-255	147	40
-425	209	43
-497	186	12
-459	80	-9
-337	-77	-20
-194	-230	-31
-78	-329	-18
-13	-343	-4
18	-274	7
49	-148	30
106	-5	32
191	120	10
279	210	-11
338	265	-21
342	299	-44
288	320	-59
193	325	-52
69	305	-74
-59	250	-111
-186	158	-117
-295	38	-66
-369	-84	-26
-392	-189	-21
-353	-259	-21
-263	-287	-52
-151	-274	-72
-38	-219	-43
52	-129	37
116	-13	131
164	98	121
199	174	24
221	188	-114
221	131	-288
184	30	-372
124	-77	-332
54	-143	-244
2	-153	-92
-15	-114	49
1	-55	109
31	-12	125
49	10	116
48	17	123
25	33	131
1	74	120
-7	128	102
7	173	47
34	181	12
64	147	9
79	84	-4
75	24	13
56	-13	26
30	-21	-6
0	-11	-38
-32	-3	-57
-68	-9	-55
-101	-26	-49
-126	-36	-50
-128	-29	-48
-103	0	-48
-50	33	-24
23	58	3
105	67	13
184	61	10
242	57	0
262	61	-3
237	67	-18
156	62	-12
34	26	-1
-109	-44	-30
-226	-142	-44
-291	-238	-40
-285	-311	-30
-223	-345	-14
-141	-347	-30
-86	-326	-35
-85	-286	-40
-130	-219	-67
-194	-117	-51
-221	27	-39
-172	189	-38
-47	327	-12
111	393	16
242	362	11
283	244	-28
222	95	-47
92	-31	-37
-30	-92	-27
-76	-89	-55
-17	-60	-62
105	-55	-79
210	-99	-113
223	-167	-106
116	-215	-94
-63	-188	-82
-232	-72	-68
-305	95	-49
-259	253	-34
-133	331	5
-13	298	71
40	170	96
13	7	69
-48	-133	4
-83	-208	-59
-52	-213	-57
28	-174	-1
105	-119	124
128	-71	228
86	-30	209
12	10	80
-35	53	-101
-15	101	-237
65	138	-316
162	161	-282
222	162	-192
219	153	-86
166	138	20
101	119	49
53	93	62
31	51	96
10	-1	104
-34	-58	93
-117	-104	91
-210	-124	80
-281	-116	30
-295	-87	-37
-237	-51	-96
-126	-21	-176
4	3	-218
118	23	-177
187	45	-113
210	74	-48
193	99	-6
156	110	29
117	105	58
93	81	81
89	52	76
91	31	57
85	19	69
46	11	61
-30	-10	-8
-137	-52	-43
-241	-124	-30
-310	-205	-21
-319	-274	-18
-269	-305	-43
-177	-286	-63
-74	-221	-106
22	-128	-137
103	-41	-147
166	16	-154
205	30	-125
215	8	-106
184	-28	-71
107	-54	-30
-3	-49	-18
-117	-12	26
-208	41	81
-252	86	127
-245	102	161
-204	85	155
-154	43	139
-113	6	84
-84	-10	-11
-60	6	-104
-30	38	-132
15	71	-88
68	86	-60
125	76	-64
175	46	-75
209	11	-92
222	-13	-89
206	-27	-71
160	-30	-75
81	-25	-47
-18	-16	10
-112	4	54
-167	32	112
-162	67	139
-93	96	110
15	108	47
115	98	-25
166	71	-65
145	43	-122
69	27	-124
-20	26	-41
-81	34	23
-92	32	30
-61	9	-6
-22	-38	-62
-4	-89	-157
-18	-124	-223
-43	-119	-238
-48	-74	-181
-4	-3	-69
85	64	38
199	101	109
285	98	87
314	64	41
262	26	12
143	4	11
-8	16	16
-161	52	9
-271	95	6
-320	120	8
-298	110	0
-218	66	-8
-107	-11	12
2	-101	-1
74	-188	-22
94	-252	-8
66	-274	29
19	-249	54
-24	-174	30
-46	-68	-24
-51	38	-59
-58	110	-100
-85	117	-129
-125	56	-128
-153	-52	-92
-133	-161	-62
-48	-228	-75
90	-225	-54
226	-159	-60
300	-65	-84
273	13	-66
159	44	-28
16	35	-5
-85	13	38
-96	19	98
-23	75	117
85	162	104
164	244	36
175	273	-32
132	224	-41
72	106	-1
36	-25	80
34	-123	164
47	-155	191
46	-122	130
22	-66	-41
-10	-29	-221
-18	-34	-289
1	-62	-315
9	-70	-298
-47	-21	-247
-215	99	-168
-459	240	-90
-692	332	-21
-809	305	32
-727	143	65
-477	-109	56
-141	-355	3
139	-492	-27
283	-466	-59
280	-291	-85
195	-52	-68
109	144	11
72	224	56
87	174	82
120	56	106
142	-50	84
148	-78	74
159	-18	78
191	86	58
234	174	10
262	198	-8
242	158	9
170	80	26
71	6	23
-11	-42	-7
-49	-62	-45
-46	-76	-77
-30	-98	-97
-30	-124	-111
-48	-139	-89
-68	-123	-51
-59	-72	-3
-11	-3	24
65	60	5
135	100	-14
171	112	-40
164	113	-40
126	115	-42
81	122	-86
36	122	-78
-7	103	-34
-58	54	7
-118	-8	54
-169	-64	58
-189	-93	-6
-164	-85	-94
-102	-51	-89
-31	-10	-34
22	22	3
40	43	60
32	64	87
16	89	49
14	115	0
26	129	-41
44	108	-113
52	41	-133
40	-58	-119
13	-168	-117
-22	-242	-99
-55	-252	-92
-84	-183	-70
-107	-51	-50
-113	104	-32
-93	235	-24
-35	298	-12
52	265	4
138	150	41
182	-16	78
148	-176	80
35	-279	97
-116	-299	67
-248	-240	16
-304	-142	-24
-269	-67	-21
-172	-54	-14
-78	-107	-23
-39	-192	0
-79	-252	-38
-165	-245	-88
-239	-158	-95
-247	-28	-110
-161	92	-128
-7	152	-168
170	136	-172
309	71	-113
373	9	-31
363	-8	9
306	28	17
236	95	44
170	144	44
115	137	11
52	72	-11
-28	-17	-2
-130	-79	3
-228	-71	-7
-289	4	-13
-279	106	-18
-189	177	-13
-40	168	-1
113	70	15
222	-65	51
255	-177	85
219	-202	130
144	-128	171
77	9	155
37	142	63
26	207	-76
15	179	-182
-20	80	-280
-81	-33	-290
-141	-107	-162
-164	-114	-48
-128	-64	49
-40	6	126
59	58	120
131	80	74
147	79	31
115	80	-18
69	100	-86
44	136	-157
50	168	-196
67	169	-211
65	124	-222
22	44	-132
-58	-47	-21
-142	-125	30
-195	-173	32
-197	-187	10
-158	-173	14
-97	-144	17
-44	-102	46
-7	-51	70
21	3	86
50	51	76
84	88	15
114	104	-44
127	103	-69
118	97	-60
94	92	-25
71	86	28
62	77	75
67	47	130
66	-3	144
44	-70	87
-3	-137	-22
-63	-192	-127
-110	-229	-210
-122	-252	-267
-103	-268	-241
-86	-270	-167
-103	-242	-117
-181	-168	-64
-302	-43	-15
-416	97	-12
-465	209	13
-409	244	48
-257	182	52
-60	48	90
104	-97	112
182	-190	90
166	-196	55
91	-123	-6
21	-22	-62
1	56	-95
45	77	-103
123	47	-82
196	-2	-38
229	-30	-2
223	-17	-11
202	30	-22
188	92	-33
190	137	-20
190	157	26
166	144	67
104	114	94
10	76	76
-77	35	33
-132	4	2
-134	-16	-33
-100	-20	-62
-53	-14	-63
-21	-6	-50
-8	-8	-62
-4	-27	-117
8	-51	-169
38	-62	-211
79	-39	-232
109	22	-160
110	95	-50
80	147	34
27	142	79
-28	81	82
-69	-13	62
-100	-93	55
-121	-122	48
-145	-94	51
-169	-31	26
-170	24	-32
-127	45	-51
-25	26	-59
125	-7	-30
296	-24	36
429	-4	53
474	40	75
405	89	93
226	115	36
-11	116	-30
-253	103	-72
-431	89	-91
-500	84	-102
-458	75	-86
-321	43	-68
-148	-15	-46
22	-89	-51
144	-141	-66
201	-141	-79
200	-71	-106
166	42	-100
129	151	-107
107	201	-82
101	161	-49
97	38	7
75	-124	65
15	-271	107
-84	-358	175
-214	-376	178
-351	-334	152
-459	-282	96
-520	-246	16
-507	-242	-96
-419	-254	-183
-267	-254	-211
-85	-208	-200
89	-96	-140
222	58	-92
286	214	-69
285	316	-77
242	325	-70
186	249	-22
144	124	26
117	15	29
90	-36	22
42	-15	35
-23	43	70
-88	94	124
-112	93	144
-67	36	152
40	-33	114
175	-71	24
280	-41	-74
319	48	-170
279	156	-268
194	228	-300
117	233	-211
80	174	-75
85	88	53
100	15	83
86	-22	39
22	-30	4
-80	-35	-52
-177	-57	-106
-233	-99	-114
-226	-144	-96
-168	-163	-72
-93	-138	-35
-31	-76	11
-1	4	20
7	76	29
7	123	33
12	139	31
20	135	46
22	112	63
11	78	77
-18	31	81
-49	-22	65
-75	-68	37
-81	-100	-1
-71	-102	-20
-52	-81	-12
-30	-44	-6
-9	-8	-7
10	17	-20
22	41	-45
28	71	-89
20	113	-97
4	163	-107
-14	203	-108
-17	215	-34
5	191	39
50	133	34
107	59	-32
150	-11	-87
161	-77	-139
136	-140	-136
89	-214	-106
44	-300	-20
18	-368	103
16	-390	138
21	-337	91
6	-209	-17
-48	-43	-138
-135	104	-206
-232	180	-207
-296	171	-205
-291	106	-140
-212	28	-55
-81	-24	16
55	-49	67
148	-79	97
162	-144	127
97	-249	129
-23	-346	120
-152	-368	80
-252	-263	12
-303	-44	-21
-298	217	13
-244	412	68
-150	461	135
-24	357	129
117	174	68
253	18	-9
336	-31	-151
333	31	-264
223	138	-327
34	193	-278
-172	123	-179
-320	-62	-95
-347	-291	-60
-250	-452	-61
-72	-469	-32
109	-337	-6
236	-114	13
286	105	30
280	244	24
255	283	7
240	239	20
231	164	19
209	103	13
151	75	22
61	72	32
-34	72	56
-99	55	52
-119	21	32
-103	-21	-6
-80	-54	-27
-72	-63	-27
-81	-50	-22
-84	-19	-34
-57	16	-81
4	51	-93
87	81	-61
160	106	-7
198	130	41
198	153	112
166	169	171
118	174	204
57	164	187
-16	135	55
-108	90	-67
-201	38	-171
-271	-16	-273
-285	-60	-324
-230	-101	-273
-126	-134	-144
-10	-164	-35
82	-192	21
131	-211	46
151	-216	60
169	-199	26
192	-162	-38
211	-109	-93
191	-55	-128
97	-14	-143
-72	13	-106
-278	20	-54
-459	11	-12
-558	-23	19
-555	-81	26
-468	-159	50
-333	-238	47
-197	-281	36
-70	-261	69
53	-162	125
176	-1	138
294	171	84
373	301	19
388	345	-47
317	305	-129
179	213	-193
27	116	-183
-88	45	-157
-132	-3	-112
-105	-59	-69
-34	-150	-71
40	-263	-21
89	-363	59
105	-386	87
100	-297	45
85	-111	16
71	103	-27
58	268	-90
39	336	-105
14	305	-78
-13	233	-13
-30	171	26
-30	160	28
-12	171	17
11	161	4
23	84	9
19	-55	9
2	-204	10
-10	-296	15
-3	-279	32
27	-164	46
69	-6	30
107	124	1
122	183	-11
115	171	-17
95	126	-22
72	91	-29
44	82	-49
2	86	-63
-70	75	-56
-172	31	-51
-275	-36	-50
-339	-98	-56
-329	-127	-58
-239	-125	-53
-97	-114	-32
54	-118	21
174	-149	44
241	-182	41
262	-178	40
249	-106	4
211	23	-48
144	170	-85
42	277	-84
-83	305	-45
-213	257	48
-303	170	118
-333	88	142
-308	33	124
-253	1	16
-201	-37	-118
-166	-102	-268
-136	-184	-337
-82	-259	-282
14	-283	-172
139	-245	-47
253	-145	19
314	-21	19
301	86	-5
225	156	-71
126	170	-78
47	141	-4
7	75	78
-6	-14	116
-15	-110	44
-30	-188	-11
-53	-221	-51
-63	-196	-84
-52	-121	-75
-18	-28	-48
12	44	-32
13	72	-37
-22	54	-42
-80	24	-55
-122	15	-42
-120	49	-25
-58	109	0
48	158	36
175	156	49
283	88	63
354	-21	68
371	-127	65
317	-187	72
192	-175	74
3	-98	72
-215	15	50
-415	129	17
-538	215	-22
-538	244	-63
-420	209	-72
-221	103	-89
-5	-44	-87
171	-191	-41
280	-283	-28
328	-286	-27
325	-201	-48
284	-72	-68
207	31	-98
83	67	-122
-80	35	-76
-247	-24	-28
-371	-47	-8
-402	-4	-7
-331	86	4
-187	169	32
-23	185	56
100	121	87
165	19	102
172	-42	43
158	-18	-36
143	93	-95
142	221	-178
139	279	-200
117	225	-136
71	62	-37
7	-133	50
-52	-282	85
-92	-334	56
-99	-291	-11
-86	-191	-59
-61	-86	-68
-38	5	-18
-14	88	61
24	174	116
75	261	130
136	326	121
192	325	41
219	244	-104
204	91	-230
144	-84	-327
59	-230	-351
-30	-308	-235
-94	-319	-51
-121	-280	87
-123	-223	164
-128	-159	182
-170	-92	134
-267	-21	42
-402	43	-74
-511	84	-201
-530	72	-284
-393	8	-257
-117	-89	-131
239	-171	-15
549	-201	72
701	-160	113
645	-74	101
409	17	49
97	68	21
-181	70	12
-342	45	-11
-375	29	-24
-328	48	-33
-253	96	-38
-181	139	-38
-103	143	-34
-1	86	-36
127	-3	-23
253	-81	-11
322	-102	15
314	-58	44
237	17	68
151	77	80
110	77	48
131	23	26
171	-48	12
160	-80	8
46	-37	0
-152	68	-15
-361	188	-44
-480	252	-69
-451	223	-53
-288	100	-54
-75	-62	-63
96	-201	-52
175	-259	-21
170	-217	3
130	-101	1
104	37	-15
106	145	-17
109	183	-2
82	151	-3
10	68	1
-77	-23	31
-141	-89	39
-148	-108	-46
-98	-87	-125
-26	-42	-148
30	0	-165
51	32	-127
48	59	-27
48	90	102
66	129	126
100	164	52
120	171	-34
107	135	-132
54	49	-209
-16	-62	-231
-72	-162	-119
-94	-212	-6
-71	-210	37
-23	-168	41
28	-121	-6
60	-87	14
66	-62	40
49	-23	68
18	57	81
-12	181	84
-27	313	102
-12	395	32
34	377	-50
98	247	-127
139	32	-181
122	-196	-172
23	-374	-129
-141	-455	-90
-321	-447	-77
-458	-384	-72
-484	-311	-55
-400	-251	-30
-240	-196	-13
-67	-130	9
57	-31	-9
117	88	-58
123	198	-69
111	260	-48
111	248	0
127	171	54
150	68	100
162	-7	116
156	-19	91
140	37	72
131	127	60
123	191	67
106	187	31
52	100	-16
-38	-37	-40
-152	-167	-68
-250	-233	-93
-287	-212	-104
-247	-129	-63
-141	-33	-17
-17	23	6
80	20	1
117	-24	-7
96	-62	1
44	-53	-21
-1	7	-42
-16	86	-36
10	132	-36
62	118	-55
123	45	-74
167	-32	-82
181	-60	-87
155	-11	-90
90	101	-58
5	215	7
-72	278	43
-117	244	81
-108	133	137
-48	-11	155
36	-137	65
102	-210	-31
118	-231	-111
71	-216	-170
-17	-191	-147
-112	-162	-84
-182	-126	-19
-206	-77	6
-191	-13	-4
-150	53	-13
-100	109	-2
-44	142	-49
21	162	-101
93	174	-106
155	190	-96
190	205	-3
184	208	119
141	182	207
95	119	178
77	24	42
100	-90	-99
145	-204	-252
162	-301	-338
107	-362	-307
-32	-376	-202
-207	-333	-80
-345	-238	4
-379	-107	24
-280	26	17
-92	133	14
113	191	16
250	202	54
280	185	68
210	169	49
93	171	38
-25	187	8
-118	190	-25
-178	149	-38
-221	51	-34
-245	-88	-26
-253	-225	-14
-226	-314	-14
-158	-326	-16
-55	-257	-21
62	-139	-27
172	-13	-7
251	85	-8
282	141	15
260	166	16
180	182	5
54	201	13
-94	213	10
-223	193	11
-288	111	4
-273	-33	1
-182	-215	-6
-53	-373	1
63	-447	-16
129	-402	-29
132	-254	7
97	-55	40
54	122	57
36	228	34
44	247	-47
67	212	-157
87	162	-203
86	124	-155
70	93	-90
49	43	-32
34	-40	15
26	-149	19
15	-237	4
-18	-254	6
-78	-173	-21
-159	-18	-49
-244	153	-46
-295	268	-49
-290	290	-32
-217	223	-8
-88	116	-4
69	26	9
214	-21	13
306	-30	28
328	-37	40
280	-65	8
191	-116	-19
89	-163	-27
3	-173	-54
-51	-131	-99
-78	-59	-158
-80	6	-153
-65	33	-83
-35	11	-5
11	-32	89
66	-55	154
124	-27	175
161	54	155
162	155	119
118	227	46
46	233	-91
-26	161	-222
-79	43	-265
-97	-77	-254
-97	-157	-223
-104	-176	-168
-142	-137	-122
-214	-69	-60
-299	-11	5
-352	6	39
-337	-33	31
-243	-116	10
-91	-206	4
68	-254	4
189	-228	10
238	-122	26
221	34	34
163	181	21
100	262	19
59	250	9
41	150	15
33	17	11
17	-96	-2
-14	-139	-9
-48	-112	-59
-71	-37	-60
-65	41	-38
-28	96	-4
30	118	63
95	124	94
144	138	134
175	165	151
175	198	74
158	215	-19
111	205	-62
36	156	-115
-63	77	-134
-176	-11	-77
-266	-97	-7
-303	-166	45
-262	-214	1
-162	-238	-83
-37	-235	-170
60	-210	-268
90	-171	-234
58	-127	-121
5	-93	-8
-16	-62	49
25	-33	47
115	2	32
200	35	24
221	59	13
157	55	-26
40	19	-46
-65	-37	-49
-103	-88	-36
-57	-107	-14
24	-86	2
75	-32	-4
44	20	-27
-60	45	-16
-186	33	16
-259	-3	26
-235	-38	20
-121	-49	19
24	-24	22
141	25	-15
198	83	-48
198	129	-77
166	155	-97
128	160	-71
85	143	-60
17	113	-59
-88	71	-54
-214	30	-55
-321	1	-59
-366	-11	-44
-318	-11	-3
-200	-17	26
-55	-42	28
58	-97	37
116	-157	59
127	-187	48
120	-153	16
124	-48	-18
140	86	-46
155	189	-76
143	197	-85
98	96	-42
41	-77	-16
-7	-238	4
-26	-315	26
-23	-272	38
-19	-136	43
-28	18	25
-46	124	29
-48	150	38
-9	115	24
78	72	24
178	68	-8
242	119	-72
234	195	-116
150	254	-133
27	261	-134
-80	213	-116
-133	123	-80
-135	22	-53
-116	-69	-16
-109	-153	3
-130	-216	45
-156	-257	77
-150	-250	52
-87	-183	-22
24	-70	-80
147	53	-126
236	134	-209
256	140	-209
212	71	-131
124	-24	-18
27	-90	60
-69	-86	85
-157	-18	81
-235	59	97
-308	86	124
-352	22	109
-354	-108	122
-299	-248	123
-188	-326	24
-47	-306	-103
100	-200	-211
223	-57	-297
306	68	-317
346	147	-260
346	180	-135
310	185	-9
240	183	41
147	170	83
48	132	103
-44	58	106
-118	-39	133
-166	-133	112
-205	-185	79
-241	-166	44
-282	-84	4
-325	34	-28
-341	148	-93
-308	222	-137
-205	237	-150
-47	190	-117
128	91	-60
280	-41	-27
357	-170	25
339	-259	41
237	-272	15
97	-203	4
-36	-78	-10
-125	50	-6
-151	120	-9
-125	100	-25
-66	6	-31
2	-102	-49
74	-155	-54
151	-117	-47
229	2	-20
306	144	9
363	247	16
378	273	42
331	235	89
219	180	83
59	150	41
-120	164	10
-287	190	-7
-411	179	-53
-474	96	-123
-477	-53	-167
-424	-229	-238
-333	-368	-306
-228	-416	-262
-121	-372	-117
-32	-256	31
40	-120	110
90	-7	120
125	56	94
150	70	62
167	53	52
182	26	69
193	5	62
196	-5	49
192	-4	59
172	7	16
147	17	-15
113	23	-46
85	22	-97
65	14	-112
52	4	-109
26	0	-88
-30	4	-84
-125	15	-54
-243	32	-37
-342	41	-48
-378	41	-31
-320	26	-47
-182	-2	-50
-8	-41	-19
132	-84	-6
195	-118	5
172	-141	9
102	-145	11
28	-127	-16
-23	-90	-67
-45	-30	-67
-63	40	-51
-91	112	-23
-121	170	9
-128	198	70
-82	185	123
16	132	118
131	57	89
214	-17	24
216	-61	-52
136	-77	-136
5	-68	-143
-122	-70	-136
-204	-102	-108
-231	-159	-67
-214	-212	-51
-182	-218	-11
-144	-152	-7
-94	-19	-4
-16	127	8
90	224	24
210	228	30
306	145	11
346	37	-5
326	-36	-30
245	-33	-18
148	31	10
59	105	37
8	128	79
-8	80	76
4	-11	5
24	-82	-83
36	-81	-143
33	1	-160
10	121	-94
-31	218	60
-79	237	169
-112	174	170
-122	72	82
-103	-12	-65
-58	-45	-154
-10	-31	-208
23	-8	-194
24	-18	-150
-8	-77	-121
-60	-162	-92
-111	-233	-91
-141	-254	-66
-139	-217	-51
-104	-144	-36
-45	-69	-22
20	-15	-16
77	19	-19
110	49	-8
116	94	-17
97	154	-34
71	202	-24
52	206	-19
52	147	15
68	26	54
81	-122	89
68	-260	122
10	-345	150
-94	-364	141
-229	-320	77
-360	-223	-5
-445	-99	-81
-455	29	-165
-366	138	-199
-191	210	-144
40	229	-23
272	194	54
434	127	48
482	56	56
398	14	18
224	7	-20
27	30	-43
-116	53	-71
-170	47	-97
-145	1	-124
-96	-80	-87
-78	-162	-41
-110	-209	-28
-170	-199	-6
-201	-131	50
-164	-27	78
-56	88	21
71	188	-39
166	259	-58
182	295	-60
129	296	-48
50	255	-32
-2	171	-26
-4	45	-58
29	-105	-97
59	-244	-94
55	-333	-41
14	-340	36
-35	-262	84
-57	-127	61
-29	19	0
41	128	-36
125	182	-33
191	183	-38
214	162	-48
200	138	-16
156	125	6
100	110	27
38	76	39
-24	21	0
-82	-42	-40
-128	-82	-30
-154	-83	9
-157	-44	52
-140	1	107
-116	13	111
-88	-29	64
-54	-117	-36
-10	-208	-156
48	-254	-249
107	-229	-323
153	-132	-302
159	-4	-187
124	115	-42
58	194	39
-19	225	39
-84	214	30
-126	171	18
-151	105	29
-168	9	74
-178	-110	108
-176	-235	101
-150	-330	49
-91	-364	32
-10	-322	11
74	-223	3
137	-99	-3
171	7	-28
177	70	-30
170	98	-62
159	105	-95
135	116	-106
84	137	-93
-8	157	-76
-129	161	-42
-245	132	-15
-308	81	-14
-289	19	-20
-194	-32	-23
-63	-60	-24
45	-69	-59
94	-65	-72
81	-54	-81
36	-36	-90
10	-4	-75
26	41	-38
78	90	10
129	125	79
141	130	160
99	103	170
16	49	87
-68	-5	-38
-125	-42	-147
-136	-56	-188
-112	-56	-145
-74	-57	-36
-37	-71	87
-10	-94	155
13	-111	133
38	-103	58
66	-59	-28
91	9	-112
105	84	-140
107	138	-101
96	156	-58
78	131	-25
54	84	-22
33	29	-55
18	-17	-72
21	-45	-84
42	-57	-82
74	-57	-52
90	-50	-22
65	-28	-27
-12	11	-39
-125	64	-18
-232	119	3
-275	153	32
-227	147	87
-92	96	133
68	18	103
186	-59	33
207	-107	-14
127	-112	-30
-8	-90	-29
-139	-65	-3
-207	-69	4
-201	-106	-10
-139	-151	-51
-65	-163	-151
-14	-115	-186
9	-11	-182
13	109	-155
16	183	-82
27	170	-52
42	67	-40
56	-81	-27
67	-202	1
87	-245	37
120	-198	40
169	-105	12
211	-31	-27
224	-22	-38
175	-80	-14
69	-157	26
-80	-184	44
-231	-123	59
-337	22	45
-371	194	16
-321	319	-26
-208	345	-50
-60	272	-36
82	137	-12
179	10	31
211	-63	46
180	-62	30
107	-12	-29
28	43	-124
-18	66	-192
-13	42	-178
38	-20	-132
107	-97	-78
151	-160	-32
135	-186	-15
52	-171	5
-71	-115	31
-198	-36	39
-276	48	34
-277	114	61
-207	142	79
-96	127	35
8	79	-19
71	19	-52
77	-25	-116
43	-41	-157
-2	-30	-134
-35	-8	-86
-45	6	-30
-44	2	-4
-48	-11	5
-68	-23	6
-92	-12	23
-94	19	34
-52	68	44
40	119	62
161	157	42
271	179	25
337	185	21
333	178	26
266	148	60
163	85	53
62	-12	38
-12	-136	18
-51	-256	-41
-64	-334	-67
-63	-345	-87
-59	-282	-78
-56	-175	-59
-49	-67	-51
-36	6	-48
-15	36	-87
6	39	-114
18	51	-111
15	92	-106
-5	154	-109
-29	203	-68
-41	197	-21
-28	116	-4
13	-25	-10
63	-171	-13
99	-270	14
88	-275	59
18	-184	112
-100	-32	130
-236	131	129
-335	257	44
-357	313	-55
-279	292	-86
-123	210	-92
67	91	-84
231	-32	-80
301	-130	-42
253	-181	-45
104	-177	-77
-91	-137	-94
-262	-95	-59
-350	-81	19
-333	-108	89
-233	-161	85
-102	-201	16
5	-192	-59
65	-124	-164
86	-19	-224
97	84	-235
124	139	-179
175	144	-95
232	113	-14
258	81	36
241	60	34
181	43	31
106	7	9
42	-63	-34
4	-149	-52
-23	-203	-27
-59	-178	15
-118	-64	36
-191	100	42
-249	240	50
-258	282	27
-201	211	6
-94	63	2
23	-78	6
119	-147	13
170	-117	10
178	-24	0
162	65	-11
138	102	15
117	65	36
93	-10	46
57	-81	41
11	-107	17
-36	-81	-3
-71	-23	-19
-80	37	-48
-60	76	-90
-25	93	-121
17	98	-153
50	102	-135
66	105	-60
52	103	34
14	88	119
-44	55	96
-101	14	16
-138	-32	-45
-140	-74	-130
-104	-108	-160
-48	-135	-128
3	-149	-56
27	-140	0
24	-105	10
9	-46	25
6	19	27
33	70	16
88	89	2
144	74	-4
175	35	-38
161	-1	-38
98	-21	-42
6	-20	-62
-79	-13	-55
-134	-18	-30
-151	-43	-12
-136	-88	4
-110	-131	83
-98	-153	109
-113	-133	129
-152	-74	137
-202	6	113
-228	88	91
-206	147	-6
-127	164	-158
-8	129	-255
110	54	-268
189	-40	-254
201	-126	-136
151	-169	-20
71	-153	14
6	-88	-3
-21	-6	-64
-5	50	-155
28	55	-219
50	8	-204
45	-55	-108
18	-90	-9
-7	-66	45
-14	12	91
9	114	72
50	193	48
92	224	16
119	202	5
128	154	11
127	105	-3
126	64	9
128	27	37
130	-25	87
115	-100	88
76	-175	56
1	-219	34
-97	-204	-10
-199	-129	-76
-281	-23	-101
-317	71	-87
-287	119	-45
-194	117	-4
-59	85	24
87	57	4
214	53	-43
300	75	-20
340	100	5
337	110	7
290	98	-1
196	71	-16
46	50	-20
-148	41	-22
-360	41	-31
-534	28	-52
-611	-20	-83
-562	-102	-86
-394	-203	-52
-165	-287	-30
67	-322	-23
241	-286	-13
332	-187	-9
346	-56	-7
311	70	-14
250	152	-30
179	165	-16
106	106	32
39	0	39
-14	-118	28
-43	-207	38
-50	-238	2
-54	-208	-5
-74	-139	-10
-125	-65	-34
-191	-16	-61
-233	0	-93
-214	-3	-80
-113	1	-55
44	25	-31
202	72	1
292	114	24
273	127	8
154	96	6
-26	35	-8
-188	-13	-57
-281	-19	-82
-289	33	-86
-231	121	-96
-140	204	-137
-54	237	-120
8	200	-72
51	111	-24
89	7	38
123	-68	95
155	-97	127
175	-80	101
175	-41	56
151	-9	-17
109	4	-101
58	-4	-148
13	-20	-115
-24	-36	-46
-46	-43	-9
-55	-42	-11
-54	-31	-44
-44	-13	-62
-26	10	-99
0	36	-90
27	57	-24
51	71	34
69	76	43
75	76	-16
69	79	-79
59	85	-100
52	93	-57
51	85	11
50	55	61
34	0	77
-14	-66	59
-100	-120	11
-204	-139	-53
-290	-116	-105
-316	-63	-126
-251	-5	-106
-109	38	-61
64	56	-30
204	63	19
262	74	82
229	99	108
135	127	102
41	133	57
-4	88	9
12	-18	-22
67	-161	-57
116	-297	-87
121	-378	-75
71	-378	-26
-12	-311	-20
-96	-218	-26
-161	-145	-28
-194	-114	-35
-206	-117	1
-202	-118	26
-191	-86	39
-162	-7	27
-110	92	8
-38	171	11
50	202	-5
149	174	-53
248	118	-101
335	62	-109
391	32	-105
381	24	-106
271	21	-103
58	9	-84
-222	-11	-80
-481	-17	-89
-643	8	-82
-641	65	-43
-496	124	14
-271	151	94
-66	122	163
48	47	181
72	-32	151
48	-74	79
37	-54	19
75	3	-41
143	59	-97
202	71	-121
211	27	-127
170	-46	-128
114	-111	-173
93	-128	-214
125	-99	-180
192	-42	-88
242	10	-8
229	41	24
143	61	24
16	84	18
-88	118	17
-130	151	22
-101	154	16
-35	108	7
19	17	39
25	-81	57
-15	-143	82
-76	-147	111
-117	-100	111
-118	-38	88
-78	-1	12
-22	-7	-60
25	-39	-131
52	-58	-159
65	-36	-181
82	27	-171
111	105	-117
154	153	-53
186	149	27
186	103	76
133	45	123
35	16	128
-93	19	100
-217	41	36
-305	43	-13
-341	0	-31
-317	-84	-62
-242	-176	-102
-128	-233	-118
3	-226	-96
129	-157	-67
229	-58	-58
276	35	-72
261	102	-60
183	130	-63
64	127	-69
-59	97	-37
-157	38	8
-197	-51	38
-176	-158	39
-102	-251	47
-1	-296	36
100	-263	-21
175	-163	-69
198	-23	-104
154	109	-139
40	199	-116
-113	243	-65
-264	252	-5
-362	243	22
-362	206	24
-262	121	34
-95	-23	22
61	-212	4
147	-383	-26
131	-457	-38
36	-386	-50
-76	-182	-28
-144	70	-6
-130	273	24
-47	345	61
64	277	39
151	131	36
183	-3	0
164	-64	-67
121	-52	-136
86	-11	-156
69	2	-147
71	-32	-142
68	-94	-87
48	-133	-42
5	-118	9
-41	-57	58
-75	8	68
-77	32	76
-44	11	72
5	-26	45
49	-29	-8
65	30	-49
49	137	-53
14	237	-62
-21	272	-40
-30	218	-30
-8	103	-15
38	-13	46
81	-82	94
97	-86	111
78	-52	72
32	-32	9
-6	-49	-44
-15	-98	-101
16	-134	-110
64	-120	-82
98	-40	-52
86	77	-19
24	180	-44
-63	228	-66
-138	207	-57
-159	143	-61
-123	71	-48
-54	21	-9
5	-7	40
21	-29	38
-10	-60	2
-69	-99	-2
-117	-128	10
-125	-129	1
-86	-94	-37
-14	-41	-58
58	-5	-70
112	-4	-88
136	-34	-89
137	-64	-75
117	-61	-52
83	-5	-35
29	93	24
-43	186	72
-122	223	33
-187	171	-38
-212	37	-100
-187	-145	-156
-113	-315	-182
-16	-421	-149
77	-433	-42
139	-348	86
158	-198	139
135	-25	129
83	123	84
16	215	14
-54	241	-75
-113	207	-144
-152	144	-135
-167	79	-64
-155	30	48
-123	-6	130
-80	-40	107
-40	-90	26
-14	-159	-56
-2	-226	-114
-3	-263	-133
-8	-243	-104
-8	-162	-31
6	-43	15
37	77	30
85	162	4
139	199	-67
184	196	-85
204	183	-85
178	177	-92
111	186	-78
11	193	-39
-86	170	10
-153	105	63
-175	3	113
-153	-109	135
-106	-196	117
-60	-234	63
-32	-217	10
-23	-164	-37
-16	-97	-48
3	-34	-32
46	22	-14
111	77	12
184	138	-8
245	202	-65
285	247	-121
289	259	-167
253	224	-179
178	153	-125
68	70	-31
-64	11	43
-202	-12	72
-315	-6	67
-378	3	34
-377	-17	7
-314	-77	0
-212	-163	-15
-106	-235	-35
-21	-256	-64
28	-206	-62
48	-98	-85
58	30	-101
77	133	-98
109	179	-83
152	162	-48
189	103	-32
201	26	-27
176	-45	-32
117	-107	-9
36	-160	10
-48	-209	-28
-118	-243	-78
-156	-246	-18
-153	-201	32
-110	-106	28
-45	16	57
26	138	91
81	221	127
105	248	121
94	221	82
59	154	46
21	75	-26
-8	-4	-119
-21	-74	-206
-19	-136	-203
-10	-187	-156
-2	-223	-109
0	-235	5
1	-216	99
-5	-176	124
-20	-119	78
-49	-60	-32
-88	1	-178
-121	65	-268
-126	130	-280
-83	190	-236
13	221	-104
138	206	55
252	139	185
302	43	242
266	-45	221
139	-85	134
-37	-54	19
-219	27	-84
-356	118	-138
-419	170	-109
-402	157	-75
-325	90	-84
-210	11	-71
-83	-34	-66
44	-26	-62
151	25	-16
226	70	24
255	71	56
233	8	70
166	-95	64
74	-187	58
-14	-222	16
-75	-177	-15
-100	-77	-34
-95	27	-68
-78	81	-67
-59	61	-50
-41	-8	-43
-13	-85	-43
39	-115	-37
111	-80	-15
188	9	-26
238	109	-53
234	179	-45
174	198	-59
80	177	-63
-6	143	-29
-56	118	-16
-55	105	-32
-22	82	-19
16	31	24
24	-52	42
-5	-145	55
-60	-206	70
-120	-206	68
-153	-142	61
-151	-55	44
-116	3	-20
-58	-5	-43
4	-79	-19
57	-166	-44
98	-202	-48
116	-141	-7
107	4	24
74	174	6
18	286	-63
-45	277	-141
-102	144	-193
-144	-58	-219
-162	-248	-155
-156	-356	-21
-124	-359	45
-66	-280	81
12	-170	54
107	-72	-28
194	-9	-109
250	32	-143
253	66	-98
201	103	-33
109	137	20
3	151	16
-87	143	24
-150	121	18
-194	110	-37
-231	121	-71
-262	152	-100
-277	179	-95
-250	169	-60
-158	110	-44
-5	10	-61
167	-89	-92
299	-143	-106
336	-127	-62
254	-45	28
76	64	87
-140	152	110
-315	174	99
-392	122	68
-362	6	19
-253	-136	-28
-120	-259	-79
-14	-326	-105
36	-322	-72
44	-250	-33
44	-129	7
71	5	39
141	122	59
245	202	52
346	238	31
398	238	26
373	215	15
276	188	29
128	150	38
-28	99	22
-150	28	8
-212	-59	-22
-215	-149	-54
-178	-224	-70
-125	-259	-50
-76	-252	-24
-35	-200	-20
1	-115	-13
42	-21	5
91	69	16
132	132	-21
155	157	-40
139	130	-30
91	60	-24
24	-37	-30
-35	-133	-40
-69	-195	-24
-79	-205	19
-70	-165	33
-64	-99	26
-66	-36	17
-70	5	-63
-65	24	-136
-37	43	-140
11	77	-97
62	134	-32
96	194	4
99	228	6
74	211	-58
39	145	-144
12	55	-227
3	-30	-249
4	-85	-162
-2	-111	-46
-28	-118	53
-70	-121	138
-115	-122	174
-137	-111	137
-121	-78	100
-69	-17	79
-3	47	42
49	95	-32
63	109	-124
36	95	-164
-15	72	-147
-64	63	-107
-89	76	-77
-78	90	-48
-42	81	-24
-1	32	-9
19	-50	4
11	-131	-11
-24	-174	2
-65	-154	33
-93	-81	61
-92	9	85
-55	71	66
5	86	46
75	63	-10
135	27	-86
178	7	-114
195	11	-102
180	29	-94
137	39	-91
68	19	-63
-13	-30	-27
-90	-93	1
-140	-145	-19
-152	-176	-47
-121	-179	-67
-65	-166	-53
-12	-145	-9
20	-112	51
19	-58	119
-5	25	138
-40	132	149
-55	244	107
-44	332	0
0	360	-114
63	328	-168
124	243	-153
159	133	-116
147	26	-59
78	-61	-1
-32	-126	10
-153	-175	-39
-242	-210	-70
-271	-236	-41
-237	-252	-1
-162	-263	27
-83	-272	60
-29	-270	94
-7	-248	91
8	-182	43
40	-66	-10
106	86	-54
189	240	-118
250	340	-172
253	345	-173
194	256	-137
94	106	-51
-5	-40	41
-70	-126	133
-97	-135	199
-99	-93	187
-96	-43	138
-96	-19	2
-89	-17	-172
-61	-9	-284
-8	35	-331
53	121	-265
99	211	-151
101	253	-69
65	210	-4
16	89	25
-10	-66	20
8	-189	16
63	-242	15
125	-222	29
154	-169	26
127	-125	5
52	-109	-16
-45	-105	-23
-125	-77	-39
-165	-9	-39
-154	92	-23
-111	189	-11
-55	240	39
-11	228	75
12	171	81
13	110	64
-4	70	39
-29	57	13
-56	47	-42
-80	3	-78
-91	-83	-84
-88	-188	-71
-65	-260	-75
-27	-260	-122
23	-175	-136
70	-40	-98
109	84	-62
126	150	-1
121	148	65
98	103	126
68	61	149
42	58	63
25	97	-32
14	145	-104
0	161	-170
-30	116	-176
-77	23	-112
-133	-85	-40
-181	-169	21
-195	-206	59
-166	-199	93
-89	-167	110
14	-133	87
121	-101	41
211	-64	-21
266	-12	-68
284	58	-87
270	127	-81
230	169	-69
163	162	-42
74	109	-20
-33	32	-28
-145	-26	-26
-248	-46	-17
-321	-30	-23
-354	-2	-50
-348	-6	-50
-310	-63	-30
-250	-170	-8
-180	-281	72
-103	-342	135
-13	-309	134
98	-175	100
223	13	11
346	192	-116
435	289	-223
438	279	-264
326	180	-211
108	49	-105
-152	-46	-8
-369	-79	19
-454	-52	-19
-378	-14	-3
-181	-2	8
34	-32	11
161	-85	24
148	-109	6
22	-76	-17
-123	17	-72
-195	125	-66
-153	195	-28
-29	183	5
98	93	11
158	-29	-10
130	-127	-10
60	-161	-23
16	-128	-44
32	-68	-68
89	-23	-39
132	-19	29
114	-46	108
36	-77	179
-45	-79	168
-70	-41	93
-6	19	1
113	81	-121
214	121	-230
238	139	-238
165	143	-184
44	145	-107
-60	144	-53
-97	129	-8
-70	89	34
-21	20	43
2	-56	10
-23	-114	-20
-76	-124	-40
-115	-84	-62
-115	-12	-60
-81	65	-101
-38	118	-106
-14	136	-68
-14	122	-43
-16	93	-6
3	61	-8
48	32	-8
98	3	-25
119	-28	-20
87	-60	17
10	-94	24
-75	-122	76
-130	-143	120
-129	-157	128
-83	-163	112
-20	-157	53
26	-129	-25
37	-86	-111
24	-24	-158
8	36	-120
16	87	-62
58	117	-12
124	128	60
188	131	82
216	135	55
182	142	20
77	145	-54
-83	135	-123
-257	100	-163
-394	39	-147
-463	-44	-98
-442	-142	-92
-347	-237	-79
-215	-316	-51
-91	-355	-30
12	-340	16
93	-261	38
165	-127	38
234	28	17
284	166	-24
285	240	-37
216	233	-5
78	144	33
-85	14	79
-217	-113	118
-270	-202	98
-235	-233	46
-141	-210	-34
-40	-151	-113
26	-76	-169
52	0	-147
60	61	-65
84	105	-20
136	127	22
204	126	8
253	108	-27
255	81	-43
205	56	-59
119	41	-65
29	37	-89
-41	35	-94
-92	28	-67
-132	14	-47
-168	-1	-30
-188	-6	1
-178	10	16
-115	50	28
-6	106	46
118	156	69
211	180	75
239	169	65
196	127	62
110	71	8
29	17	-31
-15	-17	-64
-16	-31	-108
5	-33	-122
15	-36	-111
-7	-52	-86
-60	-86	-87
-120	-127	-58
-156	-163	-39
-151	-171	-13
-108	-136	16
-51	-62	14
2	39	3
34	139	-15
49	209	-33
57	225	-40
65	183	-19
72	98	-28
69	-6	-34
46	-98	-25
3	-162	-27
-52	-192	-15
-106	-203	-26
-143	-202	-40
-152	-198	-25
-135	-186	-5
-98	-159	30
-51	-110	56
-1	-51	61
45	9	37
82	47	-7
107	60	-42
113	51	-81
99	40	-72
66	41	-42
24	59	32
-15	84	152
-44	92	178
-55	74	111
-52	27	-11
-37	-28	-151
-22	-64	-278
-10	-58	-305
-1	-9	-201
6	60	-85
24	123	17
54	147	49
100	125	24
143	72	1
166	19	-1
148	-6	-20
79	8	-44
-34	51	-48
-169	96	-53
-291	112	-67
-382	77	-95
-409	-10	-99
-371	-128	-80
-277	-249	-46
-148	-334	-11
-2	-364	21
131	-329	44
229	-233	55
275	-95	91
262	59	116
204	202	103
121	309	87
39	358	42
-12	345	-5
-26	279	-24
-4	175	-41
32	63	-39
54	-42	-79
46	-126	-104
0	-190	-86
-67	-237	-76
-124	-263	-64
-130	-263	-58
-74	-223	-17
34	-130	18
151	4	24
229	153	43
230	276	54
156	338	19
44	321	-48
-52	237	-92
-105	114	-102
-110	-5	-96
-101	-95	-70
-109	-141	-51
-150	-152	-42
-195	-143	-30
-204	-125	-18
-139	-106	-16
-4	-85	-6
151	-61	21
265	-39	46
284	-21	60
214	-8	64
91	6	16
-12	23	-50
-53	45	-43
-32	61	-42
18	58	-60
46	27	-83
30	-29	-98
-21	-91	-63
-69	-136	-17
-80	-142	21
-38	-111	21
30	-58	36
89	-3	12
100	42	-82
62	79	-149
-8	113	-189
-77	154	-169
-119	188	-90
-138	190	-14
-148	136	54
-159	22	76
-176	-123	72
-183	-254	120
-162	-317	137
-106	-296	100
-28	-204	52
44	-92	-37
90	-5	-120
98	35	-132
82	41	-101
65	43	-89
63	67	-76
83	115	-43
107	165	-39
124	175	-39
122	138	-38
101	57	-40
74	-22	-62
42	-65	-97
7	-53	-102
-41	-3	-92
-104	47	-23
-170	71	62
-211	54	112
-203	19	104
-136	-9	32
-26	-12	-49
89	7	-108
170	23	-116
190	20	-84
155	-9	-25
93	-46	21
33	-66	40
-3	-50	56
-19	-3	41
-31	44	10
-55	68	9
-97	50	4
-139	3	4
-156	-48	16
-119	-71	11
-27	-60	13
111	-21	34
265	24	63
395	53	50
462	58	13
446	49	-27
336	44	-71
151	62	-121
-69	101	-132
-276	143	-114
-426	159	-93
-489	120	-76
-473	13	-88
-392	-140	-64
-288	-301	-42
-189	-411	-31
-106	-427	-15
-38	-342	-2
18	-181	-2
67	-2	-17
103	131	-15
117	181	-14
113	142	-9
97	55	-12
83	-33	-13
83	-85	-3
91	-93	-13
99	-67	-24
87	-31	-12
51	3	4
-4	39	31
-60	84	82
-103	138	155
-120	189	171
-113	211	84
-89	190	-13
-54	126	-95
-10	44	-157
40	-27	-205
91	-67	-214
128	-82	-149
136	-84	-96
110	-92	-90
57	-108	-125
1	-118	-153
-40	-108	-130
-55	-71	-65
-50	-27	22
-36	4	61
-25	4	108
-19	-18	135
-10	-34	104
18	-18	68
59	41	8
102	121	-44
130	182	-91
127	187	-118
97	131	-99
49	48	-19
8	-25	59
-19	-48	80
-35	-20	81
-50	35	63
-75	84	12
-104	97	-52
-125	74	-88
-125	27	-101
-100	-21	-77
-55	-56	-67
-8	-78	-42
28	-88	-18
46	-87	-46
54	-64	-31
56	-25	-22
56	27	-36
45	66	-40
18	68	-24
-36	18	0
-108	-76	1
-178	-178	-35
-211	-253	-62
-184	-270	-56
-86	-233	-56
64	-162	-49
224	-87	-36
343	-26	-16
374	24	-17
323	81	-31
201	158	-27
64	244	-12
-42	319	20
-95	336	44
-108	272	35
-122	134	26
-172	-32	11
-264	-169	0
-380	-230	10
-463	-203	35
-470	-124	64
-383	-50	55
-224	-32	25
-37	-88	-4
131	-182	-42
245	-260	-85
302	-263	-126
302	-179	-153
269	-35	-170
210	102	-157
138	170	-113
65	148	-83
6	51	-57
-31	-60	-11
-46	-135	34
-44	-139	50
-37	-83	47
-28	-5	49
-18	58	32
3	85	-4
42	87	-11
92	85	4
139	101	26
169	138	75
167	179	110
137	203	93
93	192	18
45	147	-72
3	81	-150
-33	18	-204
-68	-26	-166
-101	-49	-60
-125	-55	14
-130	-51	51
-110	-38	55
-68	-17	32
-18	9	38
27	41	57
58	71	56
75	93	72
80	101	85
81	96	34
74	80	-38
58	57	-107
27	30	-181
-14	-2	-222
-62	-40	-209
-103	-81	-150
-125	-116	-53
-130	-139	24
-119	-144	13
-99	-132	-44
-74	-113	-110
-42	-88	-184
-3	-66	-164
46	-42	-50
99	-12	69
144	26	128
169	67	112
166	95	47
140	100	-42
102	76	-78
61	32	-101
18	-13	-82
-34	-32	-24
-106	-12	39
-194	43	78
-288	117	21
-357	171	-28
-378	182	-67
-332	134	-58
-232	36	-28
-103	-83	-38
22	-191	-33
115	-257	-33
166	-268	-34
181	-233	-38
170	-171	-48
140	-114	-22
97	-86	11
39	-98	28
-30	-142	36
-95	-199	32
-133	-234	5
-133	-227	-23
-85	-171	-18
2	-81	-24
103	12	-32
190	84	-35
245	119	-28
261	127	-11
249	126	-4
228	131	-4
210	150	-2
205	166	18
197	166	37
165	139	29
85	97	12
-48	57	15
-214	45	11
-375	64	3
-478	93	-14
-491	106	-20
-410	78	-19
-262	12	-32
-100	-64	-32
39	-110	-41
123	-98	-51
158	-33	-24
158	56	-8
144	121	3
128	132	40
105	86	33
69	7	-12
18	-68	-84
-35	-109	-168
-74	-104	-227
-79	-68	-217
-45	-22	-124
10	13	-27
71	29	34
113	31	51
127	24	26
113	21	-4
82	24	-34
45	33	-33
9	44	-34
-24	51	-65
-57	45	-52
-92	19	14
-123	-25	93
-142	-79	151
-150	-121	175
-140	-141	138
-115	-129	57
-77	-96	-30
-24	-56	-141
35	-27	-224
103	-14	-281
167	-8	-279
214	1	-209
232	29	-171
208	72	-122
149	112	-66
59	124	-2
-35	92	53
-119	17	61
-181	-82	85
-211	-170	90
-214	-224	49
-199	-226	29
-172	-178	3
-129	-100	0
-67	-11	50
15	67	72
114	126	61
209	157	42
269	159	17
273	138	-19
208	103	-58
91	61	-65
-39	18	-40
-138	-22	30
-170	-57	84
-124	-88	85
-27	-104	22
81	-103	-51
151	-74	-116
155	-22	-186
94	40	-186
-4	91	-157
-93	106	-103
-133	80	-43
-106	19	-11
-26	-47	10
61	-85	6
111	-76	4
83	-23	4
-23	40	10
-174	83	4
-315	72	8
-385	13	7
-358	-71	-9
-245	-139	-13
-91	-160	-29
53	-121	-19
154	-45	13
198	35	39
202	95	81
189	116	101
171	111	75
148	97	49
110	86	-21
53	85	-122
-10	80	-186
-63	57	-171
-87	13	-76
-71	-47	5
-31	-105	44
9	-140	37
27	-136	-7
20	-92	-42
-3	-16	-67
-22	77	-103
-13	169	-108
20	239	-80
71	271	-36
118	255	10
141	185	34
140	76	16
122	-52	1
96	-162	11
62	-228	24
19	-241	81
-47	-208	110
-140	-158	69
-244	-116	16
-320	-100	-35
-333	-110	-99
-259	-130	-214
-105	-141	-288
85	-124	-298
245	-78	-238
322	-14	-156
287	48	-65
170	86	15
21	88	46
-98	48	85
-154	-11	86
-149	-72	61
-114	-112	13
-89	-115	-10
-91	-83	-13
-106	-32	-22
-110	12	-15
-80	33	-30
-13	24	-39
64	4	-42
119	-5	-35
130	19	-27
96	79	8
42	157	50
-10	222	60
-45	243	66
-70	208	53
-100	123	30
-138	18	19
-173	-80	7
-176	-149	-3
-126	-174	-6
-24	-166	-22
105	-129	-33
211	-84	-37
261	-29	-51
238	24	-53
169	80	-52
93	127	-44
42	165	-38
31	180	-44
42	164	-52
46	115	-26
27	43	21
-20	-36	54
-79	-95	74
-125	-117	72
-145	-90	41
-140	-31	-25
-118	35	-105
-88	76	-151
-49	66	-116
-6	17	-66
45	-45	-37
98	-77	-33
141	-48	-61
164	33	-16
162	131	52
136	192	91
93	177	90
36	84	40
-25	-46	-19
-81	-160	-102
-117	-210	-130
-118	-189	-102
-72	-126	-71
6	-66	-51
88	-49	-11
137	-70	29
132	-102	46
81	-106	40
15	-61	-11
-19	14	-53
0	83	-51
57	97	-78
109	41	-126
99	-66	-133
-1	-177	-105
-174	-243	-32
-351	-233	39
-468	-152	76
-474	-35	53
-372	68	-14
-209	119	-100
-46	103	-195
58	36	-269
93	-43	-215
75	-94	-109
49	-89	-37
56	-20	37
107	85	78
183	183	63
244	235	37
252	213	46
184	127	48
59	12	74
-91	-83	69
-208	-122	39
-259	-102	16
-232	-47	-8
-148	1	-13
-41	17	-26
46	-3	-8
100	-29	1
125	-30	6
145	13	4
171	89	-2
202	161	-10
214	190	-15
188	157	-8
109	77	-4
-1	-15	-20
-108	-77	-47
-176	-95	-51
-185	-71	-39
-150	-37	15
-96	-13	66
-50	-5	82
-21	-4	75
3	8	6
39	34	-99
96	68	-182
164	95	-222
216	99	-194
230	85	-107
196	66	-6
125	56	49
49	59	56
-10	67	22
-47	58	-7
-66	23	-26
-86	-33	-40
-114	-93	-14
-145	-130	10
-170	-130	30
-172	-95	37
-144	-44	22
-93	-2	21
-31	18	7
27	5	7
72	-32	-4
90	-84	-10
75	-136	-19
18	-180	-46
-67	-209	-32
-161	-216	-25
-228	-204	-11
-233	-174	-18
-164	-133	-92
-40	-90	-120
90	-48	-104
180	-12	-97
206	20	-60
181	46	-63
143	70	-92
125	92	-87
133	114	-91
137	138	-138
94	164	-136
-21	183	-66
-180	183	-18
-330	149	24
-401	72	66
-360	-33	71
-231	-147	39
-72	-233	7
50	-259	-17
111	-222	5
116	-127	56
102	-8	43
102	103	-2
121	181	-25
143	215	-39
147	213	-7
122	179	42
81	125	85
41	61	131
11	0	79
-18	-50	-20
-59	-81	-121
-119	-82	-206
-176	-60	-185
-199	-27	-124
-159	1	-49
-53	16	-2
90	16	11
216	10	22
280	11	15
268	23	9
196	45	-17
106	66	4
31	74	-11
-10	62	-45
-28	31	-24
-46	-5	-35
-75	-41	-37
-117	-68	-44
-159	-90	-48
-180	-100	-31
-168	-98	1
-122	-81	34
-57	-38	77
13	20	120
84	88	94
148	142	58
208	170	4
257	166	-101
278	132	-163
248	85	-132
156	31	-52
8	-16	-11
-161	-60	17
-304	-100	22
-373	-137	-14
-352	-171	-32
-258	-195	-60
-133	-202	-74
-25	-188	-75
36	-148	-56
48	-81	-49
32	10	-50
16	110	-54
13	204	-49
18	265	-23
15	275	-5
-7	224	8
-45	122	-24
-84	-5	-47
-100	-130	-43
-84	-230	-13
-40	-301	11
8	-348	19
45	-379	-12
64	-393	-68
65	-372	-79
65	-299	-105
74	-157	-123
94	35	-107
115	237	-67
122	394	-26
107	457	3
65	413	16
9	286	14
-43	125	18
-75	-23	16
-69	-125	1
-30	-175	-13
31	-179	-18
85	-157	-14
104	-115	2
70	-60	4
-10	2	-5
-114	60	-11
-200	104	5
-226	121	35
-177	114	47
-65	96	44
66	80	30
171	71	3
216	69	-13
197	60	-9
137	38	-23
70	5	-47
29	-29	-52
18	-46	-45
26	-38	0
24	-8	42
0	34	65
-51	76	87
-114	112	80
-162	140	32
-181	162	-81
-168	162	-209
-133	129	-280
-91	56	-252
-49	-49	-153
-14	-160	-4
23	-242	174
59	-263	233
94	-224	195
113	-137	111
107	-42	-22
71	31	-158
9	71	-273
-58	83	-302
-111	86	-231
-127	88	-139
-104	84	-54
-46	59	7
28	9	26
91	-61	65
127	-134	93
129	-174	78
100	-173	41
54	-134	-14
12	-86	-59
-13	-49	-85
-18	-36	-84
-7	-30	-42
9	-2	31
20	57	82
24	139	94
25	202	62
30	204	22
40	124	9
56	-21	-20
65	-178	-65
60	-289	-86
33	-313	-127
-13	-249	-153
-70	-140	-155
-126	-36	-163
-172	18	-123
-205	16	-63
-228	-23	-3
-248	-56	28
-264	-50	37
-271	9	51
-247	110	67
-175	213	61
-54	279	52
94	279	32
233	208	-11
318	83	-45
326	-47	-54
262	-139	-9
166	-162	16
75	-116	24
28	-37	7
26	35	-30
44	64	-16
51	43	4
21	-2	5
-33	-32	-12
-82	-23	-28
-87	22	-24
-31	77	-8
69	105	-24
170	91	-44
229	51	-53
224	15	-15
159	11	65
68	36	69
-15	67	90
-66	67	118
-93	18	86
-112	-69	29
-136	-155	-19
-167	-191	-91
-186	-162	-190
-180	-79	-238
-134	16	-252
-64	84	-282
5	110	-260
56	103	-145
75	91	-34
75	88	20
65	95	52
61	89	40
66	57	5
65	-3	1
52	-71	4
24	-115	19
-10	-109	-2
-38	-53	-41
-53	21	-53
-61	82	-44
-76	102	-4
-99	77	49
-128	19	100
-141	-48	130
-117	-108	121
-44	-157	92
57	-194	70
155	-222	32
214	-233	-24
208	-216	-84
145	-174	-101
44	-109	-90
-56	-48	-93
-141	-11	-76
-204	-8	-52
-245	-34	-53
-262	-64	-84
-259	-77	-129
-216	-54	-165
-133	-2	-163
-19	61	-105
101	112	-16
196	131	47
245	117	62
245	74	52
209	24	65
163	-14	65
130	-27	52
107	-13	38
86	24	14
46	70	6
-20	113	4
-107	150	-5
-186	174	-27
-229	194	-26
-216	201	-21
-150	189	-24
-53	145	-23
42	68	-42
104	-33	-62
120	-133	-69
101	-196	-30
66	-200	32
34	-148	62
10	-68	69
-6	-7	43
-24	8	-18
-44	-29	-72
-59	-83	-121
-57	-111	-160
-30	-86	-136
18	-6	-93
75	90	-70
120	161	-56
139	171	-80
132	131	-55
110	63	9
86	10	74
66	-7	128
52	7	80
36	29	7
9	37	-58
-30	23	-134
-72	-4	-151
-107	-24	-99
-126	-26	-40
-125	-20	-32
-109	-17	-26
-83	-33	2
-56	-61	22
-38	-79	28
-26	-60	17
-22	3	-15
-21	89	-45
-20	160	-36
-12	171	-8
1	117	19
23	13	32
49	-95	71
75	-167	124
93	-194	160
89	-192	166
57	-200	99
-2	-232	15
-75	-278	-89
-134	-299	-202
-156	-254	-241
-122	-130	-219
-47	40	-185
35	195	-132
80	268	-63
60	235	-2
-12	119	5
-96	-14	-46
-134	-105	-82
-101	-117	-116
-11	-68	-138
77	-2	-125
99	38	-59
30	35	12
-102	9	31
-223	-9	56
-255	11	85
-173	61	93
-10	119	86
157	139	96
261	114	91
271	51	71
219	-12	61
154	-44	76
111	-31	108
90	11	90
57	51	46
-18	64	-31
-129	48	-133
-232	18	-227
-267	1	-265
-205	5	-204
-62	30	-118
101	57	-46
216	77	-11
251	82	-22
210	87	-42
138	101	-53
78	120	-86
44	131	-95
29	109	-59
7	45	-12
-40	-48	37
-103	-144	69
-162	-209	88
-194	-226	91
-190	-191	65
-156	-133	27
-102	-72	-2
-43	-34	8
17	-23	32
72	-33	18
119	-57	-35
145	-81	-127
143	-92	-206
111	-80	-213
58	-41	-147
1	11	-61
-48	58	18
-79	76	81
-91	47	84
-83	-18	39
-58	-88	21
-22	-121	13
24	-93	-18
65	-3	-10
92	102	8
94	178	-4
77	183	-47
46	119	-82
18	22	-87
-1	-59	-96
-18	-93	-88
-32	-75	-59
-56	-35	-40
-82	-13	-16
-104	-21	7
-118	-58	47
-120	-98	61
-114	-107	22
-97	-71	7
-65	1	-21
-11	82	-52
67	139	-44
148	154	-26
196	122	-8
180	64	-7
91	1	-14
-44	-42	-43
-172	-54	-71
-236	-36	-59
-209	-5	-31
-111	16	12
4	14	57
89	-15	63
124	-49	36
127	-63	-2
131	-32	-38
162	47	-58
203	150	-36
216	240	-25
158	278	-21
22	252	7
-150	174	17
-295	75	46
-352	-20	68
-307	-100	49
-199	-169	9
-91	-238	-83
-35	-301	-193
-40	-346	-275
-78	-346	-308
-98	-289	-252
-75	-183	-149
-8	-65	-47
69	27	26
131	76	32
159	85	28
166	87	32
172	109	30
192	162	40
216	232	54
234	279	93
215	287	96
163	244	66
89	177	56
21	110	32
-23	63	16
-45	31	3
-57	-11	-22
-83	-79	-19
-126	-176	-13
-181	-275	-45
-223	-336	-86
-227	-330	-110
-180	-257	-120
-88	-150	-104
17	-55	-67
91	-17	-9
105	-37	43
49	-95	89
-48	-148	90
-140	-160	16
-172	-123	-80
-118	-56	-185
6	8	-226
151	45	-196
253	58	-132
268	65	-39
190	98	35
61	164	76
-62	251	98
-129	321	87
-124	329	44
-64	250	16
5	95	-24
46	-94	-51
40	-254	-42
-6	-330	-12
-65	-300	25
-117	-179	74
-145	-21	126
-152	113	124
-143	183	68
-125	174	13
-103	122	-67
-65	64	-157
-16	41	-204
41	64	-189
92	106	-107
120	129	-16
110	97	30
63	11	28
-6	-98	16
-77	-181	-33
-124	-196	-121
-135	-147	-181
-111	-64	-134
-61	-2	-71
-4	4	-9
51	-43	66
101	-100	85
149	-114	67
194	-55	38
230	64	53
248	195	51
234	279	40
188	282	32
121	211	-34
56	102	-74
12	0	-96
-10	-66	-99
-14	-102	-80
-18	-121	-74
-32	-147	-47
-60	-171	-12
-87	-176	-1
-104	-141	-4
-106	-59	-11
-97	54	1
-87	168	14
-77	248	32
-59	277	35
-23	257	0
35	197	-6
102	116	0
148	33	1
139	-40	-24
68	-99	-69
-53	-140	-98
-180	-173	-107
-269	-206	-92
-285	-249	-79
-223	-292	-62
-110	-322	-57
13	-316	-75
111	-262	-80
164	-171	-54
164	-69	-39
122	8	-42
48	44	-23
-42	53	20
-126	62	64
-192	104	87
-217	177	84
-193	250	65
-125	268	40
-27	197	3
72	39	-27
152	-153	-41
182	-298	-68
155	-337	-64
71	-251	-26
-44	-80	-24
-159	104	-38
-234	229	-51
-224	253	-65
-123	188	-88
45	74	-93
222	-38	-88
333	-109	-84
339	-127	-34
234	-103	46
74	-54	98
-72	-2	147
-132	36	190
-88	59	210
25	70	155
137	76	17
190	85	-81
161	102	-177
72	126	-270
-18	147	-290
-69	153	-240
-68	134	-165
-37	93	-105
-16	35	-71
-26	-25	-32
-67	-79	38
-113	-121	97
-130	-148	142
-113	-154	136
-66	-140	70
-17	-99	7
18	-38	-51
38	34	-100
52	97	-101
74	131	-35
102	131	55
129	100	85
138	58	48
121	21	-24
75	3	-65
12	-3	-66
-61	1	-100
-137	6	-121
-208	3	-111
-261	-8	-89
-277	-31	-39
-248	-67	-2
-166	-115	10
-56	-160	22
48	-188	31
118	-181	34
140	-126	38
133	-37	26
127	65	-16
149	151	-37
201	201	-30
262	213	-19
294	198	-10
265	171	1
171	148	2
29	121	-3
-126	86	-18
-262	32	-52
-352	-35	-79
-389	-112	-109
-372	-183	-134
-310	-241	-103
-218	-273	-11
-121	-275	57
-43	-237	60
-6	-157	39
-21	-49	6
-79	53	-18
-155	106	-11
-215	71	0
-228	-56	-2
-183	-237	-12
-87	-393	-36
33	-460	-76
144	-393	-82
216	-215	-75
242	8	-66
229	194	-42
209	290	-36
214	296	-27
261	254	-17
333	224	-47
391	231	-65
383	267	-55
288	290	-41
122	261	-8
-62	171	13
-199	46	38
-248	-65	39
-211	-127	51
-130	-133	100
-59	-109	129
-30	-87	131
-36	-92	70
-43	-113	-15
-18	-118	-74
49	-79	-106
129	12	-51
184	127	38
181	215	81
116	250	82
13	210	43
-92	129	-58
-170	43	-233
-218	-9	-331
-236	-27	-306
-234	-28	-231
-210	-44	-170
-159	-92	-111
-84	-157	-53
3	-211	-21
75	-218	26
109	-166	41
101	-70	34
64	29	25
24	92	24
0	100	26
-3	61	17
1	4	24
-1	-44	47
-18	-61	52
-39	-51	38
-52	-25	10
-44	4	-1
-13	28	5
27	50	9
65	72	35
91	98	22
116	121	0
148	132	-43
186	130	-80
222	110	-74
222	75	-95
163	27	-56
35	-27	-27
-129	-80	-25
-288	-124	-3
-393	-149	10
-415	-149	22
-356	-127	9
-256	-103	-18
-162	-88	-56
-101	-91	-67
-75	-102	-52
-60	-98	-33
-30	-69	1
28	-17	-7
105	38	-58
170	66	-61
202	54	-76
192	9	-84
156	-31	-58
121	-41	-46
103	-10	-28
100	35	-14
90	52	-7
59	11	-7
2	-82	10
-59	-175	-1
-95	-210	3
-88	-149	20
-40	-12	13
16	139	1
44	239	-8
29	248	-5
-22	187	8
-75	101	37
-97	47	58
-66	35	90
-3	41	105
62	23	74
89	-41	31
64	-127	-7
5	-186	-63
-50	-170	-137
-65	-77	-190
-33	52	-183
29	155	-135
88	185	-118
107	143	-138
85	70	-171
37	16	-161
2	4	-106
-1	21	-41
29	27	20
66	-4	56
70	-67	52
25	-130	14
-63	-148	13
-156	-104	24
-216	-24	26
-214	47	22
-148	65	-18
-44	29	-12
62	-29	45
144	-58	105
188	-29	161
194	55	176
166	158	104
115	225	9
47	227	-86
-23	158	-181
-85	47	-207
-120	-74	-189
-125	-174	-109
-106	-238	-19
-77	-264	24
-54	-253	30
-46	-198	4
-48	-106	-19
-45	4	-36
-30	106	-72
2	169	-110
36	166	-109
60	106	-95
63	12	-32
48	-72	37
25	-123	46
4	-122	58
-10	-86	51
-26	-42	12
-50	-16	-1
-85	-22	8
-115	-52	20
-116	-86	11
-72	-98	3
23	-74	-18
143	-12	-91
245	77	-125
294	162	-128
251	222	-125
128	235	-111
-45	202	-96
-212	138	-85
-325	67	-59
-364	10	-19
-325	-36	4
-242	-81	31
-148	-145	44
-71	-230	52
-27	-312	59
-4	-352	34
16	-312	26
49	-183	22
101	-1	3
159	169	-5
199	268	6
206	272	29
172	201	45
113	114	63
44	63	116
-10	69	130
-38	103	63
-38	118	-15
-15	75	-97
21	-22	-188
63	-126	-243
101	-186	-209
120	-171	-147
115	-93	-101
79	4	-55
24	76	-40
-27	93	3
-46	75	61
-20	48	105
44	44	95
116	57	8
151	68	-91
124	51	-197
37	0	-260
-75	-63	-248
-172	-109	-172
-214	-113	-78
-195	-80	7
-135	-33	89
-59	-2	136
7	-1	144
61	-15	123
105	-18	84
138	14	46
154	83	24
135	163	-3
78	215	-8
-12	215	21
-104	159	76
-165	59	133
-181	-46	104
-151	-135	13
-103	-185	-84
-57	-192	-186
-32	-165	-234
-22	-108	-213
-14	-37	-142
0	30	-86
15	77	-92
12	89	-81
-19	66	-43
-80	19	-21
-149	-29	-10
-199	-68	-12
-212	-92	-1
-184	-109	9
-134	-130	11
-83	-164	22
-41	-204	20
-12	-230	52
21	-226	134
68	-179	179
130	-101	161
187	-6	84
225	88	-41
226	166	-168
195	215	-221
147	233	-189
94	210	-129
50	139	-48
7	36	11
-42	-77	-19
-102	-167	-38
-162	-200	-43
-201	-177	-95
-202	-112	-111
-154	-43	-103
-68	-2	-89
34	6	-66
130	3	-49
201	25	-16
245	89	24
263	182	47
257	259	62
219	276	61
149	221	52
46	115	54
-71	19	60
-184	-19	61
-259	11	54
-284	71	62
-262	104	74
-210	63	72
-156	-47	48
-104	-177	-18
-62	-259	-101
-20	-243	-189
32	-141	-256
86	-4	-233
130	103	-158
154	137	-94
150	106	-32
123	52	19
93	19	54
72	19	49
66	40	42
68	45	25
60	12	-18
34	-53	-47
-10	-120	-67
-57	-153	-66
-92	-133	-53
-96	-70	-12
-60	2	7
3	60	4
81	98	10
148	122	9
184	150	16
178	181	16
121	199	-8
26	181	-35
-89	113	-39
-190	5	-45
-252	-114	-34
-253	-204	-13
-190	-242	2
-79	-222	19
52	-165	47
162	-96	87
216	-28	91
195	35	39
103	106	-47
-31	174	-130
-162	227	-211
-243	223	-235
-253	131	-151
-197	-49	-28
-106	-286	93
-16	-504	140
44	-628	83
68	-604	10
76	-433	-35
80	-173	-80
89	83	-108
90	241	-99
62	265	-59
2	178	-42
-69	54	-103
-103	-23	-131
-66	-11	-103
41	71	-59
169	161	6
238	190	-2
194	130	-9
35	20	-17
-170	-70	-53
-335	-74	-35
-382	20	-11
-311	152	37
-184	232	69
-87	187	63
-71	28	21
-123	-164	-48
-173	-277	-74
-151	-237	-53
-35	-62	-22
133	155	-19
276	299	-3
328	300	18
276	171	60
170	6	110
77	-103	113
41	-106	117
59	-29	108
89	45	64
82	51	-36
29	-27	-157
-45	-139	-238
-93	-206	-254
-87	-178	-207
-28	-65	-135
42	64	-41
91	149	2
104	153	0
90	104	-1
78	53	6
78	41	32
86	71	76
82	103	127
48	90	137
-14	19	87
-79	-81	5
-124	-157	-86
-131	-168	-179
-107	-115	-199
-67	-33	-119
-35	29	-21
-14	48	46
3	34	76
24	21	71
52	37	36
81	86	10
94	139	3
86	161	-16
58	134	-27
23	71	-32
-6	10	-47
-28	-21	-60
-45	-8	-94
-59	23	-145
-72	43	-167
-72	31	-151
-57	-21	-95
-23	-90	-26
22	-157	-2
62	-203	6
86	-233	14
89	-249	20
72	-252	38
42	-233	26
5	-182	12
-42	-98	11
-93	7	17
-139	94	62
-172	135	84
-173	115	65
-140	47	6
-83	-27	-93
-18	-68	-171
27	-46	-205
39	28	-185
15	122	-139
-32	185	-61
-88	178	-7
-132	95	-16
-149	-37	-14
-136	-163	-4
-100	-237	14
-55	-240	49
-18	-187	74
0	-121	63
-9	-80	52
-33	-83	56
-51	-106	30
-42	-117	-24
5	-85	-40
90	-9	-19
184	86	17
260	166	109
283	205	194
248	221	172
163	236	46
56	275	-139
-28	335	-332
-68	372	-419
-56	343	-327
-8	211	-157
52	3	-27
94	-218	46
98	-364	35
60	-381	-15
-10	-268	-18
-93	-81	-1
-166	99	16
-210	210	56
-209	228	79
-162	174	54
-72	91	29
29	12	-1
116	-46	-29
156	-92	-38
137	-127	-47
76	-154	-56
3	-157	-47
-38	-126	-49
-30	-69	-46
25	-8	-32
91	32	-20
131	40	-8
121	23	24
71	9	24
12	20	-29
-25	55	-57
-19	97	-69
16	108	-70
51	74	-41
58	0	-10
26	-79	13
-35	-129	4
-100	-135	-34
-148	-113	-47
-167	-104	-28
-162	-135	8
-137	-213	43
-99	-296	74
-39	-326	78
34	-264	57
107	-110	-10
155	89	-86
151	257	-115
89	327	-144
-12	282	-130
-111	155	-88
-163	17	-42
-141	-71	1
-54	-87	21
54	-48	36
132	-6	70
133	6	112
49	-16	130
-96	-39	124
-248	-24	82
-351	47	2
-360	156	-105
-270	249	-165
-113	278	-169
60	227	-176
198	126	-162
265	30	-138
260	-21	-106
208	-14	-62
144	12	-11
96	15	12
67	-38	8
44	-127	50
13	-205	70
-37	-223	49
-91	-162	-6
-126	-56	-57
-123	37	-82
-70	63	-122
12	14	-125
102	-70	-63
165	-134	-11
184	-124	-3
167	-42	-6
121	75	0
64	166	28
5	190	25
-48	144	24
-95	57	29
-134	-26	12
-162	-81	13
-170	-98	-2
-159	-95	-19
-130	-78	-8
-87	-46	19
-31	6	37
32	89	34
99	183	18
163	261	-14
210	282	-64
228	233	-105
210	123	-85
166	-9	-19
111	-122	29
65	-196	27
40	-229	-49
33	-237	-137
27	-238	-141
1	-235	-107
-57	-216	-101
-148	-166	-58
-247	-83	22
-325	18	59
-360	106	22
-329	160	-25
-231	162	-40
-72	118	-48
114	45	-21
288	-42	12
405	-130	19
409	-202	19
283	-237	5
41	-209	-30
-252	-111	-62
-503	41	-79
-639	194	-72
-610	279	-51
-433	249	-27
-181	105	-32
53	-92	-56
204	-250	-41
253	-289	-10
216	-195	37
159	-11	64
126	163	58
151	244	53
231	203	44
340	77	60
421	-53	112
429	-110	164
332	-59	139
130	60	21
-131	185	-91
-385	247	-188
-538	222	-282
-537	129	-295
-383	17	-233
-137	-69	-124
102	-111	-31
249	-109	-7
262	-84	22
172	-49	47
46	-13	8
-40	18	-36
-57	43	-44
-19	48	-33
25	27	-15
30	-19	0
-17	-76	66
-85	-115	138
-129	-125	179
-114	-97	172
-36	-48	87
70	0	-30
169	34	-150
221	55	-252
225	71	-283
193	89	-209
149	112	-119
99	126	-81
39	117	-62
-32	79	-74
-116	17	-81
-189	-44	-25
-229	-92	19
-218	-111	53
-161	-113	94
-82	-108	80
-4	-107	56
48	-116	52
75	-119	76
83	-112	66
84	-82	40
79	-31	39
62	30	19
34	84	13
-3	117	15
-32	129	5
-37	121	-25
-13	104	-70
30	77	-92
56	42	-116
44	-2	-144
-15	-58	-168
-100	-112	-165
-169	-149	-114
-183	-150	-72
-134	-113	-42
-42	-47	-17
55	18	-10
114	56	-6
120	53	3
83	15	21
36	-27	22
8	-48	45
6	-32	74
23	8	109
43	39	129
58	34	70
72	-18	-7
95	-92	-80
126	-143	-116
144	-131	-120
126	-44	-114
50	98	-97
-66	248	-68
-189	345	-5
-271	354	86
-289	272	225
-253	126	313
-198	-45	248
-167	-198	96
-173	-304	-106
-194	-340	-306
-195	-311	-431
-145	-223	-406
-45	-101	-196
69	22	52
156	114	180
191	156	188
172	150	85
129	121	-77
87	96	-206
63	94	-251
55	103	-198
58	97	-94
67	45	-24
85	-54	9
111	-178	35
137	-273	24
143	-292	-14
111	-227	-43
41	-101	-11
-43	26	22
-110	101	11
-125	102	-4
-93	48	-17
-37	-7	-23
2	-22	-40
0	22	-49
-36	104	-10
-84	169	33
-110	179	74
-108	121	115
-90	19	98
-72	-85	46
-68	-152	-19
-54	-162	-61
-5	-127	-51
93	-72	-60
216	-21	-87
320	22	-72
351	57	-41
297	101	-38
191	156	-33
91	215	-21
50	262	14
68	279	59
97	255	69
65	185	28
-63	79	-11
-262	-44	-15
-446	-167	-49
-515	-263	-78
-426	-326	-107
-217	-337	-104
13	-301	-57
160	-232	-32
164	-135	-19
46	-27	-3
-109	82	-25
-212	177	-87
-210	244	-110
-116	261	-90
12	221	-37
113	123	63
155	-7	159
143	-127	212
107	-203	194
78	-216	86
59	-184	-38
42	-142	-126
15	-125	-192
-24	-148	-181
-56	-183	-116
-62	-192	-57
-28	-137	-3
36	-21	0
107	120	-11
157	230	-40
171	261	-78
157	219	-51
126	131	-24
95	60	17
63	36	46
21	57	43
-36	90	22
-111	89	-76
-184	38	-163
-230	-51	-198
-231	-141	-206
-186	-203	-171
-116	-219	-91
-41	-200	-17
10	-167	34
34	-127	77
40	-78	84
44	-5	60
52	82	37
70	166	44
83	208	47
80	188	42
56	114	55
18	22	55
-21	-42	43
-49	-52	54
-58	-19	61
-51	22	27
-32	32	-40
-6	7	-105
22	-29	-165
52	-33	-211
79	17	-181
92	115	-112
86	207	-77
55	237	-22
8	183	24
-46	59	52
-91	-77	98
-115	-171	103
-120	-192	65
-110	-154	4
-92	-94	-58
-72	-52	-96
-47	-44	-122
-11	-51	-107
36	-45	-50
90	-6	24
139	59	70
170	124	68
172	157	36
148	134	-12
99	70	-19
35	-12	-19
-38	-80	-22
-113	-114	19
-181	-114	19
-227	-92	0
-234	-59	-15
-190	-34	-38
-100	-21	-48
18	-18	-66
131	-21	-74
212	-22	-86
245	-6	-110
226	27	-151
167	74	-173
82	120	-131
-15	142	-93
-116	121	-74
-205	51	-3
-263	-49	97
-279	-154	175
-242	-223	215
-164	-237	235
-70	-195	170
6	-119	8
49	-35	-137
65	36	-251
70	82	-284
89	105	-266
130	110	-169
183	104	-53
226	84	3
236	48	22
204	2	-6
137	-46	-23
52	-84	-30
-37	-98	-15
-112	-84	28
-162	-47	63
-177	-2	90
-149	40	77
-85	67	42
-3	79	22
61	77	14
81	68	11
49	65	63
-15	64	133
-76	62	145
-98	46	92
-69	10	-16
-13	-47	-128
31	-112	-243
33	-161	-300
-15	-176	-233
-83	-150	-132
-129	-92	-52
-128	-25	0
-77	27	-8
0	53	-12
69	57	-22
106	49	-45
110	43	-32
96	45	-45
79	53	-40
63	53	-15
46	41	-3
24	21	13
-6	-1	36
-31	-11	48
-41	-8	74
-30	6	118
-11	20	147
1	30	102
-5	32	43
-30	25	17
-52	13	-24
-53	-6	-85
-23	-27	-132
31	-47	-128
86	-52	-127
115	-34	-137
104	10	-141
60	64	-119
5	97	-68
-36	84	-33
-54	17	1
-47	-81	16
-34	-163	11
-34	-192	2
-54	-152	-38
-94	-65	-104
-134	21	-101
-159	67	-70
-151	63	-60
-111	31	-44
-49	7	-22
17	24	17
67	75	32
101	124	37
118	132	70
135	71	91
162	-43	74
197	-174	17
227	-270	-30
225	-305	-12
171	-277	23
65	-209	71
-71	-121	98
-194	-27	90
-268	63	47
-273	147	-24
-231	201	-90
-167	210	-140
-122	162	-140
-109	79	-130
-115	-2	-123
-115	-36	-139
-86	-4	-164
-38	67	-155
5	130	-124
8	129	-58
-34	48	-5
-100	-80	12
-147	-193	3
-130	-233	7
-41	-175	4
100	-47	-39
245	91	-33
359	183	-2
409	205	26
395	165	65
335	101	105
245	47	122
151	21	97
52	13	70
-32	12	31
-96	11	-25
-136	12	-76
-148	25	-83
-142	49	-56
-124	71	-70
-101	70	-62
-70	31	-34
-35	-41	-48
1	-124	-66
31	-177	-59
41	-172	-23
31	-102	4
4	3	20
-23	100	-12
-40	149	-36
-41	126	-20
-38	45	-30
-48	-58	-27
-79	-143	-12
-124	-182	11
-163	-166	17
-173	-108	3
-143	-40	-5
-77	13	3
11	36	29
101	35	22
172	18	9
223	5	-40
250	2	-135
245	8	-198
222	21	-181
171	27	-61
102	24	5
24	5	8
-50	-24	-11
-118	-58	-46
-174	-90	-51
-221	-111	-56
-255	-118	20
-274	-111	94
-277	-101	82
-250	-91	9
-191	-89	-51
-105	-87	-81
-2	-75	-130
101	-40	-119
190	19	-53
245	90	-8
262	149	-47
241	168	-58
188	135	-38
115	65	-38
39	-13	0
-35	-64	19
-106	-70	20
-165	-25	3
-208	48	-8
-226	122	26
-206	174	61
-152	190	85
-69	171	90
14	127	57
82	74	-16
120	22	-78
132	-12	-130
123	-21	-172
100	-1	-161
57	33	-107
-10	59	-56
-98	52	-13
-184	-1	26
-235	-97	54
-219	-200	74
-133	-275	69
-3	-288	70
125	-230	89
214	-117	87
245	12	53
242	120	-2
234	182	-61
237	192	-105
245	163	-136
230	112	-162
166	59	-151
47	13	-104
-92	-26	-69
-211	-61	-35
-281	-101	-14
-285	-138	-24
-241	-164	-53
-168	-167	-52
-85	-137	-17
1	-80	34
88	-6	127
162	60	193
204	103	194
194	110	136
132	95	49
41	64	-50
-41	33	-122
-79	3	-147
-67	-35	-157
-23	-79	-156
15	-122	-120
28	-136	-68
11	-105	-29
-16	-21	-3
-32	92	-23
-26	185	-57
-4	215	-63
20	162	-81
48	53	-121
85	-62	-111
141	-123	-86
211	-99	-51
250	-9	-1
211	105	8
55	190	27
-195	221	43
-474	200	45
-692	153	56
-759	95	57
-669	27	44
-459	-69	21
-225	-199	-4
-32	-337	-31
86	-432	-50
143	-429	-39
192	-314	-18
263	-127	9
366	47	61
476	132	108
568	100	93
606	-16	6
591	-125	-84
506	-149	-155
346	-57	-201
107	108	-198
-208	270	-132
-545	372	-66
-827	390	-76
-977	352	-77
-946	294	-42
-756	222	4
-454	119	37
-141	-46	30
110	-262	22
269	-470	37
328	-570	57
306	-497	41
226	-257	10
107	59	12
-18	317	15
-109	412	-11
-120	327	-20
-31	129	-45
137	-69	-75
326	-190	-69
462	-213	-67
498	-179	-54
438	-141	-18
320	-125	12
203	-108	-5
126	-59	31
84	28	100
48	119	130
-5	150	147
-71	89	108
-126	-47	74
-128	-179	-4
-79	-222	-62
-3	-137	-147
49	35	-304
42	200	-345
-19	271	-328
-98	218	-218
-142	89	-66
-119	-26	18
-42	-60	67
49	1	63
104	102	42
94	168	14
26	150	-3
-64	66	-1
-148	-28	21
-199	-76	17
-217	-55	7
-206	-4	-2
-176	25	-32
-130	-4	-28
-68	-76	-6
4	-137	-14
72	-137	-40
128	-54	-40
167	74	-43
186	185	-62
189	217	-67
175	158	-71
141	35	-32
82	-92	-6
-3	-173	-12
-93	-190	26
-163	-159	84
-193	-110	135
-178	-63	216
-129	-21	271
-70	21	215
-19	74	89
14	124	-58
42	162	-219
72	168	-335
107	142	-341
144	98	-257
170	51	-157
182	19	-100
181	-9	-52
169	-40	-12
142	-87	23
87	-144	59
-13	-196	60
-156	-222	53
-320	-202	35
-454	-140	16
-503	-52	9
-452	34	7
-308	103	32
-132	139	60
20	149	90
110	136	87
135	112	30
128	78	-39
123	27	-154
143	-40	-217
175	-122	-180
184	-200	-143
151	-249	-51
59	-253	60
-58	-204	77
-172	-129	32
-243	-63	1
-250	-41	-45
-195	-78	-99
-100	-148	-134
8	-202	-123
107	-191	-97
179	-94	-58
211	65	-16
200	221	-24
152	301	-9
85	274	15
16	154	11
-36	9	33
-57	-89	93
-44	-87	118
6	8	80
86	148	31
182	268	4
262	327	-30
290	316	-58
231	257	-47
79	183	16
-130	110	54
-325	29	14
-434	-78	-76
-408	-212	-167
-260	-342	-202
-52	-421	-169
127	-410	-58
214	-304	18
199	-145	28
111	8	-15
6	103	-106
-84	130	-141
-150	121	-106
-197	123	-40
-236	169	24
-248	235	63
-205	272	83
-97	228	75
54	88	32
198	-106	-6
275	-273	-21
253	-340	-14
156	-282	-4
35	-142	6
-51	6	19
-79	94	22
-65	98	3
-45	48	-19
-43	0	-29
-54	-3	-33
-46	43	-20
5	102	-26
97	134	-25
195	120	-32
253	81	-82
245	53	-125
176	62	-85
89	99	-27
15	120	52
-18	88	145
-20	-16	187
-11	-157	176
-7	-280	40
-11	-326	-115
-15	-268	-259
-15	-134	-345
-20	28	-315
-47	165	-210
-97	244	-80
-156	261	21
-189	224	84
-166	149	64
-89	45	36
12	-66	19
82	-163	-8
86	-214	20
13	-201	49
-97	-133	67
-197	-39	92
-245	29	114
-226	43	136
-158	-6	129
-68	-87	66
9	-158	-39
69	-188	-131
109	-169	-176
135	-117	-176
154	-53	-118
167	10	-40
178	76	-15
184	138	-55
186	188	-137
172	198	-192
131	147	-140
58	35	-87
-42	-102	-44
-144	-210	-22
-222	-246	-41
-241	-200	-40
-195	-105	-48
-101	-13	-22
18	35	20
133	32	49
226	14	91
280	19	123
291	65	128
253	139	110
160	202	48
16	224	-19
-161	196	-66
-330	145	-113
-458	105	-111
-504	87	-90
-463	72	-53
-350	29	-24
-191	-66	-18
-29	-192	-30
119	-292	-39
230	-306	-18
294	-206	-1
302	-24	14
257	158	23
164	259	19
45	237	-8
-56	114	-52
-112	-41	-80
-103	-151	-93
-47	-175	-82
17	-127	-40
57	-54	-13
53	-5	10
24	10	34
0	3	46
13	9	38
67	45	26
139	101	-4
192	144	-40
196	150	-24
154	115	12
87	59	53
24	11	57
-28	-6	25
-71	-1	-17
-119	16	-67
-176	21	-76
-219	11	-55
-224	-8	-50
-165	-29	-56
-57	-44	-104
60	-61	-198
144	-81	-209
156	-95	-151
96	-86	-109
-11	-38	-50
-124	32	2
-214	95	21
-272	93	40
-291	-2	48
-278	-183	40
-227	-380	53
-139	-506	72
-35	-498	17
62	-354	-38
117	-137	-30
123	63	4
100	174	33
96	178	39
148	119	4
258	65	-56
386	69	-100
457	131	-132
418	213	-126
260	256	-85
35	235	-29
-184	155	48
-318	63	70
-351	4	39
-305	-11	15
-232	6	35
-176	18	49
-143	9	34
-117	-21	11
-72	-46	-26
4	-45	-52
94	-15	-83
169	31	-94
209	64	-104
213	69	-107
201	51	-96
193	31	-75
187	30	-28
165	47	27
104	68	52
-7	65	54
-148	26	43
-279	-43	-16
-354	-119	-30
-350	-173	-38
-271	-190	-16
-144	-169	97
-6	-122	204
117	-62	210
203	3	74
245	69	-97
238	132	-261
178	174	-362
80	177	-308
-34	128	-162
-119	41	-48
-148	-56	21
-107	-130	51
-21	-154	24
71	-124	-26
129	-61	-44
129	3	1
86	45	25
24	60	-8
-26	55	-51
-55	47	-40
-70	46	2
-79	50	60
-88	45	102
-86	23	102
-59	-17	95
-5	-66	87
68	-106	57
132	-126	-20
165	-122	-77
155	-103	-108
111	-76	-121
52	-46	-114
-2	-13	-97
-45	27	-88
-83	71	-55
-122	106	16
-170	114	46
-218	82	8
-252	9	-42
-250	-80	-70
-205	-150	-101
-119	-170	-88
-16	-131	-40
79	-55	3
139	21	-9
151	58	-48
124	38	-67
74	-28	-75
27	-102	-57
-2	-134	-55
-16	-99	-25
-26	6	-5
-44	144	-1
-71	268	-11
-97	327	-23
-99	300	-2
-70	195	-4
-20	42	-3
31	-112	8
53	-234	-4
39	-300	-2
0	-305	52
-32	-260	95
-27	-184	113
25	-98	91
111	-17	45
195	44	1
244	88	-54
241	117	-37
186	147	12
102	185	13
12	230	-37
-65	268	-111
-125	281	-155
-163	247	-162
-180	162	-114
-177	34	-57
-154	-108	-16
-119	-237	26
-79	-322	7
-44	-356	-81
-16	-332	-157
8	-257	-167
40	-149	-124
89	-25	-26
150	87	68
210	168	77
245	201	43
245	187	22
195	143	-26
106	90	-44
-5	51	-34
-113	29	-33
-195	13	-20
-248	-17	9
-262	-70	49
-249	-141	33
-205	-202	22
-134	-217	93
-43	-164	149
68	-45	139
187	102	104
296	233	42
380	305	-40
415	299	-64
388	230	-103
288	122	-179
120	15	-186
-98	-75	-182
-333	-135	-204
-536	-170	-209
-647	-181	-179
-639	-168	-114
-503	-140	-63
-279	-102	-19
-22	-74	-10
190	-63	-9
306	-75	0
320	-92	-7
262	-87	-9
187	-42	1
140	43	32
132	141	24
140	211	13
124	215	26
53	150	58
-61	35	111
-181	-87	131
-244	-174	110
-221	-206	74
-117	-183	27
16	-127	-15
122	-61	-26
165	1	-3
148	53	3
107	106	-19
78	157	-34
87	206	-78
116	247	-99
133	268	-92
110	259	-80
42	207	-63
-51	109	-82
-141	-30	-114
-200	-184	-114
-229	-313	-92
-237	-379	-66
-241	-351	-32
-241	-240	-8
-226	-92	9
-180	33	-5
-89	87	-14
32	63	-29
161	-4	-37
265	-57	-18
321	-50	-5
320	26	20
273	137	42
196	235	63
107	274	69
18	250	112
-62	183	194
-126	109	260
-168	45	225
-182	-13	119
-168	-85	-35
-132	-176	-265
-88	-270	-456
-46	-325	-497
-4	-304	-382
44	-196	-205
109	-36	-62
192	116	3
270	205	49
318	207	81
299	147	65
199	66	45
34	12	30
-161	-9	30
-327	-28	84
-433	-83	128
-459	-199	77
-415	-351	-21
-321	-476	-78
-211	-504	-114
-101	-393	-161
-1	-171	-131
82	95	-64
143	301	-35
180	389	-35
190	336	-18
175	199	18
147	51	35
105	-29	35
62	-24	16
25	41	10
-2	115	-30
-13	150	-56
-8	139	-82
9	103	-97
30	82	-71
45	90	-65
51	119	-35
48	135	-9
44	106	11
46	27	6
52	-79	5
58	-162	-10
52	-187	-4
30	-147	42
-6	-68	67
-48	-1	91
-80	21	59
-96	-5	-3
-94	-48	-76
-80	-70	-135
-51	-45	-125
-15	24	-50
28	106	1
76	166	39
117	178	57
140	147	45
140	98	59
115	57	37
72	42	1
29	42	-18
4	38	-16
9	8	-17
53	-46	-75
133	-106	-106
226	-142	-107
292	-133	-78
281	-78	5
163	9	85
-64	102	112
-342	182	89
-572	235	36
-668	249	-29
-581	214	-110
-355	117	-154
-92	-39	-122
81	-234	-70
85	-410	-67
-75	-504	-101
-302	-475	-156
-470	-333	-228
-491	-150	-218
-351	-18	-125
-120	-13	-49
107	-132	-11
253	-303	21
297	-408	45
275	-358	55
245	-149	81
237	138	106
251	373	86
262	459	46
242	370	27
192	179	-8
130	2	-9
83	-78	33
60	-49	44
52	28	29
38	75	-5
8	49	-56
-28	-27	-122
-49	-90	-133
-35	-84	-93
14	5	-34
74	129	2
122	221	-3
136	237	-9
120	179	-31
84	98	-30
42	40	-28
2	31	-6
-48	48	14
-110	51	38
-177	13	64
-222	-58	56
-217	-124	24
-151	-145	-24
-32	-107	-58
97	-31	-121
196	41	-141
234	84	-109
208	88	-65
132	80	-22
40	83	-12
-44	110	28
-103	140	87
-138	147	129
-152	105	140
-147	21	84
-126	-72	-18
-91	-138	-117
-49	-156	-213
-13	-125	-275
4	-71	-226
-3	-19	-112
-30	21	-9
-60	52	47
-75	88	48
-60	131	43
-14	170	49
56	181	36
133	140	9
204	39	4
242	-104	-4
236	-257	-27
171	-374	6
52	-422	16
-111	-387	-41
-279	-277	-106
-404	-125	-141
-452	24	-116
-393	129	-62
-256	160	6
-69	109	20
103	0	16
222	-125	-11
272	-215	-53
262	-242	-48
210	-205	-53
133	-130	10
44	-60	91
-54	-23	149
-159	-22	163
-243	-37	124
-288	-35	13
-279	-4	-155
-221	51	-278
-136	103	-337
-52	128	-301
5	115	-200
41	84	-56
65	66	53
96	85	110
133	134	150
175	183	172
203	195	150
201	154	100
175	70	54
139	-14	30
111	-60	-17
97	-52	-96
84	-4	-119
58	54	-116
4	96	-72
-75	110	-28
-156	112	9
-205	119	44
-191	137	29
-105	148	6
38	129	-24
190	66	-60
302	-28	-112
341	-117	-108
296	-165	-59
195	-153	-2
94	-98	36
37	-39	37
40	-14	37
75	-39	-4
86	-93	-40
30	-134	-43
-103	-128	-58
-264	-63	-71
-392	38	-57
-428	129	-23
-360	165	24
-235	130	81
-116	38	107
-63	-65	99
-82	-140	36
-134	-155	-42
-165	-117	-133
-138	-61	-210
-60	-31	-183
31	-51	-114
101	-116	-79
135	-188	-46
156	-208	-32
190	-138	-64
253	27	-51
319	244	-5
346	449	36
302	562	54
189	547	39
29	409	28
-122	194	-26
-229	-33	-58
-285	-218	-89
-308	-330	-115
-315	-374	-94
-314	-376	-44
-289	-362	16
-227	-353	33
-123	-347	40
4	-331	24
120	-286	16
198	-208	19
234	-103	26
234	7	82
213	100	137
184	153	147
140	168	43
86	148	-72
30	110	-169
8	67	-259
44	31	-267
144	5	-189
270	-7	-53
354	5	13
329	49	32
167	125	-4
-90	218	-71
-357	295	-79
-531	319	-83
-552	268	-34
-425	150	21
-223	-3	60
-30	-134	78
83	-206	93
101	-196	106
58	-131	65
13	-51	25
7	5	-22
51	18	-63
111	0	-77
145	-23	-51
114	-23	-9
12	7	-9
-124	56	-44
-250	104	-58
