18.548185199878972,12.002975114911665,2.242404091313304
23.914327905119656,17.279061234797954,0.6581630296802667
26.7524445758731,20.97973332349959,1.2967330213459667
25.614610662442086,21.711662650395038,3.5313768920385367
19.411161389241368,18.39907410102993,5.877695353768536
7.702446576711213,10.575298423564353,8.1578647646202
9.043984377446877,1.4238326006967104,10.2139056898036
29.34484958429147,16.4389957102346,12.041509751902614
50.73533895083668,32.581676339728276,13.634927282550354
70.05616093227225,47.48793535122577,14.597751861770677
83.90535293200608,58.651697913118014,14.191952740174145
89.10244602259381,63.71705706364939,11.83780204696861
83.19866694611257,60.78820365731448,7.569087772669311
65.36958814017694,49.079056082764026,2.0446162004381088
37.05150676174093,29.47377933040273,3.8398256027615183
1.4649326014116943,4.2944065149621276,9.593768540713906
37.03238224924433,23.142874712116875,15.336775519685405
73.45133195720976,48.98807860689368,21.09583237311675
102.96372889390463,69.59760448952609,26.363064939496013
121.51236992538952,82.10560305649139,30.189616591553097
126.36011390361605,84.83512600981719,31.480964053629148
116.58326390943739,77.53708641792994,29.773590797335032
93.22477244940352,61.304470831801765,25.290110322704265
59.24210704781192,38.357463546805874,18.378276801774803
19.105551873934367,11.686904166988219,9.69874933503261
21.86820070261919,15.331173995960114,0.47415002932282885
58.281180529902905,39.30288884559639,7.766713273092049
85.44412437013561,57.22370655672056,13.766672889664548
99.99714167078024,66.83472546682718,17.19457033555317
100.3465697576934,66.94917692126273,18.74137636243421
86.8466100747172,57.66733608396642,19.49132533400859
61.71497602624053,40.39826453645667,20.17551832358931
28.736452890261734,17.6846807132977,20.888703025506803
7.266986567262912,7.181334543817162,21.33266614985347
41.12109150630109,30.65013766691751,21.34620812051704
68.04699153869346,49.42557977156078,21.16777600676841
84.33427383044355,60.89708415297575,21.228014672728065
87.81013121257851,63.430617877583906,21.724712975322596
78.08338217698983,56.558463724996585,22.16183325959484
56.55132183497342,41.05306329027439,21.566380032595706
26.17872183291613,18.873982918177614,19.338403097916483
8.898301773202807,7.016426587623009,15.40475268366421
43.894616409553734,32.999713480245624,9.929839873528099
73.99666872707054,55.30500179778036,3.464911917475828
95.0158375864915,70.61085844544183,3.1967562831776015
103.98232854495494,76.5994585269033,9.439279003543506
99.59449984439352,72.33073271733431,14.987571459582869
82.42141995862512,58.37078367018633,20.09964896187239
54.81182029570576,36.66066382156121,25.342806064613704
20.53703407942533,10.193395175723351,30.992018192406782
15.763677679967993,17.42016168491472,36.72768962740273
49.22984213641602,42.418537554998316,41.76448857096449
75.41782048270152,61.346528640136945,45.35248674041139
90.85117105569485,71.50101056418002,47.02141858212484
93.4534421175907,71.3188674566413,46.5521665689527
82.85713290208606,60.65610521239577,43.85678512119883
60.542902749302726,40.90456151605426,38.65817173002342
29.728686558762888,14.858218275916675,30.66230602883816
5.038758980943033,13.68728440613602,19.874675106734916
38.53620643794173,40.52265023608166,6.598089455343432
65.67330447356046,61.687063553434825,8.44448165053726
82.32225602387608,74.06935743804915,24.106869700736198
85.96191407751047,75.83149538916801,38.97648059249843
76.03298827099921,66.6171516654974,51.76280018493927
53.98720578133664,47.56453029922302,61.527327574806485
23.032520241317577,21.14619647295946,67.41024804243744
12.35257255367415,9.123595751363831,68.7524509514145
47.04857278811087,39.101431593103605,65.05946869933123
75.99707261037145,64.55913176048793,55.91790465533894
94.89842203044871,81.79730410693062,41.84260625170058
100.83073258767475,88.2387603369109,24.679929221536884
92.7029696783515,82.88390667502026,6.999949199784718
71.45665048876195,66.49638121876815,8.591522796873036
39.96395842369212,41.482167106327175,19.872360713557512
2.6155263175395245,11.48038071665858,25.532121740832128
35.34560825794957,19.248416880185236,25.711949778777235
68.61238413320464,46.483965122746305,21.87958149049939
92.5824182718872,66.63805719261192,16.284226255277964
104.0040935488448,77.20056345245115,11.31145556144049
101.39810240382675,77.00727980382337,9.11926580969351
85.21516123704001,66.32828877911065,11.287426889647978
57.759295603688805,46.79528951386298,17.964017742395768
22.870415491097013,21.19843748646151,27.790931827946274
14.61082965902388,6.847135616906902,38.64401287809199
49.50219341863741,33.358385371323635,48.04475747629523
76.98752127158814,54.525110655256405,53.58071008244606
93.29465754417394,67.2764755636862,53.28258145255564
96.22664445077697,69.75991790419968,45.91215878878904
85.46803873561265,61.628069819135256,31.83528413620452
62.63275622646085,44.090140977629254,13.439016510885166
31.03243481308446,19.712319192112037,5.948666692638779
4.795603052595104,7.984102031166023,23.221898195558435
39.72480222454142,35.03918207724696,35.99769046320536
68.76187687706954,57.600936618479096,42.96676806396438
87.74873223936422,72.43412872982246,44.00688339264998
93.95182636358997,77.35153146827365,40.25593628056199
86.46295030433181,71.51378647084725,33.78035218673638
66.33488476536898,55.56176367015767,26.84942422586187
36.43216731960802,31.567214744907048,21.561810098699276
1.0099975047051755,2.7806007503391497,19.111088243690997
34.92355015256637,26.80552061944892,19.131607371468217
66.33439013935588,53.04056956849622,19.95685269030113
88.86663286228787,72.25546877219351,19.509360485266317
99.43128500975241,81.80693231062592,16.596180669534437
96.58525449317078,80.44590484328128,11.09986315586449
80.67910726277351,68.46224796092567,3.5205508318729057
53.79854425838796,47.58705903100092,5.0619305224715765
19.499654749141925,20.715216849022212,13.568859819272902
17.64206661416803,8.504495702502417,20.868093850164808
52.616876962295,36.161773982356614,25.3677173238723
80.65216415316851,58.58593617495547,25.874176611061593
97.88720307374393,72.81728570819553,22.128528037168955
101.94252680215959,77.00734168360192,14.660098761561366
92.28674432131909,70.68152875924363,4.783786068467292
70.31896955269352,54.803068322944384,5.537876202032659
39.15176730554334,31.63275383421112,14.074620413180263
3.1500310378872785,4.422883646456629,18.954774041808907
32.69476165640531,23.020543462464897,19.12180251317288
63.45410797300142,46.855385987413605,14.528906331652692
84.91581772614101,63.73336313907164,6.078209452163405
94.13567529712928,71.26958214324769,4.6670232584144395
89.83505163451126,68.39382622665505,15.682693644358498
72.59702983720534,55.545111606152325,25.08664764251371
44.836998289454534,34.65049120949871,31.59816002567305
10.521408939704852,8.85725322424739,34.44116805791234
25.367111145515548,17.945023653758962,33.385690507639445
57.55021494783706,41.7394726332852,28.548091891098252
81.25295387193808,59.01949468470775,20.560208451183904
92.9383307205866,67.31662914757663,10.890635037184678
90.84395196476315,65.53832521832915,1.1380718028735095
75.24632170976132,54.0803184805566,7.348435922851304
48.40263840490882,34.71116384863045,13.56456768644859
14.183441904888975,10.279271794061115,17.166102446593044
22.50888594598782,15.695443417790173,18.207437805528357
56.43383287475072,39.491697484058825,17.029345205838773
82.74112075260221,57.682748118114446,14.193840246159324
97.64803694066033,67.61828634734103,10.250918245401799
98.96179207275766,67.81222335268288,5.85655247661953
86.3856858031688,58.177153867462806,1.8165024544801318
61.57986935530215,40.05758616354114,0.9637397081089655
27.944382887897937,16.02474551201568,1.8364859507585114
9.846717691245301,10.524575604911073,0.8452876006590735
46.86098913544182,36.176706884165625,1.5602020912964554
78.84617453630901,58.144681627047945,4.816500880113798
102.6431011640486,74.434057686353,8.22708844089295
116.48084132272523,83.9539703017442,11.237452629274904
120.04552232011072,86.50249722246046,13.592875517784154
114.34342672112888,82.66948234755381,15.186079769552096
101.39262164479513,73.68458629052415,16.025483819656102
83.8009752317259,61.21879121739177,16.16710606313193
17.895318978209026,9.628573284951313,5.667281610585445
22.72527833682521,12.77894607742278,7.4946130113317135
25.040484771419102,14.742756413370836,8.353724977754712
23.461283872101234,14.551641545263157,7.986137945400652
17.025483060021745,11.39104336716277,6.350962537659394
5.4566500218087235,4.853341599109702,3.80618267029326
10.656319769904798,4.849930885050134,0.7692945693944939
29.835585118313947,16.820958736535808,2.57666241534465
49.801464732296964,29.543118905502368,5.864087400784044
67.72384833207735,41.092002908746316,8.602773535232545
80.57031606148222,49.43587153716973,10.542017427210977
85.4560118514804,52.71448316531037,11.425012821256955
80.0807584489563,49.50321929949994,10.9693023315682
63.529730356378806,39.241177497028325,9.399108935729894
36.88421046583324,22.539421557463612,7.304530335238643
2.9460968235900786,1.024236374953433,4.813361856415186
34.23360496095205,22.866527835262474,1.6639712151748687
69.83047390972801,46.06982053837224,2.1116287425789295
99.05475020838445,65.33007450025163,5.9823112269453675
117.86968717255618,77.69743864516215,9.052492883930118
123.59393747112824,81.05897138371644,10.568613482263375
115.32791712616007,74.59717597513519,10.192228783033672
94.03005982203962,58.98648225173526,7.873313205262615
62.397037401228715,36.33106109100164,3.7978190379800183
24.488021164703785,9.79598115369148,1.8532320471665684
14.806923451732063,16.948532402147645,8.655493402284618
50.372244637997646,40.30479520009549,15.537833495451782
77.55454502958624,57.26457256455727,21.24191903311747
92.8011609002708,65.77375327942204,24.764810629430237
94.21021451256543,64.93429352631682,25.558158633875117
81.87301248316426,55.07032491837552,23.619877840076988
57.90979248215904,37.68714409218708,19.209531841129582
26.179147730207795,15.308330449048114,12.447621183575162
8.337194647747106,8.82049137250792,3.356951632494563
40.33113496783938,31.146520446840423,7.235272733760752
64.98509908328519,48.31395230510317,17.55748958685991
78.67168697084502,57.674882450175296,26.186198436355344
79.41596849231262,57.704401779671294,32.74125860064362
67.08597215991978,48.22815789555748,37.51363867640491
43.34871486345037,30.454954791980168,40.73787731540127
11.43509420376487,6.825108990124745,42.304403019986324
24.26363975463163,19.33107286905713,42.03445229913917
58.73865193595012,44.25496517074523,39.626866061260735
87.02053005461728,64.28329482608301,34.760739946983655
104.89105845860907,76.37757893222837,27.42441462724379
109.53035371122289,78.5716714412802,17.735740714587585
99.9860748587052,70.28459687863835,5.885215129659502
77.3602079348268,52.43258104401096,7.532893064754784
44.659421216505116,27.307695669103317,21.420971323191452
6.338551769121501,1.7400707373641067,34.25863013498205
32.38866244887231,30.775917578533495,43.97342173279163
66.32707802154026,55.82989494443191,48.38965701700954
91.01391685866177,73.44853452652549,46.59161192831326
103.29282605373722,81.19768412196989,39.38568345726343
101.70303787641069,78.03522046362288,28.542043430127364
86.63921230795881,64.48916738774474,16.300818911797133
60.27891290488536,42.60101050814335,4.8611271961672475
26.305716583446397,15.612364625186212,4.396431800132795
10.561762605329143,12.57221883869409,10.738601495489666
45.19377346787705,38.03140360136583,13.427190644000339
72.74783006344201,57.42125475156411,12.038662129623068
89.35132628759307,68.4066451442384,6.968867462237455
92.65116906410897,69.86920051187299,0.8515268155658092
82.15073412883972,61.90722689071572,10.298618709240577
59.29581083640715,45.721015746133205,20.087358883635304
27.276552715779317,23.434314422555545,28.822711266662587
9.423993855660822,2.1180359910874422,34.94167162397114
45.660914477465106,27.640780491314416,36.656682949694776
76.3561176089053,49.74125420769509,32.762414938046675
97.2087167098773,65.38763853221613,23.66565317719812
105.28412813749767,72.37435131765224,11.043068158503385
99.40707907331907,69.69702971128447,3.138109944708669
80.30818980130833,57.71521786316047,17.31604553351666
50.516785018671754,38.08240295352919,30.712685846676926
14.022638856578702,13.480752109682744,42.82653456471133
24.24081134100571,12.779683958373516,52.67680644239032
59.04405455210963,37.18202741724843,58.73246242996557
85.57999139419462,56.40846755342461,59.64522900688159
100.1489519016581,67.74749335997856,55.16117502355188
100.72100670356606,69.48256818652524,46.04019357760849
87.28725561613632,61.21417953656383,33.60337859450936
61.90157861111909,44.032311063144505,19.463029956661355
28.381371748451695,20.446234956982863,5.038708880100427
8.287884998999182,5.976676370210177,8.306660012492543
42.739326862416476,31.199911792213157,19.061091999159483
70.0489629599566,51.39992440022857,26.47175154894909
86.44180714135963,63.58465624142333,31.022376072690665
89.76994446668463,66.00317200176627,33.51507073008302
79.738816191841,58.32118421215504,34.4474085507714
57.89684945758974,41.614633518787144,34.32079434903172
27.40583203774595,18.214133028329154,33.4005955961571
7.364589760402701,8.572754078990004,31.322333659809278
41.40049709619197,34.86458004988342,27.66933299976973
69.74077673838633,56.74246297165921,22.202240333380207
88.21502532515908,70.85535968144859,14.818613898372904
94.09575510972556,74.99356039234091,5.91714448909649
86.52553241978143,68.49317687585776,3.6944215292242193
66.63271157818905,52.33073154519374,12.888735042305981
37.31764111263375,28.895690134894334,20.334322707543468
2.758863685367882,1.5304589248640457,24.92195150515598
32.223288023926614,26.026266478404658,26.155850571286674
62.83019444893283,50.151419943785804,24.557863060182417
84.9028744866748,67.74489499232253,20.908954236816136
95.43349719655824,76.5419736009236,15.486617954641346
92.94096964997735,75.35827203779299,9.042994030101422
77.68411998420476,64.27499489075053,2.77223385109457
51.68743036597412,44.73017475524394,2.7135863499569766
18.525368790717977,19.427618565381692,6.941985950185787
17.15460595172144,8.011593497038644,9.353239036571724
50.29383021842932,33.60919209839436,9.811490718446755
76.17811997001033,53.68915241385578,8.562587393146288
91.14792869100575,65.48912575037855,6.211697421741516
93.11563500037893,67.55170641865392,3.6092691295060595
81.83468401457914,59.847936313025194,1.5393116805183071
58.90800370090495,43.67885793878901,0.6094310844552958
27.55604626989342,21.413941571378718,1.0103875835993832
7.819354586731403,3.831757962570503,2.56514206289172
42.23360585251921,28.543199254941232,5.015311517246505
70.80733062417546,49.20545807100871,7.770572547248294
89.4583882302001,62.75919572833497,9.946711687509362
95.50558492387749,67.06966204977441,11.137579485845864
88.07874898828635,61.32086777903954,11.406880305246636
68.23815482418338,46.22745969457113,10.813196045516369
38.79314590935532,23.96765176831094,9.753882118095392
3.8804041503670854,2.181997969263464,8.502116832920004
31.643339342794505,28.422193077160806,6.374568833700472
62.888908622806134,51.06845463836273,2.7302985198709053
85.58692097011848,67.08586192720868,2.2676939392926196
96.65190499025282,74.44325863959996,7.945586253561589
94.58862247046218,72.28254457655196,13.173707693548186
79.68649733430767,60.930381738629436,16.879442611256767
54.00047725777795,41.82840431824506,18.451106782061444
21.088800050980364,17.401273973433867,17.946809399575923
14.484111404478064,9.183581634885327,16.243069295280453
47.79306524829408,34.382626165397035,14.191147057437131
74.25219313546303,54.75520335750824,12.303387934008331
90.2547049211034,67.49921901192081,11.05185205037612
93.65509332190406,70.91588867361357,10.425853122390773
84.05143974317826,64.68110513132672,9.68126513226432
62.82790890565444,49.88293226238795,8.187626920820147
32.9634248555761,28.82141258781726,6.440743148474895
1.351929877217166,4.6123395235913085,5.389175881905079
35.62023374052192,19.549974080269873,5.495532260751831
65.8642799630915,40.933778396461065,6.80904577738609
88.99058112920103,57.41955028625552,8.803182034217661
103.10883984372094,67.6701716277892,10.651405083226152
107.67342481614847,71.21949874097979,11.89460336331856
103.42252543861709,68.47780713201075,12.516428747963095
92.13102958760092,60.62642023233079,12.763800865804592
76.2350981508164,49.405420420284216,12.849293527116268
17.78914576769323,8.727629856065668,0.1887922736413501
21.578083360329245,11.398564209649935,0.7789177074130498
22.771717187106418,13.00392691914876,1.729173190662963
20.266678136258935,12.755316505361337,2.341665279576342
13.343244876365718,9.970267166685348,2.4319261290596814
1.8571178694928714,4.2663714020113686,2.3008598175407418
13.603431093928734,4.249120683106153,2.217528173830549
31.655809833408345,14.86810846916911,2.104165769685529
50.13832418628534,26.27684563425068,2.0253932965831707
66.31630375876705,36.718228677930796,2.2777441088615404
77.25281582696445,44.27118153987811,3.1264270151294533
80.23176489973183,47.15929615012318,4.639093750334418
73.25502326254188,44.07114335871025,6.4302961534045515
55.80012618240712,34.575588333682234,7.39880999025162
29.299358937531103,19.36324533567308,6.024270535870364
3.266146600442134,0.03442022170831197,1.5489113380475559
37.951143744119136,21.17247542245787,5.244546423761337
70.3492698224615,41.61033098647246,12.725945383930142
96.27409761782283,58.57384969782433,19.5676602994775
112.2741216257994,69.6109388094743,25.0083844947795
116.05263823794162,72.8659206832302,28.299288601159365
106.82324865513834,67.44130679147183,28.48682773204247
85.45615607143668,53.62903198944744,24.718836852017958
54.494549719605224,32.991126840616374,16.61117330452065
17.894160303604757,8.178180790946163,4.857319088219385
19.492171868559115,17.48124807409052,8.848884188561266
52.6086010753738,40.511490285513,22.606511290313524
77.00534656135152,57.838074960989374,34.306697299781845
89.52660762968927,67.21155478555114,42.05753549779338
88.77080293204139,67.47432536096554,45.025336626357486
75.25156195367312,58.65170312087055,43.11596676058744
51.250811792759265,41.901989691956814,37.12251587664873
20.448105343342725,19.395769169473336,28.98584686201204
12.609666370013244,5.888700428393107,20.777757563578735
43.10620058474467,30.47625057950989,13.668078524929026
66.5623353913463,50.825472424861005,7.463941059404944
79.42047806684994,63.85183789601858,1.4141077511036864
79.54164935190558,67.44657535324292,4.5408877554831095
66.54486079035948,60.87619691729184,10.1167416916873
41.937963524885,44.9583861114603,15.356567732588053
8.980920263091408,21.954672546258305,20.392348490037424
27.742361441012584,4.795202900478458,25.305401748559664
62.96938812659341,31.404182685255137,30.299385925368536
91.52587098879948,54.028001713722,35.322682792697826
109.10375302334785,69.417574981579,39.79315998632971
112.90732690122513,75.36788673125723,42.95133183926803
102.06931038700205,71.0291241232959,43.65921751241061
77.79350833640693,57.04149749944438,40.84734310830998
43.204328301199816,35.46226761775875,34.52774523542878
2.9133372389382948,9.478216946993946,25.34942888929297
37.62872492464012,17.083772042921623,14.349864278548882
72.90666323522552,40.37564546477887,3.0361029314281565
98.13782773379243,57.14438605695743,7.254055394176715
109.95128154354254,65.22309148805779,15.64581256932004
106.86650050725943,63.80208363865458,21.782216771196566
89.50582243282774,53.45263214404696,25.59489360223982
60.48571969131451,35.954525856652786,27.077555097824632
24.03763990800462,13.988654237758514,26.69063477740707
14.588985936565638,9.243187015126335,25.30616111646008
49.88065720361511,30.425371879636995,23.64396196893747
76.8449968220452,46.54661220136748,22.129783747669972
91.72783199516152,55.305960106811426,20.749360008930253
92.5537447239983,55.45420397081289,18.96169684508701
79.39691887076732,47.000541484198756,16.3793555131473
54.35717061458553,31.23139623746756,12.95127979879408
21.226968493958353,10.512641851462476,8.51692067247843
15.104012913517636,12.097561791127513,3.2672437210290086
49.38970422038892,33.32715462479896,2.1183204760816006
76.7811627788015,50.155690161431515,6.937131979273866
93.48095372888996,60.19731464953335,10.4600076347417
97.22344260040414,61.9720223192365,12.144800731069761
87.53016105334105,55.06446657773853,11.680271024450809
65.73878754165017,40.18724405644033,9.173225803914805
34.80954442596493,19.154235901489137,5.617272148297557
1.0686870037712435,5.275060316641184,2.1448824264480315
37.009011927621636,29.71439148689117,0.7984075483104137
68.07013855324107,50.62371007913291,3.2423159229372382
89.9475505150775,64.88059515951382,5.320780719181138
99.59251951198112,70.32809099357506,7.074666713184214
95.66465826267834,66.15411272265183,8.457958375331302
78.732604628099,53.01495891414159,9.768333437566488
51.200305417931794,32.889267999058355,11.864288495698743
16.966507127736982,8.70897007184714,15.366086206433405
19.158041724448903,16.132668465439455,20.171033609723686
52.164429329389115,38.27637423693916,25.391262220420344
77.55293575873644,54.81910152871841,28.93428760015291
91.93171157712725,63.64669544995996,28.398337993719295
93.45473473923188,63.66652923294009,22.265194468050858
82.047873489898,54.93780178343221,9.923120380715218
59.395705690360295,38.703216828334135,7.872904584152031
28.720895198487117,17.276305804183785,28.88136310056332
5.637764679555846,6.248659468570239,50.055872990381076
38.810218282733075,28.439172424729303,67.82450514008761
66.06278991207068,46.0607832001882,78.95646272879027
83.4853764176274,56.59415556668054,81.60129021485344
88.5842002698137,58.610039122336346,75.27861471359587
80.65955786247045,51.922579872270575,60.79300573411701
60.908803269321076,37.519664769568266,40.11039500935406
32.24449680204722,17.353604829993053,15.743436252942017
1.143100889839936,5.943241517315215,9.50710203760054
34.42254205801087,29.37295970886471,32.62712028052039
62.837498024085036,49.87078494633362,51.05296558670731
82.36440114311557,64.61804829850776,63.05233072892406
90.22984818211964,71.40657487975061,67.65398824509211
85.25721306312866,69.00542101864876,64.87638004909373
68.02124581159434,57.43556634837302,55.67593899729126
40.77930754169582,38.06569350077769,41.80849319329826
7.196808181766546,13.450487165086273,25.772662861784955
28.118450622221374,13.105135266245185,9.940624922942519
60.25556003375318,38.11903445267496,4.067897346710983
84.70000564696285,58.469150971632395,15.067426284275598
97.98816335502295,71.7946260194037,22.13431403289801
98.21890571265074,76.69331556670203,24.747979590084082
85.31658105606242,72.74681941818417,23.20002424803249
61.02485964471018,60.487363625768374,18.65092071808757
28.652023845095194,41.3749217927981,12.700347380049658
7.390886442553592,17.758806196010546,7.261252468492049
42.19225130571358,7.274597870032846,3.6242120586470548
70.99626451118807,30.247458304294792,1.7222919268992063
89.82683517902363,47.82834170530957,1.3675678733302998
96.03730716260127,57.4604532637162,2.9216969073823225
88.72102939754457,57.887073040419246,6.3327260435990285
68.89598057555024,49.38903216447643,10.402913039844176
39.414290960664886,33.66541018453695,13.174137100529462
4.580417146646485,13.427304701086353,12.972430636424852
30.479916670189603,8.145404486094737,9.158657050591012
60.60533468613158,27.909840465346555,2.196233388879135
81.39139182750702,43.11120783091736,6.879199860874883
89.84228342443066,51.604097020206716,16.729973202519975
84.78383183014847,52.0297395626036,25.69749647813738
66.97568858500682,43.99609057346877,32.266452837362
38.95510085172135,28.254452478315102,35.352658382871816
4.668984060034274,6.772994478727322,34.56914074934998
31.06926259496362,17.411561590590175,30.496777118627488
63.220422470523715,40.612072311243104,24.249953798160284
87.20267401814893,59.14153764679108,17.006129952188232
99.53522491487566,70.01847038580873,9.530435065632762
98.34290792857041,71.50967734284383,2.001554911398242
83.66383668071447,63.38184269298285,5.2589095429075705
57.46432725928801,46.83625433644742,11.635785434934235
23.343234477920344,24.209209357836183,17.17765227803618
14.009155359923943,1.4392159890072929,22.639095934406782
49.83301351249871,26.959924477645128,28.59581974929497
80.17691867823486,49.6018887504246,35.115598161992885
102.24441072403086,67.17656973891458,41.837632562224805
114.60114800376161,78.2282217353583,48.08218342936024
117.16342619723214,82.16421408547099,53.02466014476239
111.01124099608725,79.31163550532744,55.87633080397158
98.08716863529197,70.85703308758899,56.0072146254879
80.8475388670082,58.629727056366896,53.2179790600284
17.109064116678393,13.04165368013299,2.240484131425488
22.110261061194933,16.66197948970757,0.028775536264428806
24.648261420415405,18.453670625943523,2.206398001560316
23.27440258253603,17.342171061933858,3.5925371097483128
16.99451781258969,12.57186714939642,3.4578095322122073
5.547459334031679,3.933149565779105,1.611031429063434
10.417904866619905,8.082060141536985,1.2702814103330153
29.337843881667244,22.269544497490333,3.8998487393271795
48.85523724588414,36.832066430478775,5.095028951430286
66.09890532990073,49.635043650493934,4.239449012317725
78.06220987102142,58.518380171928754,1.2457937235995693
81.97464964514364,61.56771036351419,3.7135941120227196
75.7139768469537,57.36940443108441,10.033734940051335
58.540400145830866,45.448579558573826,16.453587564586822
31.67097448691624,26.606802601976593,21.51771441929699
1.9803207823593538,2.7418551119174026,24.06303341704289
38.28247670287526,23.430709976470155,23.419125890698837
72.39794653948044,48.64191611794674,19.60253758758829
99.60153654148277,69.55005015635822,12.91671131114201
115.99098556006857,83.21623992483578,3.7616505823420128
119.07623297321442,87.58832896627736,6.563289097027636
108.20546661516883,81.91322938050968,16.211129593591583
84.63700834227507,66.87705072546343,23.837912442135753
51.39272002807444,44.52101270407889,28.377609133780364
12.840170495701532,17.897753779197135,29.089714884733812
25.922966516828694,9.43263727638485,26.13591876195404
59.76531040009511,33.92400310563132,20.525699081797672
84.25486430456364,52.50525443820486,13.567696409383883
96.28162785748806,62.9115220453685,6.345484651391492
94.49935345699357,63.92116559261317,0.08213334753008274
79.51071059222211,55.49947536047776,4.630638987384774
53.775218851119874,38.85929143215175,6.946108669917387
21.246556187071338,16.41208740554876,7.572678585037738
13.229629985906646,8.479706153034957,7.2218419277297015
44.62128860348283,31.95904765154888,6.467623931639754
68.43120312493092,50.283742172946134,5.822699435324523
81.32650903102399,60.465081697412366,5.366194718080347
81.56583335427858,60.78476864066889,4.993785548469695
69.19354874467793,51.065207385479454,4.753255945620172
45.98939074723579,32.6393422990834,4.184569000304971
15.204186140766057,8.079009642859731,2.755581722761283
18.878838958711665,19.223265250943033,0.66348676849497
51.51190685894166,45.53058471891999,1.6062608589706062
78.11251856118668,67.23706891530279,3.7032480971216706
94.88878951521191,81.32034914318018,5.753157895259184
99.38069680581336,85.73813178177353,8.269302325710402
90.83176036475128,79.73308980307164,11.490707585162298
70.31343198818026,63.996617788176884,14.76232062337923
40.586375251944794,40.62844745641629,16.584681291722216
5.718331697154122,12.860997629871855,15.785012047828138
29.51177749970761,15.427657687286935,12.091335874439046
60.30249360052294,40.31982878974812,6.035911949669957
82.49348263422084,58.4678009484052,1.1927548085046273
93.13200717300349,67.59352550176352,8.31139217049873
90.84833664590242,66.80026031883133,14.17299251114549
76.0242054120498,56.67161238565161,18.067838856629646
50.766607628485865,39.139455018236646,19.81045729496535
18.652361421377943,17.156294173201946,19.435391068301183
15.745957974341955,5.763456111773303,17.366934559046218
47.49775017835699,26.083809561838276,14.35149034564201
72.03266192965486,40.76967848862101,11.214115685608489
85.82614932592637,47.694411434785884,8.778991855104367
86.92395189162737,45.89227377576318,7.705682597680854
75.20834970815488,35.641852486504504,8.345542459248346
52.377408377338675,18.39500842801888,10.613755538148519
21.664324884380026,3.4125694815797383,13.943286907450153
12.630175753237415,26.652026663745968,17.023647473933856
45.733702806544784,47.89049705623277,18.1544591350801
73.04985433633748,63.85691662792271,16.381093728797094
90.75646788322373,71.93442496692032,11.636117661477378
96.31501991834621,70.58986405617127,4.500522161051689
88.83287046171246,59.64459975497825,3.799704797918644
69.2109642312375,40.32973322106299,11.81484969048736
40.06336077850433,15.094493016256548,18.22033215082765
5.388858480314007,12.78767377526895,22.22385516352219
29.98181758458646,39.69473433212536,23.75178993868563
61.07119727984235,62.136041749357794,23.0250861540455
83.46348266325442,77.18108825109674,20.24277258249278
93.94318875177268,82.79743366653544,15.724752495950614
90.97904885003173,78.11317832111591,10.358239899468591
74.96148136628115,63.586798069548784,5.604798525674788
48.16811518951301,41.038777648163624,2.929887909115882
14.460107475366373,13.492905961336303,3.0394481900923216
21.278250804679953,15.205945702118237,5.463372289757376
53.85730216910832,40.95823048725698,9.323542958442262
78.54790022210194,60.07515927839567,14.121243170527254
91.77540243282218,69.89019417371631,19.389488096784607
91.61496874450314,69.17006787212861,24.222204072702553
78.04239435060421,58.26397277283205,27.459289993330344
52.916943571215384,38.98016818688423,28.049305849604398
19.710466925612028,14.24054018786962,25.081019117432078
16.9604688629693,12.39772194811554,18.140812442459485
51.959975451848926,37.24677214880904,7.8921902949771505
80.33550707456475,56.949775410468646,4.0676601973836854
98.00108296233275,68.87232858414261,15.80040423124795
102.33113828497332,71.39295807431613,25.468069718619603
92.57246361547571,64.09321750161368,31.424138308294083
69.98151306390942,47.83211959334691,32.65358832239185
37.65745540560426,24.68095321057584,29.395855253529202
0.09408231503983222,2.2943144283189723,22.732068944313074
37.48523168489009,29.42701159037059,14.192429942655643
69.88459638563718,52.9739536607758,5.773750178635856
92.65917857105518,69.67625883175512,0.6415321462936103
102.7199128404117,77.25484241570337,3.6674113797410417
98.73880835070747,74.73956330544468,2.4158473154244153
81.3140544220573,62.58530939442989,3.268698631424215
52.898426896178854,42.5623874064464,12.528211506687759
17.484169889285408,17.471855452152404,23.59038094384952
19.928478312623902,9.235461853731696,33.99753629976171
54.01422029437347,33.90017607630693,40.67914679206627
79.89067559675469,53.10959075148283,40.98766968605578
93.84780506740988,64.14385666048487,34.17487094417104
93.91161303815481,65.39042431404673,21.754189248680856
80.1633883022049,56.65062878090703,6.806739550433792
54.724761490645506,39.24798428507534,7.324350987437292
21.402071178624986,15.867526562639677,17.977126019922128
14.910995452544336,9.856531439664755,23.528531557205117
48.9792666974612,33.93200431665307,23.509334510231124
75.98278538577884,52.656864099662165,18.475519597029443
92.1523590715339,63.171997980259995,10.020476773335732
95.24296430871644,63.84803561968054,0.7164412117158446
84.80096221855322,54.48449383178772,6.510819776988054
62.20753575612492,36.33215622658633,9.440396650660901
30.51723656254208,11.940790936488852,7.100833857774041
5.924529252730476,15.181183904276889,0.4096899013803767
42.0637140246308,41.06059004490081,12.155694383945903
72.8402989767326,61.8741612707516,26.64652989900854
93.92126341686159,74.57980371806792,41.7436779156814
102.34481339243489,77.39467358922414,54.67489897426748
96.94763469068658,70.0254151647119,63.07185972245499
78.51027995647189,53.62477507787182,65.68903623327003
49.61893005640881,30.520793011130813,62.1328009912326
14.27522892344154,3.8246217503283795,52.733214649348255
22.668927421805538,22.982891347267092,38.6009064138886
56.167226679934835,46.438191203157615,21.145218451849118
81.65337073500142,63.47413738650534,1.8127479415614107
95.65343444690436,71.80425074784945,17.67052781675277
96.26870024477005,70.28275092836795,35.587138007349424
83.46709443998839,59.16665424952271,50.47676892450835
59.118637906047816,40.162512162693126,60.888173238218265
26.748323876998214,16.182843079064302,65.55788331420176
8.967510050073017,9.159089222197663,64.21896924126195
43.269663550801845,32.48045377089915,57.55083189187154
72.2077249112894,51.264353854976875,46.51094880941594
92.96082626688768,63.9515985154776,32.21658705538032
104.09880669284317,69.98664799461413,16.12147411316329
105.60905594295079,69.6860284786172,0.01998962216787497
98.71205012642879,64.02729519896833,14.44963915122655
85.52606381996391,54.436103320142955,25.466056786592507
68.64632417011053,42.59065664122698,31.7799804663884
19.13485885766545,12.247035533731285,2.123851358408161
22.99738617311974,15.098050971490283,0.3031599425679816
23.947082399708616,16.13536308751443,2.6211209663006754
20.79095096352989,14.478210238252432,4.531945003366855
12.818562209027576,9.542818520480253,5.723748439371025
0.011866308128051027,1.2180953856856536,6.076151467468286
16.81114039715198,10.005464913101406,5.776827492266325
35.98189887309255,23.000836797899268,5.175138124014158
55.08098642606826,36.06039813715646,4.715718409748159
71.21627611821732,47.10878971620775,4.662949530192497
81.42028714719842,54.03812982463266,4.581877182015556
83.06906658195904,55.05118117511884,3.423378845205178
74.34393597161493,48.98609250340749,0.7207848425181037
54.9207297790389,35.740577675725014,2.6773053540586087
26.40715215236878,16.50217187416751,5.456839928206035
8.036909265939878,6.5358185294089335,6.900097025795592
44.25146223153767,30.54329035491993,6.953409283164595
77.58614882251362,52.39056588207151,5.589995215889946
103.6186683887266,69.1108094555814,2.8230796151777486
118.74471885358129,78.2779102160909,0.8353175869312135
120.69079047785334,78.36203118064944,4.635659564670824
108.92286768978721,69.04976476746026,7.74069233708916
84.75581706648504,51.380762354014514,9.234625227860159
51.247547026266815,27.69517339470472,8.466458420416627
12.781420586044394,1.2837642818531998,5.237704268796692
25.58358728633162,24.174132078683964,0.04464612237281311
58.84401639566452,45.230063260353134,6.670265421210032
82.77558473565742,59.2220598225353,14.144002776874489
94.47947702827915,64.58935177944022,21.789894292135767
92.72337017260975,60.93817799994872,28.11718410141439
78.0661942214807,48.946324537275146,31.12140437990046
52.78391576971497,30.215357890127603,29.309348851610892
20.609933516063457,7.123829629415846,22.294257578226343
13.734959318769326,17.334582616197693,10.498983845184888
45.17136370090873,39.779718017304745,5.003129076755983
69.00019709374826,56.853879979846695,22.018196812143113
81.64929296695779,65.77878169584244,37.541668991666235
81.2516612761586,64.89980214737643,49.28699247167341
67.92407597901713,54.071809531919314,56.37473519123436
43.69683618167832,34.74231183647696,58.68669122432766
12.123727585879905,9.688954595471857,56.307384391500975
22.309424677344705,17.498553602840104,49.304695150888996
54.82591537442672,43.032369942020765,37.845909868363904
80.96511171277888,63.47382555624304,22.353414159964824
97.11541070306258,76.13746986702247,3.369773906735222
100.95872528680208,79.35722251522657,18.18100532506235
91.81042138466296,72.64673605812378,40.69718645591919
70.78643869450116,56.77605385071162,62.36495015033116
40.72592868793043,33.7452637188679,81.51821829489278
5.82373356714745,6.603176292191064,96.23711662043229
29.003629711381976,20.925367886829562,104.22920038314258
58.891805674099786,44.97901816301127,103.50843405945548
79.77544145122853,62.16957696830171,93.15457648998753
88.9642672783241,70.13213097530526,73.4770519439365
85.46235650993628,67.8872684292857,45.622578814682925
70.00439223718365,55.94744291552106,11.76787018334583
44.876298866875864,36.19102910375495,24.599005413125003
13.610020141431775,11.5422596542181,59.625406847482914
19.442057616697646,14.483467907593162,89.87244201776858
49.62993692911563,38.27440826779372,112.39111983229822
72.58977761815461,56.603657320290566,125.14474483147828
84.86364356299389,67.04499153067366,127.26594543591308
84.45078444360708,68.25061013575544,118.82718152390942
71.16892153813068,60.07366291514721,100.72223991322092
46.73141685080888,43.551690947963344,74.8791329015701
14.499911725613646,20.765402135371037,44.432964761314985
21.024111914200468,5.395695619262824,13.231451729069077
54.87161437506727,31.541182898594755,15.004476328895
82.3249959021594,54.16662981932317,37.312752282003835
99.55288459214141,70.10438231002018,52.226902665460806
104.0985947769593,76.99300267267319,60.09900609570449
95.20160706882369,73.70089263427944,62.33113755438105
73.91199316942823,60.589669694484606,60.60607871323695
42.97762307431274,39.52269704552395,56.71657320677082
6.521598501358883,13.597094100072011,52.259580147263065
30.488103844131494,13.37610004132222,48.33611564269898
62.941660291791216,37.50530530691539,45.716875352446145
86.34324992803931,55.411639119977224,44.782202399899276
97.49060673484557,64.69909316919315,44.9894437111787
94.96311804586763,64.2231662465266,45.007650559150875
79.32031960378323,54.172921346374565,43.576204709263784
52.978493084951005,36.036054575056326,39.7452323833448
19.815692478511252,12.447564383098337,32.44086491640179
15.407289301662445,13.111425095821756,20.77184112015801
47.727150053879875,36.76970597434865,5.099902099654488
72.65274772163404,54.838897930598435,12.843073274227725
86.72875308620767,64.43414959995089,30.965015746755565
87.95840824947497,63.999650610606416,47.49031181152301
76.08255423735741,53.596153972110216,60.83132714047261
52.66358462786281,34.8875599386852,69.52263444280544
20.929888362770313,10.817805290843795,72.57149000807955
14.615566575939376,14.929579450880288,69.59167459138887
48.80246083807147,38.551577664834724,60.90089776178255
76.56086954047291,56.704016731351764,47.81147057427247
93.72540825317921,66.9389974414614,32.601442339617904
97.70534753685804,67.98674248367688,17.978788470985798
87.87929321775681,59.88526999865067,6.092819982851762
65.65346078638348,43.946599992533656,2.072161623762027
34.19707350401884,22.570263650344362,6.397983955651869
2.0641106516280074,1.101945324919257,7.040519605112507
38.091128002785446,23.66009520838329,4.345749110762881
68.92161174603957,41.942913667397995,0.37510887338154025
90.31683213515022,53.50397547758031,4.849121428378638
99.29878234607543,56.93746811584067,7.141929160718233
94.54693039867009,52.02604506082007,6.4519741695089285
76.62651681763408,39.71522923290499,2.701039910071661
47.98339710126231,21.943433526191107,4.437651721879621
12.648324321503866,1.3741580071370603,15.24195060240473
24.32365501225081,18.95068490418913,28.874629264752027
57.60564300837574,36.01751751964862,43.153122043624165
82.41963175641303,47.266217997634044,54.67361317303925
95.26232932597986,50.97508725893503,60.40635015565371
94.4119906158734,46.54149015169059,59.52779024366696
80.12950055340167,34.59748937690218,53.247680207430996
54.553562791894656,16.91486739740038,44.0504251943588
21.357704674725063,3.8901447552615394,34.420882398432745
14.783235998792879,24.783736747236333,25.844652370432858
48.836140758869206,42.761464205600575,18.675393825684008
76.0747494100339,55.2231911489876,12.085540923450353
92.70643944346587,60.25884863483816,5.065862144815977
96.3819995242737,56.85725321425002,2.9496889430976574
86.52907854673336,45.05202443761307,12.42809422844361
64.467528159096,26.004932029060516,23.789557641115998
33.27142939199606,1.9833256265265984,37.068123453839334
2.6340099267819728,23.839465392688073,51.19212225665762
38.1088734828431,47.80258732116618,64.50640194404411
68.06532676636718,66.34952214781153,75.47007258404402
88.23396897478266,76.65606079886905,82.32902497735596
95.79826355502992,77.11656623647092,83.21776006050347
89.78740415842822,67.55686172543972,76.23651876581049
71.16990900236128,49.157394460710556,60.39239294972877
42.6434680370755,24.161346768091956,36.65448234491137
8.197488407099195,4.504107934545796,7.522317625528357
27.44740527171035,33.55684187382013,23.13226111511159
59.451374482390555,59.61184841450915,50.702320701057985
83.44563839592278,79.42705587065676,71.22817830479332
96.06584001074631,90.22616448083144,82.27316734049997
95.41265449041242,90.14423876170135,83.37701406787026
81.36657593560696,78.7046112722391,75.4959345971304
55.695645378576394,57.132962189584426,60.386883020352904
21.90184303247194,28.328744591248235,40.51200936095312
15.243607301592817,3.58275231124283,18.76780743919957
50.868075089069364,34.403623310216574,1.864928580392055
80.9544319455271,60.737721488614206,19.204371952500914
102.62881818654326,80.18570928189021,32.03289499172041
114.41213232169106,91.51113385956619,39.63377193608079
116.2385926169683,94.58881935847118,42.046124310463014
109.27026619609408,90.21537793008878,39.834761721638536
95.56388863226817,79.8718692076237,33.84913005039624
77.67449018882425,65.49455946427567,25.451545222314536
19.197437946478395,14.18126268919368,5.4500169959359095
22.170326562335525,16.290072251925398,11.767595397620726
22.1373104247052,16.356821299262567,18.321456978898752
17.98908549738717,13.461052789179528,23.943558751291864
9.116271595043864,7.027772175367165,27.658181218663316
4.374291894998251,2.950975104520911,28.599713678795332
21.543134874794887,15.79665536116754,25.863402763924718
40.63838307727982,30.16738378429023,19.0167753815174
59.20586239099132,44.20185137325493,8.318194217459997
74.34479106546665,55.76014562379756,5.455151248341504
83.08540183695357,62.71832442682895,21.025400800298602
82.83201273420835,63.30050046059068,36.75868661147357
71.89267011048511,56.446871216947734,50.73051386409535
50.16073193679047,42.13006711680592,61.11325696858013
19.490549136570987,21.453207849329868,66.61374102609459
16.659628279930207,3.496131129979026,66.64741614973474
53.799932195022514,29.89504230479859,61.42725421583862
87.0414841664729,54.54944629089462,51.350695254401984
111.92688041990192,74.38663396299157,36.99575734375193
125.08363111196734,86.92632020335736,19.731856382300858
124.67223737677887,90.64918242908078,1.1844608335271123
110.6216054011088,85.18734156479331,17.357010578843642
84.5725529735374,71.31573900317902,35.1570671510807
49.67864696818443,50.822093724235486,52.04711442864114
10.240237189167415,26.276276873089024,67.51333376496291
28.791267326834934,0.72966856242467,80.08613468038168
62.421239854748926,22.643795251656723,88.0676823426622
86.33601834098398,40.96948563649262,90.33329627134958
97.58430403123756,52.097373343462436,86.28016704197269
95.08177375983901,54.95614950006218,75.82619561496361
79.79447144544689,49.726923312403315,59.56832691268512
54.54159451213749,37.778639001353326,38.76128680636586
23.46606742038444,21.41679476490699,15.447461657634832
8.694903370040144,3.4877955785890062,8.052882307516684
37.32228498002676,13.066712919761343,29.77889700426283
58.5035218369688,25.59204599579102,48.06644029314203
69.46177065519805,32.036660337153286,61.70680196900771
68.8097192102384,31.204238439188256,69.93071749653281
56.67027011400295,22.93793410684195,72.26255147850644
34.69706618991557,8.232569127812075,68.86331026708064
5.957667337145347,10.803635706451333,60.569934552712034
25.396035887343594,31.204459350564722,48.97788288588215
54.68070229783325,49.604194668991106,36.576821146965294
77.39984503019855,62.82571895272019,25.57552140224511
89.99085191132082,68.46707529164222,16.774661738929332
90.41020183301453,65.32647703917159,10.198013750947787
78.43995417880625,53.56974385265436,5.7367094808080505
55.67202255714348,34.63650158020167,2.897140240992556
25.207939445752647,10.943397655092648,0.6083005891921085
8.826711262475271,14.50193515370836,2.5546017982522606
41.860734413041314,38.49305432371351,7.526279629026012
69.453584721518,58.003149039783466,14.289943371856216
87.8363176539132,70.52612682142583,22.26579524135728
94.41403872761612,74.38803946425983,30.357979792744064
88.1568652562722,69.01935728312806,37.163890699582616
69.80099573451797,55.10114593407921,41.819707860985545
41.810230132042236,34.531420427009664,44.4199736854495
8.072423524423055,10.18158255163845,45.79791547293373
26.645206917288615,14.545861732625037,46.60941597773479
57.40087027286864,36.24999377238096,46.2231620009363
79.80823114719718,52.04515730673146,43.17268478472719
90.66650281997052,59.95811463102247,36.382230219891476
88.40772899359449,59.15251172837447,25.535663225878967
73.31388026154555,49.98792317110054,11.324360758592272
47.48680003252198,33.919743248373074,4.863822411805288
14.5615438502564,13.268543774682296,21.598157762582105
20.804008988382908,9.093072579132382,37.457151539058984
53.59749251534134,30.100810995493806,51.34969148305523
79.1892398227856,46.8815435972709,62.31705030243139
93.9993315775464,57.12437269162753,69.3272397734929
95.99483456718148,59.38442153386523,72.05132666327337
84.96315766891132,53.285475017822776,70.71614771357056
62.513311123699836,39.599228296385895,65.41194290142815
31.831820154305614,20.180694511012668,56.07089837314629
2.758220527743246,2.2348486315861216,42.78662367271962
36.392464574087306,24.370195252499578,26.292178450003814
64.32640750690116,42.866987096172586,7.9748453445556144
82.59645809878288,54.814364913593984,10.831750248570067
88.60696096458264,58.247077335343825,29.094621795327978
81.52919127631212,52.50258189108585,45.3993074288879
62.44003399796879,38.364674729741026,58.20499029951513
34.169541858583344,17.941442765973502,66.65639734288418
0.8679823260428281,5.707134153638178,70.2645897828912
32.634560306819594,29.07418670152167,69.01357461927012
61.54789717100535,48.732435853056316,63.73080072007124
81.79345511994207,61.80404194295219,55.4693079308152
90.5307691740745,66.32414681167248,44.8648283668726
86.4759842631434,61.4840905787071,31.824015515182484
70.02910028987816,47.746370928880914,16.16869964392543
43.22903691895492,26.831269055297906,1.275671843533042
9.524195536524084,1.5494234718714208,18.792282214807397
26.6236544946629,24.555563169235505,34.239683222861636
60.291822908382244,47.73821857108056,45.162663704616975
86.76501836318889,64.67291943641938,49.683401147993585
102.2267899155523,73.02682456239208,47.926428866522734
104.37492684704306,71.83663491779053,41.635464146667374
92.81876590157064,61.601265145315125,32.484155240996245
69.15376595290961,44.103303409885534,21.309322365806523
36.71198608193287,22.02644668550505,8.202812356167856
0.03251743109149396,1.5192439425579942,6.200140909482887
35.8405524595359,23.433771186018255,20.002668568946252
66.08678781732007,40.98146173490693,31.2004131024802
86.74780519501417,52.06532753063331,37.84257859006845
95.20876939950739,55.43752278902675,37.9213775161669
90.50085710456491,50.85680986369824,30.35643288839102
73.41672304214487,39.1512706223969,15.561415203600955
46.4364775593771,22.14444454341911,4.451824038746634
13.44932053162902,2.4126897663779996,26.51441230982469
20.740559273906268,17.105811964836885,47.209264413306634
51.08881770172629,33.56292227487163,63.43694105040054
73.08402642061374,44.62078911341505,72.67591897599341
83.4745555708092,48.75142835988307,73.69710045094062
80.78882628770522,45.381751854471666,66.87412609149139
65.54151122574984,34.90350906494382,52.877582750802496
40.08654096910713,18.595500600976646,32.50756010618975
8.19052685398051,1.5037290334731976,7.971868232093092
25.55266708532778,22.79656643347161,17.487674013246977
56.368349930344266,42.40434531036976,40.637575098828854
79.90281392088667,57.513772698046814,59.07996881392332
92.74197137438583,65.78174934753548,71.68962338919243
92.8473091600686,65.71689763728479,77.8788376649153
79.85711788340852,56.95060969403051,77.59612945656828
55.2092197678043,40.336381335005456,71.74711235820395
22.037304888022174,17.854662686271368,61.579955650677626
15.2079499603122,7.648722116161729,48.41512165747196
51.37489732828775,32.84869543064586,33.879490012874534
81.36956449337193,54.38426043522398,19.93109624841042
100.93253660987595,69.31561047746365,8.556963039501921
107.27801032986712,75.55301661676995,1.0356985803072039
99.48581567423571,72.17881074468131,2.8364033194620686
78.60839080639744,59.61189421599719,4.478666314560884
47.493760672365354,39.578175029796675,5.359483210976441
10.366743660571458,14.871275543332214,6.835416859222703
27.757989947388424,11.070643858266804,10.46946204075108
61.75478380645438,34.69169846912549,17.357407391921203
87.08234409772919,52.83761479429415,27.475267472954783
100.40398506792371,63.190626965104286,39.91915008217672
100.04549632497987,64.55910463355264,53.362609915249976
86.22538539718369,57.01204568528239,65.98162415199381
61.018359766666414,41.8753407901717,75.29644982245148
28.069870811266938,21.55953197326737,78.63209246805677
7.904334620284061,0.7821573248894963,74.1554951433111
42.18653848100034,22.084054903025752,61.6139216019835
70.93404483553869,39.96154202970664,41.93474869128873
91.45899135740272,52.77402602332449,17.066035662169458
102.45308594694855,59.74100868466235,9.976303481011412
103.9862963287641,60.92013116874124,35.778152275469076
97.31250591124375,57.0672191826859,57.1980014489075
84.5336566277301,49.43041142591472,72.10620446805763
68.17910311099196,39.51574322890913,79.60483515162338
19.92545085739311,12.021142571055378,2.1481234797897377
22.368505633004343,13.138260126435714,0.5498550868351108
21.682161816259157,12.560921379466365,3.463074727051332
16.942765696006244,9.61193057170306,9.780971244582844
7.683554383995432,3.812947337257572,17.04719671742995
5.928995307522352,4.897181753297005,23.392772079283514
22.970385994496933,15.990388994979188,27.188299724387598
41.73564368790382,28.30173707123014,26.980480126616417
59.819227170492574,40.13859943909282,21.825694691471146
74.37460340416769,49.523645062825054,11.634577078904963
82.50505480975784,54.50980637394501,3.1116668509111727
81.71056487491971,53.5150500834135,21.29776735272767
70.40863848595816,45.662962061343485,41.11369345801639
48.61480302955838,31.08260576339498,60.04065506945347
18.2840508469086,10.960929402962062,75.01118180925353
17.13413680113957,12.651205276516562,83.45793516701313
53.30227542698872,37.04222857524892,83.87519246784002
85.57363327372084,59.12593519807985,75.38332729520933
109.7202042238776,75.88664745269195,57.73056566610792
122.48558167172017,84.84798084265942,31.839452806628167
122.01195951026536,84.5179910337616,0.1501084157810905
108.12828454297333,74.68891152032629,33.57568704724912
82.38355966762354,56.48791504216164,65.22645231331147
47.91470211300449,32.208748877399195,91.49020801445144
9.071422891982728,4.958841868322329,109.88081002965788
29.137464420049678,21.787013809476456,118.61243718458242
61.724730163269264,44.66182651401026,117.3012482010368
84.4706776181181,60.8630622691793,106.76536365397476
94.56436186253174,68.53075674648998,88.42071409826842
91.06701017151163,67.01737680274371,64.22245252042492
75.05530331561805,56.98672071855571,36.2390577992125
49.40853540882267,40.282439224799525,6.547845541691212
18.30743494863903,19.573192342626218,22.426669605297032
13.475662370292628,2.11918048139377,48.068553456671474
41.315103928150705,21.88042104825572,68.16439794862765
61.36021961941903,37.26705880692729,81.34841000663074
70.96930503915458,46.50902122258777,87.49646307091594
68.9513324696227,48.59898852419931,87.74538869824602
55.65482765582816,43.36104309363308,83.33194662716018
32.91090509391911,31.520289699051553,74.88176795539349
3.8532228502127848,14.735017432981845,62.54793194517114
27.427234477916496,4.509139195654231,46.201913249125575
56.40671027710108,23.226416034115985,26.359699253692387
78.78679668447938,38.453235271397,4.389099758885566
91.1951181725942,47.820521744180134,18.030672757372308
91.736730366973,49.981908596871726,38.5308727825356
80.28030697044616,44.780286939538236,54.297286316754686
58.433389128697556,33.149296748066355,63.28438904118257
29.210713967719148,16.839145520063095,64.69562936839762
3.464058936886886,1.8847436419354422,58.837459276852755
35.29823738255023,20.47548937250176,46.895318992902894
62.14818482492981,36.29424168465286,30.413108953292838
80.48409811997465,46.84865265267297,10.840618475616283
87.81398358668646,50.15552677864222,10.148998360902715
83.04924967809947,45.18751391329738,30.213360925271154
66.74775365325794,32.24809993766367,46.527908979321616
41.14645175859195,13.08891435086872,56.608940252867725
9.91108742711589,9.342553928368957,59.49313357961959
22.396010663616725,31.472399614466518,55.97161776154126
51.030267066552994,49.80265669197049,47.88715890882946
71.80522650566623,61.53964098972238,37.293875161953785
81.71311574273234,64.97194569100076,25.423012164978125
79.30871810520925,59.5589807609317,12.657944496683644
64.84124075557216,45.87101486240941,0.7700605861223705
40.19343210305523,25.48396215322886,14.6570558580885
8.6503786129654,0.8431727647281954,28.397538318508353
25.484713033166123,24.91756117612332,40.92754533713244
57.41250272968804,48.29976764152882,51.836636482555676
82.48499942096514,65.94965096270943,61.155840771492976
96.90398935218079,75.24986863685471,68.15628711754526
98.33778878089319,74.82485643106497,71.95623015135544
86.32356205628186,64.79455093687403,72.25529691757684
62.36133010694472,46.69972501706636,68.97281842869525
29.679361791797838,23.15001381934672,62.20141754677773
7.260383099473788,2.650244468081391,52.24323217046007
43.417779069195795,27.353960160954294,39.39623297223691
73.87002742885525,47.83967619581453,23.594448324482954
94.43875609372574,61.51217853585502,4.908856687462163
102.22810832911769,66.58446330518339,15.637625237664299
96.03466060645992,62.335523010486874,36.57981495227472
76.5635115229333,49.3002864938404,56.233367734744725
46.42146454301922,29.299566880345562,72.85523964597168
9.816211182167423,5.202804854813232,85.49396480256819
28.049550798856853,19.537797665633402,93.75603618407071
61.77211274741906,41.45264824550959,96.97431597382042
86.58842546833638,57.59174590136816,94.55528183571195
99.09330251294013,65.89614635488195,87.22002070636496
97.69022183259426,65.36267226949126,76.39015583043813
82.7453117585496,56.07182623491831,62.7815485362729
56.47103377606624,39.15949297745852,47.146186046446104
22.58774365791059,16.755752468090655,30.457097586122753
14.1783838698533,8.157853704603037,13.279176743577775
48.70843419423156,32.04431850583992,3.6478651073988746
76.17071201515395,51.30529351948952,19.164101403619693
92.7003048845099,62.89967922010452,32.31990117391773
95.97669455784016,64.92109052539638,43.19618192913551
85.6036970188674,56.97903793637274,52.73692098582412
63.2008901163769,40.27166073058459,61.78348761287108
32.16117511500554,17.355886996059628,70.63709515885532
2.8761749623521693,8.292751457334347,78.48238747676163
36.74329682325767,32.80188090307637,83.631326381156
64.51244789526545,52.401207352609674,84.89058321519222
82.17794276900031,63.90769524637405,81.9469149385532
87.19290077718577,65.1915963627649,74.98113105595657
78.80648281830135,55.56433571732925,64.37827494111662
58.16420338917047,36.01892940876639,50.76137762467938
28.173366390936867,9.208239990158177,35.139135563175664
6.876893958922772,20.91206860867019,18.82250418083906
41.90802837169808,49.74830817314915,3.1887095120668785
71.78080677640499,72.89460463277565,10.931586113008372
92.05643803939938,86.89685138920554,23.28737328631631
99.64867120789631,89.76993604366696,33.48488288333204
93.26342911844225,81.18105456207363,41.03552897432355
73.57429180026806,62.35384201769034,45.789420180548824
43.125177851856876,35.79291689147265,47.821988449737155
5.9796096003259365,4.909835145541252,47.56203172206962
32.850659381165976,26.388658909159094,46.044466809022325
68.10480587770532,54.1645552404228,44.2507147910478
94.99642418429251,74.9496914888498,42.497787017920274
109.88225387464392,86.23226778822081,40.593242750785826
110.77617582455821,86.85163788304385,38.279666193908135
97.61784115314724,77.15361280970883,35.52480006731544
72.24972700602305,58.8633209739455,32.17478304434328
38.11921014998843,34.73619126323934,28.152590559101274
0.22056315242823207,8.079919308506277,24.026531290780405
37.728644300711416,17.71047142255005,20.57064808380564
69.52665348981566,39.532116149808765,18.339856986026355
91.50657534637241,54.85425451797633,17.327392120468854
100.84376222996275,61.92364889672745,16.608710546816088
96.36350767163128,59.94416851239732,14.87265952647439
78.73037609986692,49.219291759655405,10.885799679318353
50.42316233686233,31.209589033501725,3.4631348902832317
15.441062468494687,8.423769727389605,7.927133697455979
21.247836681118233,15.883082485138114,22.555107189794096
54.4237157807189,38.15952046242438,38.78535706977358
79.3739700991919,55.09840277051739,54.25930405603946
92.57677311109667,64.14553562126395,66.15481110004885
92.20645017698995,63.88117797365185,72.19665536494507
78.37430204513984,54.22909807307621,71.15242434270958
53.086414518074214,36.466892903949585,62.969437587385094
19.957313806521757,13.055997056602292,48.58887460806115
16.279773185591107,12.704727336986208,29.31127438769939
50.85563210807081,37.472557230033416,7.109040762017938
79.81559367882015,58.446356796853465,14.96331442772587
100.27470529106186,73.52088638906979,33.81134804155672
110.71586139872628,81.5114703434487,47.189038532544025
111.08707257809577,82.25139624113747,53.82191468535253
102.67732297213155,76.53610319102712,53.66338537895357
87.79234062697431,65.91606578998108,47.81297002115189
69.28737073363637,52.39148102697679,38.334154715406015
20.49833355011897,13.294418354928453,8.467162684476707
23.821675967157937,16.21636210346403,18.408694468638878
23.944421781159495,17.118545264779357,28.37484742081726
19.629036467615343,14.836987924324424,35.9277811030115
10.16340477565277,8.57200680807072,38.923843005577616
4.371766531502672,1.7836931791479944,35.824167543208866
22.929104962996387,15.438342021546188,26.2012395278401
43.49317112548213,30.71851166097784,10.517358426495337
63.25388325423002,45.30114455941835,9.913478186360846
78.988795847514,56.622584509478166,32.73028708810799
87.56149430083941,62.34310909723109,54.88032101207238
86.42271681155262,60.740832391947464,72.5795052838691
74.1128359634864,51.01230049279574,81.89949353486801
50.855401410364735,33.546115695377814,80.71718970917087
18.819793381318114,9.994211496978318,69.46976282851541
18.340747504761726,17.008283618765258,50.1029125194794
56.09919142171604,44.172190770708134,25.33909377614294
89.62786424072412,67.91368964605113,1.6561226461309861
114.5270474148126,84.88866025873563,27.655739774865268
127.41792112858813,92.52552166875141,49.2742656886602
126.41859820273994,89.5133344601543,63.664968420333075
111.47452847219486,76.12943444324644,69.71459822704794
84.38107882373993,54.229907587988,67.90172580610916
48.58170153413871,26.927724552407746,59.823990981015726
8.69683201142108,1.9892484792273095,47.74695851814966
30.142644685638714,28.719390269917618,33.89598627533276
63.0190856612419,50.01580985083696,20.43702166183804
85.92035753486253,63.57892700235595,9.323930252574558
96.25447035850243,68.2152817747435,1.6307721205622636
93.15881929109916,63.840112810546145,2.6892522595081885
77.58093975229374,51.40685938747973,4.891598308547993
52.11556013185133,32.789428554701324,6.69181454230304
20.645297524280164,10.61892532274188,8.934911103573578
12.189273013463596,11.96999625214451,11.782970966088504
41.625878263881276,31.720652432905084,15.30967608075388
63.43050522749462,45.7286462681998,19.444783614781883
74.48274398483576,51.89811937398165,23.983794378573734
73.20278425343061,49.27815596864924,28.256614697469498
59.75125441774618,38.21760021972312,30.995963498963086
35.99783101152758,20.29868455783131,30.763686040684938
5.269398973621035,1.9374095645908471,26.58860363023494
28.086662592339383,25.384430337113212,18.634593836638853
59.27173957855013,46.78373175667204,8.190018377623277
83.69568055980179,63.134038334445954,2.834133303907265
97.65069200895682,72.07988078650638,12.62211050833456
98.89244414522015,72.21490200570183,19.930602331653464
87.01163180322463,63.269600176152466,23.936317100956927
63.52175298555221,46.166228639180844,24.59828104811295
31.63463975441936,22.911386022601164,22.892431219231494
4.254582124411955,3.673304333760582,19.778027730565558
39.24231920088434,30.31887334070476,15.615126099850334
68.6113566126839,53.699827809704004,10.710254102716164
88.44260666426567,70.8187631664612,5.484024193643678
96.07301439245009,79.36312833429848,0.14705851374830214
90.41193509927494,78.02703008410575,5.183568549399383
72.1167680364086,66.7817329617649,10.335767377769365
43.59950958741741,47.017110882276874,15.104959168578866
8.833110836812896,21.461409263606345,19.130318338888713
27.11192153325809,6.173385365934282,21.88253067511893
58.79871125107932,31.786360108222574,22.54418217095301
81.3101022069307,51.606304391728095,20.3277140207509
91.11008050009163,62.861573548212036,15.173170503394886
86.65849745412454,64.21773330419774,7.804631579236057
68.6333269455337,55.899856336222314,0.2638769273629939
39.75213079440515,39.52930711294212,7.198336479332237
4.278441565342494,17.77514021517125,11.72285088802406
32.66187235992562,6.058010027945532,12.804669331372791
65.81249168440628,28.449552359068353,9.618338365138733
90.46666952383589,46.08692816158594,2.7363301325584968
103.0753984578643,56.29874946889827,5.856492508693484
101.74402255190182,57.48451951449008,13.982647242307097
86.5477441683016,49.452245091285704,19.63062959922331
59.5958341059607,33.531911883691386,21.090351551704813
24.763117239803243,12.38025476055584,17.77213877168786
12.903291330482427,10.518318624470691,10.298253955226036
47.99230133178072,31.53487952694932,0.16113130977343434
75.5988777189806,47.55669883057695,11.982919693885968
92.06052150318209,56.45080674364133,22.837294105877575
95.41974205975531,57.25832961684066,30.280977945395733
85.58274465178867,50.13757725543669,33.06511780094595
64.21405298184727,36.17542234256719,31.583798632601578
34.449696469095706,17.18463522564874,27.469530578899164
0.48107406778442363,4.494704461660378,22.904062974916215
32.976912144348255,26.18370435750287,19.36357187462364
61.29355352099768,45.08497246249357,17.127404182732164
80.53730206426181,58.60809796854216,16.137526035593083
88.01837644513469,64.74584029493002,16.080771307003126
82.67221267246731,62.39712052593604,15.77338679102877
65.19937072378006,51.56920481815901,13.882512868181685
37.94255498027376,33.408705009203636,9.689934651402764
4.554995331329215,10.063099191380049,2.7509526089922227
30.482218155346573,15.591473751139754,7.020884812068193
62.42468917187708,40.3053898488975,18.67187962600064
86.85405205296868,60.835418750136235,30.147115977437807
100.25303689441792,74.33375813271923,39.65571066818384
100.49973512371751,78.7439056839159,46.58246456193427
87.22613974354879,73.13717314012285,50.56403041334421
61.96185410615126,57.91912585794167,51.35129665867727
27.98560435379474,34.869752405983746,49.40103678356844
10.111248487490613,6.953512025932842,45.543022665615744
47.10433084284244,22.094143479663654,40.835239499030564
77.92865172282377,48.30768756439046,36.179423925849505
98.41189700164423,68.09490949269573,31.493934265875282
105.84989993486704,78.79160439527037,25.985410141202333
99.35734895564939,79.04455111229177,18.88390108107373
79.95456891378498,68.99169828645955,9.416613059838104
50.399216218901806,50.22067007594425,3.1412403614904036
14.804492649353882,25.519213568985982,18.7000445104607
21.910589287492815,1.5386109944753958,36.45482981238117
54.691857867871505,27.11827163876215,55.43376302208964
79.04828812932811,47.662619175992425,74.01095661258306
91.68161561425596,60.37222596094772,89.96020879730662
90.95782352017169,63.585798781022156,100.77063362074195
77.14016853794412,57.00822055654626,104.00318575967923
52.360339711760155,41.759968239889936,98.5423455508475
20.314424193835215,20.24185469588281,84.72092198385307
14.277761587707786,4.184377021104086,63.723140409755594
46.356759135472885,27.68168874340082,37.518658241833776
71.26117638928149,46.51944242520798,8.826258963049114
85.39124222716622,57.662300474573826,18.86460718318069
86.70061316867802,59.266134030817454,42.0903732145345
74.96423370180212,50.97547368887334,58.463991071139304
51.78811630287782,33.98329119522035,66.92843513973415
20.38386935610569,10.836762037300867,67.78003127668565
14.853190011089737,14.979449117548045,62.531296754397296
48.916093206355534,39.581176223815014,53.46078432020966
76.8574022895939,59.26816080187838,42.988408175362245
94.49306187282741,71.06887037348137,33.57528600846964
99.03802714971275,73.1653218810288,27.55736230161647
89.57226388529831,65.15764111325511,26.161477275481346
67.2233304668036,48.117812247721794,29.30250167571573
35.01498127273458,24.41689761484245,35.85209176153278
2.579972619708497,2.638500613386897,43.613492350694806
40.33229756145618,29.301614169914124,50.039312808099616
73.04871536029741,51.9229252808185,52.85349280647844
96.28948087775355,67.45224706928532,50.27905329051356
106.93316315823732,73.83969635950503,41.481836759380506
103.53615241774285,70.29081758750971,26.75646998221521
86.48872264720941,57.36912723484591,7.8219999318317
57.99191377960477,36.933349453663055,12.445323325297352
21.82933788838237,11.899700115842453,31.31245857786077
17.073497144141268,14.16105733622014,46.59991735002177
53.769185368793174,37.9715475971645,56.77605541967806
84.24012662444157,57.15559946000677,61.18184443126025
105.69005955623814,70.19787796215346,59.95923690568102
116.80049494428216,76.49233821659998,53.95125403065523
117.73376684356582,76.27269971033792,44.51592242674762
109.90285389039333,70.46184803963573,33.40882008263632
95.5805115111211,60.47291912271671,22.281911546788994
77.44512906705833,47.99323699618403,12.367401996989402
20.950249421495684,13.698441887624822,19.359931663651846
23.430812949609475,14.686761803606382,27.234130450116762
22.581371291828287,13.491151411935059,32.43761887830732
17.34103468646651,9.452874604863194,33.292569629595505
7.17628160050304,2.2371675594583253,28.801401568627412
7.66813650883458,7.971895048129159,18.686461606509347
26.021583748386888,20.351790001859097,3.4848636390676324
45.82798848480437,33.45896751166435,15.414228906636394
64.34477743405094,45.391435466041806,35.943254247428534
78.5272093945588,54.07777101800504,55.71573870361395
85.5014210013914,57.614157192366434,72.27342228325834
83.00746582703957,54.58346750577788,82.95817746142751
69.83911897141436,44.35720829065012,85.19749653137286
46.38380102296937,27.380914124790966,77.70919067478562
14.82599220879219,5.207401843007769,61.08470333364011
21.327367157106412,19.786175747910836,37.00083963011235
57.77849644424469,44.66809148335354,7.971192293966528
89.91201546729683,66.23463336244383,22.253221173777487
113.46190814299672,81.4512846157623,49.594372528935075
125.10110624182485,87.92864438188474,70.91537366397631
122.97361277360223,84.39872132494482,84.34785152180638
107.08106669011725,71.05327679338801,89.34613562969746
79.33068818400571,49.59877716979876,86.34196140018231
43.31101525045021,23.026447695819694,76.26574590257428
3.7439849024162504,4.906211769771078,60.49169602676616
34.234571898465205,30.3244182117459,40.846495286585096
65.79472408872103,49.85400945713066,19.642554421860787
87.068866013818,61.11514086044816,0.4549636197312771
95.61294207288206,62.99607728439948,16.831329923626054
90.67653744799486,55.72301540035556,27.519399544915768
73.28471290545329,40.76873208314867,31.952061712130295
46.124659879029736,20.626183761134666,30.878658574534647
13.24409830080934,1.529612682354447,25.59356419286787
20.464938749637213,22.274517057011582,17.995903360960586
49.94734638043908,38.41711767366695,10.763557876067134
70.74033409316586,47.471561815139765,6.096756965845262
79.67431344967216,48.04077027332516,4.542964821194231
75.37157468696327,40.02362104776133,5.610390227740043
58.44477509863247,24.609818850506972,8.523017121149854
31.36017544563828,4.066228564993388,12.263760866606022
1.9756220821270831,18.638671573535092,15.875322783141694
36.80638691378845,40.289393557417505,18.63386431895503
68.1945802601977,57.87648238579112,19.91388374415881
91.6658907835871,68.9707566078232,19.093191962053027
103.78105659948638,71.99354896259283,15.771552481147712
102.59486249821501,66.3906500053307,10.225732582900553
87.95238759409081,52.690313091617384,3.328719424978012
61.5866848835738,32.452954135709525,3.7917784125703675
26.960856821508646,8.120663911578887,10.042748962399376
11.168260408098908,17.258351571204642,14.662818636796684
47.42984287948999,40.42352717640985,17.40059294484425
76.67385690143094,58.35588995854036,18.539550901622757
94.79156896211072,68.721554873145,18.401357635308425
99.35483051558612,70.23468871130423,17.071461347106425
89.95883278114306,62.853592175557296,14.650475525184198
68.21740540373969,47.7667682025099,11.179112891744579
37.45629276333209,27.188537728810214,6.468372375192692
2.1854019619598026,4.0031808257578465,0.09804015715289773
32.55404757413462,18.663022624464844,8.20001596708896
61.868874458644,37.851790946128375,17.940950419232177
81.65954956610398,51.1154776487312,27.75198010673468
89.16320462759526,56.768100120408825,35.73950372416002
83.32355884711066,54.049363739259924,40.13157872567647
64.95010418580965,43.21965702543181,39.594713593795824
36.63576671096619,25.576869948965356,33.60963056647221
2.4041747038829766,3.3744175610927836,23.113179996779927
32.882645286302946,20.392600840116287,10.220021395180986
64.24558174854826,42.36182758465105,2.6451561043505896
87.3232469449513,59.30099279409399,13.708465728762107
98.98864124682905,68.6333365047281,22.350228269160958
97.73116305376281,68.88485904824023,28.401140957202582
83.7932171263483,59.9465922628376,31.90323872262376
59.079026095180346,43.07473037707767,33.48332674558052
26.865377913720803,20.64347475363464,33.766970178725785
8.620152136484313,4.267575233335019,32.830052207676296
42.72293942616312,28.356480259786427,30.649698114798174
70.94843235797698,48.55980188789052,27.782371562171793
89.54876628701626,62.42970908575913,25.22857153414785
96.05792189399442,68.40046046883937,23.50815978117572
89.68227674525197,65.94847502429184,22.42268994889853
71.45119125851029,55.648896036085695,21.198450853719983
44.08604021801241,39.114321399466434,18.05324180156942
11.58245985901091,18.802999679105593,10.923167380967843
21.41844128798298,2.316017252532075,1.0829824605777862
50.330257336514606,21.208356917347174,17.254934677404943
71.26693987854007,35.25032088759415,35.04728751197747
81.54136123848608,42.64563196556629,50.85256846367111
79.96878536812363,42.69187113105792,61.82819657944415
66.97314412306064,35.84423159326201,66.75833329835568
44.51621175626333,23.575654967632108,65.8551186559932
15.857552589015645,8.074920822488123,60.041008454842
14.861491925373125,8.128714025362232,50.5230743198959
43.18429016087536,22.531151179634026,38.49013039641365
64.984056124638,32.96225209179635,24.532970977986047
77.08446561769311,37.79886562093457,8.934752289309934
77.7384102517034,36.093475206303864,7.498373407347029
66.86718639500596,27.67416225704766,23.160193344674514
46.026383407170336,13.229273463773755,35.96861292314163
18.143203693822812,5.646007149398704,43.854642359868336
12.905021757756895,26.49772360607741,45.62732676180713
42.80051031096921,46.23523993786842,42.170625030193094
67.32506342261452,61.55325646073711,36.1292270293612
82.9006643432857,69.51221188418984,30.691637752064445
87.0797304011444,68.15979240039951,28.532748708007077
78.93364118724372,57.00090051639941,30.22091964885817
59.27269430049878,37.1605051833585,34.234967765099796
30.60048823979164,11.187427347045237,38.35905999506063
3.2090453305235536,17.445069283466903,40.412018563551285
37.47168919126596,44.96261753782349,39.11491749092426
67.40331011651176,67.85479625700975,34.18370040720334
88.81401327303124,83.28590672676691,25.781727182964946
98.67651986957155,89.32864612693099,14.551333982115903
95.52078792808415,85.08909709072105,1.2679905367449047
79.62571853479979,70.80880280185629,13.329736068898706
53.00309066450764,47.9520825107115,28.09125206056069
19.172105402046007,19.200244608838446,41.3287615588243
17.26854887522529,11.761035514376939,51.06830157962387
51.2677373451827,40.729234938604854,55.67489122400779
78.07875838381912,63.68575247479231,54.42477396989217
93.99378828117187,77.52437280315962,47.611453515102475
96.90615564396876,80.60496847639071,36.84333960788865
86.58559139955447,72.9685424808358,24.971889634111925
64.639871443494,56.179477783189334,14.87408971739456
34.21259739308407,32.92319235707794,8.404618088788997
0.4884999162047303,6.522479595133385,6.269575755916348
34.729489618355615,19.498270272637004,8.058902180933124
63.82162728407081,41.75514772600376,12.373750659144955
83.69405730237199,57.3070369094084,17.180715080646614
91.43433761699801,63.97693857559688,19.87506103055743
85.76913072391862,60.695870591811186,18.100982163140564
67.36307521047503,47.79874049959765,11.369424033875218
38.82172349046103,27.1360464293207,0.4373826578361728
4.347331835654063,1.8944034250297626,14.048504728384696
30.923222956960533,23.892034816441434,30.53853864593627
61.73887229777359,46.05242306546756,46.2556199179029
83.55844961781071,61.014147944085934,58.56015946310157
93.22910777413878,66.372201642694,65.51669766755535
89.38912709968048,61.21565007397472,65.92616981382514
72.59737871775401,46.19837201901553,59.35405348752259
45.22262671329857,23.384911644386147,46.150409091925155
11.118199752697267,4.044451113251732,27.22925979607333
24.878815716061144,32.1807015321487,3.9909324070648466
58.04402790617101,57.35082869654548,21.076906071650626
84.60346611381715,76.76759118919412,44.75308986915444
101.96932943821614,88.57279511342897,64.13835151171419
109.03481408094022,92.04919966042084,77.19590651176902
106.22825272853721,87.6675728247016,83.18907063338925
95.30567191944483,76.93919074374371,82.95443120922678
78.91225568835468,62.08708654383963,78.20918254667252
60.025217418424745,45.60343809552656,70.18804475858155
20.99685888296438,18.005097879729508,6.030450610380513
24.884333265186246,21.04830441516402,7.801128195691389
25.37149435107025,21.2887982002252,8.29013909457915
21.15100311084277,17.694978444627026,7.428588408486422
11.562170014881692,9.718825827516746,5.866926812522765
3.180657992935051,2.5205343998023233,4.1814628331131045
21.91330091414318,18.140113542916946,2.2089843465051957
42.60474019441855,35.52898406084902,0.6778990666479409
62.53667328717511,52.48148363506454,4.62394542732778
78.62108736252978,66.43933440311376,9.009674762183012
87.79397252262153,74.80468253808459,12.886538832640932
87.42260226307955,75.29552711473085,15.393169530741384
75.7898054925153,66.36781092266428,15.948259525988234
52.81492900598868,47.828384235765164,14.25997097207119
20.506664373632223,21.21976623151681,10.605522066361862
17.420880403750562,10.490568328658195,5.792315038159522
56.19116529123315,43.41048247314785,0.6524272038526404
90.64651581154628,73.24797129930046,4.060714303215633
116.13174324035201,96.0117479488548,7.951546522033536
129.17126906900478,108.5898543983818,11.129903423641613
127.91041856677516,109.21133219327247,13.874215392963754
112.33899076646951,97.71818239962967,16.004127614156143
84.23480874009186,75.54154962042986,16.128609890429484
46.975261901014385,45.51902742502002,12.690356177785322
5.159672970738906,11.503535371846707,5.675556589962581
35.92002202804081,22.18142196309683,3.2429486287511904
70.935825641161,51.334637255562924,11.564708726496047
95.29850225231111,72.44508873395152,17.47553938676123
105.86818135942907,83.14327426226572,20.302222949682633
101.48059367818323,82.50178304504557,19.93348920831883
83.15038633259779,71.0924419729893,16.72589713598241
53.881389924247806,50.83601975740479,11.28227073160007
18.157968660849058,24.724032113932505,4.944622745371828
18.768173653852,3.5884944752417236,0.25421415910622097
51.63969027746936,30.245459347580315,3.1910835626753067
75.8886776033115,51.64443235629513,4.044721162524733
88.20603362221941,64.87176319115396,3.696726502868509
86.94159866372492,68.09989314175886,2.7850852547620217
72.31356602685199,60.86873785775155,1.23510411461207
46.40199795166795,44.176329676494575,0.7503539284214016
12.890649094533083,20.371471464227966,2.2383377411742837
23.44157545378937,7.155208443588573,1.8824397170295872
57.41164113074375,34.443062919352556,1.0788780395395194
84.18450455680095,57.526904116037954,5.983928564548921
99.96914167468124,73.00104071053649,11.617104531423537
102.56191647970269,78.49948457491448,16.811225991037958
91.63847973827622,73.07685519849146,20.644753077388607
68.77439417528531,57.417518489774224,22.830016752451787
37.2231216458823,33.79440602817723,23.266118786229235
1.4522249048436215,5.785517783946326,22.000377846553036
33.49743184169179,22.247219638334307,19.79909498964748
62.73170291450195,45.88892868863142,17.925698641859533
82.21112875384712,61.45756489316525,17.4806417075974
89.32213634052705,66.64399566373007,19.01032671485204
83.22222682117409,60.884361322337995,22.044420103655234
64.92701721958326,45.3914105727163,24.998723794449234
37.14253099405008,22.84103238584347,26.243299754495713
3.891850919759333,3.1618591387517774,24.72850887166465
30.003600871115996,28.681490267854688,19.61080791941712
59.55209315256131,50.008386148242565,10.494894557345667
80.277600024724,64.11131495393633,2.2101999545750908
88.88561553474258,68.96633553841312,17.329008877029114
83.8180899986196,63.76667959225383,33.08706224182757
65.5627166527867,49.0232748654424,47.896675333675894
36.62536826968108,26.552719421112243,60.683153375354
1.1649875193293606,0.7032832181363846,70.41621005420252
35.67643994097267,29.04324676872617,76.18027632191817
68.60671723240563,54.50803110558985,77.31788010690201
92.97889329319725,73.46769064022173,73.6120309301692
105.42156756147845,83.19377266579312,65.86250997667973
104.234692830028,82.27693558256243,55.479801206371484
89.54439123846745,70.80590786705608,43.580371694075396
63.247880078062074,50.322869336164274,30.934103868027215
28.783695934397496,23.583774094269575,17.808229327166952
9.264803405943574,5.836267351416898,3.7033761272910826
45.7391631085251,34.002385584123026,11.961121025295396
75.60289416185755,57.10563961667771,29.111633005980163
94.68532876079966,71.95990170471725,47.00922177053743
100.34615200999706,76.45066794838098,64.56689466390701
91.91602788033568,69.87926227943632,80.29330463482651
70.80824085891535,53.138314403668076,91.7945084652248
40.26227569360129,28.648930443945083,96.52211326334047
4.790953942380095,0.02758532156864178,93.17748570560427
30.535811636400755,28.479161072371014,81.78721309784676
60.83041360346683,52.67133146720957,63.42051155650966
82.03280557520542,69.04958861537854,39.9071986246372
91.39455401530554,75.33829712793377,13.446097164721255
87.77127533870907,70.77353040263345,13.264619667812996
71.73199843547991,56.12916592527524,37.092767015492086
45.498657186008664,33.53695189473429,54.702207960112325
12.7003013421137,6.147368884762883,63.20263827282051
22.070604884399714,22.324391484821337,61.49805425700335
53.88069752810585,48.10417082725481,50.74729212296571
78.17990122215895,67.84707437786315,33.990805830947345
91.49760256732898,79.05275067295386,15.384548930209021
91.97758942608016,80.35111097949856,1.146554046288787
79.65160652393757,71.61348528693631,12.883376831317515
56.39449743140531,53.91035628024023,18.345057920319327
25.571740914266442,29.360556898730305,17.200695647796515
8.499727165648633,0.9101324397062686,10.546906535488901
41.14482879377297,27.94314487341252,0.07500369924880443
67.91784494580554,53.50046949390703,12.730059774422262
85.13574365388682,72.30624470002759,25.90020038660721
90.33298133609311,81.6740978297098,37.252453628926595
82.61750318312113,80.1921871600376,44.86660192864907
62.870976712397294,68.04965054201165,46.461357815898424
33.73146838287933,47.07864609114742,39.893721775926444
0.7031513338422067,20.44790104346251,24.561431061011618
35.454774812154824,7.940728709928536,1.9262256019350472
65.43227981679475,34.1444303406974,24.671172956307373
86.23358137059601,54.7750686494732,50.65344652986134
94.82209814723176,67.39249485994546,71.76290953456514
89.95861648184489,70.67227773388737,85.42582527000158
72.33297420291639,64.44274221843114,90.65212878395754
44.42327097179221,49.69010599294969,87.17568537348144
10.143172412730815,28.544150668639677,74.79265326198856
25.681072405780274,4.158571913053019,53.74654874457631
57.94304154093786,19.63343427824739,25.580650544281795
81.96272212058227,38.92045767305938,6.822054048904244
94.20567382586675,50.469275217056996,39.55722435046831
92.85769607057232,52.42275402410558,68.54707657404552
78.14179283411725,44.701211575158716,90.4737058779189
52.29873261426195,28.960891029862935,102.73098922457096
19.200979085119577,8.150587978862461,103.80937979793241
16.287332922459274,14.145320256140305,94.55105919739826
49.06320288296963,34.371380593281145,78.06010354143172
74.50871672545048,49.50555701948617,57.914034219351024
89.07815624519125,57.34744596572495,37.11363860227961
90.7367572809687,56.663613026294094,17.546696878338448
79.22322893015962,47.26995326694595,0.7361145742364658
56.100206943206906,30.066802571668585,18.53287377999078
24.578107041905124,7.003485131262789,35.9851813206849
10.910620332188739,19.07988134931516,52.24506707599691
45.35684755234064,44.779248979693655,65.85316457539062
73.93372989218774,66.59683119394752,75.53108550005689
92.71123003136508,81.44674939429727,80.36283435781849
99.18671053379535,87.08857215442983,79.53863653532433
92.55264253954982,82.45076886550311,72.41457223666114
73.70163845735803,67.81136187660378,58.885727620334485
45.049300420930685,44.81341115742252,39.79438487258447
10.23833309946529,16.314409375643738,16.675582078206187
26.250598016399767,13.960275213721784,8.430546265521665
60.02453416434956,42.40281784856564,33.441487609822474
87.56002997554812,66.17737423745878,56.241839985693574
106.4202969185619,83.22493988619095,74.25058958530859
115.47641326103208,92.4294175156618,85.23018736058755
114.95441049868755,93.6790242157371,88.05318575409727
106.26856560888231,87.80304537110307,83.00284046287277
91.67090514012534,76.3780930194131,71.75615561028265
73.79300333911486,61.452379002268536,56.85473088932265
21.65803683697418,11.97035293565976,1.860095682375987
24.00999767241917,10.638350161329674,2.306439085837472
22.670821468774413,7.225114910492881,2.213062308967279
16.612551330092657,1.572018125153909,0.8334097114843272
5.45801572864196,6.184350670860576,2.4036532467755953
10.308545942061524,15.551227375725869,7.272461475887424
29.271340813575875,25.688259643837963,12.763308326237771
49.20045270765181,35.463037359364414,17.287837831527074
67.29583079143774,43.53840735744913,19.114050612411255
80.56056812633246,48.48418039783606,17.263697352183616
86.22065947167206,48.92180920696334,11.672251600649428
82.11633081762365,43.77152885808278,2.7553047043193652
67.13064734366475,32.63174001185937,8.164765912998664
41.798701346922876,16.01357076729622,18.74034203086447
8.573100015040668,4.7261364551127,26.715150935768683
28.69784038307231,27.495192347365805,30.852592656773368
65.39731585687532,49.63333830412572,30.9088147287768
96.73658267045029,68.27624695875484,27.183280753863126
118.54068974058589,80.7913637906484,20.49730786850558
127.83278346068556,85.2158125342597,12.10936153656346
123.23892786262607,80.59238889118267,3.242828914019175
105.19726512941287,67.11579568750345,4.851668708200429
75.85793245706714,46.12679271404113,11.0359235429045
38.82985537871569,19.966054782442658,14.879654407662823
1.2747826718552755,8.257461662153172,16.666301598130765
39.42031144310585,34.9867271223146,17.06935775730542
70.76728297636944,56.672778693774994,16.737218695869263
91.34425952771281,70.32602498333179,15.975138050995273
98.64265857771427,74.06879227426381,14.65710561877392
92.03414624289054,67.53588985840918,12.266866798093659
72.91128610059273,51.97937419156875,8.159994558262142
44.48557808240919,30.017209547549072,1.786320902435514
11.248661687844036,5.109314506015138,6.685900268456341
21.772936596826643,19.061913742403075,16.088738927178117
49.76650976210946,39.14535777882907,24.79263900384647
68.79736485826072,52.48874850075119,30.215814123799532
76.28752776916471,57.33260042140364,29.255140843203407
71.25262364680644,52.92195240961379,20.87268883463368
54.369734260128794,39.59739018461788,6.579886891188769
27.889279829885023,18.870882522657936,11.083083577153758
4.612108021167562,6.6094567995852325,29.0205893739104
38.632638281050085,33.29898725585457,43.84333742723559
69.32381960967338,57.22863615783953,52.539639096535396
92.18082962928517,74.66351219197509,53.052966621570626
103.726406542215,82.7665512442224,44.852472926847256
102.0645751815685,80.07311287277062,29.31819521078784
87.17049563800187,66.68323951495358,9.504819942856464
60.87901434063082,44.16765372661589,10.806513711176924
26.60571691597644,15.275344878469701,27.922877278896216
11.159120315872903,16.44517223968073,38.85996303328712
47.48294548422209,47.05401460912446,42.30211299567242
77.62837817959874,72.64922664284423,39.08863349667658
97.64660732656884,89.82045145387823,31.44170467827997
104.89971444718272,96.11511941621545,21.800058696049888
98.4302907170481,90.46409925174041,12.78917833457436
79.12022681106428,73.46041280219397,6.898376359403132
49.6208503836134,47.38118231130447,4.609872570710945
14.033716907907655,15.900231029751007,4.222648461311118
22.628673744216634,16.47504895632071,3.6536829939278643
55.14361964519468,45.1312868820517,1.3737053391338336
78.84809842880577,66.09496527600702,3.1590196806641835
90.34356628787663,76.63588167308117,9.333723308390049
88.02396319075318,75.62789828085069,15.911973038645788
72.33424095758659,63.66136995460388,21.579503887980714
45.70875276927547,42.914101937887196,25.211738410185443
12.188858952486589,16.80474560521729,25.88903228543208
23.216783339944186,10.51427214494365,23.146361205984103
55.29998679370947,34.763932425010644,17.19438548532007
79.4260735877507,52.177411720218004,8.725537752240976
92.18073313815,60.07472077338277,1.0524124901645737
91.80707155812362,57.27346006094488,10.478118708351428
78.40964764995638,44.280825516035,18.02293539049713
53.902417300681094,23.21916816619187,22.624129819503413
21.737330643350173,2.5273341283947066,23.56597247865568
13.548942701159524,28.856987356435937,20.688299733801106
46.93647951784277,51.58133398809223,14.784723643644815
73.60239933188167,67.06025547238463,7.397104556160197
89.61633962793479,72.7453340244023,0.19029957835475
92.55146882470838,67.54267147985082,5.469447768400068
81.90451072043449,51.95137609659688,8.460407569894226
59.224519261046694,27.986743069539695,8.099652200475338
27.884995185296788,1.0943776922935773,4.655363235890198
7.457897050669756,31.26125180504077,0.7867392327401936
41.61443078982931,58.306761078607046,6.462019786615982
69.6639751194413,78.45489221434059,10.373218271321695
87.66107204278352,88.89106900792746,11.323914310481438
93.14323803559185,88.15254863595574,8.80728253696471
85.39028650783739,76.31490867160456,2.491611554353275
65.46388677081394,54.95684678305107,7.465310686790598
36.04988706980979,26.92754827171878,19.55345706879937
1.125892417912825,4.052817981314175,30.676001202123004
34.51149601630625,33.89978655044183,37.73902187281174
65.86349858160706,58.7078566504735,38.605217782961894
88.4336484186258,75.28599149505547,32.02204300927589
98.91481641013564,81.61044816192492,18.569749283244512
95.73732293119822,77.09409031458796,0.5510852979638555
79.34366131980254,62.63185155790372,18.980233907031707
52.11887279053569,40.428340751972335,36.445922641073906
17.98045344207845,13.64240811360551,48.77985040154901
18.264344036920697,14.070466131925427,54.32669735724599
51.63811356885838,39.04547145477977,52.43982595686594
77.66374089133241,58.059728704816,43.39763071089609
92.89282560582767,68.68932684409025,28.886428194772467
95.28188288216421,69.5860762647928,11.587582386720843
84.43980402699236,60.66779242579616,5.688777483298138
61.72653708670404,43.15376403101941,20.111916907783865
30.160236767717528,19.422505367025686,29.261140135341684
5.909008390048625,7.295262814696671,31.8980343947051
41.370163721356604,33.358368517597725,28.669150279326246
71.10170536364066,55.23127184547547,22.330490789664335
90.76569006590518,69.98374764785837,15.89292144658919
97.49536634344467,75.66970336162385,11.183617901591804
90.33400657481248,71.53867713275135,9.270412004460683
70.33339560672528,58.092213553860574,10.168202010807981
40.337506232359914,37.013079780546796,12.645603871002729
4.5372417995162415,10.983623013268339,14.664927764715777
32.12693454608166,16.605463074300232,13.916235916109795
64.63263572927761,42.060608801867865,9.445839187821104
88.53145846332231,61.89591743416238,2.2843820953938474
100.53755149841743,73.36619698226973,6.077021735248796
98.99564917407452,74.91344835910698,14.531144263131598
84.14429629684254,66.43857172785091,21.949152023068145
58.10302880464673,49.308429155139265,27.12187972554354
24.562677282953185,26.093460054424284,29.023183228143807
11.7690577918641,0.1348367533247484,26.89206008313688
45.86015666008127,24.957882964598546,20.552850995183107
73.07845658261223,45.797308598903705,10.761174159363222
89.82311537665588,59.63259213402671,1.1269636504973322
93.9763111740656,64.65679888419481,13.776383920953007
85.15759670192524,60.21447457741927,26.124190829521382
64.75572917729063,46.91976222454113,37.20510583069894
35.72972104960584,26.63944372725011,45.79552523991952
2.216246956169148,2.296717654071053,50.388932683849546
31.022618772733793,22.492545976747476,49.775156533504095
59.26896546597744,43.92722376046147,43.770404559998155
78.52337726786851,58.60890079137679,33.263728069361775
86.05755601922941,64.08724748182324,19.427390246684006
80.78797772009159,59.26929310434133,3.337754258816104
63.41545144632837,44.643166038904546,13.551060156390939
36.3127585905799,22.25427953556213,29.298897671909064
3.216884110254227,4.581568844876533,41.924521103122075
31.25338460551121,31.778794440960638,49.846155294404866
62.68150668509511,55.629198525293894,52.408194681463776
87.6437341083401,73.46926719993476,49.814403958142634
103.85750630692735,83.61792929231645,42.61070086639418
110.38377436322239,85.54210966295166,31.593075994903877
107.62504526429434,79.86162580461279,18.051531663816903
97.14113293506271,68.18313852141246,3.8913632972527665
81.30118321135724,52.777682967524576,8.77438817186104
62.82707358779514,36.15688601379082,18.252197628095573
19.93897067553623,12.600267509928726,25.722458288504264
23.7534538623829,14.423033951604282,20.662487932973157
24.54009382615417,14.385673572392408,8.672249711273524
21.02331006724957,11.681951192889569,8.817855591916633
12.42302931109952,5.812636932089995,29.015895523162815
1.2779276215247464,3.2013693153940532,48.55894420428238
19.156538681402967,14.699282858215668,64.50359261017225
39.340091099461056,27.40343665680407,74.8813847896444
59.14954859201472,39.57480023566148,78.23470670524405
75.44474711604713,49.266816246147584,73.46730273687349
85.08567266765513,54.608834126049416,60.36020536802708
85.39898377560769,54.0800658998615,39.897940401794244
74.67643757279869,46.782430458602086,14.112163814404097
52.866795416569865,32.742590618770045,14.294244161844032
21.965612619151067,13.059191766807809,42.21615937392803
14.424133767057398,10.225235425324326,66.78908233136983
51.70315740103664,34.31950217467569,86.039394034511
84.87222435353837,55.996114523743366,98.87076000418688
109.35256732026792,72.12028690993755,105.11002143928641
121.65233100828908,80.21155391130984,105.47195193642919
119.89824603337595,78.93889947789954,100.81573613449522
104.18819932142877,68.4045020754238,91.32836085458032
76.57896278268605,50.10018727146795,76.71674330788854
40.817843908514256,26.601432870710667,56.910789881152056
1.7819456165432441,1.092463980578518,32.17394552670267
35.24726873722098,23.122632336378057,3.7587379310611504
65.34142960837868,43.03089055043294,25.521333889413544
84.63404212617178,56.22775005226591,52.62088089392535
90.8264222088221,61.15098699815862,75.17323582916055
83.4873036255325,57.266463451637556,91.38510044798684
64.09035050134477,45.18002641421078,100.53365829604631
35.78137916204698,26.63633368920973,102.95027503373676
2.925944413341526,4.335691904172447,99.20189655800124
29.531871739575237,18.46010943132216,89.79564815585559
56.77962123151833,38.4320728076312,76.01251356153645
74.82787884390389,52.70292049455289,60.05751900697819
81.05860493402598,59.23406521242415,43.72578871908623
74.52675574076562,57.04710225995348,28.0171309197362
56.03808002982772,46.27778501802608,13.365121114213302
28.010963347538652,28.132744843225833,0.4293891447019943
5.848363289456891,4.7753589282377895,13.699529643862082
41.00539968288654,20.8714912335541,26.24148982985011
72.65586325836742,45.40657593996851,37.01473645197596
96.33928251417306,65.35733689519529,44.69848531132218
108.56235302988506,77.70500815447362,48.393681549944745
107.33695642512836,80.41028858834308,47.750108564658404
92.53502135175344,72.81717764225046,43.18719237931674
65.98001605109737,55.82785160869646,35.76666259343166
31.21103099974699,31.788433705905756,26.974706000698863
7.0313393425223625,4.114154108618824,18.981941558257503
43.50702722978451,23.259866854326166,14.080904910355946
73.259847209508,46.47922822670953,13.284206833696663
92.32400816561531,62.32347022543651,16.053324671301482
98.26358642262794,68.6703090434941,21.486716242318767
90.49214560658315,64.81686676483844,28.746095750245768
70.33698616834236,51.59214220182672,36.487354694703185
40.86548969373114,31.239116283782447,42.96759339114287
6.471961419924843,7.061160440139472,46.20351279324588
27.74272919649475,17.141044724631016,44.08397464065905
56.71575087917839,37.70681354509397,35.16805777735117
76.18840782617355,51.67177458264628,19.353623919753147
83.35336514218366,57.161779229050296,1.907638040634768
77.2672374117067,53.56551897496289,25.862642152137976
58.95849324998674,41.50658059198047,49.29204763362916
31.226961983384523,22.70620236775895,69.37819852992348
1.8055415929628762,0.22600823721862492,83.96045022785077
35.31326987300915,24.075277209071686,91.66305370516247
64.45149120461737,45.39834204277218,92.30169489140269
85.0298793223875,60.98960858230346,86.44179749605927
94.09155973999705,68.38593894791124,74.64051442135252
90.30651685465354,66.32437371128468,57.664959703615835
74.1469460028935,55.00215902908132,36.77227130565622
47.81678956490031,36.04268809912457,13.590630353133628
14.930292297316523,12.192433713210342,9.920275475470591
19.99630014673879,13.17269899165839,31.60283990861913
52.172063894163024,36.59596851249,49.387606876923584
77.19345341538775,55.00150472114682,61.74162070730023
91.63249148342433,66.0179346565359,68.27869187751487
93.48854939920646,68.2015489144557,69.66337509183113
82.46782914659357,61.19378026625253,66.90882304748456
60.046528169192975,45.810267663904405,61.265087280677584
29.30474991627819,24.031415121581304,54.04133589762855
5.465957231796769,1.1773167532206545,45.893495186895024
39.366064407891315,26.255503214580077,37.020595778925774
67.6065037799945,47.60758753152814,27.97061204433822
86.21177707280327,62.206702391238245,19.6562450958671
92.60047779908884,68.06896338894808,13.046348038376252
85.93643438412455,64.50398401376901,8.790426716251828
67.2004218039896,52.116844376598685,6.559011809760671
39.00896026824635,32.61106241230772,5.0555657096612405
5.231508091764541,8.521787607766901,2.7976750808292925
29.52388259175066,17.065809161375572,1.307290086869546
60.490928466873875,40.81773283487886,7.75958945468053
83.35581068081996,59.48472340966654,16.380514251686936
94.84749340242217,70.30171836639889,26.470928485893666
93.22668463078307,71.44099852338736,37.48057880863798
78.60110778870767,62.41949195090219,49.42997423144493
52.97823874947784,44.30133444791682,62.200059950446196
19.995751029480356,19.609662815216026,74.73396110358817
15.616457130127296,8.04777782323318,85.2304135708314
48.753809717428524,34.576588561381676,91.55333974742882
74.71712816752658,56.06137485953206,91.35719335733316
89.88682255698802,69.356232729093,82.81398243037349
92.19678408368415,72.50878383118854,65.75201204879552
81.37891910711575,64.98951437258617,41.58650338169847
58.95688929545292,47.75460049844457,12.513388620008483
28.02258281802008,23.141217879211045,18.58378395917672
7.162906757749945,5.3941789527542,48.459962772310796
41.71880581640214,33.70948417699794,74.29698572262305
70.78982855348497,57.58199336502473,93.807954018084
90.22048665966058,73.37925479812718,105.30471406129273
97.16873403550736,78.67239506954674,108.09411415178948
90.54053372640102,72.63955395886529,102.41227664583293
71.16707933363747,56.15579973852167,89.23383988054208
41.691448957889946,31.579255852577955,70.51334802811671
6.166235625502433,2.297645572120211,49.161310354193375
30.551504101990005,27.8094713822508,28.14729567011986
63.48567478399482,54.86887612382842,9.553841628362113
88.21736020563766,75.43216111901724,5.459567678788148
101.45158468281963,86.79192523244834,16.463441203360187
101.39750006750641,87.25390363422723,24.14336078166644
87.96578039422216,76.40077357376825,29.954185086484394
62.79530958986404,55.287224749309864,35.08302612292003
29.09593137790007,26.475311042082684,40.436063847839364
8.701051649558448,6.20064288354551,46.550315063429245
45.475887599104595,38.17094411257665,53.07454085237938
76.10045432650512,64.88860333462584,58.93422082922566
96.19518762627081,82.63486816123284,62.475707004440785
102.83497379579201,89.13905885973693,61.943656108689105
95.04926535598993,83.8734203169603,56.44977725861194
74.007008867518,67.99831727263314,46.24785655859392
42.829403092332555,44.033912048506906,32.51663922327501
6.05249169462442,15.40667388039118,16.985424238237062
31.11197984454329,14.018522020081413,1.2573057461071904
63.538424129182815,40.3589307506364,13.890852288676959
86.86924626497411,60.109422176835444,28.526898371226626
98.03861721069761,70.56906500083987,42.71740137378275
95.60227583832203,70.26812096123398,55.75966318779246
79.90700713940944,59.307840718887505,66.2900218578085
53.09562675290155,39.47904136517992,73.07025240082439
18.901650168693898,14.03875652340708,75.14038604893898
17.797694439337917,12.848515221833566,71.50559096946202
52.12844766854971,37.32471334784618,62.38821634233635
80.19524266525981,56.64618037986701,49.28606952479406
99.38985674253917,69.20930496015322,33.76124627338951
108.6318645361865,74.57590579998039,17.35239299320467
108.31844520228216,73.27566418068754,1.1880290809180503
100.02823895385039,66.51165420991263,13.961633215968604
86.07486311765814,55.879203707714204,27.239083342975505
69.02116273365505,43.132090596553034,37.751940407491716
21.79105393362328,18.392768809584336,0.1990881396484676
24.192091094062356,20.97063878488541,4.7375227019922574
23.119338604789085,20.696851192458183,8.180767708747714
17.485583434477743,16.508562614506193,9.773227462330361
6.745543599927592,7.820320843453713,9.003802563338937
8.847312564096432,5.228845574150172,6.052177072901988
28.083967858314672,21.636940365533803,1.8833629774113103
48.813993923973236,39.574458394246655,2.359461181016435
68.13894866453379,56.56430360724497,5.537550184574957
82.81391892214342,69.81688429189336,6.899118742652247
89.75336354801462,76.66641766671208,6.174986371173903
86.54205049132716,75.0191492922438,3.1031850765645754
71.95384658654072,63.79427425557062,2.3942311781636585
46.51921324879048,43.36017582396072,9.665299825657806
12.69772899233312,15.67619472422107,17.254343204544856
25.641381687476795,16.05749998152742,23.2184233515356
63.818919245419224,47.88934107793158,25.526672939900447
96.90974003702395,75.65343688180135,23.481486530641465
120.4739906169007,95.6259435475756,18.787823854624158
131.17035388004038,105.07737160032045,13.890913751578362
127.27048658159454,102.68778188504372,10.521570644161574
109.01473628686072,88.7698521655314,9.599877091031097
78.63249312813143,65.22544783464109,10.943620395166839
40.07791118025172,35.3014509799327,13.681689713963491
1.5419315580839135,3.120126425886747,16.25961883825546
40.71657076043996,26.924868335534526,16.365167591621447
72.32372682582495,50.79251149452588,11.90987529888585
92.36397392822299,65.39324395071196,1.3395755625443955
98.49365220871087,69.04490459106958,15.534276940460048
90.33080262695853,61.70198001554761,36.559691088253096
69.49380134752994,44.92128006245693,58.48639279352895
39.36659509793682,21.57158686134625,77.94977873367446
4.61902915058284,4.643012974981423,91.43593474108438
29.477784963447533,29.74936391978853,96.27856183480411
57.82389886213952,50.049595113368824,91.10696894690146
76.23432091429052,62.56427212764014,75.47437088078053
82.03464842081077,65.350292214867,50.82516442950927
74.40486158765954,57.69814583748725,20.859036696096446
54.43398501559363,40.224033503430114,9.960467406110078
24.915290136111143,14.864242001744143,37.497064523704424
10.058192191172708,15.262324816419367,58.54997323294046
45.64542987306281,46.18259301844348,71.3704636430808
76.89526423102276,73.5943369357375,75.55428146946423
99.40508320578252,93.51753762398675,71.95371446113849
109.92760396224593,102.9556124648424,62.54316017811232
106.84159287332328,100.41129839160355,49.8229773829895
90.40615022692282,86.12103245758864,36.39945719513235
62.741138905562174,61.96957896656714,24.394922530964052
27.531527254106223,31.1451450533931,14.780420365784003
10.508423930234873,2.3545168920299426,7.811667527539883
46.324940274552574,34.25846801403958,3.369186774619117
75.22669014874572,60.54005905778515,0.6887924256098893
93.49543940042744,77.89749844109743,1.1646303715855746
98.85921425669198,84.19093457648161,3.0304701617772287
90.79254620266813,78.80113655609046,5.5440070519918745
70.60156553999269,62.81621725028335,8.66943944300555
41.27286489049298,38.94430864419581,12.212643691123363
7.097683565381387,11.108820563491758,15.824769466062566
26.918453749714967,16.225493884430044,18.374037118104
55.795081230635766,38.84640314144521,18.671199866383986
75.32960967727553,53.50757858536519,16.053608659957376
82.72567030954724,58.37821929432083,10.468852248839282
76.98153829093557,53.16309409731301,2.601398861312563
58.99292836407197,38.95958219813494,6.438142026971618
31.38925637542368,17.96547255912667,15.062338433967481
1.854486908412477,6.847306283968447,21.38800923041418
35.969957121971426,32.047233076553105,23.93902102956271
66.05181868138683,54.090136394520144,21.69728934401612
87.73785917530562,69.74968888733258,14.274799993321826
97.82052609424206,76.60048201812957,2.698088495515543
94.7194046171992,73.44697373451038,10.598742699855295
78.73907558425212,60.581239381528675,22.633562491652178
52.041997151349676,39.76141241579992,30.42456298585929
18.320716429552892,13.888085054689029,31.846834793873175
17.764271229339478,13.517755790650714,26.464691451646043
51.264000342434294,38.8782289173262,14.919178853646937
77.62257057723957,59.024460913611215,1.3184780936734322
93.27512658822124,71.51458850492692,19.52695578881615
96.1038384556839,74.82937854109537,36.20909123641854
85.70910400524257,68.49477201309926,47.54982444608332
63.4863422913683,53.19047650516209,50.352231900436365
32.492396786038896,30.815488159925042,43.286303577022885
2.9192982942044763,4.3901309716596595,26.942830935099277
37.67603894214996,22.272829688046823,3.941979064409417
66.7276680756658,45.12719532125234,21.43463846496036
85.82240614910789,60.604648061630805,44.75231568896799
92.14937981857598,66.28601593542392,62.04758642423882
84.74908338948683,61.33147489841541,70.32868490000457
64.63536036062895,46.580449243183196,68.89860676691553
34.62175947008616,24.33613032573332,59.5286691445542
1.0980093126175006,2.086634910624325,45.14726755106296
37.53768738510801,28.903882014841304,29.00442444917613
69.59563538565257,52.38108656435714,14.34690483407198
92.75098614195251,69.28764092088242,3.600221408519141
103.69473522714482,77.25678543866341,2.090336363845673
100.81672833621383,75.0585093610791,2.904853518378094
84.45315134371656,62.77752755801888,0.10297951429286474
56.835216254902086,41.85520532648119,4.473938770230236
21.759350700887783,14.968423882024407,8.357984257359007
15.97839574354368,14.290018264519999,9.149127671806077
51.27314365263634,41.90793810440207,5.5184458449359655
79.41036798946789,64.04850666657752,2.9354149055437913
96.69340160186933,77.6458787349598,15.688309828417314
100.91119175955806,80.88426488968592,31.45517340824632
91.612662778353,73.47090973048977,48.5545984177222
70.17428754627461,56.647817668747166,64.51414644935346
39.64199411987163,32.95451433742793,76.31007070245532
4.3419899976151415,5.8067393972855825,81.50010611369541
30.718393462134767,21.026346831190402,78.94731382216409
60.57199191446582,43.93563035888395,68.945279202463
81.01975406128949,59.91716753817152,53.070208055404855
89.2398859320969,66.91803063066173,33.549386749441474
84.17067007418208,64.05739048105809,12.382915452180832
66.6239332139371,51.749427541506535,8.731537040128304
39.14115010934728,31.719631150634996,28.087791146375917
5.638379707472302,6.868031449919245,44.02405306405035
29.113891311473505,19.066696571056585,55.15241587841243
60.119571387974474,42.05792083565795,60.545645887281125
82.83605902876536,58.47193746403547,59.63415043522466
93.83963403753373,65.73555452030985,52.38515185625961
91.36784228447027,62.81641003241323,39.60474848306222
75.63183009218935,50.37646677916621,22.9635008072098
48.822991672976315,30.57241782490615,5.254470573711721
14.796036344094988,6.580329300173591,10.086648388466607
21.5215743003104,17.99398367344584,20.245856554940264
54.90105309426343,39.67761614767907,24.08340728138997
80.6097426076008,55.57802259104551,22.71626876780044
95.08837857627341,63.684039867877836,18.43919030257735
96.42363886464092,63.0618554291741,12.980027886091088
84.56853514661263,53.95886505735725,7.185417939382564
61.3035789593858,37.796798288805476,1.5165581843362599
29.95935385341587,17.014988409258056,3.556659232185771
5.0544104247275365,5.277612545319448,7.970338590781156
38.864209690652245,25.804442784379678,12.480416342363213
66.81785123176827,41.67619728297326,17.57870001955783
85.12849212527695,50.84872946622069,22.624799142324
91.390336757792,52.362159752468564,26.358484344824838
84.8806699402748,46.35516689994524,27.664713064860504
66.60642109428028,33.91764858538174,26.230433914452295
39.13156434672617,16.869916748541574,22.905453430953717
6.226658884179936,2.457532746011686,19.026978600114287
27.612676581804607,21.431134512699405,14.898511312528253
58.195187959239966,37.74938633910807,9.915051511741481
82.39163297973194,49.84162362627542,3.6558741942094892
98.22437904421946,56.78122521087654,3.6768420250860063
104.96922850760423,58.35446824902654,10.914600615517909
103.087212343931,55.05422487996011,16.54820418062393
94.01596804569431,47.95875188698851,19.579982781696533
79.85672169416034,38.508333787093186,19.576501492756467
63.003265085310865,28.227744890317066,16.722510886701667
23.30556877144432,18.230194045806062,10.323802386126495
25.011341602020153,19.197502551147338,12.16104625286019
22.751005435448313,17.232654000739682,11.737607669320141
15.656165082040554,11.606095092343509,8.781145399253115
3.479678366723757,1.9969935553834983,3.4605589551730604
13.243513880119695,11.295164277799719,3.642865267837823
33.10127514440547,27.20474600050306,11.267400911185357
53.83669685166322,43.895409738952665,17.880396827974636
72.51903851683092,58.92817428449733,22.26622480509029
85.92314251493093,69.64101470576902,23.711803030936707
91.03874562709643,73.63647402798097,22.03984865845244
85.60560584282675,69.26416257084088,17.38104676012515
68.67245360003064,56.03387876885881,9.957612630493461
41.18377044716501,34.88017513177211,0.6148016799980579
6.0733851438923825,8.031595746271316,8.579700071246473
32.44205387545562,21.523760442461235,15.152577411606364
69.63836493882299,50.50885458025809,17.411591379683706
100.89719384824636,75.68947193523724,14.581181222369828
122.33462903997916,94.20207438333988,7.065481748131523
131.20668658559939,103.81129430568926,3.2338557965498755
126.21229034427313,103.21490134558957,13.483176554035449
107.72818106108701,92.34124546049662,20.712292386809768
77.86304345268951,72.48344012901063,22.679833377580856
40.34026644947908,46.21589671226826,18.714497949387244
0.05133563937858943,16.979133172826835,10.03645375900072
37.666303546445164,11.549392358008149,0.7085498574190143
67.89067629185833,36.09890947716502,10.81051457256102
86.93567462233194,54.28913033232195,18.713882094814615
92.87210167853348,64.78688554053532,24.113852695191373
85.70928778054402,67.19824838445416,27.58729052716582
67.24214644674367,61.86062658796041,30.02356401179167
40.64159197841748,49.703041340575005,31.583389798221152
9.959138281663801,32.25893404590607,31.68608571794566
20.363395122384887,11.7437285404477,30.225960494109525
45.96120945174733,8.965700339396294,27.659110107735273
63.03218336030829,26.61102548352998,24.365151758956383
68.85356447907155,38.11842272824966,20.50025639538776
62.25249747090202,41.300363858534524,15.653620431957982
43.90534062180553,35.43805040604101,9.177846150182672
16.34803209340083,21.497123871110418,0.7986652099741183
16.370813422300934,1.9044235300450278,9.841215979741646
49.34805689182494,20.00404342056976,23.02118240793697
77.62126986554905,40.66247025920468,37.79404078153668
96.93589996907227,56.85832030763089,51.61229229669263
104.3519468291296,66.10141846643621,61.35640366842736
98.59124505084486,66.82896299940008,64.8132244907434
80.14509555966757,58.544881814764985,61.2154054374213
51.19317032450468,41.93741552636366,51.215829180714714
15.346315617171708,18.938082172124084,36.968010019746465
22.775825237371777,7.390816291030896,21.373297499341696
58.12089440489629,33.235375789089,6.5783053789554105
85.89709232146683,54.670554075778526,6.10372686811855
102.28742409289653,68.423368346756,15.467904185781594
105.05857618031989,72.51453798808619,21.09144698850391
93.93963579295175,66.58031073050923,23.45091747845923
70.66814632573292,51.82401131231956,23.02822424245919
38.70043036593887,30.667124261094518,20.408701407267248
2.6647026249611607,6.250220549050671,16.4273138222223
32.33849570639342,18.053379316336937,12.065142043834516
61.4515905907031,39.02551803055638,8.49796704662283
80.69923649790131,53.91173580073335,6.914118786312138
87.50807235950595,60.69533233199921,8.370731233650792
81.03919341204916,58.34083315534247,13.38943089197111
62.29299113917617,46.98865646801466,21.645669684852027
33.98445475100943,28.026318354443802,32.272893066666796
0.18414526657711652,3.9551054665454526,43.991187134843074
34.24567533295201,21.929413591670034,55.18497385619142
64.33972169022475,45.990971961913836,64.4198219952864
85.74814888084983,64.76910569678829,70.37376023850872
95.36478434281366,75.45928952745274,71.29801761276863
91.74691434456746,76.30577406932737,65.67849805744436
75.30141154948355,66.87367412851519,52.94079413734785
48.226893377590606,48.15911535664785,33.22088615508802
14.19898571545009,22.51596507618474,7.4301707967925426
22.124909826662115,6.635060177767389,22.825938525147965
55.72009596845557,35.308158187819046,55.10663074099198
81.87742978404123,59.56099624117003,86.09602519516238
96.86174485118507,76.09466536085702,112.64739132433914
98.46696267004737,82.74007363793467,132.05678345470722
86.37725315174414,78.73647202386923,142.19269596926094
62.25846464920225,64.79184642787918,142.22854930435938
29.543409375305746,42.96220439156485,132.21795610196943
7.077619933553869,16.365002544802955,112.39337648626045
42.37383397497983,11.245034179426547,83.79881304911875
71.37085078716521,35.99624168280022,49.28850405750691
90.07712194618301,54.46906668090775,12.745665155411217
96.01574913513011,64.21757629163778,22.418043578825962
88.50168210842472,64.14720489645431,53.523991130682475
68.6627028604388,54.67374733708771,78.67239056711789
39.24921986900567,37.605554379467634,96.61315951606427
4.270937505703613,15.797641084871328,106.75653765348876
31.492622604938955,7.309484215044313,109.40393602426869
63.0725644931533,28.18246948921339,105.2961689341982
85.9767400918352,43.66031054406312,95.82083911155752
96.86145353815512,51.36631671588854,82.60524465999943
94.07851121185583,50.055362082326525,66.26464423076835
77.9830229357152,39.85188664528732,47.23303366803261
50.90578139892401,22.309334215504688,26.647012501833064
16.778956658732152,0.23145557015827867,6.0582261718564245
19.502179126224362,22.78221236300714,12.633162782837589
52.84829436318489,42.994480687548624,27.875222434770834
78.7108861690447,57.20469307534689,39.0195112001286
93.66029241079045,63.27540752546366,45.684581276151036
95.76332402498298,60.39388137898106,47.323747747733655
84.76348959807399,49.0485616200605,44.03937814930975
62.09735145286616,30.824259007241068,37.20264529234819
30.756015941977992,8.118275262307064,28.428532276183457
5.03072686468973,16.158945168444912,18.47996311364749
40.29475391004455,38.88770405575702,7.3684963619866215
70.0063226375462,57.09066705282641,4.4640819097809805
89.8517105030927,68.34921922037127,15.341163119732322
96.95351094799253,71.22094969128754,23.592130706801473
90.36849041616806,65.53006442733967,28.36467101750111
71.24320949630636,52.408206285558244,29.51327702705618
42.592150308541406,34.03907508300953,28.032485186112577
8.750862409022572,13.178865696772911,25.047268502043586
25.35379561613926,7.381504289948131,20.883374184660376
54.94658064121926,25.238409336115055,15.76845322249021
76.0538324795431,38.58484081369556,10.028874446502972
85.97275844287242,46.2374929982692,3.92498460198197
83.53235174320209,47.595842141991746,2.8424482246441016
69.19287296872997,42.645151664705125,11.343968886408442
44.98941678265638,32.041915572336904,22.135324098004663
14.315717082610542,17.2071880341326,34.2978745513977
18.454978927709654,0.2998676100085629,46.052680637408486
48.525171648677635,16.02302842588258,55.73828617848847
71.3614040452774,29.052010597340786,62.22469790527318
83.4171628505958,36.547415211288836,65.15801839615374
82.74433588396884,37.17034663566939,64.47490440563531
69.34518360491384,30.703837435990575,59.58402582890798
45.18022701914565,18.026981335201935,50.15986100054194
13.82196793081175,0.8975177887615883,36.88944482815033
20.163739894562955,18.345560133877697,20.956817604218127
51.96252153952942,37.07046758583014,3.5907362627570008
77.21066625704228,52.61011071505271,14.162601488400057
92.52399831972416,62.51960080088725,30.947295794890387
95.84014123083779,64.8758115069167,44.89921888452899
86.58897109404967,58.61221663228839,54.427686660579056
65.73356108001815,43.82223370989421,58.43646996414208
35.72258299631392,21.924210051911,56.997853593136405
0.30532797376455034,4.423835726034911,51.86384633008154
35.84564963856402,31.68186419150442,44.91738537772361
68.20289630013502,56.3612887460615,37.3371772395058
93.30140441490265,75.78005769541893,30.05930244001096
108.99522900613877,88.24109360896182,23.67369335836699
114.65464453786193,93.14871025074302,18.206832917462
111.0775312898125,90.92325468453149,13.5563189180746
100.14903346508699,82.78036413993027,9.87939779616804
84.3602886422073,70.44095465630542,7.297525031797492
66.31720288177628,55.83758676527081,5.80604774725785
22.355742891081285,15.691433584140276,18.07932172448849
23.34162295847317,16.203591676617407,8.851418394296992
20.39458195618013,13.89113431884252,4.279136238341259
12.788627091010083,8.2481669635501,19.268770177677034
0.4353796884450359,0.7645509142224054,33.62857001806664
15.971680976899608,12.608819787472832,45.08023013285216
34.90737786274536,26.131865125846424,51.774987863847755
54.10757010261627,39.63683958830026,52.85758594524771
70.77445408342837,51.054160092330484,48.447369782252245
81.94075624670101,58.24699951155293,38.932459623629185
84.92460844810336,59.37218230686001,25.38850950484931
77.78961277047809,53.21256307822987,10.076194139536273
59.835497453680496,39.49423236350095,4.054045671675221
32.13794201743273,19.188757241286428,14.088443149132155
2.357149891153357,5.502472413339749,18.62068817956083
39.47723438026316,31.61637408826093,18.58967452747408
74.54830121242036,55.91259764375008,16.28237341060298
103.01785591609406,75.27192656758793,14.509808072591499
121.12967329438413,87.11476027786163,16.083541351111393
126.38417505697646,89.70600383001347,22.702327700057275
117.84477553219749,82.4086392435408,34.23452850310341
96.29563490024225,65.85468546384533,48.96109724425477
64.17147569367955,41.93706277634503,64.20994616957178
25.33862821896301,13.631485087478115,77.05031071232047
15.364670136901688,15.408930992222901,84.73382957822773
52.75219029134715,41.395961196281846,84.75036789108916
81.98180692298492,60.98539661083025,75.2983821092131
99.28139726033655,71.79491409025972,55.7541583255025
102.52651305461379,72.70373140731937,26.718537790980026
91.57099504085977,63.93718872671689,9.300128310679709
68.2788118946303,46.97461813192409,47.83285614835689
36.233604274618145,24.30962378684789,83.89472106823516
0.19065778092996358,0.8654698435151347,112.9170688962238
34.63028446253376,25.028921309439117,130.99578085053258
63.27988349528564,44.76061195030113,135.4663675357492
81.73206111458813,57.20644377916319,125.66362255828778
87.39496866449448,60.51735519328535,103.25712560845128
79.44180497026825,54.184921115657026,71.79228466290044
58.93536493123784,39.17443484405886,35.77543303035156
28.72504815875674,17.800441092757204,0.34433220757109956
6.90472470054338,6.65323436514308,32.666447645897414
42.81979773257068,30.513387480140967,57.78699957315897
73.79003760548736,50.34004586412616,73.11590567455039
95.29372748392514,63.445062072707955,77.41836304994362
104.21602774214139,68.23530662974768,71.27269061074034
99.31806245455466,64.32373839142922,57.18833248659838
81.38570297952326,52.440070604529446,38.72235591022012
53.04257433412376,34.24589672361522,19.35728247952581
18.30721469897705,12.103233911768491,2.148171054656087
18.02671999110066,11.194986151652474,10.332824167939572
