17.815690428543853,12.69591818394745,4.994476772374731
13.049382025346873,6.9206161417304095,4.577942263424402
3.9005218885485315,2.037124671214823,3.40612501524635
9.208527386335806,13.467791833006826,1.4942679774902043
24.935472748571478,26.09205641038229,1.0477850011816268
41.20276243580355,38.18515531533859,4.009716460106648
55.52214534187192,47.78671866669391,7.03148797519868
65.34713615196009,52.93903092548859,9.67521802034597
68.43229760661245,52.00744201659305,11.571282284864484
63.11200628038502,43.99528431358308,12.492569731005673
48.583766924204006,28.82929112022005,12.323748353098784
25.299390124680098,7.654584276499366,11.030282744444502
4.64558210008187,16.96850743865743,8.693517685869226
37.65891500976008,41.50197996229851,5.59708808229391
69.30211129403347,62.35636397356508,2.218447981664646
94.8367158445904,76.43151720002633,1.0063811982907782
109.98504099782349,81.53492515835184,3.8379957924783765
111.87983048518207,76.82749312254171,6.102996308072302
99.59462549389495,62.85594133184407,7.594903958095227
74.31540185245714,41.43471293770219,8.217227768869241
39.07977594262316,15.361145085648033,8.106301865930375
1.8163281474570228,12.046303790760364,7.4938047242791805
43.38413098713493,37.34173869663313,6.591274083595553
80.44195631140914,57.374281382685695,5.6004272433655675
108.01551992008699,69.65205285751854,4.680315814813858
121.80914720849641,72.64243952474816,3.9326020896901746
118.8480919751042,66.03196800836072,3.353297534626036
98.19814975468218,50.818439689000044,2.8769710039287286
61.60364560791878,29.22417652009273,2.5133196674037985
13.647911449051216,4.37326620143489,2.2958193579599695
38.75933080980407,20.209677345718436,2.185013944436181
87.50822908234244,41.16514719333096,2.0506869215731682
124.8094733725914,55.82279088936994,1.7970263967978681
144.65178346633232,62.50952753753757,1.4698817032321898
143.80454773139817,60.636631353006784,1.1051559627290026
122.19810362837684,50.62666869744069,0.6731097146217239
82.7347186032975,33.75587978873409,0.19338398046288244
30.71740405030804,12.022280865090453,0.2450798414112763
26.92284987698371,11.976462391388363,0.5971062354027489
82.48361448096234,35.20364510694321,0.9339056102403449
128.42491083067938,54.45454582722447,1.3266819247961472
158.39311152005374,66.80591059733804,1.8063141675554644
168.2245728355985,70.15937684929365,2.387031491541815
156.70764006157125,63.72029925858978,3.04586777692068
125.87384655626063,48.23852884664,3.7943783858439932
80.66458512355273,25.90252623050046,4.622962034320487
27.990926566047957,0.07398313431850642,5.400092448174959
24.571849878944317,26.03824990890217,5.949118888734356
70.0938656562691,48.47475572476122,6.1071988235390515
103.28806055943204,64.45133342087367,5.723018417279219
121.04931703387903,71.91320689103924,4.701419549875434
122.56058452614491,69.85654027423973,3.088294737121753
109.09502521256665,58.45650753217816,1.0538860618336614
83.66307586149725,39.15222618049278,1.1480250223510062
50.568065385152686,14.593188114399105,3.153676242893537
14.868774367563462,11.645113070759761,4.604180408469974
18.25221543995867,35.60605310779004,5.287571398887021
44.18803789022354,53.65670104467213,5.137904447696036
59.566827893201925,63.16248413402614,4.219023906189753
62.71085708317348,62.953491894222054,2.718229373478291
53.79365552212582,53.45936314229899,0.9263793357335124
34.70197702607664,36.50744846353091,0.8107178792297778
8.686675863227853,14.903887736711637,2.1667379228666457
20.10152480773614,8.040548158442197,2.874794293514069
47.111904121352865,28.94873409927359,2.7823847063094704
67.9038001357475,44.77306307759145,1.956353352749554
78.69997970547108,53.14844584526715,0.6833038668518782
76.97216998620618,52.714710633227824,0.6625352132426507
61.97197590274691,43.37354732994891,1.7216216795380548
35.05580273530051,26.373352594276408,2.2409126416814162
0.37481833281818433,4.166070873952904,2.1826605131172916
39.37588408022161,19.97853655905748,1.6934292717368982
76.3101919653242,42.53380819069012,0.9805489266364641
105.82820883576628,60.2728333085398,0.269586257569745
123.70833772242797,70.69181304784902,0.2518501151244762
127.38566993343605,72.24838291978739,0.5780781730897794
116.13680541990816,64.43060183396312,0.854466776832378
91.00933526572636,47.752838956411665,1.142475351567465
54.64560368995625,23.736071542122748,1.4137564660941695
11.064271924207233,5.140117216215378,1.6900019406901174
34.64135847844297,35.569428316669864,1.9712361963982763
76.78862187257151,63.72583479320586,2.207450508942879
109.8304747626197,85.77351716585903,2.360112304387509
129.24109749164424,98.49099868547913,2.359583970897299
132.37275026029266,99.8593070240225,2.0873117423510488
119.01167232512157,89.457407786667,1.4134877502884766
91.42501018005059,68.53981277742407,0.2711785069737794
53.87907001333104,39.788646171718575,1.279307319082965
11.780824129894196,6.858003279840236,3.059282507406504
29.278925245457938,26.164897634013943,4.790098910058969
64.31892198695245,55.27635830288264,6.1471168285850535
89.47232124079561,76.990507690914,6.860078242877231
102.23500269219628,88.70881571632178,6.780336149107396
101.57770843376001,89.04962903014442,5.9186488835489035
88.01964567819198,78.12190009219923,4.493244715627517
63.66759407848732,57.655234355183424,2.8456468583566523
32.1155022286298,30.86912235123197,1.213446256651857
1.9179661720267474,2.017485891745808,0.27811434506474597
33.26857684714895,24.358897717143744,1.51321537205731
57.228066975862575,44.298915740633745,2.49386448319996
70.4077075387758,55.15092618683607,3.3420993192844715
71.31352694777271,55.96303435591314,4.1275115124046335
60.49888168811967,47.466766635553164,4.845453315848861
40.288526730086694,31.723635229293983,5.48592548661492
14.217321357336747,11.60592983457689,6.016438480314225
13.60153216327915,9.699116376678436,6.326777553270569
39.01346701777722,29.06611826992333,6.2638405451227515
58.23227790061729,43.68994154442166,5.719373100558978
68.18405609525801,51.300955728723046,4.7290745914395895
66.84783221619033,50.42053050612113,3.470043100243852
53.604862689257395,40.6305052569195,2.0679984890027496
29.511174183282876,22.773244126909656,0.5719463174681333
2.6411283885151025,1.022221694175829,0.8916766566551559
38.58260215948027,27.588297895654513,2.1567794631072044
73.16120647686226,53.20117579873854,3.139616702038232
101.15386687002807,74.16849609473462,3.8250085516263668
118.110273766276,87.38814220580433,4.188895401581125
121.03696645384925,90.75508591527806,4.214453519204435
108.80091978475215,83.38020954635957,4.002370114028727
82.25619590039767,65.64605264366557,3.773274440118718
44.15096697877328,39.14666382050233,3.6870597834523537
1.132406670175449,6.552313811166132,3.7657863364179036
47.985430045757745,28.617751102471892,3.973622076580716
90.16384398045238,62.334028203070076,4.173336831205237
121.59076295342597,90.49473378202339,4.094830136357101
137.3235408312051,109.43626340202836,3.4957463200504098
134.53753129358216,116.46849637813514,2.3429129256798107
113.28746666895483,110.34636743031258,0.8563923893514735
76.77535173259031,91.56150439688318,0.6458997002523102
30.942807127735602,62.40439145497154,1.9530872780663284
16.587195836687084,26.759389136855926,2.9772783987149927
57.9699545383474,10.415828422204429,3.640252510657857
86.62341065508383,43.841909103099084,3.8483344974622065
98.3513625865173,68.76883517692507,3.5704725904085888
91.86716320645527,81.78303835232565,2.880583732880939
68.71514087765364,81.38334935757139,1.8875604740775147
32.75995301496441,68.20703772498015,0.6954598546330455
10.523992601112772,44.86372214449847,0.5316191159632645
54.7980240889923,15.448543673838182,1.5893319343816494
93.59384924414857,15.131491717307194,2.276454493096185
121.06348457248704,41.91013746399192,2.384208618831816
132.7620865721136,60.57098012142634,1.8116478120586137
127.50085793911529,68.64619518059787,0.695941419486018
107.6324397467923,65.84631978014535,0.6628642989434812
77.49071576514223,53.45692676509055,1.9785499993868991
42.4613267737984,34.100917562665536,3.1075725374521554
7.894083379544708,11.27952360472451,4.034779410559648
21.86132072718258,11.248650970092532,4.755168092920224
44.04998472423216,30.142666747369354,5.235384909886902
57.628148578956285,43.065940190863884,5.421847790180624
27.282228604330307,9.791850281638355,3.363541991709313
19.4954662861819,4.867154227944736,3.474106402561801
5.32629436131395,2.3775637109301906,3.0927447324825605
14.417765809978379,11.127576883027157,2.056667694165693
37.57627291931163,20.18219288409004,0.3694734568320661
60.84836580095729,28.1393364058296,1.8186453473215356
80.33906506046118,33.61551419778718,4.241067170647073
92.28104897422675,35.44708783572235,6.5622979360372815
93.787354214687,32.889086937815236,8.41478596133923
83.39465294223764,25.74730314705445,9.4500671883858
61.331804704653834,14.451477361115206,9.462520645239955
29.65436786131508,0.14314704097331088,8.429077117039625
7.709775055690152,15.249485269716507,6.479209239274155
45.586578468926476,29.318788763591993,3.862438150731924
78.77657372936395,39.81785073352251,0.9429727837339911
102.82541562708546,45.02505214755995,1.8223510572135058
114.53191964516901,43.95687894316508,4.08224258996902
112.47766932759573,36.570218022738494,5.7043553831507054
97.15904873178185,23.719382531571238,6.6313376227704115
70.90751430897917,7.061733994084698,6.810200485307567
37.52977980980839,11.103383903548128,6.286982971577652
1.626858463666276,28.13162360598564,5.278169759367795
32.10457905417461,41.36290359623954,4.0806537913002074
59.53261638434247,48.54328524630065,2.909398401247562
77.50957932012794,48.24067514164938,1.8740107575520273
84.0516067239343,40.15575517757718,1.0636807186930766
78.39838593139278,25.242039830419458,0.5216658925105081
60.990767844271375,5.528517905865587,0.10771920599527435
33.50281083333673,16.281320954656927,0.39394256838213204
1.1242189154622446,37.322026850731405,1.0345014334944735
38.75680031431074,55.02011099143661,1.7571567792844844
74.36682257916578,67.35433653384986,2.522254785691123
102.62062514020495,72.93769924162082,3.276210856026019
118.68230480703919,70.99414586701094,3.83813244664717
119.09637013520509,61.36589211463687,3.874070362710269
102.5275507297734,44.62775018470828,3.225523836409673
70.17566656583537,22.23495072280423,2.156294574409175
25.751688277040518,3.4293216955005565,1.0125337411585098
25.01890928888749,29.260196724754067,0.10158808957897338
75.25571375189878,51.94492542504754,1.1812052354194271
117.99815588847447,68.6289822853347,2.17420830036599
147.29693943021195,77.48098643886819,3.0211216703699706
159.1163538696747,77.94735482623402,3.708040986820399
151.92849726938235,70.63107465544546,4.27405950229951
126.91764081644133,56.92368591598871,4.729046335362537
87.78289563956159,38.6285302200371,5.057652321285742
40.20511231843255,17.7673400258223,5.336625097199323
8.973816284198298,3.4138519181400855,5.656847393929256
52.79536282307947,22.406938004480825,5.979803103119803
85.29082163226703,36.59454056064052,6.192124319903916
102.451402707135,43.70418272680253,6.160155823480836
102.86648941086553,42.44569143584391,5.708575880471841
87.85031513598203,33.04158815241587,4.6639979396465865
61.0323603821881,17.355578757320423,2.9106925024774526
27.542383444955806,1.4965966179238501,0.4692654173116563
6.997394571159247,19.90301498555363,2.4205551227150277
37.39308658804581,34.58361062828193,5.44615098191775
59.53086102939247,43.17563802320705,8.4099752492981
70.72894758541615,44.40733902980409,11.118890969558437
69.83595525334239,37.97421253565944,13.277356668006266
57.195904692928465,24.340592220130087,14.607909908253047
34.572096202665364,4.64121764234081,14.936294574759323
4.9986686505540865,19.26211958515777,14.220072446317667
27.519097710397805,44.7170453718709,12.56363088303291
58.48820088097759,68.4160377260904,10.13502609792107
83.5670657520262,86.82101203034019,7.141143685084667
99.23590601124181,96.80918389084344,3.8640528757671246
103.3135836930196,96.3209330429059,0.5927533224664462
95.22155481805864,84.77397338775049,2.4228239189186813
75.97143157151261,63.13638411596779,4.985669352316393
47.91928693371472,33.69622307098281,7.0177942433411316
14.408105047249565,0.32802449953558815,8.51097897920747
20.64667885175585,35.191779721315356,9.433060154212297
53.21362235042971,67.0052785106974,9.762097406500942
79.59391610684234,92.11456075839766,9.537321501789288
96.83516640060515,107.50759525299141,8.867382826808981
103.06084247961284,111.25288425253102,7.908964688079235
97.66369598422871,102.88593023519252,6.819901398679062
81.36794020940822,83.58631824572294,5.73446594074791
56.16734931792754,56.06907264360909,4.7592814362304585
25.15087026958014,24.205362807650083,3.9506713673568
7.767036799593532,7.583954771743617,3.3006077167496755
38.243456082448404,35.01464296882888,2.761732374870498
62.05985025034617,54.559736932385206,2.275907893387618
75.78261308134944,63.96288553839342,1.7970295374553191
77.42698744382425,62.57476468717821,1.2416547166510559
66.94052354694219,51.466142043339616,0.4202358475253992
46.30317277027757,33.290679004998196,0.8136918195329621
19.19368833199289,11.85256385039827,2.391538800873456
9.686306860575165,8.563206000633638,4.145140628735369
35.4701194156905,23.98281257654484,5.958296016298646
53.93545819075804,31.486391534044337,7.6917781563459116
62.08838796967615,29.704806377380248,9.042397529167207
58.51247904788093,18.9934221230849,9.626508540156404
43.546449998551445,1.295389333965961,9.213166266494193
19.305172821776083,20.23713911218181,7.781198926858209
10.487818024342195,41.76286827583177,5.464023928910735
40.91627672173924,59.32475707955877,2.5369245692147406
66.59376785971925,69.43605498798331,0.6083698846661506
82.62896642519753,69.65581391161344,3.5398141301171075
85.61918465343543,59.048683366016625,5.902158994778665
74.39686605411906,38.42395835298705,7.448851294689879
50.2973091995214,10.280205620481318,7.99455474472505
16.87289441349415,21.600019242802336,7.457272029710881
20.84553013593649,52.815135783613144,5.984106751935184
57.29290368399066,79.09372998468713,3.9437689755222007
87.25441139191095,96.94639087267376,1.6965905877735645
106.5675693194369,104.0853254632302,0.5516395719155986
112.60172468986859,99.60677831639654,2.631985189644916
104.50363405488282,83.9791798066403,4.250950006513887
83.25446521213291,58.921246620323686,5.088638396329487
51.55863688339923,27.241084247248363,5.072612847800142
13.518209973321614,7.4105523911453,4.412022493970028
25.92696851275529,40.922852573988706,3.4755533021631915
61.711211385541304,69.25272588229193,2.624046912678912
89.37056450215394,89.04183901240722,2.0294273158587353
105.6619298050616,98.16244313277873,1.765170953884245
108.95934008573566,96.04224543766387,1.8302898773306495
99.38639679212342,83.68599115882823,2.0630972934123935
78.73394894091481,63.396904847410816,2.2823716853700224
50.18459999318917,38.30951066446513,2.330032676224933
17.855296760732244,11.884407939274816,2.0350517237299557
13.791451107660148,12.539680392144804,1.2598583084109785
40.611780204435966,32.11097823529917,0.03726548777264054
59.420787215248154,44.75422608889225,1.760702454655887
68.46047901311218,49.40888598239471,3.795252309876024
67.56144939176772,46.19982281551821,6.03402474499825
57.96105285764457,36.46752647729297,8.273106918087064
41.89629947630256,22.583343214179397,10.199326210898665
22.137970683753643,7.51885668992231,11.420191789679079
1.5968489101057324,5.747946986115659,11.57164932293806
16.924253392096404,14.810872307992929,10.458228459643939
30.89070227015564,18.23716215940745,8.158312459229554
38.22214321759422,15.696697736334135,4.99469241144683
37.56818203965072,7.824820700769808,1.3654573221920454
28.641126391751516,4.0536397999506635,2.2990549196076615
12.465451113578867,18.196568193766428,5.584059699363777
8.623327891554789,32.643834469851356,8.188450630443784
31.329782389687423,45.357484609378325,9.869386015161885
52.01550276920343,54.381559274083,10.452902877004892
67.36750397291027,58.092164611157806,9.956006535686692
74.91553732153504,55.51960789027248,8.580205603016692
73.879061435116,46.887547180917345,6.6064589371438975
65.07475497697524,33.54704400582142,4.3031338591851584
50.03600637776027,17.407320703140154,1.9426089041858619
30.76836724211595,0.6190960631990527,0.19565587924928923
9.574612609631037,14.791247756590439,1.8858356903373859
11.100927309385701,27.230255051149058,2.9499527507120904
28.88998105381322,35.71226829391766,3.316780453494213
41.8066332292514,39.89356942221261,3.082754845911992
21.108302285395524,3.2411355589021444,3.609447236445465
17.06970227755048,4.592260654087915,3.1902695151612335
7.728777162689244,5.0475340076141615,2.2505583772993076
6.597881537625164,4.075604527134417,0.8793779367227043
24.40426683992024,1.5437742787134523,0.7921633072814117
43.184674563819975,2.1968448908984053,2.614327327518572
59.87091045826278,6.4174376473165875,4.388222578217098
71.38757903270712,10.231742856108372,5.905133073664061
75.20692310868894,12.823331307801006,6.969938009786801
69.76723244012558,13.586422008471926,7.387269275845192
54.703281045944735,12.17704075347325,7.101631418288176
30.93263889410373,8.521341939323847,6.288224080886891
0.6621117702639147,2.8153553906561832,5.2332585693953
32.810430670783646,4.465328573794522,4.190800404105324
65.54972269012774,12.492486206184603,3.2788626479708514
93.45037042797655,19.99526603692738,2.5426112377857732
112.71782995823266,25.38125812574456,2.0596056436417727
120.40333316631842,27.09703542050088,1.7895532490065191
114.84297144546159,24.06238987300632,1.4972662328595756
95.99555593182076,16.049555102029004,0.9314346788032654
65.60405609786382,3.8326526084052963,0.06768856819346879
27.081898653364775,10.928347129464669,1.5407454286669002
14.88260558715691,25.961829729081852,3.340593044140933
54.99974694883963,38.73769092345491,5.144999087791964
88.18315617086978,46.81343191388366,6.647980366466106
110.30698021050084,48.17737679288631,7.705100666646453
118.73524472299057,41.62640516571895,8.242390053008531
112.52759902517957,27.134590817562245,8.175843109891092
92.41545512669137,6.101985553298344,7.457435041613107
60.66978980604346,18.677154135880308,6.185546566476648
20.982133315228197,43.406987403272886,4.696089743963281
21.64951191204451,63.98575166041944,3.38109980260712
61.22369280169711,76.82421102913004,2.47947322905963
91.4153226103252,79.52347499238539,2.115439392417884
106.69229286325243,71.22754578600468,2.318496590592448
103.66604824534667,52.633128159609136,3.0297522658599165
82.21805588760463,25.773548253759003,4.055430066056074
45.89396921554195,6.266931511070155,4.978483362885187
1.2823272779838737,39.65040898697966,5.372420051095869
43.476428771959625,70.13343139945702,4.993802239261492
80.55280675680798,93.52947943342083,3.702956903976521
104.03365702824301,106.32369630074611,1.5169982202355141
110.79133535781658,106.35028914078501,1.2621270276719565
100.53323442108868,93.30337205696235,4.217376043250145
75.30746666033087,68.86049803249445,7.083356189955363
38.882096861355095,36.34664319900015,9.642998706108196
3.7275019590161858,0.039022331319786906,11.570981887195632
46.620704982351754,35.63190746945701,12.606854796544207
83.48905802577582,66.70059392322636,12.673844516406993
108.43423469465282,89.99437208207534,11.87425208601117
117.11148388733608,103.23904232550468,10.452370114615908
107.83935580905751,105.09262635351168,8.659274449824837
82.19966603022411,95.26719241376433,6.720587264858239
44.778694845935696,74.76556200986371,4.841468167112782
2.056306692395466,46.06727771928872,3.1762098172296014
39.140591000616844,13.020472997748733,1.797572391642648
73.02391765185381,19.685469321815845,0.5765779081957155
95.6025133676126,47.376515150829746,0.7334246359697022
104.74376781144478,66.3365310526189,2.23337628094619
99.80700245254438,74.51340050860799,3.8545176679088193
81.25055611281915,71.73688648794878,5.42494113712935
50.56814613346675,59.43296662242709,6.680551668315238
10.562172895080788,40.034440905310724,7.376247462395764
34.367015803259406,16.37584404490826,7.4485542777483795
78.30450620871042,8.704198727253427,6.994350406015572
114.53943280802955,32.48977798841487,6.080935808105063
136.8408376079429,52.35435944194756,4.797776724103689
140.89337208897794,65.79366125235792,3.4101673029846156
125.36084350754086,70.6727587768105,2.1971945569251035
92.17326788507013,65.66261141177426,1.353609491235479
45.98076205240391,50.720179476091886,1.044282673836801
6.9840314275932585,27.364332801486967,1.332283918314307
60.170322085450024,1.4539970937886026,2.1876674578871413
107.65075960932845,31.87571895978612,3.513006995488811
144.577905860292,59.87538669543297,5.048310199523874
167.27902798258594,81.9806043535613,6.360880870064124
173.29819070858983,95.74981643070925,7.004979382342064
161.62675527626277,99.92357392556487,6.69659189803013
133.1209432066925,94.34456351314823,5.359910823422314
90.89354884293094,79.80363738590836,3.1274198108019298
40.30072021659721,57.91607804498546,0.27646567845463277
11.757661867537887,31.054041976730087,2.8465975719186503
58.13458873224874,2.2398163429638003,5.843162558691567
92.92389783990994,25.13385004841108,8.372246341959618
112.6080143595737,47.78563884459616,10.20755632351599
116.47152635449883,63.143159305291896,11.212345047317937
106.25790521402783,69.87126984072695,11.35449743917684
85.379150717097,68.12880419211481,10.658479370573458
58.08696314612252,59.455998502268145,9.23627833973794
28.903037801352728,46.32720701704572,7.33496793924236
2.3359766109638715,31.54700039465855,5.230563902450431
17.37400950429742,17.718986446553906,3.2011997956232636
26.744254149772225,6.903813844790444,1.5162408151953426
23.783521267416056,0.47955870641594894,0.30070702333762495
8.714841663256227,0.8606611063465313,0.47680996388692604
15.720918812777077,2.904069400054639,0.891491701576517
44.65299161799928,11.091274536809106,1.089742410662367
72.10832390028867,22.282960863444906,1.2915572483562618
92.35478436829568,34.376946537011996,1.6830841293180816
101.07770999101251,44.78604782300288,2.435880881437987
96.0212114966572,50.81183251383024,3.6144192556851653
77.06228995492711,50.15123350969465,5.006348822733238
45.92453845393493,41.410015904639366,6.2440054137834675
5.797080204005973,24.495784799012355,7.043194368108192
38.99544364657077,0.7948074603261777,7.314444956029981
83.34569700623284,26.93904068505984,7.050409464857667
121.88874788242282,54.98599834432857,6.226507709590044
149.7492598470024,79.28316180424684,4.969613421817733
163.37361537663503,96.14461309274064,3.577889533429951
161.15557868542902,102.9258363191128,2.2550553181781967
143.6208651333599,98.50176072995934,1.0917959908419728
113.14585135549784,83.46322304091284,0.21388273987951742
73.38303182124584,59.992406629025204,0.3569580228374505
28.664560923624244,31.475722517607778,0.7818565541342389
16.42854717241305,1.9500312821152876,1.2302734286375288
57.35270413516752,24.536881748020107,1.8314698895891417
89.90590419653161,44.53995001522734,2.668032996706293
110.68289636371222,55.71958760944102,3.7306311653663164
117.64947333673459,57.20064653468164,4.931600754808769
110.6282139144408,49.713869111321614,6.097458061931483
91.44724445923575,35.463236998506495,6.985081590503601
63.621922173880215,17.729947317667758,7.302978434639398
31.640011565341496,0.25153512092250513,6.797605971236948
0.10816265772498403,13.499686093142197,5.434022118676197
26.961035672314342,20.94633013782033,3.403914859684602
46.5777248587368,20.810874381128677,0.9543627078848063
56.92867630727026,13.244773121039529,1.6793958692319184
57.408545772388024,0.3087850480769365,4.184361090896623
48.67190312077655,17.4354168106108,6.24162561668339
32.658840351597256,35.148382771091,7.687524917916181
12.450751979520724,50.309085784289394,8.473030307512492
8.144769811606496,60.06017394885801,8.636794859966601
25.28994895468803,62.257012503448195,8.28670135554176
35.921028358207685,55.836114769068054,7.504744958727285
38.37862564978195,41.03123203440752,6.3289682479397555
32.66839253585516,19.36363898699818,4.788314879770088
20.307571736276152,6.6277637029277745,2.9234471112604465
3.885092450114338,33.857824333997186,0.7303538732215747
13.46578755791202,59.19730154954441,1.7924913103413997
28.548029041639115,79.8538721836072,4.488796923172781
38.46785168274911,93.56126790956466,7.11143114319449
40.935560658340684,98.59092127842877,9.470361931994475
35.16708131212954,94.67302136488387,11.413336411134672
22.102887245544853,83.12848661620437,12.75272291470183
3.7977573027969145,65.91593006677401,13.322177066195266
16.856478266408295,45.36316045702785,13.124693280138727
36.63507713408545,23.909515001109973,12.26360811541578
52.617745798984004,3.8542268584834147,10.80630582891751
62.76801734497424,12.89897462489162,8.898347909657799
66.27345503408019,25.064649150534752,6.819768714131785
27.400350513787856,42.472509646533894,0.918230800341328
18.226238880051678,35.0452338124696,1.8480696362875817
3.5376923581231563,19.409497456818,2.8996736844446866
15.458069412129527,3.675309278623205,3.9013665462073464
36.85270538020276,32.08776016566443,4.679289128706865
58.31228744391279,62.60814487922628,5.055534484634116
77.33085732546567,91.35064985448696,4.885628227576529
91.38190448931498,114.2529109568905,4.10361412342206
98.12110782244083,127.62704676345237,2.728949770275381
95.60909002091813,128.67873477171875,0.8855515846499499
82.62813368625989,115.95748177668968,1.2253707395329558
59.236272882381726,89.82566990276686,3.343771913899248
27.389750765275718,52.919388058571364,5.1938450106853296
9.311997126554049,9.941715626357675,6.632169867659616
46.663779050385976,33.471152758765236,7.699456483049545
80.40025203136764,71.903921878512,8.493140482807686
106.67000053656466,101.05311638720433,9.068563168667051
122.68917033219088,118.42529105629423,9.45068205963863
126.95351977508422,123.5041745708503,9.663788171754058
119.39964275145635,117.5647577503025,9.739579696063068
101.42315437289768,103.24444460031737,9.673176172543462
75.65002198004214,83.92266101395938,9.33750652901846
45.69103163838252,63.14207335580069,8.518242653805585
15.64702144165476,44.049507411121425,7.06353937946326
10.48776043129056,28.96681468669837,4.916307340879236
29.462654973031597,19.13998920772326,2.0351840164629857
39.387963667062685,14.637771267036307,1.587053380329067
40.056171610161016,14.470754209508279,5.829543718500534
32.94519312599565,16.857467611320306,10.42604791168167
20.8638601724309,19.591103337122078,14.944101099636143
7.339797736990909,20.456961792213928,18.778076158245565
4.067604092320059,17.619721096015965,21.374203523773893
10.424142802852806,9.93858707608479,22.474590315451803
9.91225024416938,2.8576474514548162,22.054199457809226
2.095049769725311,20.134868960653655,20.154467228036495
12.083626488384253,40.44246908020099,16.872807184417958
30.546996184706305,61.72820510515137,12.433466599891423
50.510125416391475,81.61760182777705,7.219784385586654
69.00444205003026,97.71181824395777,1.7060299556744425
83.35764848410912,107.87676604634876,3.640023622517827
91.51097724909678,110.48640666003351,8.38776576240417
92.14579607085977,104.6211989631561,12.205165079554256
84.65674561617456,90.2253681329425,14.859712995966442
69.08001930464937,68.2162322906562,16.182324413994152
46.091718294097255,40.51627036891952,16.200301363174855
17.113515548165477,9.928912219990599,15.131332269407297
15.525998103762708,20.17563489190546,13.226346618987815
48.51711868274886,46.33906296898394,10.793337746359589
77.77137980786212,65.58596114100986,8.176764626820448
98.98234135803332,75.9366172964826,5.587369398180462
108.44888017320513,76.72965933719246,3.050057080319341
103.94486423288272,68.69223889596034,0.5846931114326702
85.37371188973145,53.75478473362408,1.6409962629601937
54.98746157767978,34.67091040278108,3.471173407236283
17.09043854077247,14.537818779349603,4.8730400809905285
22.673709709961525,3.6914502236915356,5.780528394524259
58.26328667406511,17.645483030741584,6.094090236273503
84.2099332818551,25.84958085941058,5.868339212461977
96.45984386637224,27.85362106656009,5.297414749482489
92.98810699794869,24.166809520680516,4.513235515042489
74.12026388711914,16.014510906327857,3.5462057706869614
42.514612041860474,5.003815335369439,2.3733183050953564
2.7753935545156785,7.1798949323316625,0.9323660361358728
39.283746451089975,18.961259563983937,0.687908465692047
77.61979017477681,28.897710082827277,2.2142930235867984
106.99322608195385,35.619838790079214,3.4484425609287648
123.80128432797342,37.83091465693922,4.272016861309767
126.5051882166094,34.45661744938439,4.500594384190436
115.57780701451092,24.962815268368637,4.00321183679537
93.05785200297538,9.70169644126979,2.902446934621768
61.93292152450839,9.893064502841746,1.4414761741915607
25.562175034248312,31.390676575021278,0.27165809352454773
12.69489206902276,51.73832851640789,2.138553140881829
49.582061403189606,67.77750811600346,3.926793183940242
81.94650678615322,76.75188987901265,5.381825075662613
106.80653331653033,76.68545256536916,6.256323508573175
121.56907311009299,66.62535534883867,6.304178019083054
124.43253627268946,46.85082818432891,5.361765005272745
114.84377222125899,19.036967665226,3.4674758281502647
93.81640048293761,13.717244128816416,0.8902155836551229
63.979219510472554,47.14261555167572,1.966249465400412
29.29711796748667,76.45544710694683,4.644548079057233
5.485361702638668,97.33543596500624,6.7897027803893
35.56308307608021,106.94958540076703,8.21928044913872
56.82842711654122,104.61692991880838,8.76107916071341
66.57970339727069,91.82112986001218,8.26424246849456
64.0767757955598,71.56753057556581,6.795333266762181
50.80911526425224,47.35530282598713,4.661940911177066
30.35613635667874,22.24590659774935,2.242255089046901
7.745303647031305,1.5776853505187856,0.15930418949022485
11.626032337086752,22.684275489028817,2.2927505043093803
23.266994430204218,39.94445288537798,3.913319944510318
24.722005341498157,52.18374041708767,4.8182980024374
16.123856058705552,58.226219077527716,4.967551852511687
0.03885528997542392,57.334044278635766,4.537952427880465
19.804861724697975,49.773190721692416,3.775627593669499
38.9276918968972,37.09048451386387,2.8788386668270696
53.88559312510601,21.888672237676833,2.0049447809344243
62.36544705411444,7.176186055950213,1.2907067645372996
63.214756353965114,4.413486883076593,0.8911162398659278
56.12560175062321,11.145113407428413,0.9467266179691134
41.40291449270379,12.273540630692802,1.4569698402542193
20.015016160126827,7.813603543582915,2.235295794968654
6.169599890510491,1.7464366013005443,2.9854361154738527
34.264395018181034,15.525726329428258,3.4369203411580713
60.62783080796192,32.06949155342729,3.5226052397152614
81.53589510679986,49.09236417930133,3.3508555008961673
94.01992546268488,63.46425138327863,2.959448343372955
96.46652865930089,71.67876887562613,2.2703078908847503
88.72080950609394,70.74596169141985,1.2228874859895342
71.73958367557738,59.17713983654676,0.13123624902585868
47.09413358217936,37.64195840493067,1.5975638204036389
16.713926409102932,8.973847145261512,2.959579995676036
16.975363998536302,22.49989856736763,4.112954601121063
50.72803972230892,52.01766727258704,5.029770316646865
80.37093101274282,75.4306408051733,5.642606673345615
101.25939446613204,89.89078344099714,5.841597232731682
109.3216247301985,94.04376355724965,5.594281392477275
102.33250769014383,87.85297137339394,4.950153484291256
80.83487090250067,72.31640102504186,3.9999979402671717
48.228914254327826,49.27945134816408,2.8693885044031977
9.951461174078812,21.37961467243609,1.6396611578750422
27.907392121132183,7.98833281240738,0.34694259202753
59.963609786286426,34.87105036780958,0.9186739035700721
82.40093546837467,55.252008235542334,1.961173099106238
93.20771838488668,65.79579731754224,2.6256414643288624
91.95916178148477,64.61807478104052,2.964147703515709
79.47645504558871,51.80912411263072,3.118710042959352
57.624751496294124,29.51924040922062,3.1609676545723806
29.260542805892317,1.5722855695719513,3.0278279743851955
1.864763409803697,27.279421738967997,2.601611614912351
31.455458245712318,52.232921821974784,1.9357838535992504
55.32313703910937,69.2144895265674,1.2626185349919987
70.18740077355459,75.46855132405001,0.8008221297022786
74.33520384267636,69.92361495665538,0.6113554523439282
67.89248175395113,53.31955351306616,0.6023547480204194
52.67012765815942,28.11975400453757,0.6696342665088907
31.68912413543261,1.817926697551404,0.7141998435399168
8.58524683922574,31.832471140538175,0.6155754912681854
12.911862595438743,57.24749476863118,0.2937749996865253
29.386277026080407,74.20540665336394,0.3260888505062698
38.099496976746906,80.33520519874254,1.3111000260221122
37.877706577677166,75.31709094290976,2.611283936704716
29.221962488449353,60.79196317740565,4.077394959073034
13.696782625177814,39.712375412484114,5.572120050553907
6.193380802552787,15.741557269184883,7.011706511360643
27.32305232872783,7.438773099273328,8.315432939418045
46.451966909232915,26.751456947684357,9.336666557917665
60.81610708739131,40.15548385272509,9.833350003582838
68.63089907893377,46.82979225519775,9.599941304447807
21.334366656643137,34.26246098207618,2.59109130925984
9.931115478631078,32.62325185965593,3.7506611822933387
6.370585940357803,24.696104669016382,4.705490327025916
26.46079621168109,9.989397088817974,5.268148298242072
48.505161372797495,10.884764284951578,5.295451661858054
69.94091878162227,36.17804718554229,4.702724135668823
87.65249764500126,63.12262827098128,3.463500324995282
98.30602966978867,88.18168542212997,1.6257502866150375
98.98191599885833,107.47778319565211,0.6349245124565811
87.80670344053365,117.35195812200666,3.0528930129249643
64.49195812550843,115.02831857824039,5.408409750143285
30.89262804521815,99.3291495752796,7.554733776298725
8.674009412428891,71.27521368347277,9.334344923664268
48.60980820186359,34.069779364846084,10.56694933872414
83.94185898635197,7.6048482119084175,11.151524308694087
110.72489900864024,48.43992114876155,11.098473540523745
126.1656904146977,83.50760095363111,10.465510646650257
129.09438589167115,109.22609549077252,9.350727622670256
119.81069637156595,123.76964394177037,7.832291698557634
100.08072352946036,127.03065690550469,5.8956325563267695
73.00372791920928,120.23166835353913,3.5214443284992796
42.48354180637349,105.39731985149922,0.7736443854829622
12.715977884292297,84.9886536456996,2.18698122544794
12.577863622826673,61.67249702270048,5.122234947993807
30.756397719875785,38.19464160100092,7.772277105184127
40.56313586007773,17.195590494980127,9.90292921012423
42.16666653103864,0.8717676394197995,11.324636282345116
36.84862825018177,9.430550599658995,11.870150160799554
26.662067162414,13.548896338811813,11.441891857259458
14.084530213240441,12.546350208559828,10.130608957014717
1.7303645310684654,8.421544668000141,8.192112817326503
7.870141645446803,3.576155654342911,5.914796633637017
12.545177414790853,0.23075877558177055,3.562096819694597
10.748759653599414,0.04082120828096373,1.4341499532867807
1.8098880545557963,3.979905001935865,0.15088962685680307
13.921398736324997,12.426996822526007,1.0064567548580694
35.092729811930376,25.287332349536808,1.1103732645628757
59.489134920226995,41.96180938765032,0.5916179785736374
84.25779081551065,61.1673630207178,0.3143344828059816
106.16011567628897,80.77023354032836,1.3736910564372065
121.84467053902235,97.85021024720403,2.3184887608743883
128.18850197823355,109.13615034275061,2.8644052940959033
122.74759423378362,111.76780514397771,2.9035775231469207
104.2677503695357,104.13366985326246,2.5726602237096143
73.11626463740127,86.43213369401005,2.070909087619478
31.49762274823388,60.70432885156291,1.508517256183503
16.663500851425347,30.299790589113652,0.9707328813375594
66.1987510094001,0.9883962611796138,0.5083142519978249
111.41569612917993,29.734286430766996,0.08738617162046226
146.89564292004263,53.36597432204461,0.3361602053699024
168.25101245884346,70.24363600187912,0.7885710361742156
172.7641155985425,79.47117818863317,1.329271301972675
159.8366934328963,80.71697624155826,2.1170115901784006
131.18010087595326,74.21304775230429,3.3304564769787293
90.66090956967125,60.94124944134693,5.003118676454355
43.74562667434887,42.83165073541067,6.957081411533165
3.3896257729251995,22.71096515632028,8.830843208307844
44.8792482089876,3.8977964674237326,10.27135962060442
76.06249998676844,10.451009410082763,11.07902878383927
94.05324946369343,18.02386950630095,11.178973493660632
97.91614112227123,17.831613862336553,10.570195486572214
88.5418346443292,10.334003278666735,9.312367080974528
68.38446386968467,2.7462079047435526,7.5930414474213
41.15874285307,18.78270733986655,5.598945994650132
11.473560175714818,34.68522660534133,3.3808569074475643
15.69910692492906,47.351269827817376,1.038408603509379
35.77086322683421,54.1289602848043,1.2742362769491204
45.40650179863033,53.32244763440856,3.4285587623099145
43.27925346114744,44.621718864117476,5.270484671996908
30.407434720532756,29.26723453534199,6.702396176841279
9.910404936604797,9.829225738579701,7.707800277403574
13.721936609206443,10.397759950754184,8.310806509075826
35.61152441919021,28.192295506148692,8.571554989309446
51.42114274453501,41.10708799566476,8.540961766454279
57.99539020831247,47.849049450662235,8.15839315429552
53.7152449496871,48.266655287248895,7.229202662307225
38.6658553580566,43.08553223515991,5.665780061486666
14.659964464089573,33.6110417969955,3.635409355991681
14.91642210307549,21.519899932773992,1.4789179484806034
45.52545160231242,8.723857669011116,0.4023113288226033
72.20873874014637,2.8223523055552207,1.6809731155176855
90.50703699542173,11.451237472202745,2.189810170468091
97.29024605491398,16.172366452507976,1.9976940901715516
91.23089757246962,16.90157345357199,1.282555668267629
72.81931099552408,14.319072509386098,0.13617538201857132
44.02803131787598,9.36263843613331,1.3086023482403257
7.87820315327488,2.5963452322445355,2.845592866609391
31.867810066325415,6.151907377814923,4.2613322998492595
70.87732829689558,17.544274268751156,5.276578919723435
104.50127780318915,31.925483815906503,5.636109559387023
128.30754824757108,48.40228461498431,5.195950664289834
138.87547332484445,64.36920090731783,3.975471681276705
134.6258297788017,75.88076777198472,2.164166893360344
116.29290700748399,78.83877626386466,0.011124163152847968
86.73568359795519,70.47097893893728,2.154034407416983
50.14216587647186,50.412578886277764,4.000444249126116
10.992404172046509,20.916078870010686,5.386021623219911
26.742340551608883,13.841734277542916,6.306759778997585
59.88214730002304,48.932439366248,6.779242758375978
85.88741957286831,79.74458685254204,6.871439644538673
102.625341686043,102.60039903414048,6.704677013862275
108.43724382445123,114.94198881435295,6.3198618626922896
102.61314018524035,115.3579676668614,5.762579581038234
85.99738715308985,103.74446488586439,5.193998056608841
61.29085492451825,81.62443692929955,4.723401928861335
32.749467418277405,52.34014733916502,4.378955444425525
5.272446706003361,20.76645894458904,4.133881867027896
16.763000133939247,7.624005746340907,3.874354416521883
30.387603283257793,28.132518939219022,3.416389851555971
34.35366485105401,38.09950663831824,2.5567703927471364
28.925657849869044,37.522814550687464,1.2866592708015145
15.424339826088525,28.789863027490483,0.23450841219910235
4.121629729090807,15.693493233461165,1.878896538750454
27.061897858336387,2.2306126213825053,3.4556946586800183
50.06983255556425,8.309552947772186,4.726380787044297
69.21435913981671,13.73449181610011,5.593445738213554
80.38405883998453,12.893700565447942,6.1347731119806825
80.05776543533501,5.498104898040518,6.467222272134828
66.20673207708785,7.919262363098644,6.616522811694097
39.015972325645414,25.919227103797624,6.568769460069034
1.1430152016208468,46.13863343876583,6.295750825072583
42.584760947788865,65.53165405783967,5.750609412871363
85.96175456955744,80.92221895468438,4.920203397052944
122.51423508050826,89.69338802304235,3.832834918152833
146.67995611803684,90.30750638274722,2.5609411239986697
154.78038913467086,82.4516657172316,1.20262161168806
145.57372434331643,66.85070231043736,0.09308563499419244
120.30147579463356,44.945676368254354,1.1993201730241523
82.27836345886111,18.66511122270108,2.0976750015127896
36.20196090949833,9.615387967657401,2.696695086942081
12.571048170498996,37.06667758070403,2.8580491009198883
58.58554488060334,60.57426722052899,2.5766248922988675
96.6682505667759,77.20401205337586,1.9033210443842725
122.27706851031951,84.86844386909085,0.9143556130043639
131.99703351513298,82.89002821287004,0.2040871102661171
124.22629988587288,72.18933450225158,1.1716689157612312
99.8569573264862,54.99736377961289,1.7458966315204907
62.56481465308934,34.21532407552063,1.7672575442919503
18.367411347762715,12.762793745957625,1.1234568256826123
25.555419122453415,6.796031674366892,0.17459041259280994
62.42540504879122,22.31125439633841,1.959093388697964
87.26003864457024,31.96592325698567,3.948573938462022
98.02605805556996,34.95180821927615,5.851791060986036
95.27889371051826,31.704424785307502,7.43048389286802
80.94625867479499,23.398319479138745,8.472110211439466
57.826650190169126,11.846668118048548,8.867184616786314
29.25691397307041,0.745412359829294,8.634609047362373
1.0590216040160114,12.194941408642869,7.844696714041344
29.230616027563592,20.82010126875083,6.645810985655075
51.5628003592018,25.782394768978904,5.2626905818298955
19.07462445928829,28.127699028033053,1.9538858633518092
13.561490912331175,19.569447119563034,1.3391478174986964
2.950564243867914,4.733710499727923,0.4581738446024765
12.015330587434345,15.48457841342541,0.5699680837598325
29.40735093356694,38.97699758226156,1.6336977777349067
46.484792481939785,62.59799793036992,2.6293762855071625
60.27992960575158,82.65811944601388,3.4403967274011387
68.1535063565548,95.61385224291293,3.95238794794405
68.23628300835958,98.82333737199632,4.10176757194519
59.62167924370753,91.04996701440648,3.912706933885349
42.39970949669143,72.59602521472958,3.3872223066611724
17.741910953891278,45.24277514386924,2.509589809478217
11.96172199860161,12.131972030274365,1.4523984342454994
43.35304628422834,22.909556213546374,0.4733229895786977
72.54918323293903,56.40153160150311,0.3412864933380616
95.28745386127267,85.45326870124117,1.0123164965986684
107.5127960585756,107.60787498920165,1.5705552955384534
106.43963260372249,120.89504312839853,2.0127778800228375
91.3071217306647,123.88212390478509,2.2087798878440275
63.79457130534136,116.03049116132202,2.05823404988903
27.794545051674625,98.12176294826898,1.6381314786264047
11.446834629328272,72.34384104611138,1.0093689506036276
48.36248191123819,42.04416801465669,0.14262859104643705
78.07182300842265,11.058240343970926,0.9301063464907342
96.99836839781692,17.057976196002848,2.1098197517784283
103.06722664530915,39.58373036884962,3.2910080842471
95.66694523521255,54.85547709064903,4.339783833355125
75.53469160904302,62.14815399259804,5.064332194593438
44.77666182181372,61.515579679483466,5.23398991073069
6.92404921908694,53.74516254873327,4.7240608374262365
33.15292735755897,40.46073166823168,3.5865950950318455
69.67337867191823,24.254712683912842,1.9033658366390054
96.84306047719822,8.546248449301343,0.24055566682073803
110.03237719761118,2.988291030161233,2.667773398625749
106.88560643453167,7.345220272938112,5.157409819663792
87.93989904158435,3.1669413699887934,7.486378797469432
56.50206249342643,8.679777280396479,9.437466304108874
17.830225890541367,25.223431148398156,10.856702568510425
22.10070712586168,42.23354915163404,11.624197247139032
57.78462716568816,55.47183049651371,11.624522521273708
84.97298288572755,61.84030340294605,10.832024474773513
100.98753162522794,60.01754689608499,9.327049878306518
104.66353781368733,50.425522206176524,7.262174886652454
96.16299707545646,34.685782517440515,4.887074155969309
76.85538051781766,14.936928813971004,2.4763113723347248
49.289408411018336,6.648660756267782,0.18458208185990047
17.118671966643632,28.00981561125045,1.948099422172526
15.202106849439168,47.12158323308015,3.9005192486643927
43.029978665263734,61.95451824453609,5.6656369140417
62.382653610253904,70.65657492105295,7.248348371775453
70.7768098549968,71.96855660080428,8.598127224692297
67.7607538443941,65.66817152388913,9.628447171929439
54.95874934534595,52.76145305952423,10.282826788472956
35.585480584042074,35.2716854908904,10.522839053406214
13.595776936586462,15.708445075442835,10.333732638872554
7.230085221758835,3.51640676722684,9.750721535850667
23.976468433246186,20.458635185744075,8.801422721176845
34.87184748822764,33.67840233352695,7.501839539272239
39.19012816927914,42.061204903288555,5.93328888503758
36.96107643927187,44.693607094862,4.197978119787345
28.710110407273,40.98490616023456,2.3626898909155103
15.396924057436413,31.027527822210214,0.5101003825427227
1.4581020212126288,15.976201426192452,1.2445525070950911
19.638313679541994,1.8572548450830082,2.7913748334413864
36.310900460291656,19.358422433227098,4.070450969483616
48.45407187262001,33.33023521542871,5.068159118567009
53.537319247574274,41.28517941925638,5.76390971808308
50.18678265364211,41.984046254347554,6.138454288574576
38.5524011935634,35.55464534987695,6.201771672244981
20.21307536440331,23.24883007427754,5.98913260368214
2.3120945398865826,7.040720705015655,5.558243314943538
26.179822610418743,10.723847390593205,4.963328085477543
48.66624023681141,27.53869467741231,4.242149593848718
67.29225458463966,40.9075692086503,3.454495485648408
79.75092855693259,48.61007482587615,2.6891894047104903
83.9056851431343,49.066702256758454,1.9998812080116644
78.0651047882077,41.70842071819615,1.4311133535879834
61.53968177178605,27.207486719449633,1.0727900062310394
35.22811734853434,7.446402035864699,0.9481477333376079
1.8671045382456621,14.77554239576399,0.9782047155286504
34.285447112587754,36.18694809058016,1.093709366044169
68.27089011418863,53.49366470770769,1.2641241931927372
95.42597472210664,63.77542777049815,1.4417174671410808
112.17390927454727,64.85883530464456,1.5029446525569012
116.38752250800738,55.688662860342895,1.2715487665824816
107.3890892392853,36.669453057253826,0.6145623438994209
85.84830612382396,9.848306724750142,0.444917618205216
53.77850684475639,21.221610278524512,1.7163758547540318
14.638862281710605,52.00877215203814,2.988308625560314
26.687524500556677,77.80456991561348,4.1026244980051105
64.35845704851701,94.54802827690088,4.9464534871222705
92.58488624880746,99.47682652923478,5.439952653348722
106.95993262432599,91.4810782191979,5.5437720179023415
105.6084173774337,71.17612679885559,5.3122447687814285
89.65672257606882,40.82597981773147,4.841353584726645
62.8137179534674,4.165495225369681,4.251737494722752
30.261770001495663,33.94813145603169,3.6538693268746063
2.645399015185391,68.1614773704522,3.0089941891973813
31.37167567636465,93.51569820253316,2.216723793662085
52.6074933587133,106.4082741847793,1.2314381858171555
64.22303659613617,105.3141099028199,0.07251148801573715
65.13245086834904,90.95047218071697,1.1908206666921695
55.34463993417386,65.8367222166866,2.5297362499254947
36.24869224970917,33.525387244281404,3.9197604117825935
10.884422349923893,2.107893034497144,5.296518212000999
16.20089385617879,37.23037948703216,6.528449249600304
39.708696434546695,68.07479655682779,7.340122218254964
54.82479454620649,90.9025999882661,7.458931895435409
58.509338523793105,102.27077561159369,6.789733664386838
50.31246689438824,99.73950214525048,5.374457350614412
32.376504531972266,82.77004340421259,3.2958525365852127
8.658528242407664,53.326839513463355,0.7114300743530543
16.252092411147675,15.742252754622147,2.044295416219332
38.23117613178398,24.244860356054946,4.56992598493083
54.26023858659517,60.912110651275235,6.5709867228310666
62.527890757515564,89.81529229923927,7.906882932251754
62.20684285034139,108.35892127465566,8.564721674858083
53.21250508679968,115.58743113253314,8.542596763721223
36.15907085060241,111.54639344325506,7.850628763858547
12.520633808565902,96.7607156439411,6.614954763200057
15.20386211681346,72.23042178638163,5.047173606402242
43.55153833337989,39.87071870542119,3.3396365380519533
68.51897347607394,2.941026290551101,1.6206087713336892
86.30665371873845,34.024029794110675,0.0067917924068659884
94.1159405646623,65.99398908711339,1.5177836049119169
90.6934199173013,88.69929775010588,3.02832701033824
76.45170845047818,99.77205125687442,4.608885251180057
53.16305474301599,99.21564312638947,6.145604201451439
23.423019761580743,89.0404549906312,7.454512166481388
9.84473693166805,72.30028624474376,8.392081034196709
43.68010319634761,52.06212726254138,8.9023026959302
75.15308272151482,30.819346246924546,8.990644346813744
101.33024927803994,10.479643246359709,8.662061691304558
119.3483736225872,7.29194045983597,7.985638427669673
126.71192777607305,20.79515009454588,7.069928682181152
121.76661723714142,28.40816529082753,5.933847233323624
104.1909650001122,29.08523493958177,4.537868015517402
75.31886883591883,22.962392213173203,2.842486410478815
38.14021293527829,11.668397063643015,0.89015885115238
3.0570030686772904,1.9139845725572857,1.143859280079998
43.29570503273237,14.359373095474549,3.0820065880023346
77.62650860883238,22.575441345872484,4.769283112659863
102.47340646835315,24.967549887779207,6.0415124195922845
116.1900848234883,21.74426048364713,6.858331143976556
118.60071639717968,14.237021812699377,7.299295567611287
110.84681952063303,4.34045303292256,7.411095709026085
95.12201998577093,6.040270413536794,7.205332966467873
74.31907389422292,15.359670139456574,6.699968954803429
51.60210626426895,22.562690582219723,5.903681343695866
29.96094252296662,27.056035801697774,4.880081627310466
22.340486101949832,24.37944982272115,1.9440067335606266
12.707683005844643,21.057889447825993,2.5026300107200448
3.012536966081034,12.391414275509577,3.0080540332786203
23.502458496453468,1.7062687360474407,3.331834014684754
46.241177301727575,20.251120399772788,3.305694471882521
67.83509674905635,41.133816020351794,2.813691392434639
84.55369946091955,61.314270785800296,1.8242491040829756
92.91173113128677,77.27586844509341,0.35962297714572744
90.26715215521578,85.68052263151974,1.4954170784265517
75.29725572337188,84.05203620910908,3.5628053887150997
48.29829503765471,71.30312642451791,5.597280514562715
11.41106240668244,48.043221020946305,7.335768931729282
31.2470297393242,16.665403212417022,8.547511749955776
74.11390639221628,18.976339831235258,9.086558333837974
111.36415605261489,54.30456911362199,8.90801413796712
137.82821977214135,84.74966813770233,7.998079199909886
149.69390241633033,106.33343480012574,6.298345649460262
145.1064788508851,116.17776599753765,3.863135878264152
124.29206306687729,112.8683783822818,0.9938247890452611
89.4458603635156,96.69568534178681,1.938316635448463
44.412965748874974,69.72036287586987,4.5663474080239475
5.816214881447635,35.557500307678815,6.491383646707924
55.57699557878731,1.113680441638885,7.412049518043206
99.0884143081318,35.260880418588364,7.244794713914168
131.04331356605425,62.266780319966436,6.144845293342141
147.2198832174724,78.5685021623313,4.422114601735344
145.1313472217608,82.0412691026235,2.4164653372090457
124.53236558990477,72.14821137295208,0.42214607582044417
87.67002142724233,50.01275316907064,1.3394230759085444
39.153117169653235,18.456441176727342,2.6657658415073584
14.609162230755494,18.064431261808785,3.390121276798124
66.2983578527374,53.75099820159243,3.410829103982516
108.73712002968522,82.15307467830047,2.6250891195246306
135.92139648324448,97.28439164534878,1.038853570830597
143.89253098141702,94.94374448904341,1.0949093406641148
131.32308193906584,73.84664753021521,3.354887417594629
99.76959448486771,36.155933429919564,5.32851687916171
53.55746266199689,12.79804251526385,6.766926842990424
0.7661454196723506,65.51820353782752,7.550229084275149
55.4073381648806,113.75535307938064,7.615268682651818
102.61909434450814,149.9431188212851,7.0276553368421
136.0705494746094,168.35975990175584,6.004011130878504
151.9376523232994,165.92349875258023,4.773488854197362
149.39709706668054,142.60460874758115,3.39571967024853
130.41739723783522,101.44156596577018,1.8307030078290338
98.96853177832268,48.153956043760466,0.15678098273414254
59.96244957453368,9.699981536567854,1.455499053549796
18.30970662727387,64.00905092640015,2.8687822032662496
21.671338343599032,107.59217836697947,4.025215116211453
56.44637028167722,135.49227275814584,4.936332044280477
83.23502730099034,145.71597439001008,5.612361093320547
100.03295432015226,139.20123023951533,6.056443430245949
105.75692656417833,119.11224206542829,6.259836402912031
100.4461859671266,89.81385470317704,6.135295614425898
85.40024098098662,55.91661655611476,5.569484610312643
63.070495831966895,21.663768770342564,4.512465551282961
36.67674125539991,9.329611997165875,2.992908727922871
9.706778897804735,34.16024309133144,1.1682022955295364
14.537066473787275,50.72473477559735,0.702490650331836
33.22088456643659,57.90090503823423,2.3495954423679892
44.090367865338266,55.73815604319803,3.4558648334157516
45.576901165104914,45.478778814097765,3.74146729081051
37.03781788266312,29.31842928720107,3.1839226693829774
19.11927228741213,9.96842178829432,1.942842441058123
5.920448036755459,9.804189316690337,0.1915008403578474
34.188606406143236,27.489243446848068,1.8003872506639083
60.60908980319389,40.93907868814911,3.6576823805669147
79.83736855406666,48.343683541539384,5.050990679656471
87.43761985776284,48.26238494442312,5.689823008522849
80.92705263230529,39.846433510869,5.347798012433591
60.34517305518393,23.202616653711367,4.061815806800979
28.24511483358619,0.2811006934033367,2.1300532135238215
10.848654538361831,27.874897575498572,0.045846371629094024
51.32372004520124,55.84929747626732,2.0549708063553194
87.40874109049999,80.1487159006751,3.565326071000528
113.99061271224721,97.17125756185942,4.329673273465557
127.29507109712071,104.40976563114354,4.2271026336282365
125.387202118836,100.80202068365853,3.3487106063385634
108.47426025657698,86.7704823543207,1.9408048668376812
78.98447171891452,64.0346577979078,0.35255308459767487
41.32186761446232,35.3022716037131,1.0690958592323927
1.2452456451153124,3.9092150935529455,2.0916832867420805
35.06748261647455,26.57618299227145,2.534884577052287
62.09291883358054,52.8012601572601,2.2874741751327043
75.93599883920568,72.08497136641488,1.413147004507919
75.00782837952764,82.78555801767678,0.11538167305445522
60.256890717656425,84.50008468323803,1.3999328269521154
34.92063533357986,78.03140392651021,2.9107616127023577
3.925708608703607,65.14005420710043,4.098870604392547
26.934470710993548,48.195589662501526,4.7668561955871835
51.94044213829058,29.81810860428547,4.972051822768843
66.34980344991864,12.555050791748869,4.8231387833092105
67.14813957123637,1.3889506222192658,4.3731580656406015
53.576991862424045,10.40040510754265,3.6241291868262873
27.32426079527174,13.683625512776931,2.5745806837772465
7.718141881717291,11.403427587038092,1.3140751488712081
46.12438613714414,4.6687315853143465,0.022692616355469954
81.89745850496078,4.697693777049973,1.1090731821461455
109.50021949776566,14.548328509395613,1.957012457085489
124.72943724769893,22.817218800219244,2.4505202354130176
125.24841870593376,27.83387043911206,2.5970789968324515
110.73403421192201,28.47687290945825,2.5082162917361948
82.74004839353769,24.17673477518004,2.2778272585306363
44.40756354308845,14.882566748855137,1.94477198173518
0.13309196131208784,1.0870717225045805,1.5504188938535266
44.814404858289464,16.094882972261576,1.1675011842891134
84.83530429120188,34.86735186289747,0.8919211181948337
114.74955859302217,52.832915413417275,0.8183880237045671
130.6793795363701,67.3005625760643,1.0194086785447396
130.84239649051432,75.78407591144949,1.456687069893245
115.95821077226407,76.53557920790993,1.971986636616233
89.04880463419886,68.93309178796633,2.375079752072074
54.660258762869326,53.604340984319826,2.535558373058006
17.792864049682965,32.283116403381484,2.476496926366238
17.057259199705253,7.492650708738197,2.2939049722427205
46.40383768616258,17.813504746162906,2.0405020341788727
67.78454877283828,40.56105212438575,1.7429460984950074
79.54251158890247,57.824534035986744,1.413760825062192
80.71071223225925,67.14177760242167,1.05144186853946
71.22252022529952,66.92764082019168,0.6066998052858056
52.35802513798729,56.94573059674342,0.003215735983243802
27.0603132035423,38.672343853674754,0.781353869464245
0.26608232353588973,15.295939362919539,1.6428675846940255
24.637326112752795,8.808601298596844,2.4854101267527677
41.77706701564137,29.059541550032193,3.225761064201862
49.236647347768155,41.824386726024656,3.865334896140071
46.85487851099958,45.33158654827815,4.525441240133329
36.374735009659595,39.98309674729733,5.271200263414518
20.481050761523125,27.999133243753956,5.936161392903593
1.8359435458586282,12.595432710602962,6.210000660540368
17.37415219138708,2.939794279946066,5.775848297244944
35.24387192466153,15.913571612477794,4.451834259277449
49.636293051422534,24.48689778551733,2.356606883940712
57.92571838524326,27.62768851082893,0.13253266362490465
57.41440024155253,25.018094568735844,2.638201519633024
46.3744641431513,17.09972012551848,4.927484811519173
25.201114747690568,5.246487187803657,6.76107311149239
3.0141501909029516,8.146690023164677,7.849934802744549
32.94610829134038,19.946480603252244,8.035938071758107
58.443155987508696,27.020768893448285,7.314974507306894
74.28519377980133,27.22753545522221,5.77153403647508
77.52976053142201,20.215233330311833,3.554067860625371
68.26359145535451,7.6511906371465646,0.8641671511364817
48.870879412034164,7.564325858515353,2.0282083033694938
22.631189495276224,22.49477114343012,4.770305387927506
6.941355201542454,34.95126657798121,6.982200406213923
36.452150685742616,43.86718896081255,8.377540742679464
62.72825946261033,49.18067093664542,8.816937261434616
82.89899460871669,51.36696218014212,8.349257472468071
94.65999019155136,50.919060698097454,7.228556487640288
13.78501862487157,4.227314664853298,4.168274724547153
8.898229993171446,0.43773822659580525,3.773514107470951
0.5497880693571496,7.75164180495573,2.7534796048256442
10.66389053963197,16.777054840841988,1.0597701797133359
23.55629891219134,25.81375525363654,1.1869199619713735
36.53015510606696,32.86879388013466,3.7402238838876056
47.75250765150841,36.21545073423981,6.291909834358212
55.27075849447573,34.76675859865939,8.5215994770119
57.192828493840835,28.18493684383724,10.16729119244373
51.93332482455808,16.734625727521962,11.040394309078543
38.60119872219089,1.0856861612406452,11.01692438811171
17.53665643581017,17.702558040383323,10.09921331790777
9.240760758900416,38.018499929670504,8.476501487592143
38.258890672440415,57.730625707724826,6.418793072946707
65.33245644807094,74.33734206300741,4.08317572952667
86.13663855697429,85.02192709244329,1.5308463142944695
97.00774897064564,87.20227081965825,1.1208500370782266
95.83167229006867,79.43086994877252,3.6506385672301365
82.35614419345379,61.911734427406024,5.807971919247865
58.15801148777282,36.543756837147484,7.421811341518476
26.28020924166332,6.398605014975217,8.411785680489297
9.306912020835178,25.09821732292939,8.783345906569256
44.14127562948568,54.79145478786857,8.641534423216934
73.74389980587128,80.09272872742372,8.160174363030913
94.07270853482002,98.90534200894251,7.533194574867742
102.0332533854706,109.45618037182768,6.848538745269936
96.03320621728105,110.32647975448187,6.088773717255261
76.35166121402312,100.73414292017331,5.275872792077724
45.23364751388127,80.98512262469666,4.447367139752904
6.612674247541931,52.8003971780163,3.6106290327625077
34.447833798539264,19.294679176985735,2.759265785005908
72.44223930333125,15.451428331690947,1.8612720756873915
102.13340538269102,47.09814458955806,0.8756598406226256
119.18604875420138,71.77402429091293,0.25637256050284657
120.74141801280736,86.64288065125908,1.607250434803048
105.91562505600685,90.22749693120252,3.193061878929144
76.12699616792538,82.51751824857526,4.910274385114392
35.094834881204015,64.93613833215989,6.571660089350403
11.630283883333423,40.19467911775027,7.9392540416746895
57.58401086205518,12.002650096941691,8.668712010171552
96.56243650190368,15.417626928292721,8.46924828040123
123.69610107902095,37.99285543050691,7.313612446725249
136.1123637649666,52.50911303651755,5.407780682265606
133.10284781270545,57.17969833135628,3.107273838588574
115.88643513955364,51.92107590054972,0.7100578943655913
87.1840530958178,38.28010471336108,1.6344720183183576
50.82356980682488,19.052055676734486,3.7361967183225175
11.422110070940835,2.290396229868657,5.353264492877729
25.990135138671445,22.207547056099358,6.337824451935162
56.550223015792966,37.6332642371112,6.708250402974854
76.33273151651814,46.3996637057832,6.560281676448053
83.12621528808529,47.508107686027515,5.959571415540498
76.93230314702227,41.21421517318174,5.023292374452439
59.95322260111745,28.920389558901466,3.8826933308629066
36.04355497123597,12.89561971329036,2.5915525533350956
9.8356931465089,4.131299827981774,1.2191750304873945
14.124546967073421,19.4339110239909,0.07675154067388996
31.993716222708073,30.706583722292663,1.1306507904602325
40.968215663867696,36.375386917994796,1.9475426882848437
39.441139486686346,35.775877373869186,2.622529410644269
27.143351304219635,29.19167413163198,3.1890665531219584
5.331137759633631,17.782171309262296,3.7124835764108917
23.12749803974888,3.400521322672259,4.217454969242963
53.944228892446496,11.688912088800512,4.651436968198303
81.97835214667602,25.1510838948994,5.000585162031809
102.12986835379162,34.93018735314627,5.204618189162153
110.30643098344133,39.52717833858875,5.168990137296305
104.18938966075574,38.157717372637606,4.896383537050937
83.63037582258355,30.79636944347441,4.486022223502064
50.657729036237356,18.137307634372647,4.024819397850724
9.184830528208279,1.5269835901051418,3.4950574184775736
35.500660416764255,17.099892430385747,2.8523037604255275
77.43295876225976,35.31249305897641,2.0508100884798584
110.82072235785758,50.39828425373037,1.0055160285820643
130.98061999336664,59.76261206007153,0.29856324451217714
135.1985613282014,61.46507161628762,1.7108807828690389
123.25871156816206,54.748925650877986,2.985557009732133
97.40239152391185,40.358083969622264,3.944828232322531
61.7288752645737,20.476322664320243,4.490272186297276
21.26526613153544,1.74295382679868,4.588534848399554
18.960026484945825,22.923359280105142,4.353677622262188
54.530488803337676,40.20704736827261,3.9420959133013036
81.87399201949908,51.732248376455544,3.4492826412913145
98.28112311701443,56.745122659563094,2.96073100970545
101.96126225263518,55.39852456032769,2.5779129389205524
92.29757599337711,48.430774550009744,2.356999135920512
70.22129850001029,36.926412496412624,2.192928018078228
38.44201149735071,22.247986803437033,1.9084416700063787
1.2586223775250316,6.086817443269206,1.422401498189322
36.12834280360888,9.54368776579247,0.7453853634683701
68.60247951103526,22.51429309852128,0.05083378596723937
92.06740510050344,30.98467763166473,0.8827365973844863
104.01927967198124,33.86507635781804,1.6644145676866882
103.64080873832495,31.10613497421952,2.306579327228804
91.53783507498436,23.67062807030798,2.806288096060144
69.38197357403008,13.207648004513935,3.1973068577169794
39.68699797116429,1.583177643541801,3.391859060990137
5.729640168549892,9.500330522174279,3.1927367501874024
28.554377717276836,18.651127721803682,2.4801584977481963
58.88671939674568,24.73429561876596,1.3280017041800167
81.25559935822423,26.774083356880336,0.08630700350260326
92.69755019369899,24.002843520401978,1.5852003328963027
91.95928612642419,16.109072155705643,2.9725892020987383
79.76666167292365,3.5660166766341796,4.047340774081916
58.617816434606034,12.160883052702694,4.735819292744034
32.20244586241701,28.70957854363141,5.132640600980222
4.672868957229087,43.25651351179928,5.350492567609567
19.99166827456868,53.15964826814456,5.383865217268399
38.43556413793533,56.55224585731673,5.110962507933573
48.24330978976229,52.67368754651012,4.430243878756125
48.21127743472905,41.899267467293974,3.378916083185055
38.613979944632156,25.537173582873965,2.043148258435659
21.35608737350483,5.535235509536993,0.4866998097357652
0.16863278847334856,15.765328962892497,1.1237622348757015
21.628320261886653,35.809150130395764,2.550105645231969
38.68329271819834,52.012105104331106,3.6808674425907166
48.02589956707958,62.04380413872052,4.528223636791249
48.149672259723296,64.21954733622768,5.160940269145348
39.57837994518744,57.90151567432671,5.7142893853333785
24.491964021538763,43.74807264642012,6.329554437029753
5.943221830719924,23.685481253191515,7.037893905232575
12.960277144870837,0.5810412398676882,7.746369652875905
29.59261704718518,22.306068147922957,8.380236623331838
41.97213013708654,41.903161367596134,8.864684255047672
48.675259674427174,55.723184149126084,9.012165870430541
48.757572441698855,62.02392275534448,8.642186211747035
41.86925922815124,59.77918515422245,7.593923170882037
28.52700346117368,48.61134999019354,5.677024276813294
10.343859866781925,28.874405577415523,2.863297042237856
10.031236437774297,1.910486237956518,0.6168127543718002
29.384678611477362,29.650127129740213,4.417348901833632
44.674339511539635,61.763332122701115,8.187215112432028
53.72493533996127,89.30806780923115,11.510681106702009
55.569120448436735,106.97911913617145,13.935583616657569
50.3034924040304,110.52748109322339,15.115909282789882
38.64214950392363,97.96754985992199,14.819033249594606
21.516344701023684,70.27208403046798,12.998738196311733
0.0071593457392422144,31.25116810153706,9.925930080536547
24.454124622825166,13.31934330887381,6.109185392380116
49.54928128758437,56.996072647383954,2.1121546740809443
72.06162858947471,93.92488756406969,1.5471716840329306
88.16659606556708,119.66319298613101,4.452304377849964
95.17333083064962,131.7477893474533,6.368963322805996
92.39308629984195,129.69678931813303,7.240243008462613
80.66562426390753,114.6824352746848,7.091916099212299
62.235431056471356,89.42485546681587,6.0657631864491135
40.23299532099863,57.94065690641354,4.465251771378398
17.944112473240992,25.0388103942147,2.628517502615292
1.8624252865912971,4.45405830795873,0.8168403581504251
17.33033402156455,26.62059471329782,0.7465883670068004
22.41627518312575,11.824656153644485,1.5707406038315443
13.879504605718283,9.505522306960538,1.4897892115635922
0.27000172721194726,4.438408052608102,1.3039437322438563
19.177407061678462,3.0822036060018982,1.0699042261858493
40.8548921509173,12.306582587370713,0.8249693514234429
62.37620138252352,22.10984410117944,0.5521562270029718
80.33918045300318,31.07733219724395,0.2442888947891583
91.40833245420308,37.639975461664314,0.046961192847874325
92.89030697885377,40.291213139553406,0.2767968223800701
83.140274442362,37.88035451801906,0.4773729784361791
61.817390397763106,29.910856270970864,0.6859686096067933
30.20535541667417,16.755544947477883,0.8883587139885282
8.46276495048497,0.25086602504251865,1.1265537765371154
49.49441479084983,18.892788428359804,1.520979103326956
87.85261165477333,36.40987696972366,2.169007985443646
118.67673512350702,50.05047213426899,3.10607900845088
137.77706821087637,57.62772162959776,4.2519323117607435
142.43544955991644,57.891083884943086,5.364158923429568
131.81932777762654,50.672255072843065,6.161367517924283
107.2200969139627,36.85864371945739,6.487507771089071
71.8871320607208,18.272223468273477,6.303189701069991
30.383818983511123,2.534164868269325,5.628293457460533
12.122343466030026,22.587558089033397,4.5386226698716365
50.6527675481494,38.920568981273135,3.116567730974886
81.00603439876318,49.079840617148,1.4567072217449515
100.11043370330317,51.57484360057012,0.2712093153737894
106.27804086148473,46.106602632483025,1.8539522663124832
99.31707282040414,33.531987412431846,3.1253882543737577
80.61118566199248,15.619064189451072,4.048628957686601
53.04622365707647,5.280909592150928,4.655426018729161
20.689098031756306,26.527455085430628,4.941737647902518
11.758938872374658,45.417728069137695,4.947020237241201
39.69116107585662,59.384118824468786,4.815456382850512
59.30377684677258,66.24555611681829,4.746311755959023
68.12144804912279,64.53818751792984,4.903007822031978
65.24226683757816,53.84652029200987,5.29724755085833
51.30829049283041,35.01430380320524,5.736706092528445
28.29152629253653,10.119171391237618,5.911212445575463
0.8212189770640338,17.813390223451147,5.692109103182093
32.342427006150785,45.26938979716973,5.2199373850126385
62.2063378106348,68.75607983721929,4.58899135305952
86.35465103765608,85.27424892949058,3.7225364831153285
101.17330254603631,92.71681012019272,2.5290799420251866
103.98252394742161,90.16657047947612,1.0885563341298194
93.51669530967494,78.06657406157883,0.3266565700095678
70.26981414253288,58.19620753817138,1.4508831090723417
36.61856045424499,33.366752746741575,2.1412611916719553
3.376466465710717,6.861028504601646,2.4408658300723824
44.51362662023016,18.228228855933896,2.5669677403848365
81.24014632385176,39.5295508188423,2.704348747020082
108.54712856932936,55.60348606430136,2.9296845095226254
122.76790508778114,65.8057251303089,3.271672470238518
122.1088204963495,69.95371310758607,3.735532308820491
106.83513351694381,68.06257079224201,4.284511111545374
79.12750636103743,60.33902861362085,4.727370043372491
42.71133895194859,47.4187577880163,4.737199916372112
2.3666747539917474,30.65081331742058,4.068921433256083
36.623275895797654,12.15128241836951,2.760636142522291
69.1002936588191,5.52326141110495,1.125598655976257
90.72688565009625,19.976806160548392,0.5672766956429999
98.6736055333381,29.55833559986345,2.2605094752260406
92.18070076500848,33.637207141411366,3.8866565877917503
72.78713982928413,32.47423750928733,5.242167593778853
44.0849800431981,26.849311911396512,6.066667641556848
11.020452426577888,17.751838675041462,6.115698102354246
21.114222466188185,6.3619689689332635,5.2809060288557115
47.689530213865865,5.723968042235271,3.745665235271958
65.45977702088331,16.311725601683417,1.8849950387996202
72.88509209290652,22.80302420833308,0.029504057163450607
70.06586083605667,22.886154107342904,1.8549404527341136
58.43517458106236,15.48770910105612,3.466844379819832
40.38042987358823,1.5127585740138791,4.810409753222845
18.87826718818552,16.089847904936587,5.937214764480786
2.8475736895545722,33.08273934649634,7.0253757993209085
21.690153791272472,45.21810730600082,8.265227497413175
35.058940232444336,49.49112234796371,9.624990104389433
41.24602589458989,44.8357661021194,10.919265037575864
39.66573507778393,32.049024497531185,11.966023827057228
30.918443229451206,13.170090830334326,12.57162436548061
16.66308131928712,9.241042263548321,12.518900967388847
0.6550897657997943,32.54207962475533,11.564356000395513
18.127705030240165,54.06049507015305,9.535330551390201
32.7379543052878,70.99042563310866,6.428303328648811
41.74958270154134,80.49050863591698,2.3039198454377976
43.1018294438921,80.16704136205401,2.679510565977529
35.78635449965393,68.8109656782844,8.040971382720912
20.12075919052937,47.03614172202693,13.081379306179194
2.198581597960581,17.44530970748779,17.25064610828045
28.313465320144445,15.841692778252797,20.168185038812446
54.6603774066576,48.11176110421555,21.47216663380346
77.53895413056925,75.03127181323728,21.016305850766766
93.63079593005922,93.30482669978119,18.989233794752025
100.39507442423324,100.88936078369099,15.73045043405849
96.33646159449427,96.91309889673956,11.652571645345372
81.1774782313303,81.5653408052126,7.197410065658581
55.98399444448988,56.13604777959709,2.7934231908033267
23.192939161283995,23.180848158364448,1.0974849178186459
13.5638242422251,13.413829295874597,4.079255150196685
49.868143196610326,48.725575244401625,5.960836253506972
81.14738126393127,77.54284632717895,6.74777273167516
103.4270232578623,95.40725591582847,6.620619062182693
113.9752969059673,99.60810833871177,5.871795603839064
111.6774844987341,89.7564626857278,4.835898834516956
97.10857066702202,67.75733092097325,3.8763208848615562
72.34408366322678,37.26740282261962,3.2664569480690067
40.612313647132936,2.87252349902897,3.0965856979043935
5.893345921286701,30.736772771009697,3.3482694497436056
27.498425060525943,59.377365070790134,3.9038743836227026
55.36463103427175,79.72667384469645,4.5416736479479995
74.12260545675811,89.51631674328927,5.1418857859959015
81.32227450059251,87.67113217121434,5.745277480187214
76.08741475053228,74.42357125196581,6.293863768996333
59.35604391372152,51.39173177312848,6.595209803508465
33.81418722739353,21.528759846957882,6.506351683800972
3.506621922762955,11.165486695095252,5.9730947512886745
26.793241875934633,42.17063987604371,4.999854018836037
52.334748317471345,67.13881563748636,3.5833997733234475
69.14072739224396,82.61392151408644,1.7310676116480377
74.63972992622007,86.5911143404098,0.4597702643056338
68.08505971659761,78.79021099434605,2.831785379881005
50.684446721984706,60.618480123020305,5.082227990281046
25.39664233745738,34.87613983875299,6.703037189341428
3.5903071355302822,5.301812718548538,7.21740685951854
31.62012906225507,23.93461831462487,6.45088577322014
54.38743030006816,48.73413609584262,4.526372406290082
68.61211169676636,65.54272186937625,1.6911709461407587
72.44312466784353,71.80451682715264,1.653355012076315
65.52323761338118,66.40419929600864,4.9601456127188515
48.79787508532916,49.99447183901238,7.707748959233265
24.259762584628373,25.066410984004282,9.414827941058663
5.270923671742457,4.33270575246069,9.720796959299722
36.292524056026586,33.27400098404067,8.472876299795526
64.74975657857958,56.888282892611976,5.698570282140378
86.32026312646214,71.31459329861686,1.662183750092751
96.96784851625726,74.39368703521106,3.1637510085287794
93.73577132521336,65.91908730660768,8.154418249488247
75.57835609905517,47.43037402603673,12.579554575839651
43.89292053571785,21.71401657405245,15.759789937553313
2.489661170364436,7.773333691076921,17.247172167746243
43.039821077367705,37.39745442127261,16.953455975736176
86.36644048937805,63.677496973173604,15.126208239152495
121.56023945251567,83.50761327429497,12.233398917680475
144.5630149379982,94.9356340529475,8.788037556167378
153.5247516669469,97.5616987942273,5.234225537913854
148.25118783104173,92.19960151070437,1.9605005759091332
130.19695614471144,80.66239671231268,0.7942170120470804
102.31506059414299,65.36172338658004,2.9434123476957956
68.73415300231878,48.80509847253401,4.413747119790534
34.20633906744519,33.12915649718962,5.157726820784044
3.371628066400965,19.789576892870176,5.199915112243968
28.793800310044038,17.875574103122855,4.566761287024649
27.959118927244898,18.53397249025464,4.359169275070963
20.060785690734182,16.080222152994708,3.5205534222435437
4.951918016142709,9.813231142713036,2.049862898811363
15.602407227457446,0.4850432965378007,0.04336068237114899
38.32439566383414,14.29837660866477,2.6034714997347974
59.269390868152364,30.209745932783036,5.324677991097057
74.75482600888279,45.94982262506958,7.832450875674851
82.05722805246123,58.69583226699552,9.693234880874932
79.74928800082961,65.61111648974688,10.572335098970115
67.71881918488562,64.46319453628429,10.418505601013234
47.023810467616954,54.143612188085164,9.420279036817076
19.76666575565548,35.041659952347125,7.901684296125008
10.933201185920934,9.280434221958783,6.180613728834894
41.07954842153542,19.54392015872308,4.415350148240458
66.35623953168684,47.21257834007869,2.6704257957332045
83.0556238866986,69.64623732269419,1.0045029509509837
89.04935410975146,83.45332564758475,0.6330992127458653
84.38500046701887,86.45643564550271,2.3847233284694918
71.16717473302059,78.01310808915514,4.286079481430613
52.76835479084112,59.19072510539884,6.193300378615265
32.74659888929125,32.73691514070612,7.86902484954796
13.935309528067835,2.7234823841806537,9.163328904060746
1.9494204322861441,26.062863803153725,10.096382259287084
14.170330407243082,48.96137522493021,10.656791572681652
22.545596759906196,62.30578771839574,10.64433579442879
27.063469016845225,64.11167336719576,9.7552678974278
27.752532330475507,54.43648926792733,7.755611262507793
24.77791625646301,35.300917082841046,4.722418386749017
18.594921139613383,10.240053281999451,1.1360776563951707
10.006939793861834,16.402389162261528,2.334171276265639
0.08936578989287405,40.273985398433815,5.03473457188693
9.911533418942012,57.73723634841912,6.438664931165842
18.596972562150775,66.36882985104599,6.307059405771341
24.3852404310517,65.15386886736988,4.736448544472513
25.583465179087224,54.43066845845099,2.037681352128565
20.70238411383943,35.659103017639964,1.2927916520248992
9.015906216563847,11.126401334239771,4.5668160714684
8.836254952172153,16.300211556937253,7.107893855211716
30.547621598046117,43.36966195320225,8.450564862794664
52.407003758391035,66.66134016120982,8.34328043140494
70.11981194522329,82.92328661402163,6.694084380596317
79.90642087899916,89.54891706866249,3.5634889968477457
79.4197224043403,85.09815687141871,0.7415582479812893
68.15212223044836,69.70045250077989,5.563203906848302
47.31757189299751,45.14275839042657,10.009574730265449
19.409309322463237,14.586967090256062,13.288109447283153
12.251245872484658,17.977690041666303,14.95108779920751
43.777123748354214,48.373312103428006,14.878944528263215
70.89445684638173,72.77732760092563,13.150843228406783
89.29178301068944,88.08771614377967,10.017115928381422
95.31823246884991,92.16286947551514,5.916891142008596
86.95332515026416,84.05829740982996,1.3755188423612232
64.68173895404414,64.31456353973563,3.078537290771064
31.799978662513915,35.18674657235119,6.887345485942745
6.128502918719233,0.6172411322227708,9.47802479352989
42.54909885612949,34.2090980163116,10.439635202941798
71.44761512740281,63.75801248023511,9.763595920834742
88.57142147979957,83.3022799422055,7.755642915566712
91.97256044792361,89.9706224874748,4.767711399060214
81.86597301546291,83.33126135134975,1.231075830339434
60.112479610120005,65.33362081802295,2.317086247556644
29.707388315166423,39.676790795893716,5.385799013316979
5.524353920718294,10.884817026769186,7.551433319631566
41.0968264191317,16.588151932892842,8.459874227032197
72.1413407505895,39.01188902933185,7.909850849518993
93.98924750921559,53.749514058705984,5.914974711108068
103.01838073560528,59.40636224461675,2.7490442201062963
97.47122852881209,55.848336707378984,1.0493311285420583
77.91255893082479,44.152255026585244,4.778390795600797
47.16707775194054,26.454673445394196,7.720021403035203
9.776569090185031,5.65416493783188,9.253812555101627
28.812708961146104,15.002339771960662,9.066743334931932
63.07616512162939,32.38225430385567,7.282344616156774
88.11260246558635,43.878516594136734,4.343054094222778
100.23050877837134,47.695985039034326,0.8755775645858911
97.47837478887853,43.00429537312392,2.505226483864279
80.05607400776536,29.983317552846756,5.306560776263316
50.447318181590795,9.808988019710037,7.108362613707791
13.126919674407398,15.408633956693896,7.635219772468297
26.211524756169347,42.76040228136134,6.758696699931072
61.70724382940081,68.7851173384917,4.49914649827447
88.3358982130593,89.84728913419335,1.173241528530028
102.60709121221846,102.59626704278433,2.6126174054081495
102.82992527072064,104.43077808475192,6.14204308910907
89.05802934546128,93.89799019638681,8.853492930724686
62.93611745245593,70.98347238810518,10.46216405445375
27.58669869564953,37.28025943929081,10.883898445568033
12.512536793701088,4.0039633343758005,10.186829719092323
51.87372292204997,48.276616171002836,8.527083383556265
84.72986357904139,90.08828160908018,6.168132193173936
106.09322823773715,123.95216284380282,3.4473809330787155
112.82433118421126,145.31336408501244,0.637602449270863
104.32138564821905,151.40106252385223,1.9960062212027168
82.54880327342882,141.69680253740742,4.220310459933743
51.37611359377373,117.88869550589291,5.934769507846028
15.569375905150654,83.37402320161145,7.084880872505483
20.135892260778814,42.54033472204522,7.577453222731628
51.61619924178432,0.09948486277141755,7.345887052721716
75.5513532669872,39.37523620452166,6.50724597479419
89.45323831101989,71.73837556441279,5.360063558381543
91.78142991970262,93.54951961772396,4.267107193829741
82.22409070621447,102.49320286554001,3.585047433366866
62.027837492069715,97.89614068361124,3.608529005382299
34.091357998873,81.10087014179861,4.540553279754971
2.6276779202658287,55.429186288583224,6.317968600167701
27.572681904101078,25.60905752751939,8.46826196836071
52.05751024409105,3.207803624577074,10.307146456540206
67.4931429436397,26.482680474976732,11.19934838498199
72.08355517386329,40.9962638767833,10.704273568715127
65.6255275707329,45.07000170584013,8.6456940153457
49.36461534996174,38.43547046296102,5.142244797028443
25.77734258145467,22.032317200874,0.6088644408073474
1.6750348121271268,2.0400976817835774,4.382749119263032
28.854540264313535,30.429949804314838,9.265702804612026
51.4464829496947,58.566972897392255,13.491625392810825
65.66164266494233,81.15814601456631,16.54372399548336
68.96747501534068,93.2212564033838,18.04124281751299
60.62981941525259,91.37350372188911,17.808056852041695
41.86459035102083,74.88731643379487,15.947772506559549
15.549825247726636,46.00709171548378,12.87527575000041
14.36473659759239,9.341736193025252,9.154881094235645
43.533267747844555,29.378218846947796,5.366511416312113
67.78727072934669,64.64284098998696,2.0157861769509946
83.5541171009336,92.09801319782605,0.6160181116956643
88.18814932775447,108.87465147497043,2.510371756860122
80.3048186653731,113.49487307473811,3.774587102270305
60.110574477141235,105.69687146784712,4.463024598342085
29.600951532387686,86.43285717318744,4.631332199774501
7.536679546329817,58.01127437871563,4.440092052538111
46.41696798807774,24.09453524621059,3.994990807924388
81.76968207947193,10.69840565753452,3.2815522372333294
108.83665911446762,41.59677726196984,2.315125545949578
124.08996668243299,64.66351304258286,1.2309086314157371
125.59409041632537,77.55095434385875,0.26623395487366974
113.0083179695573,79.68432735288853,0.3173156061657022
87.37912098199317,71.91674019253762,0.3231910006704869
50.91782119074711,55.96280222794044,0.3246346637626763
6.886582412884507,33.931896724137076,1.601087838314221
40.46145875793169,8.190232535968295,3.3943201817844466
86.05975040503267,18.537510348346686,5.458540816173691
124.46965154643199,43.13514954727388,7.390866548612018
151.47711755829567,62.96232834242234,8.774621633763493
164.95646084057478,76.32406986190495,9.3386151064958
164.53656814992158,82.26350543731982,8.979971011479416
151.62397324592988,80.79932653236894,7.757913561827171
129.09765512121524,72.95555168617314,5.899285799726387
100.74836722923858,60.51971839946719,3.724090099797563
70.59824151509645,45.623573833876534,1.5259762812354296
42.27081670431123,30.32915554499118,0.40711773365423004
18.212570698549985,6.1972582391181135,2.2325705687339803
14.040655238137878,1.8861827863541778,4.3268941441463245
5.4685975202601,4.14077493851943,5.897016544783965
7.313468622258446,11.338731073918256,6.516902037780038
23.185798104930758,18.838212358491496,5.88683735167388
40.13002998949146,25.556559163217543,3.9116068931627948
55.51135499287607,30.386290578910813,0.6970645523489367
66.538467469212,32.35703745620055,3.4718178912593767
70.79093967428946,30.743341763001958,8.13274779876166
66.63348310615615,25.09213742699526,12.63961610462737
53.419638106020344,15.264027987436057,16.244614229564892
31.590567652186266,1.6396148420738021,18.28439842861133
2.7844402493757263,14.54424243631805,18.209213443457735
30.24085535902055,31.246494891899356,15.661274756067831
63.94486773907481,46.092343869626035,10.688098522922767
94.25012926865293,56.673441301906706,3.7933113268104273
116.78839338390813,60.903228977759085,4.116219648186783
127.46095067687733,57.55365725937949,11.949286711428298
123.2035379502916,46.560494911753004,18.77390887552319
102.83458127738662,29.086866919093687,23.955602586830537
67.7117029524073,7.257946764214536,27.13000634789516
21.83024751421952,16.328815238751808,28.1865023659692
28.697781939025063,38.979777488093106,27.268349972639655
76.68832997773481,58.11319090901912,24.673315703800647
115.15957940033341,71.28796910363245,20.740696642457383
138.47952938658585,76.25799505645338,15.85834038768136
143.1848636059998,71.289387936835,10.442886133839679
128.40309526718863,55.732168137698174,4.888271058391041
95.94607456172072,30.647296547237236,0.49806204650068864
50.12872652940079,0.9171689939765659,5.527408716310652
2.7057411133674782,34.28601287789103,10.03865012413167
54.97690174075275,64.12011590247725,13.896442718399095
98.9619068626531,85.64725851616757,17.05465994164717
128.07662966154342,95.66073404258464,19.48237481690033
138.07166292209808,92.92599896963594,21.153122960396242
127.78142464774847,77.97211035246181,22.12395885947488
99.21127968512461,52.57614824797245,22.46317538077887
56.99807622006061,19.34190521981511,22.18652941595216
7.440344785840894,18.392862964287392,21.299360547970164
42.599584644586876,56.421161937542294,19.791252283721484
86.65257589204207,89.68311743266771,17.70220358777448
119.34908383566888,112.79119204851703,15.191232368826135
136.8849268030272,121.12176100317915,12.436145498707297
137.30889520381396,112.13300810229002,9.548852201265058
120.67880942614728,86.35231816447501,6.576225011335594
89.06903523075843,47.55607143723232,3.5235094101885696
46.35904738908953,1.9946530303093553,0.4058213513761727
2.231862955550288,43.05445859990643,2.7363699161329023
50.796380815450945,80.85698818434153,5.857619676070602
93.46963871980938,106.37937628538977,8.865580918961255
125.11383193941558,116.79577694373458,11.654332039965283
141.85911877883305,111.46151710194916,14.212111150090122
141.49619914463847,91.6229229478745,16.47212128723589
123.75012308911829,60.11709034553676,18.22883479844542
90.44126723351899,21.138812148677037,19.37189062017242
45.46709083789571,20.061310196984667,19.87668489147034
5.506406686845727,57.74640889533042,19.657672009006443
55.70131792644154,86.58563576383366,18.662171034740147
98.20977780310695,102.66545243100184,16.918030921119346
127.13914573048238,104.28894530989676,14.447472162139988
138.6438046192373,92.24103341537288,11.278425156072528
131.5848968677735,69.37402254558451,7.601559030045944
107.65726076889443,39.71017494472954,3.810316343981575
70.98196687106964,7.445596563801163,0.3224727660394325
27.28701551336823,23.775569483833074,2.557755353165957
17.11946244685808,51.122992125020794,4.643129960873435
56.343999585259745,72.46406467101396,5.8611643847655275
85.70792019870404,86.13188038055061,6.261487740334065
102.24894156968307,90.86077812203807,5.886439058853982
104.89687730354946,85.99751008899364,4.7931030094989335
94.39423772199461,71.85064187263474,3.297701578347624
73.03340346906523,49.940471338790644,1.8407144031986036
44.279601958709314,22.93806122279857,0.7806672536479764
12.346794504969514,5.760905330310823,0.43611002551031397
18.24992808195574,32.67429370957825,0.9952430601245712
43.183850206969026,54.81924012864518,2.484469215690925
58.85844678596667,70.03483079427058,4.786288359740086
62.95413039871692,77.03171329917134,7.587263785339279
54.89540436312974,75.30901269516356,10.4206885287069
36.126867072687226,65.11660838003894,12.770653906840431
10.071062990427905,47.555539025600716,14.285143389203522
18.309697373693222,24.71440686200798,14.851500740058047
43.33702953789038,0.37150870073344194,14.4273849840013
59.693045143890565,24.112700478973714,12.970906872724987
63.49098645248506,43.08828684877718,10.51554624611305
53.075261131303776,54.846835455560566,7.2193153789990845
29.373326778268034,58.44832497526863,3.275962053276282
4.261959568109511,54.504287707003286,1.0538873778702087
42.64536080998217,44.73864934414974,5.342797127559896
79.65496427770314,31.32495669457143,9.153451146636437
109.26863780294167,16.331006195014886,12.085247460315363
126.5365013775716,1.5013549970589162,13.783303866140665
128.33708031467745,11.674447176028853,14.09617943661889
113.83454972091386,21.85056723654009,13.055479709567742
84.56955066103994,27.899996631357716,10.886729610445213
44.16835134970645,29.244007227385772,7.989286066374427
2.2779952367105714,26.240574518132824,4.732101846099382
49.05528430836417,20.29955620571963,1.4019946941406827
90.7183423923382,13.518461905835382,1.755311212499761
122.84623744590894,7.9382214340039505,4.473661570441231
142.52118022872926,4.788875384112427,6.4690822063577444
148.47408858146824,4.14412747883147,7.593180388783328
140.93281131048352,5.184365680315893,7.832356945812773
121.32661954224875,6.8917472647897675,7.212405919989136
92.00674142220073,8.732385360206264,5.830816302276082
56.031823946981426,10.880882179178919,3.9411709284120424
16.990900554393857,13.83171925601139,1.9663176892617784
21.22176350330249,17.6761009586958,0.3007270676191719
54.72993935549147,21.55786354021491,0.9237145878121067
80.07292384916414,23.72348201143645,1.8278246809215843
94.64653699664305,22.214418538632305,2.627917751843473
97.11136154100694,15.80603389537809,3.5077526562281274
87.6732010397549,4.655421122667446,4.5371676890230335
68.16659222317847,9.693831974906885,5.6165454167964315
41.89683086110363,24.941796665259126,6.528326691945365
13.241354283594728,38.873692046954794,7.065757232896896
12.982348131126026,49.89569377929668,7.105553524241575
32.32659029228582,57.029758512985524,6.653896755487157
41.56240528742206,59.518432499367755,5.805081254626498
39.38008380007738,56.483287757883346,4.660990707810679
26.706360651101967,47.04680899078843,3.3637425584111393
6.499843141067855,30.95726346819941,2.0823642956952173
16.94202471394971,9.347856584855423,0.9593540815281113
38.971884612788365,14.888438034935916,0.09892796312658203
55.54232867251875,37.48472757448748,0.4903034674750395
63.84707620260229,53.927418452695726,0.8575215432437326
62.54523610980151,60.82482943972953,1.0505405788399624
51.64755527769576,56.88562607016145,1.2346216049392653
32.293497970133835,43.11888963554241,1.6640891733594827
6.586083402933129,22.274168776631658,2.46792942693976
22.490928580422004,2.0593554262366665,3.646787789766958
51.208658232322406,26.216835987008775,5.175992043916932
75.4575049001257,46.84126936844386,6.976788062959061
91.38417000466991,60.95355149704792,8.845608587691595
96.19046895732106,66.03792179953719,10.4429019072376
88.81470160704862,60.41475849889175,11.377747368436417
70.21234407869304,43.86885275100387,11.331854582660531
43.12674316770029,18.217831069120898,10.144811006785245
11.445023690091663,12.614774126143905,7.900542810559445
20.578626033413265,43.272078375031086,4.932590558864013
48.967935214437574,68.23978828965284,1.6777658761082679
70.42968760227005,83.26375640479814,1.4467913824601917
82.82270094942128,86.485976353032,4.074679017831902
85.37372310173755,78.37321475548613,5.968301161114802
78.58939863704985,60.94379972864128,7.068718841555352
64.23829330613609,37.2414665415056,7.420388904612818
45.14314507318022,10.785358904590359,7.152023842711434
24.715312032071456,14.895937753988264,6.454657891697176
6.276736665382464,36.63103179829616,5.448097463854577
7.653735485415124,51.94406221653122,4.199779144284228
11.262877381126549,12.953554329980596,1.4397956021770046
5.197961610529525,19.379991114385867,2.6501901390059763
3.846742172627309,24.045395517940314,3.8043261439713496
14.879868065388257,24.609426999137888,4.609592555391953
26.48229521453243,19.339948614166396,4.874296934198343
37.042371655736254,7.716137448420279,4.512443714856375
44.9889675742054,9.322010404512838,3.524294729108055
48.97221767132237,29.496289700697194,1.994428559964988
47.99979893758908,49.64749968485066,0.09912872485066256
41.51452493274743,66.3136640871216,1.9229981031506305
29.442123802683305,76.33127494309934,3.822164212242193
12.301624168465326,77.4064813676133,5.360013537858166
8.592549901559241,68.50031992098263,6.3672396208549324
31.181035331567703,49.87227460303156,6.8096067034903065
53.01888386005953,23.112185593430286,6.730588128407872
71.50436526737398,8.682409165087844,6.23354832343127
84.10329624573302,41.259467634540314,5.539659542428646
88.695266946808,70.07349898972373,4.9256752603397
83.8518726024957,91.12371062870443,4.669515998006317
69.18600140782002,101.67995551369626,4.91718885640737
45.698140133292696,100.61335610694437,5.423117188079565
15.92948091713596,88.34446369583466,5.697656004559962
16.154930083190155,66.66727779247684,5.379837041073203
45.7076701919295,38.50156103242664,4.280474965077479
67.89564401117343,7.6671845018180065,2.377066835928726
78.9282541371581,21.482644751435448,0.1814625064181432
76.9190252976279,44.694343839966926,3.193517334021311
62.30770743212044,58.612857981544686,6.34507020410768
37.756329564053935,61.56782563153955,9.155869908552571
7.586095909970954,53.98420236708184,11.1290737728381
23.007238355318705,38.20499332025257,11.893356185019789
48.75196090601438,17.79724182996906,11.39865144971075
65.01154221560785,3.3640959161251276,9.955255366808684
68.37000680038882,21.82699767899677,7.9453726031942935
57.13832083825524,34.916469509162894,5.654652257100876
31.77438112264808,40.78771581492333,3.349813807983146
4.881628684904788,38.41398403063134,1.35239023943381
47.72356075541106,27.74213948010446,0.0028809582244745603
90.03644292119384,10.00036165404439,0.5410831357371064
124.70258017841161,12.106484513573378,0.49488368281617146
145.6699085411501,34.62072872329123,0.2732342061495247
149.22625990430765,53.11922141037754,0.18236109317494784
134.6595949238716,63.870800142329294,0.37526980206944954
104.08837595323246,64.8901293186491,0.8402722849030787
61.60904172616043,56.427306271112826,1.3869755468000706
12.195017658765781,40.69728672990392,1.7909798372405303
39.207170378638025,21.032856545447235,1.8475933273520542
88.10724751465372,0.9090176090073951,1.3772254956802723
130.47037317680062,16.753423822407676,0.34704452173197065
162.61931703457543,29.845577517227078,1.0923301919300175
181.3588031948205,37.00177835331023,2.678514916020421
184.4343264536739,37.485873003658405,4.0751782233507825
171.17965969872907,31.2474814932612,4.895238072203874
142.9960008717648,19.102611021331967,4.832757350791968
103.3456391046763,2.8335632312348347,3.8131190873600374
57.17840617900632,14.96400763864727,1.9214286528378839
9.97273751310511,31.328094254196206,0.7130372936345039
33.22210586621857,43.51227709239362,3.838422520371918
68.40571835615248,49.465845021229214,7.01166406206907
92.83927254963918,48.06939089847406,9.699702642678535
104.99936017997435,39.122361057920536,11.441330464584212
104.50867308260553,23.23748719367,11.979277423984408
92.20812992815394,1.792198861886788,11.373430358260256
70.31215471305036,23.067289593888024,10.053568533294492
42.43721279617151,48.47989155019301,8.634859466914026
13.312050825236355,71.13426069459534,7.5949463917461
11.910541767079234,87.7958249500747,7.118249604568822
28.614579893902345,95.95169327734259,7.039833009821795
33.653759087109904,94.32611519330692,6.936229132288195
25.9937394117725,83.07612902960649,6.424814921009645
6.929999502568652,63.6316169692361,5.274050349925601
20.15330988059866,38.30750769586393,3.3455095889800073
50.3867540842754,9.912328871689668,0.6327862025684131
78.23055350031075,18.506990578552298,2.7229100752725057
98.38824321675874,43.80325689247285,6.49049892674389
106.69456021809835,62.88415741790753,10.38299684689281
100.84050007477896,73.05823972348884,14.038515972330803
80.79617001747863,72.58827050479623,17.055599948745556
48.81387210389737,61.27036137052516,19.094109056644204
9.003660806255079,40.78646321479388,19.89908654060011
33.39806259464518,14.605301313938277,19.308951722662997
72.8673347998479,12.630049548863695,17.37071369868794
104.34554578089629,36.05130215630658,14.435571492839923
123.81419389601437,51.53485865915283,11.018398540127476
128.71323852137934,56.40988912806201,7.553380942402227
118.25480280455474,49.7586462202219,4.273508238374546
93.63418679837504,32.34735320221665,1.2022406490071278
58.07031601229502,6.356765299127088,1.7218343784905457
16.528239134303742,24.936072956981356,4.558201321831795
24.982915980149336,57.46126216636206,7.383492081374378
60.430564310198086,86.68947950288083,10.187803617783887
84.83375302721834,108.10939642872538,12.81913283999114
95.08777195792625,117.89838322344481,15.067409205172138
90.3180032942051,113.69446435680129,16.697919764956882
71.74922484309161,95.2476384868629,17.490001977366422
42.25423858863262,64.66880925322945,17.27423667973104
5.827449508157708,26.09647417973059,15.984278590232478
32.84964493722483,15.162707479740273,13.717348900477054
68.76274385392757,53.731097304242425,10.64797530203798
96.97768120797038,85.11185052712992,6.973928806339136
113.23825318234191,106.21671286878426,2.98224638465568
114.72471239685802,115.42111188908494,0.9302316698292747
100.77795661509857,112.33767121602715,4.3236492880422475
73.2828015130305,97.60271791173402,6.8697577053913355
36.47146301218968,72.86901308693145,8.429863732807192
3.871674911213043,40.96190233318041,9.001896095939117
41.598482148837576,5.950690002704508,8.694520789897881
71.40710861646573,27.14391319031354,7.731246826849197
89.72768387783017,53.14376097194352,6.428575504810151
95.11415799190968,67.83389550327979,5.12545092277587
88.16445279661893,68.97863647818413,4.10727106686722
71.15590835859527,56.833908567679565,3.5531375599871415
47.57724258405613,33.97592920718058,3.5094147412493437
21.631048766870187,4.574891088413452,3.9043477873317607
2.2862468128896496,26.533281678639227,4.506982996553862
20.17239854862825,54.616539317986906,4.982334642551308
29.071040327262583,75.49415054611717,5.071372345422248
27.690108547014024,85.79678205171697,4.543802054458075
16.81819079584489,83.27361863870928,3.187249644380583
0.6695472757356083,67.24354427603186,1.0515641780829108
20.318332870023113,39.088209480604434,1.536467933911983
37.04906030753349,2.4797931159796254,4.185566714396236
46.34689442672224,36.981663445584154,6.507775991747985
45.36610019252259,72.77928221097551,8.119967811810398
33.621886993044555,98.87125072006643,8.693922047487458
13.055803995515976,111.01254590081442,8.034309775467813
12.512695061062733,107.5824450034182,6.181953174595244
38.366333912788754,89.70766840012304,3.3756528597180777
59.99710102868004,60.76898196600594,0.032453470024278785
73.98907677021877,25.594483472015728,3.530180110853071
78.4770332507283,10.376325265477279,6.518354203531779
73.16526008626484,41.844092132751626,8.494646196940687
59.035105045096905,64.32199148270799,9.165070353948233
37.96627031907095,74.73933082476263,8.503949492603407
12.423171812951885,71.93533970781158,6.698104525237414
14.76123110077562,56.90682742438699,4.056614675786532
40.57867849060494,32.63150545916021,1.0243920704592238
62.15594629045569,3.4410651107351797,1.8781369673874524
77.18960315316485,25.875705401398104,4.279338907601223
84.35569766393084,50.95184261734432,6.004269709992329
83.51197783402,68.44272901594738,6.932639725110916
75.55260626902039,76.25671785139245,7.0337028259399
62.400412233727174,74.26118031822531,6.4138531165355595
46.42687163008869,64.19034186547803,5.26760764449104
29.543390553884976,48.5898102307158,3.8943368890284105
13.03973979164785,30.293836867073605,2.590821695139706
2.272687397757878,12.000049114695878,1.5454409756625398
15.753370745949907,4.0487798881262105,0.864547190460395
26.69166910913971,16.29575046231547,0.520839210691105
34.28996057829491,24.015316138382797,0.379586855766164
15.004056593593015,14.625615051598633,3.0530259664839874
13.07704361807727,8.746127125988263,2.2361870185340416
7.617341857725817,0.07517430721556255,0.9868307773271269
1.322984693938027,11.212708136723776,0.539731250436522
13.027185066631835,23.762403915195385,2.174885335266178
26.17826129731892,36.4893414950928,3.773191796717721
38.978638180538866,47.788439011330205,5.173706935321938
49.32881533548932,55.757377642332884,6.142384629239242
55.08590135074611,58.48112839922085,6.43007942364414
54.416032902639884,54.45096925345433,5.9174509615406
46.190033262255476,42.98206693744465,4.682804461034672
30.33222405002384,24.577380001327878,2.9988583990618642
8.064721552683066,1.1805083424469645,1.3097968760793108
18.030232770212283,24.103583461010825,0.10838047925584116
44.35133878316058,47.892017292053914,0.2920912905117261
67.03282137360709,67.22285995822362,0.10117960420967863
82.73711509842543,79.83637537766943,0.9832400500800836
89.25173152274905,84.30151892642888,1.9035075210994081
85.80876266748268,79.99852339610455,2.49915435624932
73.06002476751628,67.17309177484151,2.58806430152481
52.834281973863625,47.0855512172201,2.105836409802153
27.786977943010722,22.05779650387668,1.087749487863387
0.9888752745604154,4.681879517085297,0.34973447675456454
24.469137425375607,29.470662934213305,2.0988833643275253
45.840945204293504,48.87602709531695,4.075965527692136
61.043721659085485,60.338428565639624,6.08856800871472
68.8797449570732,62.616179722734365,7.7515093732584
69.12786584385356,55.9100268302527,8.608834192199478
62.49280741275885,41.72928870238491,8.376860160937687
50.42826426325173,22.599330987845427,7.136741339206953
34.87415744178658,1.687561648421395,5.282636382564596
17.9447976303487,17.643590558907444,3.2913058541249494
1.606768001506408,32.36513165722692,1.6158723106530324
12.591683836110318,40.324327137482946,0.5972606543986143
23.668422160202756,40.688274343297756,0.26741720522334395
31.168207278943413,34.09796758487683,0.3672742358813352
34.96633040127145,22.41695531125383,0.546715027278823
35.03528455272602,8.14969265735831,0.5026486035553891
31.304463555348583,6.2641456997211415,0.11378865887803663
23.742514707781368,18.984049456528552,0.5392482944829338
12.662240972414152,28.934496962768957,1.3388562735777008
0.9240229620099351,35.639089956594944,2.24872051959612
15.142409051901199,38.91935567956156,3.2825006731062327
27.48834906206018,38.700905002322614,4.387074120557687
35.43326178740897,35.057842279833984,5.349241096112505
37.18732892071386,28.414929549318927,5.868266681912554
32.29008579386651,19.692270034779877,5.715412041415171
21.75235386082688,10.209523137277452,4.788246326032359
7.72741994733206,1.3360186099531963,3.156936484615633
7.099647050420871,5.933479496932979,1.1121221678000297
20.11250693602928,11.228072314718448,0.9580808647208259
29.13953543631587,14.7357193716325,2.710729650464915
32.60984292429497,16.870036091934598,3.8652026837496236
29.635843439576217,17.903010951020413,4.2577048777018325
20.207094238818176,17.835652292435693,3.9252215837165427
5.493778393149929,16.57810652754956,3.039362259344013
11.9779284898079,14.304842590122925,1.811030770409977
28.51611033662845,11.723119037770728,0.47457838634150135
39.950600970594785,9.993661333074376,0.7917555096841458
42.705317069716024,10.282701698980329,1.8711723322512281
34.86644317844131,13.176235267027504,2.5925166943100204
16.821560191744314,18.26790181190695,2.8170650599091807
8.780879988670481,24.16436961621888,2.5883170355356646
37.687452917917355,28.920122063746064,2.1025918704388653
64.99980172387299,30.676318973576503,1.6006968423495374
86.08425119833413,28.19793167114428,1.2268432300842433
97.21059735414322,21.088337942295436,1.0181146614922547
95.94360190880565,9.700126110849746,0.9923904740451197
81.42675685122897,5.070166273134396,1.1334219364983227
54.638992559782565,21.93835191304486,1.3709030846090777
18.547573247151988,39.28140535711333,1.609884235866488
22.052727705055677,55.159270897667,1.7743933507417011
61.16843110073765,67.45890481229041,1.8074794285066154
92.69274137603274,74.2265974555041,1.6325912222162227
111.70212310951666,74.08273843389175,1.1540682575464478
115.51339224819006,66.5263575209282,0.2985732117609553
104.14565086264663,51.982491451412265,0.8754330266139809
80.1111174003397,31.587123785018537,2.179375737656426
47.68959229161806,6.889249382996537,3.428060206370608
11.996142374145052,20.318916111712436,4.439193076470552
21.860093717614394,47.96090414871852,5.048919979778754
49.390694680831636,73.53105199788654,5.196652186495475
67.15234037009748,94.09728204253923,4.917049163700796
73.07020785854128,106.63826047266845,4.337220224199366
66.68728429133954,108.696034106396,3.6383513522831135
49.2810580933051,99.10600353528095,2.934552366387384
23.722290339518967,78.46033499770148,2.2121981123874934
5.993742982110116,49.081246738293835,1.4348852325963561
35.447580304266346,14.533530772422921,0.6297927299437455
60.517023817586434,21.06301433395489,0.25783020504761744
77.92066425597464,53.63054321736125,1.34211987429741
85.4877967420874,79.50747094151971,2.580497668596898
82.18436463478373,95.65143660279244,3.8612504959253293
68.01829347477349,99.87673902591418,5.119897581045093
43.970678643170196,91.26177559273013,6.275132495030882
12.023138314805479,70.60658877203751,7.210877262818195
24.8020747935673,40.681728485691764,7.7554191384761415
62.553162872700845,6.000669362328047,7.704976426648159
96.69037759893331,27.96561860845792,6.8755204091857856
122.63947321190562,55.899100387480104,5.179819536695161
136.47952664438088,73.67264400383205,2.804577731090825
135.59206000235193,78.95898950774814,0.12620257092372372
119.1296407048255,71.31478788630793,2.5176987864498703
88.26285118236703,51.92140973544369,4.795820132848199
46.163538364178706,23.245083464579213,6.4548911528876385
2.2697027702527452,11.202608316056013,7.452503566169653
50.92526248721657,47.0320738859583,7.819954820283466
93.26040672385756,79.27283665334176,7.630534543831797
123.30138854987729,102.99032081364791,7.092336335605211
136.68635942691247,114.17151538790351,6.4679601669627855
131.5124011134693,110.58830453360541,5.9308188242856374
108.76152982101141,92.33587333335298,5.4940799917870065
72.16760349770985,61.82350987388787,5.0504293804259035
27.53510513188547,23.23759240994334,4.474612230548039
18.31910218580423,18.23901956598063,3.6960426115733895
58.72422474381128,57.190195199970674,2.6569082935131143
88.14778461150874,88.59127206862756,1.2361463135347697
102.89326787560717,108.3348618212276,0.674655924899147
101.47258268095757,113.770656550117,3.0116818536506655
84.6619697847057,104.25522124037796,5.451630666602659
55.31118136937953,81.5303696241384,7.588931262355173
17.938115783404502,49.63552445309551,9.17264281327401
21.89573623647768,14.204098001376089,10.037339313663358
58.371122085603055,18.701709317570668,10.130132898879502
86.26755099525407,43.859501148609496,9.588522686043714
101.75399483538057,57.83887582190944,8.561076729411983
102.94375591671324,59.36902700753784,7.216969718819959
90.09485811734865,49.149580101367945,5.763871021919258
65.43746493626955,29.379709382423986,4.30228241433933
32.715107498163114,3.3069956021656517,2.8745517734192982
3.4465430416159153,25.11346195758262,1.5082412593468686
38.23115785062056,51.543427021194354,0.20356908016090797
67.26094075195624,71.73269009447759,1.0261317466531708
87.09324586839634,82.21654994718068,2.130286761748499
95.5717653335888,81.05902632751624,3.0521761357546384
92.01523251145632,68.31805016991044,3.8277461496875
77.24095855404153,46.00350481221309,4.50426304598515
53.452871480836684,17.518894006760345,5.0117082289474775
23.9984715540638,13.18292203810813,5.2533265406248
7.010548214823042,42.36781507871421,5.1866148366722635
35.199494785075,66.95548678868019,4.841178022815344
56.54101329831603,84.65059630691678,4.315597260350782
68.59939649686301,94.2933541224785,3.7117163438493974
70.88295398262237,95.82568211966539,3.126737181189976
64.22293174295588,89.89936430793792,2.638853160003352
50.56228128883769,77.86190606786478,2.306689095757285
32.597647778129904,61.713148096458006,2.1787437667297285
13.326392619934019,43.88844823482786,2.219866415213947
4.447572020010436,26.834020398413312,2.325486382253159
18.544551908620242,12.507574263804457,2.394850367542668
17.700258113297355,6.848559520856584,3.3850950618700715
14.195527898620062,8.482261452542552,3.4559846412437953
7.600397022960003,9.04696108106152,3.0601464728179124
2.256490091587763,7.267278873717403,2.196908676831967
15.148092293361502,2.3011643617785915,0.9043059936408449
30.25500700032807,5.689929217079922,0.7015309384562132
46.07040411370235,15.388442972300847,2.4105150108516336
60.438513718365876,24.680982999603888,3.9997202609553515
70.8160817004289,31.37573973368689,5.331574006935535
74.6642628360493,33.88575169026931,6.398029380283351
69.95408041135931,31.58771268954301,7.216460909959367
55.828804560701535,24.81956891539429,7.716425739918661
33.240760028809106,14.627404436836805,7.813985596406982
4.806406790628015,2.29922053893072,7.451537081115908
25.981050214591228,10.990496326662747,6.556256302469463
55.18318414571068,23.99575127118436,5.159318449310286
78.92701783156141,35.08609769191367,3.460286976732876
94.19997976562675,42.30877118702719,1.6768521466354027
99.32426261415893,43.83081675088569,0.02797949092998563
94.25042599181673,38.67936482587017,1.5788157779743792
80.48645414222231,27.33136040178151,3.0118606479960026
60.61252689636822,11.741902795544734,4.330333492707511
37.724254651990826,5.195099103264863,5.462274721890149
14.845554961910244,20.533859306417476,6.344920681396332
5.464241174448198,32.023834904380834,6.912727945964412
21.30278442049858,38.38750485442957,7.10577859191329
31.512380081498883,39.156730331928394,6.884855091476109
35.69564797999816,34.33606541978419,6.269852111875195
34.27380670951384,24.252526773350723,5.433795608189747
28.473704562825663,9.70463327477348,4.624435271567453
20.171788252142168,7.76582203404134,3.977377897447513
11.56572176653896,25.796013906223067,3.4880581046688515
4.69816101036148,41.540982712294515,3.1041674817379197
1.0381573948743552,52.333740534738496,2.6966699542076977
1.2674172181892098,56.3451115630567,2.0375188510343683
5.3213917648928675,52.93351964951581,0.9737767406490122
12.613773118147039,42.56509670534604,0.48479443710297876
22.275172069538176,26.465714960408757,2.1697059523347293
33.24809095648136,6.309953726900848,3.8145880245746873
44.215072090639644,15.861801375387524,5.202247184383337
53.50276128994099,37.54648996535133,6.121230438245627
59.12280838218275,55.7833716524016,6.350285586793432
59.06963765193312,67.53108538012721,5.7607532312843075
51.83986672414594,70.40371567947373,4.32880251528304
36.97498146057709,63.48614799205085,2.175764311738243
15.426675807153925,47.80766257604758,0.4765144586831825
10.427193092115738,26.171553734689432,3.358299559921865
37.15947274572615,2.3955590823839956,6.015925992059047
60.93250862358296,19.69517737187845,7.808445424067503
78.21521837196072,37.074174560023124,8.19482871581733
86.40058527696611,47.836512526860474,6.952774275052018
84.20506676756655,51.09953417471945,4.209262827525029
71.82380025870489,46.76947117986586,0.4834048300138993
50.87108432003979,35.4750068528927,3.4586324866006226
24.130093380469262,18.723733598878894,6.880887601820523
4.855619629471776,0.9397430557460547,9.205031993675197
32.27417338103288,20.065434794692028,10.118430152745303
54.56445199541029,34.88053087110801,9.553792251874121
68.88180169738375,42.203547397134116,7.661830434302133
73.42257564555612,40.355206036121686,4.87511231231926
67.5941960770171,29.67153683927349,1.7378043951801319
52.0442616973799,12.372890651188289,1.2601860844644959
28.600596046779376,8.120206787305676,3.6838050358501113
0.1470065994186703,28.106533637149177,5.130504120197147
29.60886096766715,44.40280682001765,5.240546714785462
56.50188129152827,54.78498077638827,3.8837910531842987
76.43798956774246,58.06151148480297,1.3486898829448453
86.06449101402822,53.930245351160394,1.7101313804756575
83.43915778416567,42.813998390707994,4.527892339340037
68.50370090463316,25.7805714990234,6.48237361458788
43.20799652982775,4.5209233355460405,7.243008904654623
11.224830217459804,18.69845934995655,6.820475567605351
22.692953559974555,41.20354976253891,5.41183605452362
53.54442563412684,60.247629301799925,3.282748303269876
76.88799420409596,73.44820448501594,0.7384419846456884
89.47702720870032,79.19390823892245,1.9785068919427102
89.66127182778459,76.90610418473368,4.613224538204229
77.5611295319121,67.08106883038103,6.893687212434818
55.048768005414274,51.10490710419615,8.678942702431275
25.54782733753581,30.932042148589385,9.883922476338798
6.380760498640223,8.764427404871153,10.410634991398911
35.70402779752514,13.173162890865987,10.192232387207358
57.75268205275873,32.74099449085377,9.30766942139823
69.06163470082132,47.94217256816938,8.028693259680189
68.0245420918267,57.05612813511682,6.57627330501909
55.15561291985187,58.915565909151105,4.98676370518654
32.87925880087685,53.27706761715613,3.1896660748421533
4.953227442345601,41.12934592218355,1.0934808877012936
24.26639400890163,24.720488343163062,1.2706925568571776
50.52172310588888,7.191846345698495,3.730875113279561
70.18113350557758,8.110428958745057,6.082336400599294
80.54865260541969,18.42442364490422,8.146791632795777
80.01479155686805,22.143313469972238,9.784082486262475
68.13134993902952,18.97555416361814,10.873049644323672
45.65725844290636,9.734092212578418,11.32418923967376
14.578023714099812,4.045109942776055,11.065999629991271
21.961535573982893,20.405728729437485,10.031931205713024
59.861244827402565,37.095454951583115,8.249820715786777
94.45158552750524,51.61331866351912,5.879625822055298
121.06106198847387,61.37480258319815,3.1633495747647298
135.67132264114844,64.11794058616928,0.36815265706113354
135.57833473402957,58.47516646937351,2.232585868498481
119.92640186223727,44.46366353475605,4.394548659973647
89.95981031226533,23.59241325781066,6.018528659061402
48.94151679974834,1.523757556286054,7.148310212113242
1.730812517239377,27.862932426141967,7.858757699125129
45.900469943856905,52.670422529614335,8.150398027638115
88.064187636752,73.76633914846771,7.8975055097343505
119.53488501970745,89.41242072897688,6.962181555352093
136.4124570687006,97.99678474956046,5.32314968488053
136.64831367213566,97.89420739485867,3.1547577911410354
120.41134478619314,87.76191113545009,0.7748275948181346
90.22592508539475,67.22779682922734,1.5544420807100612
50.78724193842902,37.601026119568516,3.61167425628258
8.334108558677844,2.149588241753534,5.139043577613909
30.40457388645161,34.32170677693277,5.9191848167252115
59.49130760404406,66.4917502424511,5.823012030655425
74.95933672280515,89.72446080943983,4.840053044209409
75.5145484838775,100.95946366832031,3.105724212800623
62.55980146613559,99.01720014374882,0.9197098240282201
39.589743179852185,84.40351507499867,1.3395124629514477
11.217952595433093,58.92420777620548,3.350601320383972
17.791670135364836,25.39564042337101,4.841336935998901
43.21313064757784,12.457825198621709,5.642440489419102
61.70066277021878,50.07867121702534,5.7466000553259775
70.9184551984757,82.40765405644603,5.239904212188892
69.6304054422598,104.62038875690592,4.278795922305858
57.81646129505254,113.1409663928252,3.042663175771762
36.764435939960414,106.56651549259473,1.6701876817743324
9.008263317420068,86.10014304259438,0.23605226414952837
21.979913810748222,55.293048408448506,1.194811759658127
52.308513305027915,19.18070081535805,2.4645246023120277
78.23854504170478,16.8444475243606,3.4228087340806486
96.63621751716309,48.02473904045155,4.06959418780043
105.24710079473589,70.85832591108111,4.4894945707899785
102.84180411733425,83.30945948775877,4.72164007150812
89.3306673649554,84.75372224984453,4.763238420547861
65.89226417194057,75.85653235431894,4.6348773598112
35.03109881450098,58.4605959795967,4.30663161363085
0.4322570259334758,35.43053615364791,3.706523665151131
33.468339358481906,10.363901076106869,2.845995552502316
62.17371790072207,12.86976154454413,1.8148018139917605
82.31544494034235,31.151771469811223,0.7748342611510185
92.15208587827603,42.66452679604406,0.07600000491313955
91.35931028145073,46.75877997628204,0.61877391093032
81.05748995429039,43.965551664858445,0.8234746617692188
63.57707539501092,35.78127110637657,0.7371809095571016
42.029384196459105,24.29341857159182,0.48855397440457765
19.78601373013805,11.759656411839227,0.2296002545436742
0.042463225894745216,0.23178674674157285,0.07115599628991108
17.0809720103492,14.677941864775729,2.0965368323026774
15.387142334999421,13.43514636947823,3.85020675269955
9.626410895699832,9.16995703726633,5.554077032639308
0.5700964040896758,1.7013779084972258,6.655737921295621
14.720003631671654,8.624584514242992,6.688050442554157
31.408115970762537,20.91294946168867,5.4728006441979185
48.338976035388704,33.77045322713707,3.103272741236264
62.52355460828088,45.43870719304333,0.12414623038233683
70.67957544928224,53.99995387834584,3.720282355421011
69.84126412944536,57.637212375808105,7.142802770170804
58.11775873110956,54.91881213371093,9.949206056661762
35.441330383823484,45.070109637822156,11.813530328512137
4.019501854566448,28.21272062745193,12.526993702971982
31.921482998888127,5.465683758568929,11.958723846739483
67.03089395382536,21.182626368811245,10.015558215494913
95.85661823323063,49.08684085044547,6.776396205575541
113.9061980779955,75.14451078927938,2.6281959184912846
118.48124990039483,96.03890734187453,1.78062582260857
108.8986478694215,108.54662358730134,5.613291954000479
86.29489823459788,109.98357706131733,8.086584326154306
53.231655846805474,98.78346690071422,8.850356870910725
13.353257758742421,75.04150219256215,8.016483500209665
28.768221705552847,40.845633004515925,5.957188156728095
67.87386374100065,0.2115015126991581,3.1461468920200817
98.5577018944354,41.47579676875117,0.07554759205198672
116.19887715111973,78.4061683079809,2.776120047221056
118.08007820097068,105.40270318626933,5.08664193367047
104.18765343145124,118.81342589401369,6.688237609995927
77.28837854575764,117.05749526173234,7.353689935633394
42.1562312480182,100.7630637383325,6.792102133347153
4.269067446521764,72.57967978723971,4.865424009168461
31.43504933166553,36.78608693938926,1.720373507473879
61.23173044155454,1.254950031195648,2.2306854432556134
82.56813386943263,35.791455523935234,6.337292104695542
93.64269477364907,61.53959260038742,9.914638832121344
93.1278854924696,74.64458692332165,12.524949269716103
80.39775555909391,73.54679444826587,13.93132400772551
56.2106123404186,59.45359822303602,14.053580951020692
23.362688087655968,36.14763568962245,12.976049151173711
13.260085854838612,9.082188291823613,10.80834152360788
47.51355885671717,15.989775682609173,7.767593285678651
73.48844066140128,34.40431838753399,4.302292797072285
