1.2295240930199114,5.708921413950576,2.508003178211673
8.40585972929803,3.6247426146997093,2.962348282383651
17.29700928592862,16.152734500666476,3.1536318012505804
27.156708058041296,30.207002056010456,3.01205178068922
36.392907431370396,43.502578386364874,2.510168238084781
42.66658184440692,53.534412077422765,1.6381891850340697
43.457927511834576,57.98523645776364,0.42095147572239816
36.83177169939638,55.054137733454105,1.0378248102725653
22.216843556296208,43.746450694772285,2.5681765274290727
0.7282595743010449,24.077306120144243,3.996298725367226
25.015115191148723,2.7732300005410955,5.200282780067772
51.27258466297005,34.30810276221507,6.1131848819025745
73.70899293747868,66.6639332342904,6.677117340981019
88.71267304000732,95.17719067391852,6.827099359838445
94.49002639723032,115.37697590311357,6.549812973686357
90.42050149465072,123.60446484941696,5.9152881459619175
76.46556618118015,117.59870419901446,5.023310445592089
53.38802444324691,97.08274208211283,3.9734457253334616
22.84396635635185,63.85991526820621,2.86352131295705
12.269513981822845,21.675837795816957,1.7767792125953101
47.8605309543639,24.21768211209915,0.7681107758700105
79.38195905544785,67.8029834484312,0.1650187341331716
102.71520539854133,103.12424884768154,1.0582169924474605
115.13897722270521,125.24116100922686,1.9256528353446547
115.74060637854382,131.0790486770322,2.7793527297653617
105.18208398274365,120.01095891998392,3.639425248429732
85.14736266139673,94.0217780186036,4.462922104335317
57.71716196692331,57.338568745740616,5.119607472659315
25.144741509697994,15.664474285917812,5.482570926999886
9.993209265345252,24.833813927504508,5.498793013966789
44.50112959922636,58.499295012876104,5.187756358648458
74.47459510711742,80.91281037371544,4.62782645420237
95.71954882194036,89.3468343519465,3.936133064500619
104.57630634698461,82.96392244913656,3.2436060765978065
98.89609686709555,62.86438876267562,2.650926243413844
78.79114697243222,32.01145797798804,2.23063730527918
46.875565641540526,5.028876625358873,2.0907903269051342
7.941940734821595,42.630640412702846,2.342355154177548
31.835458651496364,74.95734663441867,2.9927178248828414
65.93997822507136,96.9724335131391,3.8836302252713026
88.59853391913379,105.36863641296031,4.747444323927945
95.77013705148072,99.13692784673889,5.349754837438966
85.88399838974782,79.6002185135153,5.534030663985747
60.20090859819766,49.93546070519187,5.180683369047307
22.700958444181477,14.394555484634264,4.179878575237197
20.54892095149186,22.487361269829055,2.4895696130755858
62.46879525717087,56.496015700009785,0.21779600779397845
96.25159834910019,84.07984698596005,2.4238832685579466
116.56893539553424,102.50695011152088,5.148510125296474
120.42337753561556,109.98448991206797,7.6110050632839155
107.48197026307363,105.82375932792391,9.528725200752891
79.91530458340331,90.63621891609039,10.744937040723261
41.8842258864739,66.43637068045044,11.173783765747398
1.1796066143188066,36.515138497339585,10.729008011248748
43.382725996217005,5.011767109773601,9.404069036176677
79.18494766724501,23.767563567900446,7.387339641622254
104.13280533632175,46.095471659170826,5.002214196580133
115.40301743804348,59.4345253984682,2.6026915912444526
112.08113867519947,62.76834677164098,0.4614032063274134
95.14029545364157,56.58963694092122,1.2393572332068408
67.13936093246934,42.603952610554906,2.2986552667331672
31.76286482014938,23.287507294176486,2.5886116852558643
6.6479065199940734,1.4376052484177726,2.1811753119731616
43.490106672238966,20.189027574319777,1.2945848009850993
74.21311380722003,39.09094407595898,0.2147528999758512
94.6294844115846,53.11382858940445,0.7803035384898352
101.33989418683777,60.50335299676679,1.467729101655444
92.30984948377147,59.980815080247744,1.7252972640151858
67.51279126267401,50.91156299332586,1.573898688946548
29.430723329099113,33.57492164315584,1.0890130526975437
16.87698557405964,9.422749093314176,0.2929127584166838
64.3354727244411,18.81419508707235,0.7995096567563392
105.03749336091407,47.319922574866055,2.0923517314222577
131.79775434643616,71.76276968208803,3.4436293854111018
139.62935599213114,88.13744077746698,4.69541091569851
126.7266070422287,93.65239720672801,5.661122778056814
94.71360194417774,87.38280785337506,6.228364365788284
48.13642256743042,70.46428668977835,6.370161620059802
6.546364758081401,45.7956279668822,6.047576991988378
62.10174291971389,17.386162372956704,5.280115902153105
111.50803195900117,10.43563020585592,4.188565331463329
148.68031670793033,33.70354459401663,2.9130049882915214
169.01380352249532,49.27899906641036,1.5872086914458425
169.88145175717716,55.17007667455017,0.3312253382067747
151.0900930476055,50.76961413902159,0.7537059304293856
115.14782011735882,37.043964351017635,1.5882814171250723
67.11534559224481,16.601777241474334,2.107863605958027
13.842105804987126,6.541303332228106,2.2151929813554934
37.34020631001271,27.61029709248313,1.8376713916804883
80.07256084167263,42.064271825248994,1.0353892964830564
110.1007070369631,46.672253728333914,0.008569895379863843
125.71764773902271,40.302546807265784,0.9396986660014058
127.44548471462674,24.12707498139912,1.5159557528824943
117.26874167905137,1.1850262694945328,1.5483814358448968
97.86271457828518,24.479785185145722,0.9997854597759966
72.15506648209808,48.760605664940805,0.02472813974732391
43.28745830885546,68.17233610662413,1.3288666407477299
14.713302666733446,80.17209172263587,2.700677191763959
9.93579986987998,83.22131322039326,3.9438626054071446
27.40875159455347,76.7491004571993,4.954038645417148
35.67007543061889,61.1921828745787,5.706842464973825
34.6030012243307,38.10718049848869,6.16289392718525
26.183873046808074,10.181766938747321,6.290551643801908
13.96293649984098,19.007216977145866,6.085214937086156
2.0300929584645937,45.54102579000946,5.504516735304383
6.100204595943306,65.86654800394946,4.4987162330892145
8.230221769452688,77.42860604852011,3.1186510586455927
3.6499261268950662,79.03341688718213,1.5050235417483273
7.1021837423657574,70.8636711445001,0.1917661773300474
22.59697927762338,54.26122665270096,1.8555431691831343
40.77224313255778,31.454402430783496,3.4176600792848264
59.039369446691055,5.3338912075193745,4.800819074895881
74.40372388709355,20.72874586600161,5.887332613267171
83.80825222784655,43.11633842075113,6.530496512860258
84.74685067907836,58.37005362753647,6.565602544274504
75.97124818583374,63.793394171146225,5.92577924935279
57.97164428112865,58.092943636963405,4.70233384337597
32.96175978674747,41.816148122355216,3.0806191035430377
4.332625858710815,17.40260491301461,1.3195004238025414
24.170252841979078,11.239466726061357,0.3042806695718427
49.19078735580775,39.51970956189745,1.548965310166797
68.19513033899148,63.06443719002025,2.19998279918954
79.55127906622405,78.46453684124747,2.1231991134941746
82.4258502293731,83.69339310465236,1.3505042143063806
76.74031269352551,78.19447512242023,0.08454941876056979
63.28845093170267,62.74244149887615,1.417519597699167
43.90926920262441,39.20954534819212,2.8994090462318645
21.47885844369845,10.355160409253857,4.069625874709934
0.44076448904357085,20.3610505245835,4.663585174611986
18.261314720298394,49.0530482628767,4.514356226973599
29.122494403116573,71.86007620772645,3.576759073965118
31.446629140748094,85.57332830012123,1.9833931961098166
25.118312314474483,88.33252416560453,0.035477394777967616
11.309612027754184,80.1577166254369,1.93702774681916
7.882941098809705,63.05649712263181,3.6732893176137225
29.768034208199477,40.59126943033182,4.951164287940608
51.25583444177046,16.993639986129164,5.592693154553643
68.99885143626386,3.8601681610334677,5.536756312459534
79.6398272948803,19.227321670781684,4.887950731090882
80.28143227574391,27.810650744946184,3.9031736664626013
69.12588192969729,29.59709460352534,2.8944682338915877
46.06491825300719,25.42939102765007,2.1200635922649664
13.465727837560083,16.722097933438537,1.7228889865359502
24.29690695857224,5.287746067891818,1.71582053454405
62.274595605894426,6.887374404353174,2.0423773333626967
95.80181670998583,17.84017045807053,2.61989123457867
121.24027124898586,25.877010363933557,3.317153062599762
136.43168623382635,29.878926714350477,3.9761293448241393
140.79242475632086,29.5672256390275,4.450950871422266
135.1207479507514,25.59540963159935,4.638302057208143
16.212163765319183,14.971830145300313,0.9770680860751804
6.915117121879828,8.6809697904029,1.0976371462948302
7.089132975350518,1.6675765903768476,1.256822233066587
24.352378163555954,15.739888021359945,1.413856691043955
42.43530369795897,32.22282141045049,1.5122336459176418
58.308258445519535,48.697864044100356,1.5048820459330818
68.9486590951377,61.92294560677463,1.382939396021753
71.92609708236769,68.49630382475199,1.1634107280287864
65.88986829246996,65.78204956140588,0.846539238036057
50.76614729045003,52.69187862511041,0.3941396586871821
27.697427584254942,30.063034266018303,0.2567936582599593
1.0490454183113795,0.6652828662131192,1.1295814692400015
32.158690536451964,31.109028042716215,2.1805831997428187
61.93399644365072,60.235680783190304,3.3182328136870973
87.1561692919035,82.34820879196259,4.427560687589934
105.05036089255982,94.26823158015281,5.391373328106981
113.20959923945765,94.19162076685262,6.084663507405651
109.93052157546242,81.95007222164193,6.410415850891107
94.40864618283938,59.049170286444976,6.337667133611426
67.15242451505014,28.70618455888944,5.884463257979643
30.344036409408204,4.384868804094887,5.097465102413379
12.163751790471078,34.81254018269013,4.0298736150725185
55.111268901246675,57.50720986798807,2.7389077840304688
92.56720227650203,68.925094005809,1.2717527320960509
118.8868528395606,67.82976085556291,0.3240666387605842
129.68073350430305,55.38836872713869,1.9277100505488358
122.6501167132354,34.638998042717624,3.3517643284266208
98.07279271943567,9.555656192192945,4.418262182584034
58.928516449650175,15.80373584787122,5.045999331530805
10.61329148124744,37.83710725309692,5.288177140555033
39.70041905869922,53.633753523520504,5.236938400433641
84.05055218786016,61.06644827034084,4.93079736183457
114.98773982730485,58.955579078175504,4.372847325437597
126.95924512106268,47.339734622134685,3.619519261740089
117.51331424672662,27.711926295862703,2.7969650234597347
87.95400773633236,2.953031986486075,2.0486671463132637
43.19542615748415,23.159446219207968,1.5450273132967869
9.165858791482114,46.73331680097791,1.4199063337405653
60.342074468134115,64.56049940730952,1.6765271112761766
101.98975882812792,74.61215165839029,2.219025122114627
127.59876264405781,76.07996218879103,2.91794932932826
133.38547784679324,69.09286461423345,3.6589921612058207
118.62098549461663,54.40756227379525,4.3219023919855415
85.51833864090638,33.31400031143886,4.74966732355661
38.81966653824371,7.781300113933051,4.79752836016328
14.859420891600463,19.339959268386206,4.387313471601496
67.92415338297113,44.36290851922768,3.532644851519928
112.8600189872004,63.27041697774312,2.3126297816754953
143.32846277711488,72.6090293404068,0.8462162262230252
155.13800808935704,70.43627779890913,0.7227538932136234
146.81680738565325,56.926084105742326,2.2654683475872837
119.64527075824455,34.36458833760681,3.6326410830090317
77.24164897940554,6.5316022323247385,4.636232968145755
24.867945807712882,22.22699996259622,5.162438335922027
31.30157714288378,47.831637898110024,5.266972318738342
84.80498579735892,66.95462004879944,5.140050493412628
129.44250132252301,77.15272338464047,4.951921506893462
159.84219981479066,76.86521442903049,4.7625296989900034
172.12348280139443,65.53562301522653,4.587535480097959
164.55955570297124,43.95754239393296,4.425780925159019
138.0166855863598,14.666627423684377,4.259444647835252
95.97126350869249,18.010592122671504,4.064114616509325
43.98810341221897,48.55021177572562,3.7562228367860238
11.236815452933467,71.45403612761986,3.2438397756038557
62.99037196769373,82.73072494008319,2.5244749228173893
105.472654686413,81.04182975238106,1.658306468213983
134.35491324378157,68.0102495204682,0.7499360081908917
147.0227533522927,47.5529053850018,0.06383990177842284
142.6067144590857,24.54477678391588,0.6730211988560301
121.960332783797,3.4030125510203475,1.0306529990018016
87.66635214333333,12.847915813316508,1.1420702244831376
43.939243833460374,22.782698878787453,1.0241909198716208
3.6871902724821246,26.222345655451257,0.756018564152511
48.96868782486035,23.723050860872608,0.5297655618909004
85.83244261511217,16.249798532924434,0.5441622631885052
109.33244890799361,5.142805747066744,0.8975829283717427
116.46771040951059,7.779818703302,1.5542585921466523
106.6589989504755,20.251575505918474,2.3639372715260136
81.80165143456456,29.876192338196354,3.1387363695159594
45.94985559578079,34.66400434210275,3.7355204705223533
4.695705899812724,33.52885229702024,4.058413127007558
35.65394115503615,26.473875639949476,3.979406322440597
69.00219047305562,14.371969213466947,3.423192846769736
90.39583452739437,1.4931263375884725,2.504202253801498
96.85342826142961,19.82892641382017,1.4312883267855145
87.94028067371048,39.449955358698446,0.4058732936226993
65.90242078591355,59.0811411329759,0.41863183528826087
35.275693462144055,77.04981014959978,0.9579405680136832
2.0143523403626116,91.14130774407701,1.1313274039496612
27.697022416039385,98.8037895374949,0.9078088329419327
48.64552830926881,97.68655686303161,0.4271880806545844
57.53293415409738,86.30707515902313,0.03406472952359763
53.46932771183488,64.60400163984343,0.22542860729925104
37.951090966326284,34.19659989578524,0.04277906036272713
14.419037095459071,1.7305660483943202,0.487128714776973
12.456763677419602,38.88023003152651,1.2192175195221595
37.58655810036689,72.51416167279412,1.9210747582740277
56.23955158691321,98.2165451004442,2.4020360173420565
64.73989511356572,112.61415617950948,2.5425609116870564
61.01238185404703,113.92156200136641,2.2527757492550657
44.931141078450246,102.2196233048527,1.4874266002001906
18.413105971349058,79.41500658996226,0.2853766163366243
14.81764652428713,48.899249454925645,1.17252291856711
49.79548963939375,14.99419459279331,2.6021193251408814
81.12157199784758,17.702423182705687,3.719458810831149
103.8669669568671,44.939987385023144,4.298672946370973
114.37878900194829,63.32219377992715,4.247264585953787
110.80958704823668,70.68721386886605,3.6065142242200943
93.30164757352381,66.34629586597889,2.4701807790004295
63.86569879204632,51.17878958588363,1.0087333020916724
26.03350377303145,27.565928524372087,0.5270660956615064
15.612315965636,0.9015869853387328,1.9778815682091342
55.9565008824931,29.919892321247282,3.291270716310343
89.90863760194472,55.08964962047471,4.377125075155724
112.99094835294316,72.55808984555993,5.20584383711186
121.9255211710384,79.54790647226747,5.837474056463189
115.16477356046778,74.70543291664062,6.2158640355937225
93.24796244851011,58.27113717410061,6.211999433317783
58.85935734077511,32.07278212103458,5.801547378523579
16.52878858961398,0.663658793498513,5.027380165786807
28.00945019777171,35.677971825643915,3.907631786057838
68.69122310157007,68.20425494090053,2.427003469448479
100.04815038281296,93.65038289907609,0.5557662662621932
118.00192532117933,108.32033762316047,1.696472938878416
120.37814321961238,110.01373948398822,4.2215664860597535
107.07368454853118,98.36945549003576,6.7820843708521945
79.93544428691024,74.8776526790013,9.038057422704087
42.44838658015097,42.59424097063351,10.694337544529516
0.7003826457004457,5.638786490880559,11.53848126120614
44.14245355601638,31.402547192930847,11.374381823490408
82.43620799487286,64.04167100437733,10.173774190356172
110.77342433846545,88.40696532589504,8.121536684048206
125.70840624979016,101.69003444086076,5.44132903973293
125.75148500964245,102.46684619778354,2.4076415483166094
111.64652263565735,90.89093859849623,0.6229655438514228
86.18935684010593,68.7170533087903,3.337462466535019
53.58991311750295,39.08566807683544,5.535250603852057
18.566044217233827,6.069450704168373,7.065339622887089
14.543475163508543,25.926947880913833,7.801692113438918
42.38668677867926,52.8157515762702,7.736405824506248
62.797348570948,71.41358593471375,7.001325899749234
74.66082970915149,79.8197510371579,5.807537209029787
77.99770635183316,77.92654335520152,4.378832090306514
73.87829388081477,67.23354995135276,2.9010304817079198
64.01333714334163,50.090417481329425,1.5322529850625852
50.52528964796137,29.326638242425414,0.40541113377480037
35.69033366741726,7.873107277612429,0.37114121311361803
21.62771585820342,11.594117232320315,0.7604700410254158
9.974278162428895,26.965007714538437,0.8565947631159905
1.628805294499283,36.934188697330285,0.7814251332117516
10.692848670017815,15.544801051858027,2.89333398705427
3.1302239753473216,10.649218658814323,3.0290498763234823
22.37992518358717,2.0204986801686635,2.9562312975104157
44.48504702410091,9.562316478371915,2.5958656707777257
65.53566171780753,22.488620660496903,1.867022265407351
80.90880748737128,34.61730350539867,0.7199420251767022
86.17940003864493,43.744086031034435,0.8599410919251363
78.10554146302796,48.06508450085463,2.7811770088878123
55.47950584608008,46.56397231944193,4.842685562849608
19.594995913941982,39.18496391366324,6.8153957098164994
25.75257664465639,26.79475627075462,8.466964098787008
74.64917196743568,11.0700363693384,9.574943992099527
119.70576944157835,5.640985603121913,9.986920582672283
153.3208293549038,20.80013252295123,9.626882466074198
169.38490965411054,32.32852310678442,8.477481435548654
164.37367724683997,38.80772881670647,6.59822671955573
137.8781928455289,39.57558299960026,4.147086964122703
92.77674390041649,34.88811093316122,1.3688459237019075
34.72222499979938,25.843647743640773,1.4950163642675913
28.717148906094664,14.264341782474922,4.208989606481361
89.15800831246432,2.4512727355839443,6.463139791260761
138.69664355454861,7.22737271702481,7.986100949110043
171.0730629602548,12.748262815642835,8.695442621372981
182.62383048717933,12.863931793269666,8.689423124960067
172.7870720354873,7.370590018557701,8.175251750616711
144.02679095535217,2.8610842629236273,7.37487628112739
101.22401347817706,16.095235588421968,6.443095320415056
50.683087754128785,30.158549990046822,5.428583552670004
0.9497328554499425,42.88057476619691,4.327148225580055
47.649771062269004,52.41698441658562,3.156222581687577
84.6415088096515,57.36442820605283,1.9467140410569104
108.66198100087492,56.713885395340796,0.7432326632167229
117.9982711615525,49.80832752196302,0.3889360366727906
112.38872052529949,36.43727375001445,1.358861706877845
92.94415519783709,17.11899033420507,2.0600264243348376
62.138349039777445,6.610879455111016,2.438598286728672
23.783118154265953,32.14132635382905,2.5007437781077635
17.11334997452294,56.12237242940132,2.2917556886310635
54.733997102377806,75.20784043048671,1.8889939192429785
83.14730997243922,86.91674715664857,1.343140977898659
97.25211223208994,90.223524825959,0.6654430582313513
93.79687224234789,85.61928282764377,0.11602620845106155
72.20712298114869,74.64711448704459,0.893846394090334
34.94858658390638,59.18242656191586,1.4800697249437813
12.74672030155948,40.871110567594876,1.7012488224845599
63.76212827988747,21.034255672832675,1.4604666549978915
110.34434370971093,0.9732707795662251,0.7681239032953765
145.3712337413921,17.656734003806992,0.23722900232923835
163.3494674446587,32.772039107097,1.3832126145380594
161.00051132800186,42.27756638384062,2.5304889936685218
137.4926055366696,44.807703323936394,3.5414176503323618
94.5028754388712,40.38662626474163,4.298480610338976
36.20797649710399,30.59918462766783,4.718063540738218
30.870488099986794,18.122880525678585,4.727912630827972
98.37111770956467,5.873399965037184,4.293706320215209
157.12249857755813,3.797262848979969,3.440758855304077
198.66194478499946,9.478792253929061,2.2411038567266868
216.9196041034196,10.56612959174555,0.8302553347822372
209.51116030772602,6.874578337972926,0.5953315383908859
178.15130124088668,1.6025078804345434,1.8331998719667864
128.0289780743397,14.570032916852329,2.7078410291692028
66.42397926968465,31.012028517212343,3.1213285883743387
1.1729643138103603,48.775638670884405,3.113452659198225
60.45064852643386,64.53945500179263,2.809831663507188
112.20302699477122,74.37572768443239,2.335345174244258
148.9038100868769,74.7394525357855,1.777923723474194
166.52030359656231,63.50243183845992,1.1608089062204567
162.6503636696436,40.65017685842244,0.47535976088174986
137.4097197008978,8.411108156776852,0.26553948306643627
94.27254813021341,29.138824045678305,1.003391929887904
40.20667183516621,66.81077361510154,1.6148668382977083
15.310318723198503,99.1691631387922,2.010394173002121
62.29148667101627,121.35394574499598,2.1870994237186117
92.59224683790438,129.78706913258628,2.105805892504228
101.76432303295344,122.7183653181048,1.6926195189115898
89.78574655418599,100.5391359518285,0.9321929071324357
60.52799623931835,65.78264527656489,0.15231469249322635
20.409456168050784,22.757488206672807,1.4981721818466693
23.10499942606386,23.119391610245312,2.9349837217258483
62.68297321621272,66.1190815034766,4.205306139238101
91.8717506413054,100.97880278816646,5.044656358384957
105.64285539116503,123.57389868453787,5.236851882802478
101.00238701045919,131.44251196586583,4.682725544685637
77.7084665796599,124.1652005407141,3.429965273539062
38.79529250497222,103.56232551981996,1.7010825425668004
9.545628958031836,73.56062225700029,0.10566217172260821
58.98034012326163,39.5774935713978,1.5842036911699795
100.82666649449602,7.430529529659227,2.487007230566638
128.0764834327558,18.012407161589756,2.7912998933077118
136.89526345348142,34.012873640700896,2.6782440483854897
127.079296853913,40.49986673278875,2.393541207659968
101.43386176065556,39.75769084371337,2.166855326061072
64.52867926035856,35.402759178181874,2.2003341267191536
21.470552546674057,31.09196406566399,2.6108289659794592
22.848532097569255,29.491037939042474,3.373453998245548
63.93668231691415,31.820818845536706,4.340624752958151
97.63139046051093,38.00054596129204,5.356392591241621
120.19330079897446,47.09039148149043,6.2797401023990504
128.76019779935532,57.670946290593506,6.894506685337376
122.05620739061044,68.0244088456964,6.931998149657051
100.98309391531944,76.17368842092964,6.184813718099753
68.68810377974528,79.97658101443639,4.588138535447879
29.97416254643151,77.46222303037197,2.2369524089849473
9.731887336190509,67.38244242721879,0.6126650053610014
45.425307827417186,49.71957659235054,3.572881965218917
73.2205218064361,25.84395346188059,6.264613890069558
90.56993989153258,1.7986729435258182,8.423941567210983
96.139217252256,30.363162939121604,9.875385891232671
89.6520209462769,57.31645477818541,10.547859591975838
71.92607516652495,80.81668573591008,10.526548640354575
45.07310610615094,99.66054561834606,9.934936962946786
12.618144036958231,112.93128663362148,8.818791959655771
20.74489050605658,119.62979491670659,7.227183850268655
49.859858642176626,118.6020109500782,5.2558737279041985
70.1355293215828,108.84757849804082,3.010752306209515
78.52495521049934,90.06396850788722,0.6626545915677601
74.07624116664802,63.133861533172215,1.5118077283577076
57.91015109916144,30.269477310574118,3.2564854763227333
32.71672751152296,5.249004599585832,4.4607500966185585
2.0660773415149105,39.621306905337555,5.1200841519719225
30.153134259293857,69.15766280734657,5.275584278031211
60.05718335994152,90.78724682058774,4.998972706124699
83.94064141048634,102.36666961854239,4.415453458823726
98.50252329797853,102.8502821347735,3.720797629447174
101.2597917486606,92.39963666164903,3.086007674094754
91.08116625191414,72.43892454257573,2.5889305851827973
68.64039250428728,45.615843333656535,2.2365056857124963
36.54223707592543,15.559421876249456,1.9798511474612255
1.0358852517615127,13.63792044353883,1.7467799839050533
39.10576601634905,38.105054195575406,1.4915569718699424
72.76775417542737,54.85666574924139,1.219002887515143
97.977567219238,62.24737824396072,0.9980230638183751
112.00556077853174,60.08613521278907,0.9840329248544114
113.56360766545318,49.44124753788749,1.3177218398317978
102.74128102644825,32.263246702594934,1.9561275975116392
80.90760772961715,10.98750685004931,2.6990316765229783
50.617164366960495,11.754301525911407,3.297045259689662
15.454315471536063,33.31424227081443,3.5134292635912248
20.296961221583473,51.178956033514886,3.175382978139055
52.20670081174497,63.14757640524345,2.191477016016222
76.3942382315602,67.54221779691682,0.5938160562113706
90.18489108359614,63.403181500381535,1.4722824552286167
92.89081638494656,51.23282237093048,3.8398201108123513
85.70995091880539,33.01617143409035,6.2914218103731425
70.90279218765507,11.398788788297784,8.53629926038105
51.30056277038015,10.725327687061302,10.301710659435791
29.82962402636492,30.65856399880313,11.355415395430143
9.153871956652011,46.277118259200435,11.50075690306984
8.55467566905052,56.27001128651272,10.680772891002476
21.760158034740495,60.21607499651951,9.0480073946053
3.077024826085965,36.03154038324804,2.093220367168393
1.913019200296954,25.478735785404677,1.9496646753349038
0.04433009596561451,6.013496950459452,1.6301063547839683
2.900503016701162,20.717942977127127,1.1847616044073432
6.581539122492588,51.2797701905365,0.6515003845368457
10.66080004583141,81.08907944230545,0.007462905939559145
14.268184694232446,105.27215326368339,0.8206792599278219
16.16834347811352,119.44912959552312,1.7127560615021944
15.071468397649241,120.35053262268212,2.5924868116167743
10.079075131085107,106.2193001747098,3.4241775600825566
1.1161216089259274,77.09531128337017,4.162546684882086
10.798481819902367,35.15923241429657,4.740768143101652
23.590648996115263,14.894937502844863,5.101382990358202
34.626939258302606,66.18238293647347,5.208015507262308
41.41913098765496,110.93733910352677,5.02629513198127
42.05255898678861,142.05141252418971,4.511392636283139
35.416824559457396,154.61966800734743,3.6596286740534074
21.36116089621846,147.20321865801586,2.4944042722763826
0.7070524616843076,122.07998428411271,1.0220593246900123
24.70376153585238,84.51237534230913,0.6778852202010508
51.96071910914206,41.297784929266605,2.378423457291396
77.19497250176826,0.8736988117592073,3.78531164714658
95.94910742900599,36.58798286295077,4.660527699524292
103.94564184889474,62.213408466065964,4.913206155413099
98.1037917699227,75.78467445705851,4.601365283314801
77.47604585463979,76.64535166693112,3.819634186266208
43.765837418358615,65.24975704981215,2.6466605174592264
1.162755847204981,43.25112914691198,1.2169226578982921
44.470211146070035,13.782006277939427,0.26139330894965085
86.7811434539118,18.470457236302753,1.555211814464009
120.09645639646959,47.70735928046364,2.4358886797158315
140.24565436253803,68.03722643437156,2.7326375022304603
144.9357675417106,74.83706774887183,2.373268885187983
133.77741992215388,65.95951189817899,1.4085429537970917
108.17210552686196,42.34515631014611,0.008725187798425953
71.19546183861686,7.804426465714654,1.6712698459253115
27.443888696416515,31.93115646721596,3.5172224374829875
17.305321662569696,70.49882451974128,5.2894730823366665
56.77906214573874,102.08945796600035,6.682408472863802
85.24101463905758,122.21753109636063,7.546996929350222
98.64137101400138,128.03293756614926,7.879813331587847
95.55249278489593,118.34965887027585,7.670474377139518
77.56423498067548,93.64968919620492,6.8905859544481975
48.951308019635725,56.182164500350325,5.616126049315462
15.723910234950301,10.066307803326193,4.036893033538564
15.64328214434968,38.81403019580653,2.3530081924626383
39.449424535941766,83.39464139922234,0.735669766132891
51.68099696148972,116.59039129514346,0.6979784270134882
50.5164264957606,132.7989322272664,1.9249025049643502
36.44956510129378,129.29069929597298,3.0242331428870814
12.108807177524803,106.98698127742628,4.1336141852648485
18.159846611282887,70.29175248061536,5.3889686807836075
48.96346266860064,25.981328524180746,6.853745716031019
74.76738487889727,18.451416952225593,8.427902428204444
90.93202645413832,56.42059030895409,9.908098435414031
94.68269988336252,83.35305199970469,11.103502216825278
85.70338316372896,97.04764468254297,11.833423884906043
66.11943680036231,97.39991386494603,11.933290990886936
39.85226292758131,85.8285800171161,11.278353677531125
11.559207637776021,64.73758449206927,9.80780021221927
14.472052577442009,37.18604289653995,7.540285231944678
35.110662958889385,6.718402866584522,4.6010594632918345
48.663893346657694,22.818728759128152,1.2645479905518533
54.726026047527945,47.62323997677527,2.1209865046039766
53.836742810250854,64.48190331210776,5.237422770639356
47.21246242570941,71.37911250150103,7.8413627184910935
36.651893804373934,67.92528791998944,9.760083162812942
24.48364040743303,55.41303658794677,10.87437910061221
13.357984922224388,36.476807415783284,11.180589360991396
5.775672971637188,14.472842203639399,10.784788430808733
3.444618751487328,7.2177437992193125,9.845499718171554
6.749966350314404,25.742648857821578,8.565849766518436
14.621081691849664,39.068032138698136,7.110565764842376
24.90840276886258,46.0083219780028,5.578813911563435
35.14047558626443,46.094389211255525,4.078421314413487
43.29107670201728,39.43532559961368,2.697380399375732
48.171971178746986,26.69585503655822,1.456629804333301
49.32986553444941,9.195125870300895,0.35603980349935993
46.60969996940251,10.981288151691398,0.6095974374175286
39.72636227921578,31.021889975155833,1.462309756532104
28.18820076287186,47.724035224647395,2.2112420152165506
11.652704360008329,58.12399158149079,2.8511505556256815
9.497162099110515,60.25346319092588,3.3868285408249874
33.700552560558044,53.7391508837551,3.854556566048763
58.20957880408771,39.962050605737446,4.28261634533716
79.5863258783383,21.675716144182825,4.619547095840335
94.484027862536,2.228606054349141,4.803776287540954
100.39970855944225,15.294665187045855,4.802175339192605
96.13953517801936,28.694606266455,4.58045737030482
81.9019486963775,36.867602837836735,4.1808874011500725
59.07925451510704,39.617972242171135,3.6885161832010422
29.96468237108454,37.29102260899524,3.1403322373559046
2.5266927877479275,30.503491943524182,2.5728478877866996
35.10019516516666,20.085315047298735,2.054709425967478
64.31239199409599,7.181040393527085,1.6427260682477316
86.87622518020893,6.644875617425737,1.3236272973358814
100.04845805293616,19.453540064141947,1.0784973833829499
102.00946978036107,29.1715557186548,0.9805201366287007
92.16914693104512,33.94321833533556,1.1056820651022006
71.33205141427744,32.44405289783479,1.4242274851638959
41.6811062830294,24.073866870457145,1.7935298240444546
6.593677834101181,9.058553826112004,2.0070084259042553
29.722065562693114,11.48302426696518,1.8831342976545455
62.77443123086604,35.48555915433779,1.3055668875613649
88.45328241992436,59.943693053623115,0.2147814074671286
103.66402832214308,81.1005125557322,1.385627950170567
106.73946583453002,94.93839378200312,3.3734351588016214
97.5093567585542,97.94381477431355,5.532372497938178
77.04662150920666,87.95286202459526,7.707772945461971
47.267484783101054,64.83232590953219,9.763991092079742
10.623831578739416,30.774920171000126,11.428022176188069
29.964010489342034,9.903704997820004,12.370719774931136
70.96858892047382,51.404450183288816,12.328698451980323
108.14467490970277,87.37741245534258,11.132267714988043
136.72555824040205,112.0175724405692,8.761696757479653
152.0608610641942,121.15951206810362,5.459598609362582
150.56846780433287,113.17279551937652,1.7465387372853578
130.64201600396348,89.46041964008897,1.844562926645203
93.17054714445858,54.359657227566785,4.9619894981104045
41.51812513709965,14.343993819717747,7.370379682323105
18.963726096288028,23.36549342865046,8.924591185999605
81.6371243668528,52.41691427679449,9.562445663891967
139.2492675387688,68.65315086562649,9.338736142377664
184.5316837372361,70.74938607155653,8.45433714584807
210.89533049053182,60.03126409674354,7.164784118134375
213.36959432772775,39.65412108328691,5.760590912483419
189.72221419321366,13.58413039007918,4.561528452727236
141.460109218428,14.219099141527613,3.8472136975264735
74.21374245876352,40.23769618381052,3.7595273475233584
2.876383599925755,61.5037939057947,4.212420564096879
78.7479307723826,75.60954652781454,4.940529188184653
142.5706649237905,80.79972152717626,5.579099512877785
185.80428687136094,76.1777075141964,5.764217207032022
203.54615182945835,61.909251143104115,5.261935896708241
194.91722953671103,39.25444981739589,4.004372098390694
162.6493472530705,10.384754167203122,2.0864256701963337
112.27213189077573,21.92040670194883,0.327569311949796
51.24343068427356,54.547672884822774,3.0726779645241185
11.877639831093793,84.22026439688871,5.923390690135203
68.33528440588502,107.63206073442738,8.607132236224388
110.32063799019971,121.68136064950512,10.858514572018535
132.30024137397828,123.91748911937576,12.433782670552505
132.85501605166996,113.54684665302169,13.160415028588584
114.84626114603364,91.52479517494332,12.995270546499114
83.8503624591141,60.064148713812266,12.058338976860506
46.77868932548447,22.72296464202519,10.604788133599133
10.27891835420915,15.914559316556973,8.9152114990513
20.573961982002913,50.94801142866658,7.186612372877483
42.92377707085952,78.07562566439319,5.546121521596939
56.04664612002088,94.42111895358583,4.102666356543598
3.4189811916513975,7.260604336230021,3.0613476664533357
3.6566530039263623,8.649705858278637,2.690861825963636
11.91442070662129,8.43899371805829,1.9630522528028786
20.33160426610164,5.896503956660712,0.9050051640807932
27.734860531385817,0.9454800113349938,0.4196932645325422
32.90271925523209,5.777833217775766,1.9257841958509292
34.69626582631256,13.155491994498256,3.501250072264827
32.15046125916632,19.927652334050325,5.003964574934706
24.639802330200286,25.021087041047736,6.2765167260761965
12.008940300646097,27.691719830364807,7.171885595976719
5.278103345095186,27.534865973667916,7.58751818441786
25.803507626901368,24.517085616131908,7.509354939250521
46.867713318512585,19.01015655040921,7.0197349989135045
65.06922829486966,11.55635237041705,6.205174870178831
77.31594486609336,2.7528525930705037,5.047392504786294
80.90286701661704,6.361713049486426,3.493175832593968
73.61565438720288,14.339019912409885,1.5781946592426201
54.309771697343834,19.902812848473094,0.5741089183959345
23.246488740146702,22.42120749740943,2.72994461816458
17.44571970614884,22.235542941669284,4.583019560646664
63.547659052058094,20.509112668836867,5.914457918833208
109.07226079307229,18.627467465950783,6.620277296222473
146.93806862786633,17.610630919538632,6.685556773372327
170.1904361930465,17.735527110214075,6.223931364653056
173.3837889134852,18.643006961559276,5.454899518830731
153.79663853398972,19.78249055373711,4.59332129691997
112.22060160720692,20.850984812723823,3.7500995310385696
52.99554139430915,21.981345278583618,2.9865276145312847
16.630286609450348,23.490943463599393,2.3863175480904912
87.70231800145825,25.376239288606616,1.9777778592763708
151.02372449616558,26.86607281027843,1.709162414729519
198.54766529426337,26.342507943406037,1.5124216590757447
224.4905243764296,21.77014651034962,1.3235289244886137
226.03104147921002,11.45876571638179,1.07928771880179
203.63362232568207,5.151332737214447,0.7324723251369516
160.9555521449697,27.02359093060552,0.2922378082846897
104.32189808648876,51.559473948216855,0.18829951742141823
41.80815065900136,75.10866050463721,0.6341766211018314
18.058566351359225,93.74851017088267,0.9792983959278966
67.75780524229067,104.02359596827688,1.247168477114204
102.03234229415656,103.474308444265,1.485079867992129
118.61834513039388,90.93567513873815,1.6906645664830795
118.26252064698733,66.68517618503104,1.8970854803211998
104.10494300493406,32.5535217072968,2.184602741993956
80.72681375016698,7.976941010058567,2.567332939514587
53.213602155031055,49.83555167339649,2.9160758067434074
26.463784311987126,86.84666857527105,3.059231860797269
4.780295637112713,112.75351144512894,2.9040498640171264
8.393903879396706,122.64756883563524,2.398821638560106
10.774381683418289,114.3953192088305,1.494937272314644
1.6168682371812195,89.48676832771,0.1908329355131695
17.93241458658181,52.87532025583699,1.3851144099126282
44.74731282163012,11.751775377880103,2.9880954293597126
74.0862294203208,26.347112645579326,4.362230239760622
100.39391879151667,55.38891968254606,5.265477124113
118.34013768312997,72.00665323587823,5.520556386444606
123.81876402405106,75.66258599057038,5.068986798471797
114.64161130659654,67.9594368570338,3.9657640290422096
90.80007467333559,51.612238831029906,2.3994222212004734
54.34044173439667,29.629989260729126,0.5747853498371644
8.969891439645734,4.946359202332532,1.3803619661881856
40.504489416620466,19.57885763758471,3.3063347132658762
88.81857607585029,41.072426901375515,5.018193313086738
130.88872707576186,56.82229329406477,6.403085147315673
162.36207509561393,64.76274865550562,7.412788096965854
180.0242120272468,63.99958016538213,8.003565126324489
182.04481264129302,55.06850105245878,8.088386733268242
168.08284914772918,39.715331922840015,7.586661587416522
139.31337987891536,20.281337731247028,6.4934469684273735
98.4117642150564,0.9651004445669117,4.844590951922291
49.45580033037411,22.217895557215424,2.696092299400039
2.360924894684547,42.06495937310505,0.19945445630973696
51.311898393183,59.102540716319254,2.3886208784812597
91.98741226802835,71.60625484957521,4.802296299317312
120.21045161792682,77.57960053930294,6.791595664512106
133.7268605133222,75.26303273856605,8.160258858726156
132.4111791546517,63.87838559715291,8.835281755073538
117.94026994093824,44.22371615066834,8.784668249590338
93.14242111165717,18.796323485222086,7.975546840956565
61.34104021553218,8.632091058032724,6.440324245535253
25.956206246760907,33.80868058302459,4.307686112754239
9.594501176679785,52.86588081478376,1.8339632005973856
41.907451596544284,62.97300755577257,0.6787993456596273
67.77360226895215,62.69796950695924,3.000721552880516
84.6289535171533,52.168322079925666,4.968382455416371
91.14967486258507,33.08685540590018,6.498489785697053
87.6712529546401,8.61294922378988,7.538397887542655
76.13348099330551,16.979765807097557,7.995299471259773
59.51045477003014,38.95778734815036,7.81350243811682
40.941779076943185,53.01896597651702,6.979795051753697
22.944896181187065,56.206967676843774,5.4920340361329645
7.055695038233151,47.550864208177615,3.4108037179019033
6.046981089216043,28.203266308138492,0.8684040794985136
16.160608496966066,1.0572630423574219,1.9220668415738673
23.231612636324662,29.957698549827978,4.658478214343357
27.307156563829764,60.58713582351688,6.997724430458222
28.776232629539088,86.75641857086022,8.666187583437972
28.655225460252094,104.86644417484897,9.555561093172779
28.61039237819642,112.04115882036784,9.653877219052085
30.596062983212445,106.4807038166879,8.945318005451163
36.21467892803216,87.91884329036293,7.462621675986394
46.05778365512623,58.005729530286224,5.409134820286974
59.32777568870196,20.324533568036784,3.123950205850681
73.89870367985125,20.151627733007047,0.8806281500068099
86.76886803091557,58.056100361815616,1.1420959860922146
94.72052512975968,88.71275499887581,2.760424550916247
94.95735100636185,108.90375365271179,3.85598884944268
85.60117415566008,117.09618129916458,4.475722068010281
66.01854909059784,113.20266338494918,4.793056225756732
36.95741695090988,98.19895740161469,4.978581464701375
0.5335461033541364,73.92408389799519,5.152072533812787
39.93214896081475,43.16129960317945,5.421529295024532
80.26103454129274,9.80925971328361,5.791762221628788
115.91675028808844,21.22827709698129,6.132966756853498
142.60084686785677,44.70975412187098,6.296895456576431
156.85475041220175,56.21503219283867,6.155628469915095
156.5602972132694,53.38257215066376,5.631194994043985
141.2629253803682,36.68561307059832,4.701748624724703
112.30390815696056,9.409765457636762,3.3669252181492424
72.77199147867528,23.13075479361169,1.6810458420127459
27.231021239026806,54.789820935120275,0.19085370172115526
18.786875883982184,79.75051751512915,2.038632993888738
59.5003062077229,93.34664734509094,3.7736406206074147
89.75497065443992,92.52732502252069,5.346436181519002
105.88504960633666,76.15832231490776,6.579380844635256
106.3697517706827,45.29919247836317,7.308382820435657
92.11115340634849,3.384731158626721,7.510518788611159
66.24554156795838,43.94084468364042,7.235371014624821
33.56289490041439,89.58843363294751,6.565682060703489
0.3307103468534945,126.36960478813133,5.657113697572841
29.9113178795305,148.5698360102746,4.703399628956307
50.531869381210775,153.20316363473805,3.7976253423185202
59.05680874694882,140.48954429973207,2.9194228741952326
54.293819966588565,113.43876863697616,2.0355841170529803
37.20198646771774,76.81263722318857,1.1256735790089698
10.83248518462899,35.979613483033376,0.13619665526019548
20.062715836538114,3.9290387300654843,0.9748915465855986
49.77980575891172,38.47114954562266,2.0897744997762473
72.7270950233473,64.12373578133652,3.003992731632553
84.57702565624024,78.54542693495334,3.604331638912265
83.17141577560425,80.93741702773652,3.890136825495886
68.90231327500612,72.32625410837646,3.9806556603264207
44.513344629182356,55.42533217522581,3.964599522803379
14.179780813587662,33.90156629325945,3.796661698449715
17.59195387549379,11.488378599712759,3.4509199768642156
46.696449272701834,8.723670959844565,2.9753118635494857
69.94987535166561,24.761073312741342,2.418245070395799
85.35191146608503,35.836055887790465,1.8210925682714656
92.12061679602415,42.050699793281716,1.2752780191905337
90.59408015294063,43.95075927618359,0.8818665490616495
15.745121898260008,1.1756670357081065,1.1231569943414481
12.48857352056401,0.5649494425084456,1.1572183465161672
4.836757498604772,4.023948793594272,1.2567642289146688
6.52249489723696,8.845750115124138,1.5041677367866493
19.737069345486944,14.076528774509226,1.83184046239637
32.25495856780043,18.367713000270275,2.091370741923364
41.481582706856486,20.25988962869976,2.165421589180357
45.396057613482135,18.450312702911432,1.9581261523791413
42.9778348521529,12.03868639351225,1.4240281026796118
34.34288195945794,0.773532647038697,0.5876937908501773
20.642519118590656,14.698791882263457,0.5472913847050932
3.8446165277298294,32.68223186959693,1.9828902759278757
13.555915418609343,50.52720851198832,3.6555109000363943
28.94767175217897,65.0420488973922,5.47180935250198
40.04527806963525,73.04325317530208,7.296084960249561
45.24637952251312,71.95492744535184,8.885712722152126
43.98780373093989,60.51146357836081,9.94725792778812
36.92493577613879,39.21372882805384,10.178335055652465
25.702049243232782,10.24995391468711,9.26569651739611
12.461601564687792,22.980223791968704,7.080623632760301
0.7060840416480103,56.55592011836259,3.869727814311025
12.12922723465555,86.64650953070462,0.16663089941799267
20.587605870138212,109.84644103098567,3.4334284424598724
25.14467246483237,123.32960414118669,6.452341786823409
25.009965808557226,124.99986277285619,8.548857724460376
19.656447243954393,113.78489534468886,9.522716055753158
9.180939851338236,90.03648164932373,9.361454377978871
5.3271262112594595,55.83511790524125,8.134091410124256
21.66833437212038,14.95525638172851,5.999595029870993
36.84742646857742,27.63762326438178,3.3550808649886155
47.74952661500302,66.64241140475245,0.6889047231288317
51.891379431945836,97.36862888490857,1.5828806816228593
47.947390190304255,116.471103968004,3.060308928485551
35.90057877484319,122.31589574365965,3.443060509406087
16.876599167680475,115.01054587536711,2.6770524375678906
7.120649308062661,96.2003918125884,0.9234522957311512
33.377791662578126,68.78995768584376,1.4741857313931672
58.553648907824126,36.6491334715513,4.022670453375356
78.84272900603325,4.2259981481109445,6.240517626719537
90.41538193641313,23.985819995181476,7.771942152502802
90.19324208038564,44.11694108112947,8.393075831715468
76.77015093150624,53.62775395491246,8.013397176634825
51.09531497312091,51.85656955060738,6.697302691984166
16.5469822750985,40.20916937879843,4.6744068775089
21.700976763161503,21.895981240574052,2.2408638414973856
57.80409979041431,1.271604371994334,0.31407505551867343
86.4624793587947,17.09060664471069,2.669090957381052
103.7888024019126,29.377783730962985,4.568837237930904
107.6345023171946,33.321835322134135,5.932512200262676
97.49554283044769,28.585472207057627,6.734348523729372
74.26137058489742,16.647424061437484,6.95574998658336
40.06484868389349,0.24373721748008834,6.666128077729323
1.7020937911925664,17.45806256131999,5.974332443007622
46.379758723224995,33.68780993543124,4.972645842575338
88.28876037309085,46.61340201558185,3.758228531318473
121.40571622101422,55.442074415555815,2.459874194128108
140.40209786790732,60.12642694500575,1.2523204663140282
141.73309467451003,60.86909513452925,0.2618663579262529
124.42979080449007,57.70827947195758,0.4927552187032143
90.36607863255028,50.40475912137686,1.0316963023607575
43.94978586072868,38.66437565677897,1.3890582565586433
8.605343844791108,22.553239997464512,1.5614691541334593
60.20145793557036,2.880412729207707,1.4991803780041957
103.82778463657958,18.649633487511085,1.2195458426518413
133.51974795812487,39.60012706892573,0.7770507883347305
145.25589526980568,57.21022999865298,0.165579563758956
137.6986050761985,68.895741247604,0.6206213906360086
112.59567375906846,72.71161937592257,1.4932096710118012
74.6033131618283,67.70055133789556,2.315962326580236
30.42950690665956,54.10429940989339,3.0079495846361266
12.545197416167333,33.42759521043897,3.5479690555917016
47.79929828654588,8.340485428814619,3.920085831242471
70.87935852947814,17.60108965928218,4.071037152124018
79.93514646507396,40.43372696322336,3.941993491949616
75.5283626803326,56.4238686930207,3.5035950302211347
59.9434746433136,62.748158286695656,2.71757474711768
36.40292150494878,58.076120417130156,1.5689284242541404
8.503574617512458,42.92163974908336,0.10077050368688426
20.06005119925558,19.647990411777666,1.590643914799296
45.602935162158076,7.893520539408679,3.3615269452264656
64.60924321672618,35.01613270133984,5.089724265714252
74.09202223076798,57.04581563611667,6.641991663761462
72.10354685460426,70.22355911743128,7.812683984675102
58.20903595791742,72.46676470061867,8.42566345406034
33.70618629046228,63.8009747295333,8.440748943505808
1.487838690693307,46.34076246281143,7.926969550102086
34.401533417063426,23.793459260958436,6.939648577024319
69.35479923770455,0.581774600092861,5.5315959377751875
98.78307954236918,19.171249849266516,3.8784213784537
118.6469475193502,32.50030369567874,2.2161943069043235
125.92417114446492,38.06557122786376,0.7046028682152295
119.00700440159582,36.14653518938372,0.5863603268437312
98.02923269366822,28.262336624942744,1.6447405966051047
65.02459219219567,16.622093233119294,2.4838714405945344
23.80641419613123,3.6365336019332015,3.134467687790335
20.456280632524198,8.379639819118813,3.684272582598326
61.93687141496578,17.349667418595004,4.25346345054923
95.01337384605739,21.52781694371641,4.888318071551667
115.14523047562508,19.664029180981597,5.551742657701391
119.6181603904042,11.285639388079417,6.1852383835380005
108.03143566951957,2.9949060551037885,6.71007652545681
82.43827041256188,21.32068147197516,7.046443115289353
47.062368062567735,40.73912064380389,7.136342759985451
7.597296996481814,57.706841476640754,6.898252348036895
29.788056985177448,68.85570091462931,6.23264356451127
59.53309470558459,71.79151652710267,5.111558535682421
77.5893741170663,65.6516379512388,3.617048425828352
81.9252803829021,51.2418263334828,1.893060465013648
72.57865349855149,30.72262311882748,0.05187940681808319
51.3748359109906,6.990246434862205,1.8675736582810123
21.516831958096407,16.99035368668336,3.782655563652928
12.808378133871988,38.66971843065171,5.50949559831079
46.80470996146237,56.08127398639188,6.872217365978245
75.51637824006367,67.73812273768641,7.747389483650404
94.45760081942687,72.4676618989224,8.058475837415568
100.40555024875856,69.39323714548019,7.780145486961996
92.15117547371784,58.17418154713963,6.934158668659318
70.90447992545286,39.43120944594395,5.607439026692785
40.130934242653126,15.106246391081779,3.946183413145331
4.810017318108925,11.52716917321457,2.146248343392339
29.659334489724895,36.35891239565568,0.4444582439626515
58.51371233756719,55.34314726354819,0.9205652738292515
78.31462263152729,65.47359451202007,1.8013219970117453
87.19011066191644,65.43752119421804,2.221035265950566
84.74513337954288,55.70665658182518,2.2499636349817713
71.88065536716384,38.106316209368075,1.9060333260055924
50.68748423177988,15.146380075135593,1.268545800904503
24.360409133429844,10.517996471500048,0.5004930565522937
3.0233758817278322,36.27758408554088,0.20304873925618394
27.01876483473118,59.47216599399548,0.6675719168818137
43.63580222524139,77.28600100175795,0.8279344971616022
50.216346574311274,86.95301463934932,0.6796834173833387
46.03658239499648,86.36513540508062,0.25539326442594956
32.418674393934246,74.85873993789691,0.30977758145957407
12.291259024023832,53.77443876756244,0.8380881759478133
10.59732712958134,26.411997000626474,1.2104401676532073
32.46579572785131,2.714405956695858,1.3951044624856261
50.05423133007733,29.034019308408887,1.3964775871853945
60.87977812954021,49.007145540375895,1.2446181798472098
63.295630768454835,60.71607003457005,1.0550825894358835
56.56033023860462,63.818633495147004,0.9695259555604994
41.0300376096087,59.0679349381719,1.031301670454576
18.56212550331208,48.07119488923805,1.190147649138746
7.6951491322226655,32.977102511089676,1.3696891772929272
34.06068347753506,16.018220510375567,1.5168222955991242
56.9499170028956,0.615543640709402,1.5971340539323682
73.55698204414205,14.91269365228746,1.5919709009922087
82.37365389724303,25.278332103812506,1.4967020921299898
83.36669813496134,30.835359052784174,1.2898340145970655
77.75384446128263,31.641361018336372,0.981125831305582
13.65771056766309,11.121787706362932,3.0331026190210353
21.473682214270266,0.467659146006112,2.9479880162334315
28.065516324357073,15.999753282463168,2.43651392214994
32.03162476036499,33.33149852392377,1.4660373293997326
32.20276877091015,49.48932760038225,0.06684447862428015
27.70690634244962,61.21838935988836,1.6781002388667225
18.025422254208685,65.70609250676964,3.5652276926569084
3.075504385159487,61.228951564190815,5.310496761140714
16.567872963593178,47.61480993635967,6.672047796842752
39.459575456650406,26.278162576877868,7.486515177335567
63.15246769302852,0.12673036365101079,7.661507944287153
84.16991571509782,28.09152706027555,7.172463814173329
98.29562777220113,53.535800966298304,6.09948217166411
101.76752648264699,72.58870447916534,4.5800125946764325
92.65839799940525,82.63644056549632,2.695787200064404
71.07947320048247,82.53152086179081,0.5747616227822914
38.96366219985923,72.55203322484502,1.5135190009597281
0.18524231617873801,54.51440036635945,3.2550350000736086
41.978271543394925,31.51122225466009,4.37699216048402
81.6236730633955,7.524890161432353,4.749801443093616
114.32904070763921,13.263545395476816,4.429125612801882
135.8145848583525,27.47810353168446,3.578857401733062
142.77786264209197,33.37470229576333,2.431079259051319
133.54110379083045,31.315025355830233,1.2450202082424526
108.62151760079037,23.497180102303375,0.25970609233607767
70.99266880424217,13.027128112499675,0.32693648273654313
25.855017205476447,2.7989503878221362,0.4153418817372713
20.232047371891174,5.37501757776358,0.04321551524491731
60.59805855415754,10.90942815030196,0.6610432799229234
89.78905557161711,13.927819300281445,1.5418196280411665
104.53951829557126,14.493994836576244,2.432294035708366
104.11276409202107,12.119041259141447,3.1567767710604135
90.02978576154173,5.916956549098676,3.569840090656583
65.36634060094545,4.718526075104812,3.621266540648566
33.98412838291186,19.364010247746144,3.3695881190324206
0.05291821700282653,36.283730616383814,2.9245809151507323
32.78348603628667,52.85033926765318,2.410348897467214
60.464601406928814,66.41868806391291,1.9630004503850222
79.72197560588434,75.12243228153848,1.689828536009263
87.83970996717761,78.11416929848214,1.641505817021857
83.17942014775615,75.17763516818405,1.7875147220421026
65.61697078739614,66.0700753644272,1.98719193854956
36.81247052771229,50.161968253859925,2.1395351970666088
0.17183132668989834,26.759791689106976,2.2449667125477393
39.53920184825333,3.991689931183487,2.1952858384333815
76.84644109629026,40.15581915416565,1.7979875186273058
106.33876263532419,77.66648879576161,0.9740289593500681
123.42543810081654,110.93374548195526,0.24953748089766328
124.99476405240854,134.18225895318747,1.8052626304820878
109.93459929310288,142.96915145742037,3.6087178134216082
79.4627425078265,135.23699602149713,5.512709171343002
37.18697003046586,111.57026165720033,7.292166029659693
11.198458751464369,74.79470886350656,8.7376590862389
58.64479083552632,29.299074728653785,9.654825966580754
97.85796875028383,19.576559814031043,9.847308669218346
122.60541426071075,65.99756800833954,9.186367586589922
128.92988201180313,104.11028621622128,7.656220108332748
115.93755304148142,128.7539217211441,5.379714545747733
85.95554581546763,136.39133120025346,2.5998103835048836
44.02680041526087,125.95315731982268,0.397800328144813
3.1163440653317567,99.21541405269014,3.3058542355228315
48.30048200257649,60.47860726746054,5.744575387608851
85.09238750506152,15.653292605500768,7.341762815407631
108.700311809887,28.87552715054487,7.913350506046977
116.47858457902576,67.23239930864771,7.483227391054765
108.05153944721783,94.6822397835101,6.225205811234754
85.13605583242749,107.9839757745161,4.427150949563527
51.167144548143526,105.6776945798596,2.416096792813083
10.787452917254077,88.38349577361849,0.514589154541002
30.7735191332734,58.966854932822635,1.011733790676233
68.36633295386147,22.278171872069038,2.0245416612213174
97.56603789972007,15.684520676481384,2.4982906561311653
115.20555486213777,49.01347379969161,2.492146197790102
119.70936113586234,73.1079954582365,2.1055130087847553
111.17863897220883,85.4007058545392,1.4059108541554484
91.23402838726791,85.38353691838164,0.446871387450222
62.69653563451661,74.1159342536553,0.6741174021108943
29.181340717953574,53.64284542260115,1.7965682477522997
5.333493236345566,26.69966507233957,2.7111548604342515
36.92365274178831,3.2651017787560637,3.2432537960942516
62.1364903357643,32.07643678107673,3.302733568733823
78.38704068982332,55.22016064077782,2.8360998897399137
84.28066193971101,68.74403610411554,1.87432391439474
79.81058453817353,70.37795465123664,0.5754598318442893
66.36637634735685,60.30202365221689,0.9076037925938564
46.515843245343454,41.09246990336587,2.4459257024582217
23.553670258880196,16.827964499031197,3.854506678191776
0.918746268739695,8.205486281824486,4.956151246971086
18.338795752791903,30.5475919538505,5.608768713790033
31.925381994930557,47.87552752102792,5.701895567347138
38.45723528364576,58.678838124717714,5.204261648047789
37.4273701854385,61.79480736077299,4.130509850588126
29.107631820854277,56.31419554443406,2.56542942923888
14.50133222816283,42.044116959885244,0.7284917497755032
4.632404441285231,20.247128310551147,1.0794225038939111
25.757446758836803,5.9578903623812405,2.5706391302297265
45.67473091205489,31.99957058386696,3.5797671064233487
60.88111163395956,53.011644588385025,4.1004693052157535
68.16708527818487,65.24178545179953,4.212712887002826
65.31646438735437,67.03818296045183,4.031305457590868
51.67936523870215,58.984994028163534,3.681663931233523
28.426682329942196,43.269977641344596,3.231014080268223
1.5708537893188166,22.761754197238297,2.680664685109601
34.20304865449104,0.33966882525678355,2.086646578340512
64.78789458184107,21.283074529273808,1.5602756151234942
88.77955874125173,39.435484160540646,1.1801719189713602
102.43114240607888,51.47236670626577,1.0153844067569
103.36958861531363,55.161589507693506,1.0943408414263471
91.03050848461642,49.420493172419654,1.3756008992381596
66.86892689477364,34.99371398632814,1.7836313081552029
34.246099280274066,14.590289118174464,2.169018807208193
2.0619032561231116,7.71663175220817,2.318121018386285
36.68833263366551,27.62262682035629,2.0219887742001177
64.64226195450469,41.78051484760042,1.162743751055314
82.1625187196357,48.5237141590172,0.18955367618252472
87.25306006206553,47.88917544274216,1.812377098052056
79.80794123465569,41.10136498693036,3.4239199086291667
61.39207612600371,29.870442346517255,4.755610101089021
34.83557523974662,15.83139071021885,5.6590171460538645
3.795472366260713,0.28353630836454824,6.138758260256471
27.655458888165814,15.787927445526066,6.217660967305489
55.43549144630006,31.53372430844243,5.84956185369462
75.8689414277204,46.02473517953565,5.010818190832928
86.12461995850042,58.05892853682264,3.743960393158333
84.62253693433415,66.07622248784817,2.136393773773144
71.27926162825229,68.29262059755361,0.34569676497573576
47.533419744925965,63.1238720633035,1.4222064129058742
16.151029851954284,49.84634741377807,2.9578139763784024
19.135476567709574,29.252224439483395,4.063716347444575
54.070056374824404,3.928673855797447,4.606878954101105
84.3483122770575,22.129015956046413,4.595160476746246
106.08851721312233,44.52964520043149,4.201538156573606
116.29419398620786,59.73762078801115,3.653998182425164
113.28230465655768,66.00689290616492,3.0789774945044175
96.99075297625593,63.55815402405909,2.503669953495924
69.09509066913051,54.012614513491314,1.8916175966228348
32.89363451589944,39.514409413046884,1.1168681266174638
7.041854661343033,22.091642991166655,0.11111660752747829
45.40724137305617,3.586580775604162,0.9767529541870261
76.83864391950566,13.987748308818984,1.9524197880818934
96.67591396515212,28.161265739020187,2.7778272575713086
101.76192775026591,36.266763240658484,3.4915652259352896
91.86686794804395,36.917870147135304,4.116435400613348
69.5522321989394,30.817272947077466,4.666356499562029
38.73004335268217,20.240868310772182,5.127356212080695
4.051960910330631,8.428787321189603,5.4564160923097536
29.771418638009838,1.4661609652329624,5.598717482820903
58.630439913063306,7.45954545842637,5.498070671496595
79.54431420400077,9.327899215867655,5.118811950868201
90.96400302383958,8.404649904463596,4.47137012688798
5.975119763796008,3.999079961963327,3.140664574948188
9.389032102266036,0.3430537026285119,2.9887139617414724
27.658550675037468,4.958666209388047,2.434510865804655
46.513263029200374,12.107530261368703,1.5832763948449131
63.034564720938114,20.701442748924045,0.5156025718704716
74.00472312314774,29.50177298675858,0.7760105636696127
76.44217325005582,36.58021147045089,2.2336097660076084
68.19047595934549,39.773392659213684,3.6724203089200573
48.614836224936994,37.32584338488203,4.878213418631011
18.99291880171831,28.370073777049864,5.650036879456375
17.43577970220323,13.145093868508713,5.829109348865913
55.47522971611626,6.901690011072885,5.34944947078626
88.2439915718917,29.126980157243214,4.300572314946909
109.14161959950752,50.32876190315213,2.942562321703208
114.34112904741434,67.60638243794187,1.6261419880805426
102.99733822395832,78.38254955175317,0.6728089135847871
76.8563863100674,80.36791500931905,0.2507302520521425
40.14027421137915,72.06591684483325,0.35430458718680224
1.442165836003114,53.324085947075275,0.8500330310354944
41.49900396678911,25.94900712615927,1.505867540377831
73.82795159691258,6.149616681793955,2.0803025326296853
93.50497252825403,37.64817386820423,2.4234000951437933
97.53164115559495,63.01991954207488,2.486850530150531
85.36952248413921,77.97735634503773,2.196520530827248
58.95554164144358,80.48204570650684,1.4226797596652805
22.279198395209125,71.01747890210973,0.17859702208134476
19.232894389362045,52.18442871224417,1.3555732525613402
59.59379180842755,27.831564843894224,2.9681154975022372
93.04721987044115,2.215612236156315,4.451777386594634
114.82213817902544,20.62750025858516,5.626955204458089
121.77988238636173,37.29024803557748,6.3428912374816955
112.83473258161526,45.28436062856241,6.535318018574897
89.12431404804516,43.379838712228775,6.288021785698554
53.77660363374791,31.921406086297686,5.745064684633098
11.341988040102173,12.964786690452335,5.065693307032188
33.00398841270471,9.967268656983288,4.403928861130582
74.26504602439388,32.56508507385477,3.8209913358921206
108.20573634994358,50.66541889484392,3.261948517087295
131.67538243012586,61.15801087585273,2.6227472519105772
142.71566015280655,62.52991359142852,1.8514765835605338
140.59189040204419,54.894820253723395,0.9835220024137712
125.82530922610005,39.624800175263175,0.08917097614781311
100.20793318637492,18.82533704741042,0.7707381545770355
66.7200159105197,5.091945983259232,1.5089880300359795
29.228984095715095,29.61562038591222,1.9815742694424394
8.028255065497051,52.19189181273827,2.10061051426578
41.04971045591097,70.32618362400879,1.891927446366981
66.59146952228691,81.86543791504545,1.3942811711353778
82.49624661713038,85.4220790371304,0.6573675476136188
87.79292210508017,80.75713308879314,0.2061569701022396
82.62802517683473,68.89501887256526,1.0796885515008856
68.16475575758471,51.84745555883479,1.8753331351837736
46.494577010813074,32.049139869241536,2.4960365086160117
20.513779930092376,11.779881250446072,2.8227628602914008
6.279756130297139,7.170267951170884,2.6968947687025593
30.104638615139432,23.491863515073458,1.961577532264377
47.32204781458778,36.11124617083548,0.6026316928988058
54.8924355020339,43.97354303575823,1.2575093786712945
50.77749789676932,46.09131622666567,3.4758766218871098
34.29246853621843,41.91366019832023,5.870072484889608
6.4282715265164025,31.831300758957685,8.181980109066345
29.920893270382155,17.497500584014144,10.073236008766768
69.94696368618861,1.723325572062007,11.181169979460767
107.3089687369288,12.085600477483846,11.315818208240605
135.02039534167403,20.74591336184248,10.483642620907471
146.75809266081282,22.035182264497905,8.81629347913019
138.29693560544976,15.114263882721716,6.649843935482877
108.64265699361773,0.5727798832942997,4.354990210186839
60.49459323100228,19.804813189265158,2.103507375940341
0.10782486537230908,43.37306970621654,0.006546455213161982
64.84608715590348,66.93434146059153,1.7606515881135911
124.56787644067296,87.01819456275703,3.036897980685844
170.7414990702913,100.21426213863765,3.7754036214359568
196.69290173121698,103.61333142327817,4.106650538375711
198.52088138591282,95.32719786339274,4.301750519695351
175.64137178798134,74.97403700822248,4.602162711961656
130.95562219936488,43.9523158563369,5.097113725726567
70.57502506491228,5.380841471659971,5.7740065648579355
3.0137377111101435,36.31693839207419,6.5400769528071105
62.12785939842012,76.11320867987845,7.242257711925583
115.78407346013664,109.19218840127434,7.665610156872213
150.99008208921168,131.70567932604789,7.483438835116896
164.0234637028977,141.32268685960634,6.495012286641662
154.83952572391448,137.46005441737003,4.7765211153529785
126.74771681064706,121.1832911715875,2.5592452408889654
85.51595086497963,94.85698476384452,0.2537606937617212
38.168011544315156,61.66914443913139,1.7188731061485787
8.219475736040456,25.20592088235532,3.1624466459795735
47.49798148386476,10.814734044481183,3.988020528676897
75.1388396881153,42.7107018228619,4.086417681022461
88.62674595752462,67.047179730451,3.331183873491499
87.59040382097119,81.0233931657018,1.7384712306710444
73.69233865044289,83.05446611667622,0.4350288612387807
50.29828642512287,73.36530294870643,2.784242959145887
21.95740725922296,54.28043538581794,4.807767735300201
6.279711825711099,29.945591333031906,6.094827494072281
29.60327017288399,5.439495023254139,6.452534391768262
44.14214107601662,14.455837352548407,5.824473711117274
47.52244731121801,26.366871477981835,4.259683839878527
39.19114384097589,28.936727773628157,1.8808099136026097
20.463975461607582,22.775731446876687,1.0606310455175028
5.727802256981974,9.912272740938205,4.18639653621022
35.32619713407071,6.876229529386642,7.136092374210954
63.742816465194,24.558223212378323,9.593734669757847
86.4777951602105,40.10711320140222,11.325199767594096
99.66435203904288,50.67000567018867,12.171723157709861
100.51557287563665,53.87294814477263,11.976137938374315
87.71246971504426,48.33899365187016,10.669210645290098
61.690288933879785,34.236192289576145,8.389940709189856
24.772747124002912,13.516009058160598,5.50873660400375
18.928301830723896,10.397801936913227,2.4739492192026544
63.966212275808616,33.42461897131429,0.34719119337763693
104.35292151941687,51.83310523343269,2.6813866960501276
134.5500918038038,63.01873946476859,4.421810007788074
150.4305149597074,65.77420649541716,5.569579300511467
149.9685093811736,60.081561817076185,6.110147169197091
133.50883437677246,46.73990708053709,6.096138369261608
103.58204850397257,27.167460388542604,5.6829698553307155
64.38358307075164,3.4629845894374975,5.105235499974466
21.096400600280433,21.45695085556015,4.592179796524056
20.823320783308773,43.95541651985505,4.260865607805685
56.33113115472128,60.22775693952594,4.197430867806084
81.42774264549496,67.22074867630933,4.477243930560201
93.71404780094278,63.53394796568323,5.048541993877705
92.7794864576881,49.86521877605911,5.707154334314323
80.28565933879173,28.770812548568408,6.157595296232392
59.63694171928291,3.858427803515576,6.0746114956475985
35.28793833194533,21.17622895555525,5.209987933247916
11.85343572604568,43.223763129828974,3.584464515003256
6.743067758067853,59.95992834136302,1.470948265436222
17.837317542020738,69.72154325383205,0.8437894921252128
20.232072155875237,71.38135674867115,3.108766185136292
14.112847731336627,64.46377330546795,5.085994661628607
0.8094055032550543,49.49209970845322,6.6129530519321795
17.457372385774118,28.299765267706288,7.559015382962822
37.78468451656963,3.9591683927844965,7.821331309272053
56.79165173501122,19.8058107563188,7.413287138660207
70.93973108505546,39.5166726413682,6.435521444469866
77.01480397607997,52.7532629966662,5.033928665090397
72.68503391782983,58.524453403268474,3.42066275586553
57.01331450279118,57.077121860431426,1.870866624478458
30.76142470892274,49.36770188669415,0.6865742444794806
3.2309098256476645,36.89042980192158,0.04056001315326898
40.718117516268926,21.376103544684142,0.07245391456174777
77.3276688066899,4.410010014581392,0.2556821326654786
109.11324907588603,12.430581225050698,0.8432464473182624
132.97524411470934,27.483003232801924,1.4662861177003434
146.92668321313926,39.12079120401013,2.01540124067512
150.2236185740277,46.088338938808846,2.5104124324172314
143.37679251655013,47.8823094698188,2.92431409009918
10.217873517307183,8.854702586029335,2.5808486647095052
4.021346122415526,0.3571254350031531,2.9816018124131523
22.95801246943078,10.642157566826675,3.1019316368295247
44.09679857631668,22.997542899418846,2.8603107127364646
63.871363844642005,35.26717008773573,2.2769297260610517
78.27772796651169,45.80935864177892,1.40612197595167
83.69864111002147,52.9080859018927,0.3028850980776289
77.63863291322917,54.908700946974086,0.9932029501861022
59.3312233967265,50.4914172946553,2.42169755174631
29.941780145683627,38.973608920189776,3.8139786006050107
7.586434352724386,20.601886694759333,4.940795282798959
48.77916459487022,3.091233116404614,5.664793820979098
87.95962632307734,29.04945887646447,6.042265493186849
119.47169921067275,53.38561864669262,6.214885994504532
139.16901707731904,72.64645759864908,6.278412943183554
144.5136283699421,84.28839675439725,6.282266848066046
134.41594238731392,86.84486197587108,6.1743770591916585
109.43106364966839,80.13485582143299,5.865986488044902
71.582621697453,65.04685544300335,5.316109222809962
24.41049794039788,43.38491509091287,4.458975348373466
27.03376024832769,17.72679743420086,3.231470987773896
76.57083841197839,8.8423022499212,1.6121649568016418
117.5384333293766,32.96630088401011,0.3211653275944426
143.95144629552377,51.48461475688621,2.3960680570899253
151.70837825130536,61.97258774936185,4.511358022810187
139.5543495421932,63.213039872200326,6.597936484254616
109.5072618781608,55.4981026663139,8.52779867122329
66.45037738894278,40.55548957613965,10.124163719465619
17.170134583537557,21.18339955829275,11.116242220501174
30.92861112181793,0.6917621190765089,11.207188650631805
71.0044684054847,17.66747903788723,10.243512387637946
97.61414892838565,31.116928097890685,8.298006500393559
107.27455402693012,37.60296450997546,5.60929469495064
98.78796284169246,35.92326783415503,2.5386035800100406
73.47918160695487,25.866696860776166,0.4422322431797554
35.27178200257036,8.409648725304672,2.8772269473306387
9.636657500508178,14.129554616428559,4.389562089568776
53.6380685296931,38.15596040708637,4.748238269328846
89.11349267612673,59.249634414773446,3.9942204868112188
110.04210104856503,73.0186102970363,2.4246258942439587
113.27281136722719,76.15164007194325,0.45512823448677014
99.00008157252621,67.30924965329478,1.5729349297550734
70.33371441703272,47.518714113837795,3.376300055005598
32.214887632581764,19.920558060157003,4.606173280459866
9.836357991850265,11.01583827023572,4.9788159706826765
50.63570755713415,40.48673051619597,4.393428729726501
85.72589268635308,64.22345094452595,2.901565622413548
111.40443852315565,79.0395702082077,0.6894347273157837
124.72348143874294,83.0754118130901,1.9360772927123302
123.74946559728659,75.89992654857026,4.566095058316278
108.07264804763,58.60021975982053,6.705572657690538
79.28747481027068,33.83573958711797,7.90015246493231
41.098651464822645,5.701398729537317,7.969358873966421
1.118382316368133,20.780673830529683,7.056744865824354
41.20596554625499,40.59301339999403,5.5161124107588035
73.29703193062277,49.874587710981814,3.7703557127209257
92.75841397405085,46.91673993517266,2.142567685346079
96.81309623379705,32.6250744675514,0.8349386128163234
84.87016455527746,10.235829304959742,0.0848412876938238
58.66570815284124,15.593557354795363,0.6828152717935541
22.216166355068463,39.942340660660285,0.952783570068909
18.53002227608297,58.638765030607445,0.8105802217946506
56.479356080286415,68.84841047064054,0.25614138504136763
84.62219801131265,69.17280537080994,0.6405962987081855
97.46226186297946,59.450342197823026,1.7484522883509739
92.23153503089833,40.52172700205704,2.8390254507173935
69.48708058736898,14.105975349094185,3.621331606398512
32.87987256462912,17.210953594067874,3.8507278856881264
11.780259925887606,50.021815585954336,3.4239517570865647
57.76530240189831,80.34985358648915,2.3932838357859643
98.55987324814951,104.14533036648,0.9346123796133027
128.65399121118756,117.95515298058017,0.747331182966029
144.01560909613426,119.59201046989801,2.455629375047787
142.40099708306576,108.57713933761009,3.9877327982679027
123.61309817524223,86.22427196052276,5.210116633426582
89.67866422944016,55.35780631862525,6.041810478590169
44.787558346892574,19.784990162695927,6.415595362514945
5.195398954517136,16.306379057088574,6.326137173320319
53.657816996567526,48.90937181912073,5.748444394934191
94.37885204772002,74.63893565892418,4.62890665454906
122.56029045383188,91.03382146956484,3.0223018496216953
135.46171028233567,96.75987200374585,1.1064492443713185
132.54623928441282,91.74391571705303,0.8255164627098737
115.25045792119717,77.22446476907398,2.434835378278625
86.56356553716199,55.651624149496826,3.4913285236669935
50.58297428272188,30.394198973076083,3.887131878079794
12.080141922003506,5.258306915643208,3.6099132640701463
23.97930764732295,16.13115271572344,2.7470834858280493
53.012820258713425,30.947623927909007,1.452041937634173
71.46978498834409,37.62542535209875,0.08217117090869891
77.3881896141734,36.047615599302404,1.6282529160957122
70.70324496982023,27.43192736600524,2.949493990041117
53.21794150785741,13.986636373533315,3.849015657732526
28.225488807899595,1.5577566520365862,4.166937922871847
0.08763602422780437,16.404820372952837,3.801697319930794
27.308176117549866,28.0713993296341,2.756681524011476
49.415437413645236,34.69561875029773,1.091452064385791
63.27242183212094,35.260595827877275,1.0213805596667622
66.95716888577154,29.73037586698362,3.2067562406172896
59.92356616470075,19.057925515727348,5.052631997153309
43.00449392131206,5.005102115038209,6.299791283213241
18.274155245900012,10.210323817023582,6.817114508601268
11.187434908965292,24.361821240341953,6.522898095957377
41.59345717253604,35.60321901219158,5.44674845733339
68.8224556124746,42.6621337645748,3.779880838583948
88.87303541867941,44.83561654566039,1.7708983029372687
98.43453835923285,41.86586538315682,0.32518333738928074
95.53057354856753,33.83880042188156,2.2477147264737725
80.05770974610164,21.241941149710634,3.801131865722061
54.01061288357736,5.144798704769601,4.867357699795045
21.20372132394125,12.67885239513429,5.378418077259783
13.516878305174478,29.852403560573947,5.331034344003959
45.31700880079805,43.76792348368279,4.771690488841934
70.31992216668539,52.14544689481798,3.7876195070169527
86.13395847848552,53.559965161330595,2.5191780712466287
91.84188720231356,47.68390122639608,1.1387289086273724
87.64273815193984,35.192406467217985,0.15891958746785886
74.48481909151727,17.46453535580777,1.202827007633207
53.9157724081296,3.723959547155995,1.87410744509851
28.164960043750852,26.33235732826445,2.0385085025684306
0.2484324945584577,48.00569872488353,1.6460103237446104
26.21172463574808,66.0390111389227,0.8560608054161851
47.55472919667837,77.58659347231993,0.11875692717354026
60.876139682205995,80.2157558990645,1.0903257467912046
64.72645913547224,72.64731336313069,1.865071857218578
59.36043682057458,55.348684165330894,2.3574989677012956
46.44733639701388,30.65606160147986,2.5562976196169043
28.461331711086263,2.2837706726951654,2.4001155394679294
8.097579966193985,25.590086031399792,1.854471311636866
12.016008044643947,49.255391149584966,0.9900075920706003
29.30278639240637,66.0609044851587,0.07566318312992754
41.16763234155722,74.52789153135943,1.2390346325352841
45.18203148120794,74.13198091389484,2.4040900775911713
39.63711822439436,65.05564016182642,3.488913735392034
24.280198880768285,48.157079906673225,4.43720754727821
0.8548251830247174,25.160054356457177,5.208822719549563
26.91132037037288,1.1761673149263032,5.806409613123464
53.974890905659194,27.190280023361247,6.244696733807928
75.08864704279439,48.89437547152409,6.521849654796491
85.93875537008937,62.84952888528059,6.639920295678519
83.92436652474063,66.97517841126543,6.553507766019663
68.45176943184215,60.947194926778415,6.172790115105384
41.55496846058709,46.34016070512731,5.445387594276436
7.275705503626444,25.998480759950628,4.379377913218957
29.861015167415925,3.0237587165770425,3.071676848753647
65.40006535890348,19.71638012742706,1.6596386673010923
95.38932132958719,39.83734884953895,0.24059589561092903
116.75675123858747,55.49731134639416,1.0818535001052298
127.6577104648444,65.4098245519097,2.1844043074664166
127.73281322625368,68.92212210403002,2.9646061626602753
3.376248953559071,11.69081417716808,3.0011344232422825
15.370651085477194,0.15921756807119697,2.1330403510775997
37.403905472584704,16.268041293664954,0.7343462594023453
59.160360962429216,34.45272152602463,0.9819251159797007
76.55104985050528,51.88220974362629,2.7186634900308877
85.69526393440091,65.59109270921998,4.20916561015342
83.66677498763391,72.90319323631962,5.26088329019631
69.00533952336899,71.69327324377487,5.749015566088502
42.06768521887747,60.65285735369808,5.610002218964362
5.034732834916595,39.56633882015021,4.870175991064721
38.31443130140689,9.63628658288978,3.6762208071151736
82.71251585567764,26.13962704152957,2.2796239359629666
121.50410741954053,62.819882919761184,0.9680234230843943
148.04769432896603,94.39380775604094,0.031087333931781185
157.78424690935887,115.441589099433,0.5942885208060414
148.7184231167562,122.33021735354504,0.726854432304678
121.40984432833963,114.01217916459213,0.5610114151421056
79.08480472393786,92.32048356831459,0.27151635047556855
26.915109150950908,61.24209079878696,0.043450470026352626
28.709907735969285,25.808397369018145,0.050121003469837645
81.00452586619487,8.99703072486619,0.3612744029042553
123.76482696211451,38.997663513124714,0.915551886903438
152.01348965740365,61.01170352725951,1.5317260882741162
162.61570235573322,72.88039864218297,1.9656686462260895
154.59795556858631,73.54151391364222,2.058400845022895
129.2168690464704,63.317418194769076,1.8097356451750797
89.8803559575466,44.29436396889681,1.3288540296356812
41.74332908708084,20.354071016823525,0.7676775409841886
8.866483739156308,3.3487295264450276,0.2618771723956651
55.27480455613574,21.510144580091115,0.08808356556447385
91.40690554975185,30.0400089125179,0.15480659712598693
112.65764607335235,27.113999921252457,0.18112188094401566
116.59915711263109,13.53135770032263,0.8726624358493619
103.30850493785235,7.736489181475981,1.7226972073769764
75.3141229510409,32.51428056886321,2.507267787164477
37.21910340599398,56.46043640316274,3.0476081186535495
4.933967970922372,75.81197420688629,3.2637976586772575
44.45926433913942,87.72211699592076,3.100326611303669
74.94513820301752,90.32056182570388,2.5200108862894512
91.22609123838875,82.71450144781272,1.6414225920352166
90.30329964355221,65.10700076373591,0.6728979633963144
72.00472572024546,38.981545968399786,0.20668194582305294
39.16971597325978,7.147413421286024,0.8030691976533493
2.7464492392064628,26.518592075437443,0.9400729328054367
46.6380016469854,57.68339570199093,0.5845612584886835
85.05293033186203,82.39044812205506,0.13819408230147706
111.47723851646316,97.8467086091757,1.0170033457413146
121.31883861972958,102.90270718386174,1.870845363789334
112.46148552295,98.09185472322822,2.6263158865464487
85.45048934485258,85.27293345978853,3.1968830738095435
43.44162469079399,67.05025886760218,3.389877840001316
8.058823273291205,46.18205259247609,3.0516768383297666
61.706402471869715,25.152441784101192,2.1795246137749817
109.18192940480705,5.975966631514437,0.8833480592769096
142.483462765676,9.818329562461962,0.7173375356693882
155.48352555190786,21.13943277370622,2.5365125023850825
145.37020659228554,27.342005067821155,4.388358261317152
113.50335412089784,28.33454477218846,5.999538279636411
65.30392993180654,24.739824178777226,7.210760487345319
9.1379542748743,17.959324711696286,7.945348034935539
45.491717296781836,9.979877666604617,8.114902885374917
89.922974989653,2.9226647518481426,7.716841194815467
117.93687542534839,1.523808734934112,6.851578574287292
126.61264803900906,2.5630557976977677,5.640466284922158
116.35592465532513,0.4045016996741236,4.227328603398932
90.33112470668706,4.029486651350456,2.7478025971533118
53.61365096377156,9.63403903061342,1.2965294461400685
12.28609917912313,15.594336342467757,0.019381114343741627
27.398066692950675,21.54160983007097,1.1368002065854304
59.77703480738509,27.328484090830433,2.130639333697392
80.47651202321146,32.60435164633515,3.11469872757869
86.99014095053293,36.523663052076834,4.126422527840387
79.05197263139661,37.82610282896932,5.126906005288497
58.64722206356971,35.27490812900439,6.01763251833289
29.57414691962165,28.220511587181676,6.685948746093473
3.3745657637145423,16.955856075883737,7.00953078476796
35.41329733483963,2.67291358413468,6.84968667708737
62.63841712727073,12.907661401777043,6.154025858633605
82.49808477538227,27.991241626314864,4.964361545930267
93.76914542335292,40.96674331457313,3.3400455389065864
96.16483754343662,50.38482252343559,1.4040187951931082
89.83461363691374,54.847088005740325,0.6182219660189894
75.06735786216487,53.05042542364653,2.4485199254417207
52.38046670063016,44.11558348246749,3.833864991365079
22.911305746214087,28.11939906510887,4.640287996003183
11.151488169473838,6.527284487696135,4.875690393970725
46.422839290888724,17.794798379407112,4.603020324734468
78.65327417459588,41.097132587897,3.929172405771967
103.47762479537994,59.6271088993657,3.073860520073353
117.34256418291744,70.4936239704304,2.2406687949285584
118.26537690821763,72.1510213174113,1.5089816816009183
106.17533950291627,64.42494844012937,0.9435379967645532
82.81248264981114,48.25742957882477,0.556562095363416
51.315125779154656,25.435557483224322,0.2718993755434423
15.713564871716638,1.505204721149571,0.04387413742043139
19.52178128636345,29.26680560078796,0.16897980169116839
49.88554452703561,53.927044860022285,0.4196328798937648
71.30040929457631,71.44617196034608,0.7153189205688157
80.6946167901468,78.53949330820919,1.0854890898367278
76.6099419830555,73.63624604614446,1.6004341822814407
59.666612602235595,57.47254591999533,2.2238299956695107
32.66189546296598,33.003622218583416,2.7765226186252425
0.1711660551318444,4.659204963563962,3.1086078971295383
32.27561931708383,22.759889583850896,3.186624942955028
59.22963440476931,45.1060774437934,3.044688789505988
76.28833676098317,59.47678482874068,2.743173228870077
80.78789343059799,64.31302866603167,2.354826023038567
72.13521124873874,59.214573676882,1.9502657759831314
51.76629353641071,44.775835091442666,1.5306941677404937
22.814383815361733,22.616117518456925,1.0435971117161025
10.435773633078936,4.480679684894939,0.4981757916089348
43.23444332758887,32.579774303077464,0.06835356557539322
71.08219797926144,57.01479674475368,0.7096198549927297
90.35801958311204,73.26288616626948,1.5100259674557432
98.73733126397656,78.03228024570126,2.4393675082812636
95.36106289232433,70.15302279720267,3.35590307259435
80.82733664942009,50.90688157755983,4.072031087604238
57.10380239742361,23.653261657099296,4.426308805399994
27.417862074968724,7.068958600245994,4.360450584562031
3.9373333147686465,36.57701805281112,3.875219091526769
32.034429604491315,60.843404087306716,3.006770124982456
52.07923786615997,76.87443365278635,1.8745714360197665
60.42754173033294,82.74718393810585,0.639480198882381
55.562715965423614,77.54215940935255,0.5321967403902986
38.65187562469678,61.39779337057572,1.4563493822228484
13.375285065774863,35.73629363105202,1.9885594083186882
14.993233535256449,3.482997885565264,2.0897388736704445
40.91334003378987,31.003241478375923,1.7953874812981856
59.79418612636664,62.49630439570767,1.1815470188999568
68.6913874757104,85.9150580697243,0.356337668598203
66.3794473514887,97.46253693142891,0.5442617388996562
53.02713826637379,95.48219137988465,1.2918754329348257
29.861950729511417,80.7108101463718,1.6464495988915682
0.9124108202085232,55.87047879093478,1.5462538582028027
35.996870673884615,24.826640965612803,1.0499336405175337
70.99434967707563,8.315383350061971,0.24839346851887945
100.83717265256706,39.837675730171696,0.7032948356299666
120.72817350459533,66.65666517236589,1.6266298596823443
127.32930181009421,86.32315783646656,2.3694159662246603
119.65760438338296,97.00197159672274,2.8490485330508113
99.25068442907384,97.59828373092724,3.0665459945316353
69.54021486040402,88.01505374016445,3.036088912576996
35.02826475967441,69.86018711821956,2.790350371191235
0.08832584476136678,46.1697373847054,2.4081444816598534
32.0493113115042,20.294426061274688,1.9516045277471736
59.30560445089187,4.647245931756094,1.4511212492030223
80.37680661776943,26.220615422996097,0.9537971544758292
94.3470728218779,42.88750117364639,0.5089088767110381
100.57404158646348,53.96101897594712,0.14241108866964425
98.90712128373555,59.403789219972495,0.13583334713538422
6.5792098502455465,0.4253652186997854,0.9853776361260712
1.1269974385749224,11.869577988902861,0.768786973821274
11.605103319727373,26.21007828130687,0.507170187620666
23.811918445618314,40.142141895447075,0.23016349190817775
36.099671832551415,50.89475160559288,0.002904621121289065
46.31506654980268,55.97791264414686,0.14605590802860588
52.07951601400655,53.70397525516792,0.19352260718960929
51.214635610503976,43.43972101341652,0.16224037353054477
42.306611049640416,25.693755418477693,0.09866700581545589
25.17112853019972,1.9920685063372792,0.07838998707190198
1.0870989175114745,25.310560499803117,0.16478638554565347
27.184375873434437,53.068616929135345,0.45088921334183757
55.64003590348784,77.37430015942199,1.1077948145861969
79.91653629489558,94.456468473196,2.2583761253372288
96.39791967541935,101.93363065865965,3.756544084007847
102.56701050838842,98.93992544084942,5.1950211660872725
97.09319818040615,85.9842512304954,6.217169317164394
79.99107174827473,64.90335163939739,6.6790897272954926
52.533809399726046,38.25300206304211,6.546916295049232
17.286231819693683,8.810489421998048,5.834875331906497
21.911050216823927,20.783739747958116,4.591553765353426
60.25447032074313,48.24696030321773,2.9165850287073356
92.52773894205961,71.52221165705056,0.9597706633372065
114.01492338888545,88.7286702892101,1.1534808892005732
121.44754777466173,98.20194887725233,3.2882123165406996
113.6876353848641,98.74245346468601,5.216094953189411
91.9877018029424,90.0560029453117,6.648807898874617
59.69636371637317,73.0556541464865,7.365598041988798
21.583205452125135,49.91631853113836,7.322002774322171
17.030287499539423,23.748202154602083,6.619572808830898
51.09395120850525,1.9850029094352812,5.4374809710090375
76.45052072958286,24.08567694797095,3.9912954722278657
90.27659673357236,40.115412355671275,2.5011000186670187
91.33445878978432,48.641656768434245,1.1214889030773063
80.06068522508843,49.306371937257964,0.14916447784920772
58.50294173966001,42.76391994836304,1.3254198391761005
30.064477676782705,30.557944556421244,2.289231636098594
0.9453185271349352,14.950988716611295,2.9020767013341353
29.907637965551334,1.3579420257159163,3.0669676285050036
52.56124084040917,15.618923847433122,2.7120357150005368
65.64230267420382,25.477098455277957,1.8024980874431538
67.39427672787761,29.361843051394143,0.3945052668260847
57.84624935437715,26.699717013223655,1.2979808838097078
38.79476212813714,17.92003388111022,2.9659111714226403
13.477882823237048,4.299256256470229,4.317540527061451
14.022286202130042,12.275741583473426,5.187290718247499
39.501483198378494,29.56728415213158,5.54798390335961
59.280157346660324,45.21807671504417,5.346502196818072
70.64012493642025,56.964841590441345,4.532991113862536
72.00092493217409,62.85786832055195,3.234680178301894
62.911654739299195,61.46095773690028,1.6966942944198875
43.999586159872486,52.039839190032275,0.1637010549235683
16.97252465038887,34.74934502196322,1.1563441960118366
15.31153942448352,10.804582725012235,2.075723399827965
48.844239224558464,17.41062681894966,2.4381526526872297
78.75429346876099,46.390375516861425,2.2521763612849517
99.97574211156632,71.79643679002064,1.7009782152686028
108.20442581569995,89.06894770793708,1.0085800714833706
100.89469542024008,94.33164529682719,0.40692745729032853
77.9692190380247,85.37208134601694,0.1774949724129124
41.9934514336513,62.376046738483794,0.6160876420524993
2.2405668406818364,28.13682021180799,1.8866159703260603
48.56538924417469,12.36266754699236,3.8980568128923747
90.4623677136555,52.89252168819908,6.268542180146527
122.0282057863155,87.17496121094108,8.46662858423791
138.74630904986358,109.99655757089077,10.032192760183749
138.02744510900723,118.01026871071193,10.580529287847556
119.5404354248979,110.16079037008058,9.888533344792542
85.33527936939791,87.76103089629845,8.079153347393122
39.70084123244284,54.28224663063712,5.461394163683707
11.318994987812891,14.850172765711084,2.3432488009751773
60.74348248661335,24.573965576058196,0.933084615689883
101.70597210029116,58.23693599530634,3.942574264123304
128.5630985825887,81.6448540922745,6.24870869285219
137.80876059333795,92.34033499979523,7.601267350092986
128.59749673969512,90.17562580846433,7.977307656795439
102.8251910387505,77.02422822700444,7.473328440112641
64.79648680277587,56.10981447955509,6.281545455482169
20.56180088643915,31.268073078817565,4.695339627192222
22.97454788982229,6.396169463202098,3.0653181457129053
59.06627917992194,14.854946331186358,1.6975187710684905
82.15120427914408,29.3004331329191,0.7673498345264632
88.77826746812215,34.54367978257185,0.26461544554023003
78.2675726150436,29.45025455643028,0.03313041735089637
52.934472489632924,14.631264112589308,0.07736297324148425
17.773903363272236,7.354735988730594,0.17257720778882785
20.39323421423126,32.324599261897475,0.31977375562305743
54.17283039952863,55.32078282247768,0.4812368648093341
77.00092882906108,71.71953901576993,0.5403119803198448
84.37532595799742,78.18308731875173,0.4371587538782284
74.6422007665393,73.15352179292383,0.22506505242218622
49.21633618330552,56.85394902816403,0.03376047837452134
12.221466122009033,30.9747070832637,0.3123362028968971
30.3369661592137,1.700273448366494,0.564930756406363
71.6536241587546,37.56851447495667,0.7588668303686006
105.25496165304843,72.43608226991797,0.8749862945650612
126.00755021893426,101.87389329270609,0.8597762323100824
130.87029858795174,121.81937522367097,0.6742443422555381
119.27555083996776,129.35526146072894,0.33816460107490726
93.07848625755392,123.40411772989522,0.07367892313903625
56.12455321116112,105.02470953544828,0.4355129024768385
13.518395234488251,77.1609628481054,0.6146092523995953
29.263614769847162,43.93087576099573,0.523951287167766
67.20407061570293,9.723646932201568,0.16015045119574062
96.36629202774172,21.565152597700024,0.3829049939419464
114.23721992600703,46.96343584238756,0.9774461835419799
119.78719204191482,64.52947949334025,1.4746450549572447
113.31650447095033,73.27691193616235,1.6532778394878007
96.20255425852,73.09177809753724,1.3437359174367682
70.64265722842607,64.72877141354968,0.5666088311523281
39.419467323565186,49.81466520839398,0.5437365603200487
5.695688877493675,30.746733587078413,1.8076927031444403
27.169719361255105,10.46422723029995,3.0263815689198537
55.81755030178555,7.887595239562934,4.039801289364421
77.11737445320276,21.353364564435367,4.683303098722421
88.45493052636449,27.54584036464542,4.784841564683029
88.08718988788227,24.991320040053097,4.2651977537768335
75.53279931434902,13.449652730073144,3.1359187560142026
51.922696747988724,5.833107604759848,1.5095902330038404
20.161546106800444,30.03860178810398,0.39294953177675923
15.25799371412221,55.01629831470324,2.3424735263403815
48.861075999783665,75.93663888462575,4.112371588371185
75.15156299673312,88.25722654935953,5.474552420032181
89.6963021019871,88.73833703598766,6.228040759662986
90.03997591247004,76.16358382044064,6.219522484547592
76.1988206019305,51.52778593377408,5.461438034184205
50.59552057342801,17.69085945819679,4.127258802663161
17.51463403087602,21.30208407463178,2.379895754341822
17.71982475899274,60.933680127906605,0.3477093949273537
49.65020138381583,96.72165680835451,1.7715335497252882
73.50693304339782,124.50176349367868,3.7225569782884977
85.8742818453214,140.67766303751787,5.292960443533015
85.18179861917821,142.62250992181606,6.352531017840278
71.96225014819467,129.23907283130896,6.858004015227005
48.7991499369438,101.50894267846311,6.766293104652465
19.8942630299796,62.70881479029336,5.980752901501038
9.719796004969535,18.024538579846922,4.517980981860923
35.1535851728912,26.408948369527614,2.563707673374763
52.581262375026384,64.75232747544405,0.3488084870170391
59.8456625609774,92.56049451134692,1.89044003259767
56.611363227491616,107.37454112553287,3.9051354841402426
44.13121050104085,108.73080513580399,5.462227722256993
25.205325934094073,97.96107969453041,6.435420662893318
3.5300942992832325,77.63556524102266,6.8097728617318385
17.437979789830724,50.933575287430884,6.57892318910681
34.99996393742661,21.401624793598607,5.782889809529267
47.47431502744583,7.277878895979146,4.591741721796838
54.238769893888865,31.638037687253824,3.250059947802427
55.588332958418114,48.93311460510802,1.9586805357905916
52.487844182910464,57.67333564328193,0.8302205236606971
9.325612972557776,1.6348554540998894,0.536866030114936
0.3318733628187852,14.136019002618626,0.21039706680491777
11.638155934573062,28.58203807230992,0.003969003390937554
25.369843121408802,42.55004712287926,0.02634051428067856
39.067948732484666,53.29099246129206,0.39956244148627484
50.466180367266155,58.18453981601547,1.12825012534685
57.12192550775115,55.18605051744948,2.0808135629083013
56.848727268533736,43.191897795433334,2.989407465988357
48.2783164134143,22.374826042204482,3.581307689494399
31.303775704937237,5.670770617724605,3.6708031944922532
7.304031447320806,38.007152721914984,3.135666881894362
20.773280609284527,70.54117043838478,1.9192563125262219
48.544836456252334,98.36213554559123,0.07585204344005086
71.20012975463628,116.80982807311638,2.264928300171423
84.96091460994965,122.7970391423163,4.939904435639824
87.6077857795629,115.1421096867443,7.693663063655438
78.59045219399128,94.50683388721285,10.149203748532734
59.154576388304484,63.289206344855,11.924419799183406
32.03262816756054,25.077661688482163,12.78811293349669
1.1289450169582473,15.784920061379008,12.630676918441281
28.927128762544605,54.62162469763062,11.369463675961123
53.50414586524835,86.99582783954365,9.055154016410317
68.69745559063223,109.2616592725634,5.951520538421601
72.1091162364001,119.20288790933014,2.4425424983232693
63.34720229315961,116.4429538815785,1.0660704192066977
44.0903900870234,102.46043875970152,4.269587272354971
17.738046999693573,80.19190121049063,7.0053451148197885
11.311927317854815,53.2741254779523,9.132229799997372
38.44640587582889,25.326031900677172,10.515173813745307
59.53791995750316,0.5156558637804246,11.135434156916563
71.44931037484417,21.732486467862607,11.08760628381412
72.32017449981436,36.36623504121372,10.49182390842345
61.72763730203646,43.053352361894326,9.49631605924446
40.74190130531793,41.26514149866788,8.299558323043932
11.885965891309038,31.68628442463001,7.097562983510268
21.091262133008176,16.43377274565366,6.060510147014624
53.67408425111881,1.165881551316148,5.315227708348218
81.2085742900604,17.278937972304043,4.887234503459321
99.61514281847982,28.513975152976347,4.664176186799043
106.03815809737135,32.689763928753564,4.406515597287518
99.29623154650152,29.102996458002167,3.8484983688419394
80.05407486396221,18.27633683620508,2.798488290713915
50.70649076920719,1.469257128134509,1.1456442781325369
15.02586071350991,19.65767651604548,1.1275364852130123
22.356789581279525,43.02335557879437,3.9111352327528657
56.56136877577331,65.86514057636043,6.940493326065458
83.098889227627,84.62639476766017,9.797154074928018
98.47761068380892,95.37130629276473,12.015187257782792
100.69502427511993,94.76427102241557,13.213180577573047
89.54035756413838,81.27515208625559,13.158462585176954
66.65331405952229,56.02980391161668,11.79033312650689
35.317831847116,22.807853427273184,9.208693741690402
0.006318955211468133,12.867406636781814,5.667620890911216
34.34940995840373,45.165318727934846,1.5528957197662092
62.96389121532289,69.31149020702168,2.6753388273686034
81.99621251187317,82.37618465935873,6.5083189011047
88.99150116216354,83.37500506164616,9.451765665024286
83.14214931197613,72.94546298165815,11.116848936041524
65.24337353111183,52.9951036678123,11.265456609471054
37.42109535528322,26.551860259521867,9.904886262847567
2.7681879252978474,2.285311484794256,7.320392470799615
34.99747217266726,28.628243601183286,3.9308295784181095
71.7899620397246,47.56845635912331,0.19545961547867652
103.3657434348813,55.36019879620083,3.407489921125927
125.598185184405,50.59913816508638,6.4718433587295525
134.88491958004388,34.79968697438731,8.70981744709718
128.71175498287107,11.999262422265112,9.925754656939775
106.28810524109612,12.485108267502829,10.04247007341339
69.02007107789356,33.64662655767629,9.119570897009371
20.605537671404594,48.04428398028518,7.300667233464856
33.3437605512435,54.23169537166729,4.804326776656259
86.10246537730947,52.39881240002716,1.9387276390549553
130.85575774303038,43.64948763108289,0.945838741073535
161.72589446171537,29.405209524318284,3.485900755886277
174.62117350957246,11.243424115077447,5.345589567635625
167.79936008309494,8.906414771777913,6.320978260620837
142.13441063709124,28.580046432431395,6.390018367671677
101.08763336714948,44.9473581516957,5.665222884215456
50.34164328974559,55.39375408443645,4.2771466746256595
2.9551860306991777,58.24990508659761,2.338563138449177
51.30343159088253,53.25392825396582,0.0730638385408621
88.16172238931749,41.47636498409353,2.1834552140204537
109.15402139372645,24.778330609364495,4.1103015976819455
112.83554745235764,5.1561253564453065,5.408139793741253
100.79863025815726,15.634590824678622,5.869615152025655
77.09179859625642,36.004042035399124,5.486686676236489
47.16347534014907,54.168113827254565,4.344962509639486
16.70166092376302,67.88947225151738,2.5642228788466497
9.318545516476556,74.66540476691515,0.35439265770421147
27.229992132236415,72.40507161447597,2.0634514644869393
34.931421885055876,60.28122571430044,4.506376345505014
31.94739329552422,39.30155032525989,6.753098916659093
19.403982376306587,12.279064761789538,8.539285211273452
0.09404700460244382,16.818508060559314,9.638834110563183
22.77463123767524,43.83113834939255,9.924013044839477
44.256822563385924,65.23189764405998,9.340364743390303
60.318612883521084,78.54191652155404,7.895875570442194
67.69975054721078,82.36095681883893,5.7276546578050365
64.68870220663179,76.23591623316219,3.099397303174573
51.32751527843031,60.61075955329626,0.31790756750950044
29.232155634748935,36.94364165797166,2.3268950381820983
1.1649572516813587,7.849651301163513,4.598851615466917
29.444890741208425,22.985842929908802,6.34441362021999
58.89206608505548,51.272684036918626,7.4443465834559275
83.50004480862223,72.89108413910165,7.786614272872948
99.94282376738602,84.73021559727711,7.371894227269328
105.65045804130446,85.2725900058972,6.3091775844830655
99.28035746167757,74.73173871869078,4.773774017889092
81.10948710224386,54.79239707980258,3.0824862742130645
53.15276273570505,28.150434334487183,1.5778376714479354
18.919279016509442,1.9463433151564977,0.44801734697981643
17.16621955134825,32.05460277158537,0.2738656381946674
50.49688872276946,58.81075203481969,0.6753101970061883
76.94177059334153,79.22312955618837,0.8697884238426435
93.31774990181533,91.03922773538338,0.9294372805831337
97.65210664851217,93.11065798069137,0.9419964667059925
89.3053378750642,85.61252511280472,0.9926082768306714
69.05665464729566,70.00559458375281,1.0909109728716953
39.14697548110087,48.72094682921531,1.182923229704424
3.20434204613962,24.668046501254736,1.2163551592166226
34.04517066252186,0.7265124311728752,1.2111093439370575
67.3516499160034,20.645755529405115,1.226273417086013
91.74094076769397,37.639133955325285,1.223360949615454
103.36658958771201,49.180426161973266,1.083817634188352
100.22042477781368,54.937326477603165,0.7642959830952942
82.54861683145114,55.26443666268045,0.3089137744165626
52.88108969031096,51.07546421648545,0.2440361154037492
15.660039033396405,43.640662576521876,0.8830314387110308
23.466509158953237,34.33640660620015,1.555827296690875
58.58020515140998,24.414930925326335,2.151616542938166
84.51349027588775,14.876229869540548,2.577250363938502
97.76254212500315,6.453052675570551,2.7701352148466665
97.0883223386733,0.33382067436192364,2.6768522310765586
83.668539535144,5.114024307642962,2.278527315878202
60.77468778784917,7.656111237838821,1.6135565952686586
33.056544133493645,7.895218142435368,0.7494860185395412
5.612830181124144,5.9559373316360595,0.2751541265940689
16.935838708418473,2.1500681870824936,1.4315720189331198
31.212790675164282,3.0289484404305105,2.6522139524788146
35.60176952056518,8.878893470582646,3.805652305698155
30.456684803889534,14.427247669129766,4.744153584545256
17.982249047296676,18.395718587054546,5.417796071057334
1.4991182728758432,19.94692085232481,5.851896867604387
15.441414206401074,19.007635345233915,6.0346982360437424
29.693507677368135,15.818232881947404,5.909499889418432
39.10080137872052,10.877936745837344,5.48216996873583
42.81083616641901,4.8855841905544795,4.889813850331792
41.252098877011335,1.3397846694287145,4.2704552777828475
35.805431144932165,6.974583310904508,3.6575718129796115
28.279764353500344,11.338391308497071,3.0683302676539728
4.809179592505929,1.5576468437124373,2.9869705907928883
10.800564523980153,9.278442634086181,2.803530295933041
18.105068592060327,20.63710041241221,2.293344287942818
25.586540503099112,30.43163015460563,1.41434650476572
31.41107725592263,37.04940171656138,0.19072018557424522
33.371477758500994,39.51430431528414,1.209884425651309
29.46915213820254,37.3498751013353,2.5829811765389747
18.54371647436542,30.318459850387352,3.7841202678989307
0.7998831918021008,18.344805040395457,4.750942198304656
22.01860913033793,1.6877227366177268,5.459076576594999
46.82532445817269,18.68633715741165,5.883549444152606
69.6259673631932,40.62610103148731,6.078839963780236
86.16526407127542,60.503595111039864,6.179906895102021
92.98445519402546,73.9507119154308,6.247753947169604
88.31045922456643,77.49228528628089,6.230142884734268
72.04413564448167,69.59381882928382,6.050613564328733
45.60824433323323,50.91939303130557,5.627349807172729
11.897167461871144,24.041948244495046,4.887600344653732
25.103236933685945,7.50466891308561,3.810898020850228
60.72289461458536,40.08334556255936,2.368219643191614
90.17618560975272,70.35762000384186,0.5180972161427481
109.30987067331856,95.28542314864195,1.7063455800808027
115.2516514543879,111.81874639340583,4.235157688612913
106.98261522730107,116.8898671051831,6.947780401147605
85.60438527997047,107.91729000746338,9.57112094475886
54.24669142434088,83.76586383901213,11.756906217227481
17.64032493436998,45.77228546158983,13.230126741766094
18.668776698470946,1.8026282258321191,13.820331702206133
49.26991868210615,52.228897962702185,13.43235727637726
69.83378907917609,97.68640776529067,12.062034835794998
77.82296077694122,131.10080902740546,9.84765837092014
72.79520272328922,147.75251952453456,7.019345460431087
56.27934861113434,146.12850767248165,3.8048158117074475
31.293831046999692,127.77661178144167,0.4392970070422606
1.7278664753193518,96.42549163043344,2.8398791071015683
28.21879913439547,56.87351812900189,5.838392561659949
54.444341217791504,14.085502346738888,8.358963007449626
73.22501358498047,27.2826715583676,10.153656130192
81.49965614994555,63.04527450960135,11.015694489508233
77.248777084612,89.61660811096773,10.912273958080421
59.94154643224498,104.33172061736344,9.957641296256938
30.907378937831243,105.95547182183581,8.324689025334267
6.587114590484065,95.12895959686232,6.244048277531532
47.71175967601674,74.43239769605674,3.965314001596347
86.85679859951797,47.886355790629864,1.713469985755039
118.59842370689162,19.9937012241519,0.3026727745450381
138.5399074218842,5.313581324830964,1.9401065000115594
143.8079247341431,25.40136306775292,3.124600020797035
133.20534520738354,39.09097577807207,3.7975831002254727
107.17023354688298,46.301970956411644,3.9677335980157276
67.69869537467567,47.48115087128281,3.734393704872851
18.314884773450196,43.17545010578905,3.2456306786931073
35.99161524207527,33.968368136215055,2.7037727752887313
89.05655649180675,20.731200410430265,2.312906961727374
134.21388652297293,4.924544453618572,2.205597262597684
165.3250034209375,11.310188253032974,2.408709389221183
177.92361375954252,25.40953222964474,2.7922323491301206
170.12498843291405,34.971052126362856,3.1284875025645906
143.00529381389705,38.42849208531218,3.23092458905986
100.35328184644239,35.50796877357013,2.993376077055039
47.89226269666989,27.28759803018607,2.3684668807833638
7.785111680164972,15.871692702996352,1.3566571464987953
60.250910887240266,3.807115489115243,0.018768433577839257
104.01714397374585,6.545263555351633,1.5226428959110518
134.99871125477705,13.470289258529771,3.100398142402246
150.7105226750431,16.104551966283985,4.502984540689623
150.2751167269901,14.42070466325537,5.527488005884828
134.3247396069486,9.071397579486039,6.034728322473782
104.86627613583124,1.1946547113456094,5.968828431044807
65.13561188797061,7.739231967971864,5.351558829544467
19.40682225934163,16.027145485531694,4.208456534461225
27.309232199987786,21.84132967894974,2.6248960203192366
69.71964810507188,23.42908985705703,0.7983694599170619
102.86815719066065,19.433431123880958,1.097427817630483
122.85685270610433,9.299708155636418,2.917677667602896
127.50836521247675,6.343777407161304,4.45728984662198
116.79135526471052,25.52433314544063,5.452747228446252
92.8661289574847,45.138888432102945,5.668698735223316
59.68882758982267,61.545949077456584,5.0075625233638705
22.310089702213038,71.3708175050561,3.5053051928094487
13.904110475873114,72.27411805198902,1.3365862698216784
43.97817904628562,63.439456599044256,1.1837596344017425
63.88745239235338,45.64074021143274,3.6958307945922675
71.00314682077979,20.959093262258996,5.858042404338034
64.50222317715563,7.655250360128989,7.399203891578832
45.747963760856,36.79441638962555,8.119366895050765
18.494009202758228,62.88364410778936,7.893056973085757
11.372181997078997,82.41018628775237,6.752191834039184
36.73323813426268,92.24581400813662,4.885216670123381
50.724287556276295,90.1554507190508,2.599307097250472
48.47471229808247,75.40333280321539,0.2594145244808215
28.55535328663699,49.220556554737314,1.786814090047984
6.419209847518748,14.874372200915888,3.2184032624725503
50.28212978079782,22.815494454101575,3.840293838579476
94.74011750124033,58.4168660465951,3.698265874811106
131.25975898704314,86.95533355265728,3.0505647218428376
152.83482325207726,104.75598190536446,2.257423688992143
155.15085644452503,109.81742848650376,1.6429502811453007
136.99315131231066,101.74326403738922,1.4305658060278645
100.06635966909101,81.47483992977575,1.7462686350819723
48.48234746027943,51.06608136284381,2.605523602122152
11.845677905536384,13.620931595408871,3.911665186745673
73.81659335569637,26.73341229634538,5.483281875612764
129.86023097264288,65.1028519470603,7.094625864898986
172.85425556899312,96.44186863611749,8.499997528736213
197.21050549045708,116.46032258874136,9.460166320201493
199.91463427039776,122.53387026903164,9.79510098116707
181.19521933125344,114.24633878667132,9.392286024668019
144.55674728204343,93.35589191127383,8.1842506296219
96.05767118704193,63.24273666204637,6.203243086647023
43.018344017130225,28.11989212500044,3.639268449518774
7.431120913512359,7.663559407644577,0.7550599924332941
49.557936082181335,40.03120042039864,2.221557098177704
79.68493718313135,65.3741335522715,5.085210272235593
96.24043947924517,80.76652144864032,7.628456411623257
99.37473470140324,84.32828366431394,9.660807975646115
90.42826375526933,75.69378852720601,10.995321756259537
71.53066344905758,56.36860314147403,11.46770814715152
45.421907750407065,29.678760509498314,11.057277495074244
15.429350168173155,0.18997987288202647,9.911513080845857
14.53686610353034,27.261925989110882,8.224750364239613
40.166528729232766,48.573799840324284,6.21854444236645
57.190932843268556,61.038654841263245,4.182674467001509
62.01849036194713,63.51879174725522,2.4171368456181637
52.44672979108864,56.22967028131723,1.1608242357521308
28.282923851908198,40.4016194035226,0.5252939278015648
8.283200508593971,18.066538445238567,0.4607063781368111
52.68567659786108,7.99848982751854,0.8124270302831165
98.43586835577482,34.325238848080325,1.3813640933062197
138.01468746620876,57.01697932838325,1.9850976203298514
164.11107185192535,72.33756986907949,2.457159143286984
170.96041864289296,77.51217848754764,2.574365990689449
155.51292753330813,71.44870646362106,2.104272893519283
118.16379903902708,55.08874930919387,0.9038474552744271
62.817698552237815,31.243702352421696,1.0156631115225458
3.707107967951952,3.980601425949191,3.452674279020558
72.78447879068975,22.215361573887787,6.0772589945703634
135.35084535043512,43.242884590524895,8.504006230916298
183.26317780192318,55.98079478051379,10.372012421125032
210.47174455520258,58.61169965575438,11.422743684507441
213.87063463494505,50.71071782021583,11.499264530105435
193.75276144617754,33.19588785392762,10.586206896771793
154.12716092742136,8.433136414308557,8.840162482742342
101.94953255210388,20.115888128259392,6.537442351675304
45.455577297200755,48.62870342690186,3.9869630365397954
7.313137670467825,73.44146307283084,1.4572156991762353
49.91416636824744,91.6112225950929,0.8216054610894632
78.50603327825645,101.36925745061815,2.656182196089915
92.2067829374543,102.34225197650697,3.8918316229664454
92.7461351573514,95.48316349019942,4.4399328603082955
13.146381636302635,1.1508501868479746,3.1474393856506446
12.762617969151567,17.797598209189193,2.872191959976913
9.583418787923737,35.52342577406301,2.2166753469947746
3.586186046741191,50.96605008843637,1.2565865925785218
4.768415973339739,61.21705317915675,0.09381527365673949
14.670145278355506,64.36149167161508,1.2075723804290044
25.081613019827486,59.566824093451274,2.5938214733473215
34.828546461027706,46.80559617788188,3.9685385280945926
42.65914668909993,26.67154887189658,5.218411126491284
47.34043033407748,0.3774063886892587,6.245239363969858
47.80440972447792,30.0013040098528,6.939454272223932
43.28074459999844,61.07147757106419,7.123341181328583
33.41256032389882,87.91368260208584,6.653680473496625
18.43938729978165,105.39128673174086,5.538608867870169
0.7691616387484016,110.29040271074585,3.878799205418017
22.995445979176456,101.99803754960543,1.8599700625518822
46.84900017989871,82.33127271046128,0.249306423751361
70.67501477764144,54.96590146701256,2.1550662030728533
92.3804213420236,23.984936577669444,3.546434423136574
109.25826966622134,7.147896893803971,4.152810002371622
118.12369385268855,35.898846707598004,3.833221422708628
115.88932598830357,60.419631378001164,2.6421571752549196
100.37072532871812,78.86409324887171,0.8121406683996876
71.07355890577415,89.20321662514826,1.3033773740556334
29.615665290427525,89.6485702353753,3.235418412391039
20.35368470855732,79.54279037295672,4.520534041713331
73.63194563951102,60.211950859958854,4.819805934905249
124.15826617526444,35.02358885827687,3.9088438828132177
165.723495129754,8.615158824034982,1.7160163053356354
192.63857661433957,14.45297989135781,1.578668695469168
200.41999772067786,30.919536134647423,5.483804576625023
186.54107547730396,39.32193705049225,9.35368982507639
151.13932117211368,39.75008844147819,12.613463834033512
97.40771397068455,33.173794305356765,14.804333958448934
31.384455216653567,20.94927099258502,15.604400009554976
38.970928494578644,4.796900284998932,14.872533889807208
105.19008808203986,12.909959667432233,12.720277725975919
159.756314517681,28.980633720943928,9.533758718027618
197.16325388512416,39.82903926249562,5.810687518767863
214.31570927680517,42.46511926138662,2.000669373979364
210.37360702472375,35.61262073253917,1.5561588775045991
186.37738089951614,20.350764883896638,4.623601884957543
144.9813605653616,0.15313382924634303,7.057389968592374
90.39487239677922,21.697276189932214,8.828595287016967
28.33602853584453,40.34008830505226,9.95724365290085
34.30417392895578,53.324956437771085,10.477756844327391
90.26382915625824,59.28063223816707,10.499324217083648
133.0830102918784,57.85183482452243,10.164089099108612
158.2735587870463,49.22692177752459,9.568338896585695
164.05710021359778,33.96965186287801,8.762330397708093
151.4313843396291,13.262275332258854,7.78289625748396
123.6419550135544,10.724674671088485,6.645876159405684
85.39114609916645,34.76797027825969,5.35151226820154
42.10519821011947,55.072687177250984,3.936174411132547
0.594578971812452,68.17853609618687,2.449212266359561
37.28936485028832,71.87756019197707,0.9323160092043541
63.24180504520456,65.71009554927477,0.5524095273055102
75.06405764779015,50.84806888375908,1.9300892450672686
71.4564016466022,29.529868347024287,3.111244361868903
53.72258925174604,4.423105803790564,3.988014710057976
25.73611084287662,21.76801331590369,4.45386082053298
6.7714446121557375,46.38244793284065,4.462296020122875
37.415084829352814,66.7680441923215,4.085193044213816
60.462779994703155,80.39156828486722,3.4837627162705025
71.86032730643221,85.197952823432,2.8415048515644865
69.7394204663334,80.11166662468379,2.302331690397172
54.396709835879726,65.42908587292443,1.9403951742746988
27.955280477014387,42.883354009725,1.7732296826594423
6.078503645742801,15.349306259029612,1.7825185533723926
43.272799080421265,13.648911112964933,1.951834818104585
78.73895717954032,40.41746106563228,2.281870628329013
107.69064233391538,61.46690526206465,2.7475157528036016
126.10365684029476,73.83277547028167,3.2703913431749663
131.34828863077863,75.4557012681959,3.73702399032739
122.61559385765213,65.65305317769537,4.003331487140399
100.96960902171517,45.54610012010655,3.930056163569218
68.99622156426621,18.195554185040724,3.451998893490496
30.195412828198105,11.764436923683007,2.5634938424505624
11.639505393088825,38.99327448398492,1.293115465161486
52.82443862597665,58.560923874423096,0.28307901732847285
89.89904609315128,66.94983609913685,2.039634004158778
119.57093973194917,62.642792050634796,3.8003334484640554
138.70875218858455,46.21396574320462,5.390092126684882
144.5778241562045,20.065952964500617,6.663151091665649
135.36570075505855,11.975957201376435,7.481678120047471
110.86209381217436,45.10289790256866,7.731090071411883
73.00129412559089,74.03611906833312,7.293319607161679
25.969712005214507,93.72337047424071,6.074902038204253
24.24817612083474,100.23843154892408,4.141647006395396
70.79519762097512,91.70402214247092,1.754696851763171
107.09145532034069,68.91042941389028,0.7480874910628715
127.93310262617187,35.30866135636061,3.085326932700017
130.32648059554532,3.7259270002183387,5.014395116873554
113.9585025130301,42.13063786753301,6.299779212760503
81.30193096591876,74.46534174838331,6.787284329613713
37.38225082003039,96.85033733277831,6.436367557641257
10.790377583105167,107.2854519298845,5.342302294060363
55.18222160530758,105.45305305193631,3.7582459807700035
88.08567060848458,92.30965706689541,2.0002441910766406
103.64566609832589,69.73025828730032,0.30736505222886384
99.20559931448595,40.331640777857395,1.1670337217315603
76.05043143606001,7.417818747643961,2.32560484199009
39.213176699846976,25.190394590750564,3.151695590468055
3.6727291759204745,53.60082346691319,3.6237791584181527
44.15645670249696,74.49691300616146,3.7003488058856076
74.83930892972995,85.77404791494183,3.436462806148862
90.75174667633296,86.87976487530251,2.949147455784737
89.92881115131021,78.71709873761883,2.3558988015201114
73.24780709060934,63.1962925785373,1.761336800667645
43.81384139173685,42.641068169853085,1.2253506535064453
6.2334605844026125,19.346715599007478,0.8031036185210016
33.99910600667273,4.539626901313185,0.5490624033749055
71.03356755536363,26.884214430905818,0.42676155135789157
99.26503927828063,45.380460702357794,0.32642273183144277
114.09106430494593,57.57519133875376,0.17293286304547947
112.76483888893644,61.2534447971869,0.05290465692856127
95.07855474018109,55.09562720747406,0.3325745692240148
63.56760313804595,39.342041983601284,0.6441525848678716
23.097514390545676,16.145637555011692,0.9937831639749555
20.09568386649376,10.623803147684265,1.3767529553701587
59.6197606876049,36.1494636163927,1.7920022010242944
90.0221993885756,55.747206456637585,2.2634737102230473
107.5312977816496,65.87039891164635,2.7835797071133235
110.38743028518684,64.73267621635307,3.3206847184431147
98.85802710807728,52.41024854286991,3.837219674285032
75.07599037646956,30.539694048513446,4.282654298023248
42.76734319818131,1.8676095292157526,4.615704636778544
6.840195323107945,30.124113022921556,4.7785069391354575
27.23097948479829,61.43689841327934,4.6774175687236195
54.23671687655003,87.76661304900253,4.2290383596427645
70.16147067464783,104.93757368085292,3.403059064506163
72.96731622712575,109.64672431644127,2.2160326004411957
62.974870203383624,100.36442446105373,0.7052655234811371
42.70958738285507,78.01440170982755,1.0396625381183857
16.26839962375784,46.02692493475455,2.84173844474073
11.609737366145643,9.602541623962468,4.516049252477813
36.50804100013172,25.59744867959616,5.953635178329591
55.05711457277787,54.832237790857896,7.07622962409537
65.27851926483628,75.1861590608678,7.838651677686459
66.55447784334639,85.6977595730609,8.248524839412271
59.326125414198714,86.83883747152694,8.269737575100313
44.69299284378518,79.77951004579184,7.854118726963158
24.6956840653386,66.32106703733677,7.050460558335118
2.0817950705270314,48.74898918284543,5.968438844436791
20.527634282907233,29.37527686748822,4.744614368569852
40.84090372406938,10.483935610509095,3.5136839375010087
57.05018010485775,5.813238923668487,2.366576850081705
67.94542961441003,17.877998682498554,1.3706461673880086
72.9827229851798,24.90015450196828,0.553202112191018
72.30201757434723,27.087772073123478,0.10718200787120054
15.90246488572338,3.7921314955010925,3.15396299338892
2.0737056947637202,2.4227453462921558,2.7928067059852206
16.47599277015351,9.82859039434223,1.9514454456515793
37.17366844344522,17.58880542026796,0.6778733250344124
56.76331369820617,24.66772149480113,0.8896606646064491
71.86497575515347,29.83432037959647,2.546794801483437
79.50582159533096,31.793725326916913,4.068500384151409
77.52651915510553,29.428713596880918,5.2418749582608735
64.9778033629358,22.15211325443429,5.894316729824861
42.43336911136616,10.17006569454122,5.920607723021254
12.185334323298987,5.4358837064991326,5.295930863949338
21.663721720049136,22.7050062770105,4.069777409904597
53.39109627331801,38.87279111044284,2.408282901516699
76.97166988150633,51.02898661897607,0.585973153924111
88.21723242551708,57.05047427772175,1.0864619989750754
86.03731568916213,55.759008769665414,2.2297767572392724
72.76515253447016,46.76491017019411,2.4757452867022542
53.647559504266766,30.483776203849892,1.6794264023287306
35.11763956499517,8.0771337950588,0.026466387637783945
22.762975432489213,18.409590811410286,2.2930492613472007
19.63063916792889,45.95903376891506,4.680573443770759
25.375653622031223,70.84168652236738,6.751914018701972
36.66428990785615,89.13849361796738,8.079409908803685
48.37007433424531,97.55336158644653,8.334683993640883
55.16467109349068,94.14317302966492,7.37256940301454
52.93356087631606,78.70838205363606,5.206819051337655
39.58061199942585,52.78731146375106,1.9852964971338496
15.237429920333236,19.262501257421196,2.0175655750936006
18.021185431043346,18.148514481236475,6.40517175584686
56.65611099278703,55.37469404813186,10.708543047948803
96.20341877811144,88.38709545425309,14.451895080083629
131.8344955141579,113.531838885097,17.15798901965326
158.93700097508545,127.89914586287057,18.419899435497282
173.78764776753664,129.71071531468075,18.029704368618418
174.1784114723343,118.65190597494596,16.063022458568376
159.8295981169388,96.02222221549758,12.887473278620694
132.4160169164452,64.6173593673502,8.990469772362687
