12.56562914365592,13.645613414015504,1.9215612318457032
13.587519011560325,18.186529003430003,3.6062832465846206
12.194278866185977,20.446849590389395,5.190964525946089
7.790574931382639,19.530862387774548,6.3778247487163675
0.22365910667200456,15.014292179950136,6.882234680596451
10.129420367552658,6.963233441855323,6.512078477773947
22.338588359656686,4.0764817536887445,5.249798684015598
34.95387695035844,17.114334293668456,3.2488171250937836
46.08585608753016,30.705094318384294,0.7690184861029946
53.59717879151203,43.03030904550396,1.8850310770067176
55.42017635256269,52.074486270429205,4.4364349234220475
49.95839598418839,55.8214215351204,6.6595898069239645
36.525412231460336,52.54821145992748,8.312803975181343
15.752481928190946,41.63769404522435,9.214634915474708
10.319467179893595,24.25976807494888,9.409744335199534
38.62075847497431,2.8768007501152986,9.07790684464508
65.58534462615407,19.511197665450815,8.381239369732523
87.66282137683724,39.8810292335575,7.465275181537259
101.80063574436129,55.77733749640215,6.45954606845477
105.76151412489592,65.50404770789102,5.432959070035315
98.32066543395202,68.11909153297488,4.330410314903911
79.42509029248593,63.447242292736426,3.0205923374272574
50.33486910704293,52.031739506215935,1.415547712941688
13.708059434210288,35.207389403184536,0.48980662193500196
26.525779007690996,15.047439099684441,2.568506792423212
65.5784527594252,5.8662028145311975,4.583970285020303
98.4834979060521,24.80182675109036,6.263551619930126
120.90534472247337,39.35089692206944,7.30963168318752
129.8369027800455,47.774508803280284,7.513867813763817
124.01251056064078,49.16699084531372,6.8955991604130356
103.99254423836625,43.42652529282247,5.704381333224614
72.01483226357433,31.15145381023069,4.314369453961399
31.732985269889408,13.62845747498118,3.084590663310294
12.112488619388794,7.100054012749338,2.29963084004371
54.118169053301905,28.181867587920944,2.127755863261777
88.79995265253127,46.14011705967165,2.559577792647266
111.36167569170014,57.41754915295136,3.4379048056849513
118.54808279453786,59.18262438756663,4.595145659395139
109.3343556701005,50.14562429061316,5.875643017686202
85.23189925091724,31.023838084343232,6.943825775605141
50.078275238564515,4.464354729916534,7.360651394575715
9.329293874045293,25.52814727866895,6.8968418261836355
30.902230840609047,54.41951023911117,5.554598793400101
64.80043322845967,77.89808313601189,3.5042645463454676
87.63184698871885,92.38849256112232,1.0297131051073503
96.30077770143691,95.37744222660476,1.5640984000198417
89.70676061237864,85.68380306708382,3.9021117289775358
68.91525344306949,63.779361594076796,5.609982193408428
37.100768769694646,32.08367473176963,6.491696200907877
0.8151814322377356,5.037510571065114,6.541223994748675
38.885411782845054,41.82109943981547,5.894877286149582
71.13265598002316,72.22967742713115,4.798408351790499
92.58061144927967,91.34693987229097,3.5593872614913606
100.04408190256018,96.53248119989438,2.4738952221425152
92.50883304890672,87.88613795394917,1.753341103701915
71.08073835380164,67.87100189087954,1.4992934413527743
38.63285929715448,40.351328092844646,1.7621934910873105
0.6531738038935413,9.547928331945839,2.549459260206189
41.748442895427246,20.647464257711935,3.689991200762189
79.24186149300542,46.88497078107963,4.872246830621118
107.86295608594624,66.32991142117517,5.829083469584068
123.13376071186454,76.71379811369818,6.358407337621182
122.1184084960445,76.64226918220868,6.326848990487976
104.08264846542282,66.05837284903816,5.673627058336405
70.83555650525935,46.52577217986296,4.373806966795335
26.609319825952547,21.048118115377168,2.5346325301688966
22.5444360883709,6.617660333903273,0.4173932824451431
69.72125428003197,32.86654211776558,1.7307259412377192
108.26830897845379,54.91755299589851,3.7351988842218558
132.8005590381014,70.98792551975622,5.444007470173257
139.95281299490708,80.00985637871976,6.729732067362315
128.78809301037035,81.23677358275299,7.448237487858064
100.8761627663086,74.14200160130592,7.421974992855583
60.056769398993325,58.72879024112605,6.57486590486477
11.90680572289131,36.069044993541404,4.991380898546421
37.03212282833227,8.656954318861516,2.876090159022543
80.17898648519207,19.797925015147047,0.5200981286990289
111.85621949476938,45.14175778025074,1.7952778740841835
128.0949352712557,63.7777215291882,3.8128998330459956
127.17943343431867,73.44181612049756,5.262893790015711
109.85078187995305,73.45086307381727,5.908946157014979
79.12966374850784,64.47040230191506,5.595189036570906
39.79708988101443,48.101252043868776,4.32447568477285
2.366813340721634,26.576337011628915,2.262651285920977
41.475552734686616,2.668525115138302,0.35936538984337596
72.40600846403392,20.32890528970482,3.2413929369639347
91.47982039602094,38.83305321933258,6.000534957912855
96.86446351329363,49.57056725888287,8.247858454440637
88.67309983591588,50.40477317331203,9.661777180650802
68.79609342644012,41.04943586974354,10.042308561269994
40.5475547825251,23.29606861904225,9.367223550551545
8.193256137114746,0.5994679289844522,7.806290947891145
23.60683926974397,22.79332014965136,5.630331784388575
50.38265486918529,42.814551700858495,3.1260743219599934
68.42383332646507,56.3073200490559,0.5648877368544959
75.27822354315975,61.35653906669551,1.8365447137223607
70.0773635325886,57.325479123764005,3.8685028901023237
53.64175835119606,44.7978453118661,5.348798801511167
28.337697507209143,25.514347519481166,6.273050928608151
2.2966160961367525,2.2618250203976125,6.76153659291134
34.04218720678038,21.430957915383956,6.914879794627226
62.52764127441721,41.89433206737539,6.821761547111016
83.74826977739444,56.078644163306755,6.581062484324537
94.53340204107145,62.19511150222698,6.278343102576457
92.96364806196952,59.99079855523879,5.963588181942328
78.70476201404124,50.557572839809794,5.669648901599948
53.171099811301254,35.820052997565654,5.419946553526965
19.432502137509793,18.002372894821203,5.153366647623296
18.17284048566812,0.6716712640166579,4.709645320724461
54.67572422694901,18.01412159443717,3.9052368001162585
85.23947504486806,31.841541534270817,2.6258820543686467
105.8614736665219,40.101620989629886,0.9064022640258126
113.885321287981,41.26216075704956,1.109236699430332
108.29468141321362,34.84712153861921,3.24490392182223
89.8051942887421,21.789697247571667,5.305319046559469
60.79649966263255,4.32357177834339,7.0664589491248355
25.0795829315153,14.595386988143055,8.289903558933808
12.523089038979691,32.07934705872358,8.78610529016722
46.79470633792478,45.92612055876447,8.433609821237344
72.92185815279156,54.79351676446831,7.2205536196982285
87.33025753728491,57.937591687095406,5.299395405987747
88.33605533159442,54.8087325756904,2.9090330730279663
76.42732184967397,44.904172986835796,0.36238080210076046
54.09093259285093,28.0669210989073,1.9412864534053524
25.256134259861085,5.085360264595377,3.6527143204634847
5.462673677591302,21.80143145722856,4.553089094148337
33.520190843447985,48.92583352236193,4.565092607690266
55.047639737632345,71.91520386082384,3.783240339367338
67.26893485326303,86.86905890713834,2.4426129941056454
68.73248934638373,91.47285604611027,0.8161148746845514
59.41087327209231,85.56618674269255,0.8486772927196911
40.70004814411058,70.93593223524122,2.321247188207336
15.267418223304992,50.480767160744655,3.4114676162543263
13.277086090368236,27.21124718068957,3.985626868224112
40.85731523175835,3.5758725662376056,3.973291983478498
63.500915551761096,18.666953545150346,3.4031000314453292
77.91388287732407,38.15086065540172,2.3766684836166947
81.96369683506452,53.51792531722333,1.0496130046275665
74.99718327250437,63.296934787172525,0.36606432069082095
57.94796177067105,66.18085693017531,1.6342850950569392
33.220708205650254,61.57125502688893,2.5073564840727096
4.363305675245724,50.06052089966807,2.7912452459249355
24.789614461487226,33.81569500843612,2.468612765145062
50.808888939216025,15.85129604511172,1.6286616731907815
70.91135043384823,1.2707906299320237,0.3798026338049293
83.29452228583295,15.956817696771596,1.0981229771294516
87.34045546550477,27.638573881559818,2.590474418415793
83.6260852969753,36.42433399049628,3.924686693352554
73.73349118697615,42.58282113155316,4.972302745425663
59.893289513529716,46.15899262668647,5.640122179739692
9.142120369929042,3.7645447916596395,3.9690649961979934
12.741744712530028,7.4933224139849015,3.2988473159426444
15.655879335303984,10.788531975127162,2.0136696202709894
16.859478623467833,13.196451930869593,0.18537465526541783
15.408918615897042,14.257149439786035,2.066914908637563
10.715159579212163,13.479459807966766,4.567526709501992
2.7179920758550233,10.444466962224139,7.020261177707685
8.085168992257486,4.985647732538661,9.0533982632416
20.717298201476638,2.5584079096967662,10.313707057874238
33.860355765323845,11.257168832503622,10.518119358254115
45.951420136458545,19.676087364656055,9.554429976463254
55.227243370125315,26.024170470540408,7.543646321182907
59.83582254212106,28.430573953982215,4.793878978676322
58.18013979014141,25.78386627434561,1.6599855570774702
49.32399619659696,18.451735929931104,1.533495583907319
33.22909134428736,7.801565620118547,4.470214391473788
11.001904777749631,4.428756915676245,6.905033860457584
15.002669942600312,16.37872893247142,8.68708269395082
41.495621172776254,26.400871478729083,9.725201680828267
64.81722932622627,33.086337581300356,9.97403323286259
81.6266168608434,35.27902292545659,9.38459815733119
89.52260510535774,32.27700846771501,7.972808437578685
87.3892758409661,24.003599230670996,5.885034934152053
75.48163325728024,11.266262682520884,3.362786255662719
55.30025045886079,4.222227202759195,0.7303048243434731
29.375905709230445,20.10247660363584,1.7023444355976236
1.0111082168862577,33.7944583789524,3.745818743232557
26.046873425293423,43.054029851653326,5.333250221353746
48.02881198543723,46.37622842613146,6.450199057657479
61.71863912590631,43.21783233092036,7.048004887584745
65.08130531343666,34.024322423090574,7.040940390566264
57.748268443644534,20.092921002637535,6.3914630888606325
41.20148823047009,3.3986998466263496,5.203745667077165
18.55594010829116,13.669237432366156,3.6936329367342084
6.032132581245169,28.66408145462059,2.0688281885840434
28.17959413818333,39.4976504286488,0.46342077070800214
44.10069467619927,44.84046699140489,1.0548661618643094
51.24127362544376,44.33987483764327,2.4248295345895894
48.610649571025505,38.56740901571069,3.5935839376986904
36.80835667934629,28.725512660718994,4.589135550653445
17.797234649203116,16.270374863646982,5.479568224802239
5.482933928176027,2.6389480956439617,6.289277409637794
29.5653841583102,10.810776332377504,6.986935731444667
50.92102143378788,22.671209032955847,7.453366204583649
66.39864347687747,31.38732358673389,7.501200126103133
73.62152279299684,35.40443257021591,7.008385903049253
71.31354405006215,33.56954626213854,5.995290748730411
59.51048315334971,25.64131299913578,4.557608614084306
39.615154798682816,12.635512330447975,2.802620430459296
14.24081795533547,3.2471732339343093,0.8668139845894623
13.15695083684618,19.131917753357552,1.1006004184242102
38.80217771133186,32.20451001486058,2.9477246988955788
59.18596762911199,40.323845391599875,4.493323273824403
71.58638300537174,42.28345226925239,5.602404080399426
74.42151822315736,37.73147776570973,6.25629457670315
67.39332446333835,26.939477393192494,6.493371642956486
51.442616399246454,10.69617328038536,6.3511550754567585
28.59088095582176,9.56348631789911,5.878422218038098
1.706167677404341,31.540126185254856,5.18377442860677
25.790531262920684,52.0558250509844,4.434526357185614
50.278791856069205,67.4741551830324,3.7854513519540967
68.383751082458,74.51987160903852,3.288021609239237
77.48150343352559,71.22693228420182,2.8435130011178478
76.16035127050662,57.595425343968,2.335230513231357
64.50670795266224,35.63011832952396,1.7640237723502625
44.116141010172754,8.768470642174556,1.1813375048235022
17.813928899286516,19.02452646749665,0.6159807129790505
10.836187484428432,44.09769065736052,0.07697088620765453
38.08020603920866,63.59071689773609,0.45551534155445605
60.453445189915975,75.52358475144302,1.0335666403483963
75.14643999569228,78.69904742728865,1.6827632897109837
80.27167300500281,72.67969551103695,2.342761040856331
75.08038731943536,57.955935109849314,2.893046063722446
60.140740142364564,36.18903496240599,3.230692010032091
37.42561882988411,10.274368799838323,3.360215239054611
10.21123657203483,15.994346168628118,3.359238182597354
17.30405435371113,38.65265514173299,3.2373822257184455
40.641863508771756,54.452249389132774,2.945983253973644
55.82496850838188,61.560797596214584,2.4670833140103667
60.12568663975075,59.79053711951981,1.8261344312994656
52.59432802287816,50.3413951890623,1.0321189416702903
34.252208547663884,35.24235661731489,0.01077499858154743
7.934389043174953,16.753551053888472,1.3732642970073121
22.157588503635683,3.010767112773249,2.8696330876670437
51.074296899581206,22.168417064071267,4.141788213579932
73.81251338970495,38.98841237269462,4.885246383975273
86.04297590820336,51.819879740408666,4.911472417606064
84.80720847185277,59.15720491672727,4.165500877753042
69.08538724332034,59.86422708466634,2.7634551730192554
40.12285189965402,53.476816726291666,0.9462047808590179
1.3952267387439452,40.43268714951998,1.0370686962499782
41.84743874990887,22.115910858380182,3.017407123127325
83.40859920716495,0.6970447625160812,4.825773074101517
117.18343932123159,21.193256247951183,6.163553322587754
138.18292355893448,40.873595169725746,6.74380433574514
143.31966465427524,56.00971127076713,6.488458154705806
131.78672742923942,64.92268649142872,5.489659221655677
105.02301210923018,66.7585138073571,3.9361541183615922
66.37686118894547,61.53061849057961,2.1219416804312776
20.570672616436205,50.064588215459146,0.40605661023787243
26.92055226113349,33.87315827892636,0.8990899931448955
70.49015206513933,15.012558507013168,1.6094299698672156
105.02282534000952,4.082518419667179,1.7670303072705007
126.51950783563748,20.840576746710592,1.6409880766267957
132.6476477841813,32.88692742010915,1.4727491138531708
123.11495883202312,38.448030661599994,1.3748615728541487
99.76947031277722,36.764790499786045,1.4341240765727676
66.33568364523263,28.377827036860342,1.6337785802937355
27.808816626142313,15.127828202357753,1.8206048647987332
10.35231990540203,0.1748768082606677,1.8639538687858626
43.072907906802456,14.32968924402849,1.7456316934953546
66.36579056965681,24.420050277531054,1.4764387828753516
77.77104893014082,28.376940952113202,1.0318032167611957
76.52100276542032,25.29173034210427,0.4549965947773153
63.476325886022885,15.47131409111856,0.13405501723724766
40.928910459609796,0.3124173834797319,0.5913051489779969
12.309327205076762,17.910051601738502,0.7373183704835591
18.212549407104927,36.30772229027023,0.4330633621750893
46.20125198479912,51.723115539358034,0.3776979544007503
67.49475511369306,61.188502929349994,1.6155956578415498
78.78870606220592,62.48214560249907,3.0156930415088214
78.14637070775588,54.66146005062307,4.210363160013836
65.31149148823216,38.385294925519396,4.84135767977419
41.77565001493261,15.880094948657463,4.728303177394979
10.580572900592678,9.461299017847754,3.9022254938277867
24.1296795838896,33.73209782482628,2.5196086509740896
57.70694954131719,53.22386693215349,0.8763499097444704
85.63833752388217,64.99854390762717,0.7062039403124635
104.15285289956597,67.23292940056783,1.9680358278280192
110.70300417935721,59.3871527136032,2.6143419066180886
104.28781758031342,42.27664273227344,2.3733239716701733
85.62004886588468,18.076576715887825,1.171803962578839
57.089985295319536,9.816721168557214,0.8219291407896965
22.51009356146165,37.173500741973925,3.261609390660487
13.355858879940966,59.58699192013728,5.596798032845742
45.45956488404826,73.3213492491134,7.113605224535383
69.2433970801372,76.10719456584526,7.238304631419187
81.41356549768206,67.57517805517966,5.698909767970145
80.55632898515165,49.17704087999196,2.4900480403061556
67.41683593452834,23.65952606258556,2.079925458086435
44.75804277610676,5.634218325698838,7.410122700646431
16.83908333049309,35.31403859253652,12.748598253209444
11.738640123690038,62.37998316647818,17.403886366888628
37.01150356007528,84.4358932884268,20.85522684514608
56.05745445017023,99.68458701715731,22.763973324581368
67.30803372930785,107.00078105852047,23.00932884893688
70.57432463578382,106.08906881669266,21.6330229200033
66.83199352738146,97.65050128597225,18.83442990856691
57.85646471232074,83.40282931376466,15.053631032430118
45.81324300381323,65.83516600174178,10.886862238671142
16.422751878315033,20.622668647054585,1.9902210270888006
23.811552709069776,22.97099270916078,1.1049631374106117
29.468725253563495,21.157254704533766,0.006704528763385686
31.540506516490407,14.624585838721323,1.099068460705761
28.480730592384194,3.7705739779972367,2.023798987729383
19.44108509370926,10.165216587493202,2.631403633646352
4.5615557302182,25.37293622393545,2.889690987258867
14.943568557801829,39.816607639275034,2.828362623492497
36.85479036938509,51.49224410905613,2.4582511434370806
58.23832231626383,58.656232375204304,1.7952902399280524
75.87727589617849,60.01219843691155,0.947810346142279
86.68555145150393,54.78453478230954,0.149015643628208
88.12266190442014,42.78259318461776,0.3159853155160647
78.95791968396087,24.808535371188448,0.21633611248478177
59.89024074509895,2.937595488982048,0.5645871463210504
33.227232012094746,20.036587656214923,1.968270683157342
2.3447692807790625,41.264965057608414,3.6964644857346296
28.795815398034854,58.22626798832735,5.318360870193971
56.38383522170745,69.06805158636088,6.451741151273148
77.30290818167434,72.64450223872014,6.824333735341425
89.54602082967642,68.49914340006777,6.3465279508352825
92.49060610618966,56.96016892057462,5.116801887663353
86.83889155062228,39.211123069698075,3.3381875692544414
74.40734463744757,17.369116993194552,1.2921745415322186
57.68383872774057,5.677847886650682,0.7922504750636927
39.285495036566395,26.709166692136442,2.8261909797504776
21.499515982801995,42.75045552661217,4.7285706154029885
5.956444245438153,51.64893309140254,6.347706345817685
6.420621383381967,52.379271173688984,7.517754449580812
15.26856932582674,45.04916955201402,8.157910099456165
20.555560122046053,30.71372411870145,8.279515163915159
22.423088470106716,11.170814811901042,7.906232561133611
21.221060344777452,11.138602032408922,7.124622627752908
17.655752768120756,33.20749348479636,6.141707197635032
12.91517901034719,51.68324202767875,5.192579821657762
8.604863369759746,63.37280656041323,4.4470985905810325
6.432024433761729,65.97259447700354,3.9364502608435354
7.736134061932325,58.7456540520156,3.508439052643688
13.061196039902635,42.825519660620245,2.9572020725176715
21.97147558955334,20.930513593884886,2.1803800296556717
33.1613402222291,3.4442245355587864,1.1605108574248217
44.793428158967046,26.97593973105411,0.05098882618593466
54.88609984198669,47.176298452869254,1.31639439020661
61.56169558375941,62.5442324495091,2.485644262297066
63.15379290512633,72.26048413386746,3.4409698973742318
58.28576507806257,75.73803589891772,4.095559130013229
46.06071063649106,72.41938252175322,4.406516740502745
26.420078871659616,61.99867360355847,4.37165954159277
0.5454102285507824,44.92791687743216,4.023644094566954
28.93349669069881,22.857042087568157,3.4229689833369257
58.1492535286713,1.33374486399383,2.666577230086162
82.6676738942701,24.03298076919583,1.9002490051803098
98.4333335376082,41.754039565191604,1.290527537818699
102.66573720779773,51.97319005166597,0.982678506683097
94.39999402783171,53.60438701747875,1.0880724156856059
74.56539975556662,47.01587913888013,1.6812534962348544
45.68259290492982,33.72614697282566,2.739951339683544
11.38015736952995,15.989440443398406,4.11103012305968
24.084013347228808,3.5329506624118023,5.608249635175929
56.25419051406316,21.964955149297882,7.095694259942759
80.90544388009299,36.414384394949344,8.419161756252866
94.55208644418654,44.330330762538495,9.33299992692611
95.03827765671215,44.0161482741191,9.576281964560227
82.05704142553928,35.13402789297893,8.960514061558516
57.38770330060743,18.969134219930716,7.378083806947818
24.689585012530678,1.7247712800422283,4.7959534509901385
11.131068951533475,23.302471942284562,1.2617796919306672
44.79022380231633,42.0390829162649,3.0267318451632454
71.48616869720308,54.904617004188204,7.710465894068995
87.54404238374968,60.067154934056084,12.34413094740363
90.78872037001163,57.03196278957405,16.37240107916561
80.69990183060041,46.492733095592044,19.168961602758607
58.435532187150365,30.056897427571673,20.224853148774784
26.766046787430522,9.973376887131245,19.26737658761651
10.158824085265435,11.116743541843881,16.331407777366064
47.27607828899685,30.44901306524681,11.78015372338588
79.29921949127116,45.45265856206106,6.217460946711141
101.5562643528341,54.105937277948684,0.42893025546057584
110.77681153337024,55.25572113449754,4.7274437800772935
105.60117990846281,48.79770016932752,8.551942835139407
86.70268628551595,35.65724402301273,10.641776927768422
56.55768889204423,17.582123913701736,10.912678300000902
18.97989403188294,3.16038275223209,9.556945279662589
21.427714990224125,24.06642654593992,6.93258690534817
59.791632115579155,42.61541723466584,3.521449508708942
91.46099745330211,56.45830329726646,0.06071984146466486
112.51771046478179,63.61535212784742,3.1694397317020626
120.2895758612231,62.714115727305874,5.249828947909673
113.78397536382474,53.265406236888715,5.856508678356884
93.9254449161455,35.89328380851266,4.756998040864932
63.49038141566203,12.422831921710252,2.051405479935032
26.699156417534326,14.226514568495158,1.9591330913478449
11.455543574595051,40.35963923504212,6.866017925230343
45.97569892382454,61.99479934517056,12.05450023463093
72.55488818782561,75.47195366278252,16.783758812064523
88.10291369795074,78.11280630650765,20.357980053612327
91.0465938878478,68.81814479940012,22.21741478490749
81.41488822400859,48.47343691387014,22.01354164588046
60.77648568870499,20.000388285294772,19.619640832895342
32.06413037884687,12.058000856096097,15.16561892644491
0.7211769828582398,42.375820948783144,9.05892462147552
32.92141548142076,65.90821382974809,1.914764250063937
59.75637354268182,78.89045355418354,5.5407324369057696
76.96894840270033,79.49582254114989,12.570459306843123
81.50055358012585,67.99507163003462,18.49372935572648
72.06949303244046,46.47619328927211,22.78873173725416
49.53485591236004,18.31987815961578,25.17063170829298
16.948391589364245,12.392061261470056,25.619721614041147
20.80467684614193,41.411487538237886,24.374949806075666
57.75871700900737,64.80205135654377,21.775772862881936
87.86288628068114,79.4418177513149,18.201662573901757
106.03004118751835,83.53011748127517,14.116402416360987
109.01664972971761,76.96039525145012,9.92984729317822
95.95660253262729,61.37198703701906,5.895176951302285
68.47775469429145,39.758635246951535,2.1396195848633335
30.416676039129733,15.712235917601953,1.327744188445754
12.78040554778401,7.433714986232387,4.56405419957994
54.86224162401696,27.218934904476537,7.5640164567040635
89.67067360602384,42.208303866730915,10.212524439163913
112.04924811959948,51.729389244364185,12.365668744308138
118.67476839857747,55.462675241064844,13.89664056964388
108.65389279762536,53.20423433095546,14.70062609063483
83.73580721512565,44.95790356859994,14.692246460881195
48.03699688231963,31.26868565334879,13.808027405697096
7.281786509728604,13.536053137964709,12.088703532131628
32.27384798439785,5.954111911765425,9.694831782535719
64.98358133398202,24.350739408437445,6.90847866067818
86.72446558089005,38.77883426655979,4.176564582095307
95.37336279729233,46.859554979548726,1.9623941658041237
90.83737927329739,47.02454232767255,0.5795163948511326
74.76065767178231,38.63593658611695,0.15729917302030014
50.06859983060811,22.047976235712667,0.5770504158176702
20.48675196359908,1.2848096521331651,1.467097548241592
9.900284878911844,28.684304385778276,2.322271238562438
37.059177896336465,56.30339865777254,2.605609313920414
57.41854492798227,79.5665296489053,1.8706256716637095
68.29176727555996,94.03412290311572,0.03381507742855222
68.26563068059926,96.48226239015023,2.920054572455015
57.43933926010966,85.78088181056965,6.436487826077719
37.436830990333156,63.18338594400178,10.138885775081533
11.180762354283559,31.93058671495195,13.401033942050919
17.536411397347557,3.6106855205558728,15.471985738303607
45.00221952925763,38.956870252389365,15.843152943523995
68.2852916595067,70.17959291221811,14.389562588160729
85.3182205342686,94.20280205347962,11.236313992949365
94.9781867276157,108.99327863492142,6.773610305051778
97.05738845179567,113.6620540412453,1.640478272262502
92.1808969717586,108.55005746581428,3.401916890695445
81.68193710654329,95.25739886936668,7.6106079103514785
67.40601945871515,76.48423164970225,10.435461896147578
26.505329196526812,7.939349242362144,1.5000871027201046
35.11246809497013,13.681213307073234,1.6463119952072942
39.860323337116576,18.310969918074196,1.7032233714921867
38.29387796819002,20.49307064040548,1.689398694494503
28.79202726656734,19.262841144206075,1.6048519952206206
11.063293975923603,14.189358961855655,1.3896522293667182
13.637023553355032,5.434259739564472,0.950910847942319
42.650347810926014,6.271987758460017,0.28069445778185076
72.25853580576377,19.663360868108754,0.5394661675940161
98.20744692546198,33.02745867621365,1.4274165336715023
116.26079360249413,44.38410014814804,2.275670818897657
122.62047969981876,51.69367895784493,2.947723726264865
114.36358944779437,53.08320663961292,3.371195132688881
90.44596006890225,47.34316541667244,3.567131165868253
52.58932892222533,34.48135356606584,3.5817055794265014
4.9495881710175205,15.731887019598547,3.434924976469851
46.55590763876589,6.7554385009877755,3.1645977034741244
95.00129128875437,30.275660944663688,2.8637350478191523
133.72569362031226,52.00783699825684,2.6462481455991607
157.4374184793424,69.27520326259207,2.6051184760820862
163.05951740365575,79.71407737811722,2.764920338618838
150.2130472452955,81.52178126149232,3.069494446237075
121.08429898517153,73.78604067145169,3.410794772394173
79.98224082446487,56.89857987903292,3.6454272138555286
32.604058164323256,32.77870695186118,3.613369832866562
14.793494800704947,4.7069802932041656,3.160713873022001
56.17919325080067,23.251703499187776,2.2317503882827783
86.53736861161995,47.115640576211064,0.9257206038476847
102.5153153413347,63.8156892129336,0.6071138673955132
102.90337091426404,71.69995612971552,2.202023968957559
88.82165081029974,70.59392443355333,3.690668727236157
63.49486318607289,61.534370059257,4.9949001817628025
31.65106775489631,46.40705216701205,6.069621689293705
1.3547350563000418,27.64308637814992,6.840098492057506
30.46208330667284,7.999922902896645,7.282534115000763
51.657000021248805,9.676430296858983,7.431934069881576
62.42323245315951,22.82366809140233,7.385198568095299
61.88798974459146,29.681491423776087,7.3016820858810325
50.73562622651495,29.768306654618236,7.29876759492858
30.987126105946004,24.04704661583047,7.40414408674796
5.723923645483244,14.649029024838937,7.541463201631831
21.283354065510977,4.218190366874632,7.5270194336078555
46.0675608984578,4.865955925338214,7.175252298802112
65.03929265933412,11.055297702871192,6.417322178336131
75.55396670075145,13.798396581228687,5.314310857514601
76.31225166616547,13.335700766163082,3.9422855756761237
67.47537656672591,10.32098945345374,2.3201579220210986
50.487777079588014,5.491163142839291,0.45896967641226366
27.694580116895278,0.49233442814947076,1.596294334540981
1.9072688950159251,7.045436837880821,3.7532595124764754
23.920871951427518,13.62352978371801,5.9409297424132985
46.861938980743794,19.73742635906176,8.137198775004478
64.1236025217555,24.998970669720553,10.287874097565968
73.2257233844217,29.114017632599115,12.350387697305326
72.32886346269878,31.782574758774302,14.28154138596137
60.69238906910956,32.56270453242696,15.920698700664554
39.08090827026005,30.828808366837823,17.015254368487387
9.919004378458801,25.943465962112505,17.251504438913038
22.942386956214133,17.641940790498584,16.32336327334608
54.85400948688672,6.431418955233899,14.068000559026219
81.18416650490306,6.265098484202432,10.49015459363667
98.06653919917844,18.36237588708675,5.770165029374886
102.91404120446624,27.701732651627935,0.3101520398891909
94.63578776595538,32.711297861922446,5.270319547202066
73.63278182660615,32.81364812039735,10.275653292986595
41.71189624592305,28.41064131454383,14.145703266036955
1.9867193381656656,20.540736400728733,16.539903073675223
41.27251951971671,10.495739973973336,17.304104503415473
82.93381631146237,0.3593259900152176,16.447351193874898
117.5425426797329,10.511197539555516,14.212712262670895
140.12745265648806,18.145623707685576,11.078693521281913
147.1134622259066,21.237452406147256,7.572402989405707
137.07569774641894,18.05180984980737,4.177164412487255
111.11987225358122,7.91815522904074,1.307637619148865
72.75316096524361,8.108977870552946,0.7984090709917948
27.26993794435401,27.149234195684933,2.080071232954521
19.150878176078024,45.14077334221956,2.630304915276886
60.42241081279835,58.02017924081906,2.69803618127241
91.4138249974329,62.92701864611933,2.561234382421178
108.5911715423779,58.89113178676078,2.4582477752123384
110.4207425819611,46.77745086479561,2.6011405371893073
97.51665369027256,28.656410899219864,3.10673533279763
72.52295446483971,7.031919221894924,3.9401822663585278
39.74169857207905,15.636275289998183,4.893420112793569
4.508683770122712,36.991228104695004,5.641914901385895
27.621441334126562,54.644437383431935,5.932804561735536
51.73625231126654,66.20176357229354,5.678675972048585
64.32901172678524,69.66937707201,4.929756630884523
63.83957474220749,64.1480098848773,3.843935083499318
50.851424935462326,50.431963723896125,2.574811984470462
27.926620179993506,31.08559474956553,1.1849447036680152
0.8542432957420337,9.840934229212017,0.2862290802818181
30.585146333165085,9.450385346877164,1.770386777631119
56.33184232309353,23.830743889844424,3.184607822408405
73.8945989861944,31.771098896322385,4.428254738755213
80.4447689669836,33.08349889335733,5.39159154377545
74.92227089744489,28.429704663888455,5.939136030880225
58.141758096877325,18.820772385595937,5.941263708366854
32.630340922359906,5.417025305652358,5.398734417466282
2.218525981553287,10.345761458931696,4.453005319618657
28.55320664540248,26.557947909233963,3.334330272795292
55.111328707449765,40.86706770495903,2.2852861123875683
73.5301304132082,50.852018635869314,1.4586793951944894
81.11783754047552,54.578842238966004,0.9175708443586019
76.80885668892543,51.03030691911084,0.6027298322408025
61.32522972019732,40.202793382305394,0.3555145855125155
37.07355115280389,22.892828043679316,0.08852351644216114
7.769557112769241,0.4211074451054416,0.172259029354842
22.135487363013823,25.42711454762202,0.4250766424662122
48.11454030965543,52.21421929138155,0.7527294667671035
66.2120464984192,76.66529001162935,1.2108667142133942
73.62168198864579,94.84743380877937,1.797085807161234
69.11996327809388,102.91016287883156,2.4589997054298043
53.273645269460665,98.20517159825428,3.0970190696066204
28.397006961922724,80.2957476652749,3.706126819269873
1.7662931484934978,51.32172828524596,4.337986879652468
32.63264072546651,15.496654837392756,4.927054582966298
59.533980385146904,22.008815151846914,5.319846154901686
78.47685403542208,56.25734373205028,5.423340560961461
86.74006703490583,83.27969231498636,5.287214677828005
83.20032864468239,100.18843689166398,4.975064124133732
68.36228692481384,104.99573904040015,4.5013710674995355
44.17286996264756,96.60672131775024,3.9350459198900976
13.738654944068731,75.2324272680153,3.2928688195963756
19.007107681223125,43.04458324737468,2.441439394773063
49.70231517967399,4.5344469912622,1.2852910242929068
74.04427970821908,33.963822526453114,0.08415908983797647
88.3814165047464,65.70034514522115,1.5271986015394219
90.36443183229555,85.37505452910491,3.054772001590687
79.4871630796146,90.58823896667866,4.758575928212988
57.28862458171291,82.19430589749987,6.587181421586654
27.103899313244554,63.466283607089366,8.223280732112142
6.599570117892024,38.62729225270868,9.174452598922617
39.11216230901516,11.566552783859532,9.09098462274004
66.30268056233894,14.641567936797614,7.971203946937342
85.14314990124045,37.41418468058135,6.0244200666300305
93.86981428035082,54.146118516781435,3.5354955784748388
91.87052956025192,62.18268743847146,0.8891195946578784
79.4939660720806,59.551969639989764,1.519548730247865
57.943515679515606,46.1297512462711,3.4252892355108893
29.28141969793149,24.445094049595962,4.691615765114638
3.5714997089748124,0.5761236523609011,5.254725001469337
36.92081984607028,23.825707916691005,5.081685130321011
67.04520303264783,41.56751706144921,4.218605614651207
91.10121271448982,51.6070578170384,2.819643438200131
107.44062689809122,53.667631876090354,1.073250281757264
115.65101075604738,49.053272738115346,0.7866776446229676
116.325933768027,39.856088199605395,2.408399812367317
110.68432527445152,28.167622785394705,3.4033155434513436
100.19032881534818,15.676281080442068,3.5655184902086012
9.348838767851365,5.8495348810388315,5.533117300300485
15.143121286599243,5.484835004605847,5.210102624878607
20.075296240074906,4.704158521851036,4.134007680529683
22.839614997385265,2.7172367906480086,2.348658668236924
22.160668470411714,1.0867364331890095,0.12501746948510925
17.08075593706653,6.797439565114716,3.1370339853234115
7.2737828911552596,13.933646284765743,6.361115766333116
6.73565835694736,21.610004723273303,9.416002943853691
23.45631568523963,28.84584843776366,11.971524891695415
40.560578576203284,34.734134865480115,13.746918353199375
55.18691520569527,38.44336956780361,14.475474912123982
64.28532968743536,39.27652974099555,13.975293967042505
65.04443513194929,36.80868458761828,12.240219834892399
55.847034696917824,30.542619093647346,9.475015701998533
37.12627810510909,19.62248147144479,6.010861521458053
11.065525227286606,3.699987520570241,2.1778718111187123
18.90999448781787,16.203411598551238,1.7052986735330649
48.508915514724045,37.66939996169064,5.351338585628094
73.33237775033425,57.27435175952022,8.531323145234238
89.51301295807406,71.55100045603653,11.067254755536991
94.32248220998213,77.93755246688156,12.81263412068615
86.71467544937528,75.242495779378,13.620197338781198
67.48513361319759,63.75208517211014,13.46799478160734
39.19931975531276,44.9395963056773,12.546273901279992
5.7657468234000895,21.16106733334128,11.093817670382704
28.190296186386252,4.567165978562881,9.272146684525078
57.97167868517776,28.8342040272306,7.213408191101898
79.46250945966258,48.17542469194821,5.08649019846579
89.658870853681,59.63909412991272,2.9844794861063044
87.10886253710281,61.43254503514004,0.8537664740782293
72.17305586436474,53.41926440517895,1.3005951376902671
47.044440389776234,37.2411025680353,3.3154819121008163
15.502041124872637,15.955783751865606,4.963925328563083
17.684318728741996,6.635469408764634,6.069191235374483
47.5756718848006,26.750399901599852,6.621349980491093
69.93349933841361,41.239884057713866,6.732155213816958
81.91667514995451,47.946751562676205,6.50270017893366
82.41725970111128,45.859223533037735,5.960259056189441
72.02466273363035,35.14605905113126,5.080122946809606
52.6967470195219,17.163122151785334,3.885727817215462
27.29598686179687,5.622245118629841,2.4898720999602846
0.8565673166314837,29.88102279033292,1.1183191096251741
28.35522386970745,51.862864077488645,0.0842809044500566
52.017333240661145,68.00671064993445,0.4159426979439459
69.15696037922335,75.57638296986447,0.3998033530916071
77.85903217940593,73.13062283141817,0.008785975560829062
77.21614618377733,60.7510084022363,0.6013676228226029
67.43883569001979,40.02033381642361,1.0233363900867973
49.810310368183366,13.773267057983402,0.8522246224183222
26.49728336847857,14.338046325718093,0.1899005260885412
0.26574064771049466,40.41537690040323,2.078325213669679
25.81041404261115,60.957903780216554,4.475249536260569
48.61890438583425,73.4720916335805,6.872960429059661
65.2778857915556,76.87640932903335,8.773230902244926
73.42334631834193,71.56145819404713,9.787063592596542
71.52958941441406,59.077029152057044,9.68259779738316
59.23178771734531,41.56765149721798,8.347487305842847
37.557972001464904,21.244376675028192,5.7704434428080855
8.962036993241211,0.11629455882947548,2.1195773790681836
22.884959316184016,19.982611736012114,2.2275692118882207
53.529446407977346,37.21085939768568,6.639073160707805
78.35401776900027,49.683154468370645,10.31906501500009
93.27075014704367,55.76281616840506,12.700521081934832
95.39477329897532,54.59912802292706,13.624003565391062
83.6229696798561,46.63604364534946,13.165998022335232
58.98746084148284,33.71412578781244,11.569013160223797
24.67384873588421,18.581666186240334,9.226286250670418
14.368032372017979,4.009512998307114,6.548226913124049
52.20210397352227,8.048812939001412,3.897518132172407
82.92429183987416,16.79520583408558,1.5838647146948865
101.72779438183537,22.26682915524681,0.22344205062425637
105.76621198222668,24.63825067583832,1.5249365993320467
94.60130154755105,23.655929999418966,2.405025653681111
70.189407014596,18.63837612205939,2.9689024226900553
36.47348029411281,9.119567397452105,3.3135631349955097
1.2952266504093566,4.248246167025335,3.49596133788189
37.37677697233316,19.160036005358283,3.5591663329209107
66.3731729375139,31.95444235376701,3.6272394271959336
83.96524834458694,38.719056437296075,3.8336713190394685
87.50205939147773,36.69844762057578,4.083098254638154
76.36618494181504,25.30406041905235,4.110118166491205
52.07263949248072,6.24733357366638,3.8034699272518524
18.08131776434659,17.17884525447599,3.3067823458552397
20.696358892117726,41.218146428961376,2.9100015497812075
58.610758310304796,62.57395990440268,2.9328360919438774
90.07763326275662,78.76211177589374,3.592309427104389
110.36997312809352,87.96476809514009,4.891387326864844
116.30874638335207,88.76435601982237,6.579781511438632
106.74502747228021,80.14837533341712,8.232865822264163
82.7262482050673,61.910946663597244,9.391358371223898
47.316413643658244,35.20461856019825,9.658063240761352
5.097616689244377,2.828209613727135,8.79054910565248
38.55878228238387,31.0502774079562,6.724960326141612
78.29358740413569,61.72799107986486,3.5462801894934346
109.48079016137814,85.02662541974489,0.4578591321632381
128.7323082456526,98.14826387536019,4.841240354797361
134.13648278250693,100.05277225788849,9.198585532890672
125.31490089950474,91.35623047770683,13.16871707764074
103.39120988043638,73.97207227996957,16.258613084968925
70.90707982397892,50.717147630348016,17.934816134228196
31.660356265123895,24.954234650587086,17.877391658245013
9.601369581516234,0.20605306386201178,16.05557220541134
47.683242242342544,20.340084455424197,12.74409097613032
77.6421791864939,34.37958185603703,8.421843574375547
95.57298678342939,40.90586076754818,3.5891098947613447
99.27419105170047,40.28995887526844,1.2223418811222373
88.62372761577384,33.93969725466271,5.443518424224385
65.58502526681139,23.71591650578583,8.562321151709789
33.849270305345556,11.423864879762482,10.19119009269677
1.7688797951590352,1.3876552750931062,10.137888965844663
36.03928998083358,13.287968817099749,8.457254490124724
64.02903336704901,22.72410314736569,5.493839250586823
81.74290703847943,28.014245207007242,1.8398028663021488
86.64451981200156,27.7199937562372,1.8287842507640224
78.01421440055258,21.260344513557413,4.861516332288188
57.09700795099593,9.40320127232401,6.707122994708673
26.997297894916187,5.723519180763901,6.96425100562291
7.7209411459057895,21.180015709062513,5.410142045462773
41.716641014585505,34.08072136474002,2.1524020617157458
69.74957628942518,42.35138620670903,2.331233893337383
87.59896846819017,45.03581825040879,7.40042904593325
92.82635832350421,42.1182495594363,12.35532066972281
85.2022392076235,34.12366293990059,16.4353110674197
66.68555199714122,21.853028108699206,18.939709988014318
40.95387345733137,6.432191729862356,19.380604309855713
12.604365179261857,10.426550232991291,17.606923454640796
13.743522017509338,26.265885214848012,13.860599878401556
34.20402749389929,38.133657183628074,8.702288656715927
46.11376946540894,43.265111068786915,2.90490047521178
48.23004297383661,39.92957924397296,2.751937453553178
40.709416040939445,28.046054964379113,7.705207575774028
25.003161058504464,9.271516139733567,11.588416651319381
3.729557228914725,13.451252572740088,14.18082555220659
19.52766826761006,36.62383707856939,15.479700296076116
40.585110080738495,56.850219692607226,15.664234998375386
55.2675238793492,71.24208440533704,14.992416356653163
60.20184480266628,77.60594708192941,13.799853659063562
53.57902662885985,74.55752079515557,12.397664327258543
35.639410278316454,61.70144707205152,10.96306605829174
8.696861813740233,39.857958194616394,9.62253799491058
23.32562966838543,11.176196243254555,8.384038537370014
55.68788915893818,21.031475375872624,7.116179038835246
84.11428262787891,52.92580254793415,5.762724718606563
105.51977400732152,80.8859567815843,4.333308068642314
117.98341223198723,102.04736493844617,2.8373217639989177
120.822148794291,114.69923964818892,1.3140631292683351
114.52947932694087,118.39955650139515,0.17876190680946782
100.633502954386,113.81872288766111,1.5172393807932503
81.48508041682287,102.45202062697359,2.5658165870425584
59.948942557590954,86.32544618473227,3.279114391268493
16.41413125947214,11.487602215867764,4.858876423215077
21.042653273235462,17.505703449805413,4.045314973037669
23.419403800334067,21.75294314656812,2.5003092577413546
22.19663458229854,22.61481967198777,0.3113818777445203
16.44669833385338,18.992104111278756,2.3130120153395697
5.915817053679693,10.542600096241545,5.055767750062906
8.834964406255514,2.2374218732357787,7.559759985768759
26.433556160815943,18.050501021399352,9.531446785320444
44.811869422464625,34.86271711901723,10.791782676953803
61.44685162908203,50.055449007578815,11.23245555600597
73.67360887424788,60.72001693489137,10.804650313325652
79.00584333311078,64.09110560206292,9.546580477770966
75.49350349381447,58.11197186639786,7.622987569761935
62.27000671473178,42.253721879353094,5.3000347611705285
39.99686153131563,18.156074176907843,2.8056509453791043
10.781879332449167,10.622267677723595,0.2871060031998387
22.12405601435847,39.4271147788876,2.1375018815818505
54.731197556432456,63.53747487067889,4.3795107125353345
82.92209808834309,79.2624580234878,6.364340178996753
103.01497663056433,84.56676986393562,8.011932800944468
112.25701570386063,79.16185893314861,9.21504469696938
109.22033096444466,64.234745412027,9.842565315496563
94.02370097091315,41.99296106995504,9.794820371928365
68.4285033820877,15.3505448237724,9.012397905393076
35.70947973628036,12.291634632948167,7.499977935443121
0.2751578782151564,37.31781802497648,5.376098428338799
32.95463031222755,56.33172181656402,2.9011829231221373
59.352204969828,66.7661589627329,0.43683254959834394
75.37517370419302,67.43545621000274,1.6983404378857658
79.1837283414912,58.80703817319804,3.263221227046743
70.91299648305986,42.835383935394404,4.042308495633733
52.547298358161356,22.40396596432951,3.9163448927127136
27.470167488858515,0.6371261297291338,2.9442388402314696
0.17819501773614657,19.651252262497565,1.3522000566505843
26.159442802475585,36.21923852850557,0.5012632734996478
46.68968821661675,47.43319785419915,2.214975892786777
58.852009103224,52.2596763074672,3.5111924569703885
60.90936808110209,50.32364735906463,4.276597805104403
52.52551477507202,42.02754882950737,4.466438326265842
34.8570691540106,28.617983925104582,4.119537335975409
10.470097063196476,12.070072373968676,3.3701012616846917
17.00136345394526,5.233526143874653,2.3449032897295883
43.44601582524327,20.940432262428057,1.173212314504241
65.00001711835328,33.12652219260359,0.005263707747990532
78.72482422688239,40.51530494973072,1.1058944905634578
83.02414345507736,42.51625771208223,2.063103142111686
77.71692159078565,39.17882289045836,2.8277315414727644
63.82344517594263,31.15323394846333,3.359047717984275
43.21313206690569,19.666295918431253,3.611633186490433
18.290655795327453,6.426876384263549,3.6466548415110562
8.205781180138422,6.594475236514216,3.5947434769463813
33.32035628654166,17.481054808732843,3.540918616979498
54.02670833723499,24.69490474563967,3.528848259386532
67.53757186906233,27.28712071627794,3.5362596059234455
71.7765091936412,24.92827832632848,3.5180115511026235
65.87722229680344,17.822162689814608,3.460709832373508
50.507931274333615,6.626932088728254,3.3056019719158938
27.868632391609744,7.529155238509267,2.9560165816735333
1.3292545115784695,22.97684460630772,2.3845765541763937
25.186628549737264,37.52589095410674,1.6731426224515433
47.86172535260627,48.6985667251383,0.9513306009240428
63.51807893649388,54.180396674721,0.3128147304357807
69.94428313292738,52.3410620725506,0.20030284578376784
66.05624605041342,42.61203869936845,0.5906305044801726
51.9988696571911,25.57860147742095,0.8971903822341688
29.204881210299444,2.8041076381796026,1.1750447413253091
0.3661326649591367,23.448450081253426,1.484316571726287
30.762806183043615,50.433627535311395,1.8885746417087892
59.82003144285142,75.03259000942006,2.4430822311231357
82.51611032800562,93.8681511228272,3.135818621486178
95.3935644642988,103.63708423055027,3.8627534809104165
96.47621118138457,101.73879112539332,4.456720550732338
85.6137580285377,87.0519255386599,4.676564877274219
64.43959431252303,60.55586214471708,4.229076589548988
36.0176907762575,25.450244994526354,2.873973810464097
4.319839022598891,13.372855326755253,0.5392887443669658
26.348577354222122,50.344534741883294,2.609396962334087
51.89517495425139,80.3638066429918,6.148265313044311
68.93226196010443,99.67024039675482,9.4447277421351
75.20676329967509,106.25249969111466,11.820916877287903
69.95343061510978,99.86001751592265,12.717069229435408
54.11547335721044,81.80844744720996,11.808292289272558
30.291869428741688,54.758989337300655,9.113307200971844
2.3561005987938666,22.486062375739305,4.965520748645301
25.159195962553362,10.484549426378093,0.12956072522386025
47.79801398065391,39.47289984210606,5.579049477869278
61.887349232871344,60.44621888076309,10.757670510176933
65.06337033454547,70.81394500531711,15.081226646964074
56.55301606810849,69.93850951943682,18.042872689161833
37.224056126903115,59.1480280258655,19.24146265856151
9.448199468657911,41.250986799959804,18.457993864366827
23.19409825778551,19.781025402436235,15.787546933301673
56.345007850644116,1.7479167205090518,11.721153723785386
85.41930893167125,20.36365981257272,6.971641526139605
106.23225953185403,33.87749475262407,2.2011109930896717
115.59989656604579,40.95259395086529,2.082881596485252
111.80132545312013,41.1268430213352,5.559335658994776
94.82652743563119,34.84200652980235,8.085872484578056
66.38256709607143,23.427309506782986,9.65280839513477
29.674143834027326,8.928749616284511,10.369039338894838
11.003138066948898,6.246727735204204,10.379777571505423
50.77446187459636,19.792071473963503,9.799413387072702
84.75927634071098,29.902883569896332,8.761863595816617
108.70313748411972,35.477944753547796,7.416603152793388
119.59714145373283,36.10197871176376,5.932207140866675
116.17595216276686,31.898847754682432,4.53042989262118
99.18766059455166,23.410461502780283,3.4142300815005853
71.35040750111548,11.58293625013882,2.698715392550111
36.95816000428322,2.19771781306727,2.3140002835362457
1.1898024549811006,16.125860883848016,2.0003356565793893
30.720179546380294,28.176893123111164,1.5336444495118944
54.28181759842467,36.502969090063985,0.8345587641325819
66.3894363675739,39.882666784103556,0.07151303963850324
65.72183018948533,38.04240500753623,1.0939495183975294
52.88723170081061,31.69151078673252,2.120487345195467
30.311494465646863,22.250259380394834,2.9967216214627332
1.889460311042973,11.416229284093632,3.568320373111734
27.559397035480007,0.7715217171393406,3.798000825354009
52.99687525691002,8.414339733754055,3.7214102338337116
69.95235231934812,15.176873763207551,3.3451151646594752
75.26026960576012,18.764014065307084,2.7464363690103912
67.61081515271745,18.598918710885222,2.148151401766171
47.787039580532905,14.38671201143207,1.7387502994544115
18.532898666002005,6.345024298713791,1.5205642301894362
15.922156978728607,4.576158729532516,1.3157534161153097
50.58680853959539,16.65232745831224,0.887716306448994
80.5247263002188,27.6002607092331,0.12528849305893006
101.6087801472104,35.01864670947199,0.9320391469800873
111.07659057348245,36.936844368954,2.1228589170988568
107.79764667774668,32.27910920019233,3.178422433067928
92.2631918168654,21.099900246469986,3.832552772480065
66.37903368527765,4.560730399851145,3.8730134334093917
33.14728900989406,15.318290097109303,3.1984198419094554
3.6840935575285183,36.0283546699751,1.8835966389339076
39.954376952992966,54.96216556630092,0.0949262913129597
71.43146388733349,69.75860457245977,1.9814268056399118
94.2241356052667,78.55970509467626,4.123245219284985
105.27999072519891,80.19673283500669,6.0816134408081925
102.91651021852749,74.30579226633814,7.623697563636022
87.24978127978693,61.36866462064743,8.51378201536368
60.354485544276926,42.68653193488859,8.48552811529618
26.045726957936267,20.252127544324637,7.35199349736416
11.128353380079309,3.352948874443803,5.225521209709837
46.86655717399744,25.413996774097996,2.5379441148518174
77.50386754120083,43.71102606754792,0.17961923332333002
100.33813727112677,56.80135202286264,2.4765490226790785
113.79178072720451,64.12475161399011,4.078105812488733
117.44188984445313,65.92609606989637,4.934192833631751
111.9716136227677,63.052193541436424,5.138275959462341
99.04456233345232,56.694148293801454,4.825395600921147
13.8651400627484,9.722080548472588,2.948159600695625
20.14516851205367,16.61892072897499,2.690938376315599
25.273643492545492,22.80749457541777,2.0090044884597638
27.45017176539384,26.73355179256458,0.8930170350296192
24.9414410710267,26.997308055246773,0.6149830864943334
16.54370702229093,22.66441052732489,2.364985467194268
1.9911314657949246,13.502686504999092,4.120552316610472
17.823054506064032,0.05347417826223925,5.675571833886345
40.79908695510512,16.40151624813546,6.853093721959309
63.82058283746563,34.00472719444503,7.500852262747446
83.14449251541056,50.529079753745236,7.498424097190924
94.89616984649334,63.501587238110424,6.802238241001437
95.68791175782931,70.32904912942682,5.551212534757796
83.5581562865707,68.91036186272257,3.931632214643185
58.6939924887257,58.41051154724844,2.024241136131914
23.3144096205199,39.37617950850105,0.11894750492342254
18.661666824015818,13.709570891845628,2.4364344356711385
62.05577249105307,15.370813578526272,4.817541994553416
101.26304248120366,43.847028827609925,7.000881180649457
131.03914846067275,67.56077271528176,8.616341761946332
147.2283528894918,82.99132553846363,9.37892354361795
147.3621749759103,87.98526097726918,9.13050792211429
130.9482465840994,82.07776053071,7.739333301399789
99.6066522631433,66.47419449488001,5.168389916854757
56.957839546789955,43.6347891292071,1.5913709294153624
8.24998115368665,16.690655336967776,2.5365642429100483
40.262596501282445,11.029001047111201,6.538480819867669
82.21672130763483,36.31735541480046,9.772592780412522
112.13824545220523,56.239007912246926,11.75793217239095
126.33937604847989,68.28842541607007,12.189701195495152
123.49334788685977,70.68452408121242,10.917430472080255
104.77631365915363,62.78823634635313,7.949288747744101
73.57743121652837,45.48850292412169,3.5812416350214527
34.886852945762726,21.29716419440853,1.690030343530088
5.448575488151873,5.9986453840206,7.255880319556067
41.522173644260064,32.09102985292703,12.319424998502663
68.14435204116971,53.03411555831692,16.10580322344368
81.53924442129984,65.94743259442153,18.14403208154068
79.9273999815846,69.34734855113064,18.248519330443663
63.878935464262334,63.08566408146478,16.394834388730136
36.31220717792755,48.12032151798925,12.80418239151733
2.0762250596057474,26.33423636610991,8.07151700899849
32.85201494260604,0.4644023490178127,2.9652748461466008
62.40724068480145,25.951975012619382,1.862093855797044
81.48998263757363,48.844013080369706,5.958305979875277
86.83641194718022,64.22883956893448,9.06852653957109
77.55457352157896,69.09883686961207,11.168032418717534
55.228294871656644,62.282407333200965,12.425444371108336
23.601123952068633,44.91111236985002,13.06867085449383
12.099305290293957,20.241845532363975,13.338033586185047
46.09422134958877,7.1293182788282685,13.397978279467015
73.03977147868196,32.35520323202295,13.196493923660453
88.869152747192,51.35541265456432,12.529534818915092
91.34301176369262,61.47115622179142,11.172921449344786
80.22997307108254,61.67989447313119,9.0025781796819
57.177795918672686,52.48186414866794,6.119153190925711
25.391146653571372,35.58425736688329,2.7939669485496412
10.78175083681633,13.500520857160206,0.716610091976935
46.305262992664225,10.873715998636092,4.254666970918761
76.00176068255188,34.69053835416997,7.651441423775769
95.2311326347084,55.510615154730885,10.657473515879822
100.64963712605895,71.49143251350229,13.053103898446366
90.89148196563642,81.33594154661881,14.654814795137527
66.9595313588466,84.07601465383023,15.234188944765759
32.13502626146232,78.90941685501276,14.648877496891
8.615601985606986,65.29942360170229,13.04804713936659
49.53806824820117,43.40214128568448,10.848047672424478
85.02309557455968,14.631280287813935,8.522221937367155
110.35547013062045,18.014092850698393,6.416968125465164
122.18248515213133,50.175606980581804,4.655109038724331
118.77058609364244,76.9802990263753,3.137262643845297
100.16214448219262,94.22266517255154,1.6104170749086089
68.26988076943586,99.39056391340878,0.26234900309001347
26.836614199589423,92.1223307694892,2.7279932298351843
18.878531249667475,73.98748216246618,5.7385692506577115
62.74545435941584,47.84568716732065,8.990674440014098
98.67566944066466,17.203509845895926,12.106299018574697
121.6246852188146,14.155892975571742,14.744489920880937
128.40675199174004,42.30570556478958,16.630889808840447
118.12118841216146,63.35173775876024,17.538866435321772
92.1825863727442,73.93372822077939,17.30290968737461
54.0453664365882,72.07424963886606,15.816623532468785
8.721364016018304,58.03749262300871,13.05059582348056
37.82075948683797,34.685705086656846,9.158546975000773
79.3459256592311,6.97893360312563,4.522501750386934
110.14803860828312,19.336724035548976,0.2477446984086938
125.88189924526473,39.34444980112855,4.430402396372365
124.25250347019646,50.171453596139166,7.4618877137494835
105.38829752238028,51.341488825567836,9.059829761299703
71.80500618386846,44.262875161016446,9.189483039287568
27.96453922965129,31.27814377746255,8.030861235361638
20.428546715246164,14.860066159002193,5.9912957214575595
67.2033779136392,2.704777728042901,3.7057168673014833
106.45481419808176,19.200499101824057,1.853534266687494
133.18329267593026,32.28234959156365,0.9043143711790456
143.86287860129457,39.58777038566277,0.987535875770288
136.92982417496606,39.27083170015466,1.990343595167511
113.08404993872122,30.71506625521453,3.7950609011666665
75.28804228125695,15.00485780427876,6.280862685767044
28.38362517909876,5.163039439151702,9.207443043796369
21.64171815437008,26.113776741896114,12.24406712504601
68.55629868234055,44.08594939687226,15.010891155146819
106.74147422339938,56.00632991367593,17.154088298396772
131.84334760346383,59.904250795413404,18.400721829462164
141.1653996359303,54.99310744449454,18.508716878775918
133.87023548948613,41.6241953048096,17.233938189997772
111.0926161774618,21.29504002420054,14.386935300225883
75.95314813840511,3.332109765731977,9.97176424387665
33.32931343536347,28.61189514051444,4.225605646975644
10.710380752325293,50.45497158768388,2.480985832694901
49.814292329563386,65.22100033546802,9.727217540431234
78.46758576811372,70.68650596414578,17.03948899917938
93.00828593540183,66.63136577541246,23.850739900784983
92.23843657606459,54.74579118380746,29.53422350934882
77.46887986438297,37.90505465188027,33.40986820182644
52.04146204253754,19.17636068211766,34.819962476223814
20.58868799573529,1.0433287836346474,33.405094484211354
11.7124513595038,14.83426281212257,29.22734965932507
39.775332783726014,27.36135621926399,22.72381587325254
59.13401688991591,35.592383357820175,14.647059463624206
66.45629280007108,38.5458033086193,5.944370310737439
60.071924878154746,35.41831420826914,2.335897655158305
40.41734269213378,26.074884269955245,9.226427257546042
10.2140573505435,11.480978814373895,14.174777947853713
25.806392427852693,6.242448100174359,17.170301489642043
61.69387551170415,24.22508107117659,18.47721061965711
91.41003671336375,39.517269380621634,18.38433221124121
109.94927212157118,49.709046242322565,17.183568773699054
114.16022961216609,53.28335106380598,15.181229931612704
103.12009210396867,49.66764788979822,12.811439239246083
78.06622172825392,39.10879769842188,10.562324580112483
42.04808150756816,22.553579450375313,8.71258564056436
0.535329026834933,1.6048408179592355,7.446104822108955
44.440593361092404,21.52774343444481,6.945808234783842
84.13520337264737,44.20972309330771,7.156800168787669
114.46213676319643,63.74200850434622,7.647036435288416
131.3988791552635,77.80345811284171,7.775190992516785
132.74480343296068,84.81195489942944,7.00088101946047
118.53821994234553,84.08076020267808,4.976857570670461
91.06945396067401,75.77765840519022,1.6506016907719272
54.46300910033778,60.81498960406718,2.5806206792176085
13.96053603110208,40.779108788423386,7.081103460761709
25.112633722072115,18.19702951159055,11.305097876111198
58.34114479873198,4.0101114034012655,14.893813210076294
82.75365629416129,23.529417638634754,17.559761739891645
96.99253728326262,38.89254287054992,19.026188621484305
101.20473768631729,49.51458100726004,19.13568980705476
96.7462030858442,55.564569694108236,17.901187343446594
85.78578836993725,57.699174287456884,15.542042582623685
70.87891735630498,56.72418952810884,12.438690011316952
19.47615655290978,14.45404622414431,5.32901824379835
26.385782632601945,14.941819502992015,4.975628071021834
31.285804237124704,12.938737749524432,3.810641747055642
32.6053999648874,8.50638818537609,1.8961828021320524
28.890812084113506,1.992981489627513,0.5950034459427395
19.06786989481202,6.069177130748964,3.484979768723477
2.798479288384223,14.969248778390973,6.54708775481886
19.20552751342915,23.81624884678444,9.460058689655396
44.95768221869549,31.539851719762726,11.866856898067109
71.27863800241721,37.02217081540805,13.408708663668236
94.18522976746542,39.29394879669249,13.809065742169803
109.43422370778126,37.63971179779552,12.93887460386347
113.20029360267044,31.69014201845888,10.864365480478963
103.19481397119762,21.872195150262804,7.876643988922734
79.52529920075825,9.631212213858984,4.335925139284424
44.33323655800159,3.2966467248629217,0.5905547161505857
1.1932038427999594,15.487881334806511,3.0447126659642536
45.27566998375583,25.883851633002447,6.371473196044671
89.98602117631837,33.80241691160732,9.246435546859077
127.77855009071818,38.72523232991148,11.503824886407662
153.90882661147867,40.21011410674271,12.926399596547581
164.7380834551094,38.08680473825066,13.309810529727152
158.36526911966752,32.62842803111537,12.52984447390911
135.20572057482164,24.669289785851888,10.559622882098262
98.11294541452784,15.445431730100132,7.654163824092377
51.95636337812338,6.241801543461971,4.265276046426992
2.8037788077192642,1.9347192085379281,0.7648361016396722
43.14077803775907,8.528247553082194,2.511545746108603
80.4839950356366,13.287923761966821,5.219391026780979
105.31539172637014,15.968813707588355,7.041910251237759
115.52448164890022,16.11093318527345,7.7385803694860655
110.8460480774829,13.091653640481775,7.172610929245861
92.80127680894269,6.505904745914412,5.305324769605413
64.5478769021242,3.342353711640634,2.3121010493889695
30.614338786328457,15.098583846721256,1.3764071551098418
3.5891710941384263,26.42610715964265,5.141053999613591
32.536086481998026,34.546348003629085,8.349901720054952
51.5213963110718,37.0290366171478,10.538418542889268
57.56269554655039,32.50833899184212,11.425246457680844
49.99709764416124,21.038471033819594,11.036911879766455
30.599302284151854,3.9866323740445004,9.638691238345528
3.1924664267051734,16.411591369061593,7.488091216230384
27.124943111387672,37.54923855269364,4.866807634745069
54.9121959073927,56.775904303400566,1.9861412030409473
75.26657155281517,71.53763496026664,1.1409878181311206
84.52710212795452,79.44111167525949,4.574435923208778
80.76180608054676,78.44326343665315,8.282252468619482
64.01851791385381,67.2806548817771,11.977371165920756
36.34189716789549,46.030003299100514,15.19654256158627
1.5493529598121412,16.549614854105176,17.50061286860218
35.26823483580193,17.4843212906776,18.530470359698967
68.5070816152401,51.089555303962506,18.157434629141257
92.97327562133864,78.93395429186062,16.49816439114367
104.79462570920326,96.45319421649889,13.66350072108877
102.12281701651669,100.77658627509332,9.73534958994498
85.4533213537205,91.19226467970313,4.933511653074612
57.48656386155554,69.10695979892095,0.36807603254218496
22.59127056231171,37.64169282271447,5.707844758119838
13.994485089043568,1.0408930702476533,10.560337412176183
47.046409216235375,35.950993730392064,14.412307862004825
72.13353403683865,68.66634929877718,16.902683378806756
86.18394175472305,93.04465061751155,17.824104959897173
87.7917778906912,106.10633608991883,17.10470334018903
77.26644032532298,106.33607933989609,14.956483407773538
56.480389687858576,93.90811713114108,11.931465720002459
28.558399277793562,70.68170353200595,8.657505074543826
2.5590016359846857,39.9597075400735,5.490657929805764
32.62429157202091,6.035779943582551,2.536386043072061
57.616488783123785,26.425354252383553,0.16718099167520584
74.24233706464688,53.08770089563748,2.636041840207315
80.3458632074023,70.63276995331603,4.807367447033681
75.17102547476061,77.32079208624035,6.50812904078682
59.441487162400826,73.27526305210293,7.656568390833769
35.275588006721755,60.39364946387197,8.266724680090926
5.964126919153104,41.87776997636846,8.419131893383824
24.385885059073907,21.493338930565876,8.216442271563158
51.350092799462836,2.7725346781358287,7.683810408261149
70.79768788720179,11.595091523010797,6.855489430920431
79.53467713905611,20.020403271265522,5.822701182004968
75.88825505636389,21.935703520395876,4.6900139358726705
60.08955446753292,17.541358767032808,3.5024174255399685
34.32081026586379,7.587983614866538,2.1965979437997554
2.393160490827264,6.683972181309189,0.750734277991089
30.89654358938065,23.477865661469803,0.7318310114446879
60.576959683929,40.40346384046295,2.054544138700819
82.28594740719174,54.64483601423692,2.98579206792774
92.88194775830341,63.37466782014999,3.4333960854108567
90.80913818208403,64.320671511102,3.4509280173086605
76.23721879056289,56.31169685237303,3.0986183501437803
51.01329396812259,39.60116996119724,2.4717837456677985
18.440496161473817,15.868674016640847,1.7182309440948316
17.109941940229902,12.06476608684941,0.8882498074746944
50.77776590395937,40.71798133546319,0.06949753281561893
77.94986165934637,66.50989455516846,1.0715281037757234
95.02187285944778,86.28832131667022,1.8443205539980332
100.00277450263252,97.74979853939685,2.084187516418601
92.77976275384451,99.69130813204389,1.569949418387273
74.97409473482514,92.07254302261032,0.26650278655549053
49.46198178921767,75.90063545994866,1.6348847076831268
19.74336706163799,53.00018586474686,3.8159990992567767
10.62280532883449,25.787585502029966,5.967724628527104
38.379447279216706,2.876384100458572,7.846685668942025
60.72596593372478,29.783367403409645,9.252002529299302
75.38670867367851,51.54541136627653,10.031099217918507
80.72573486090872,64.99175352960766,10.0354746372567
75.96343064376549,67.84039950641382,9.053180198629827
61.450850297074496,59.47685258529264,6.943828022776124
38.838916870153994,41.49877617426896,3.8070450810614096
10.992139906943134,17.661756073588972,0.034755650188476726
18.3764168125726,6.930600626263374,4.135058459505811
45.28726266024746,27.171070477216535,7.961560293139091
66.1448110753283,39.31471789322795,10.910621857770549
78.26992891458374,41.80879566793613,12.476920067446184
80.20940284230471,35.28069158137815,12.459019343165332
71.82776875411017,21.832601210420982,11.008353005554763
54.254800264684555,4.130017467651589,8.542397071652566
29.746183841283017,15.204225282445782,5.514620926136926
1.4675390850010241,33.678012967189446,2.2445156104061548
26.83031697045128,48.711464480053856,0.946042162810733
51.28226958757488,57.557589235319845,3.609627355513255
68.49170703319966,57.72740524043314,5.413681684246016
76.11065154106582,47.88912845030825,6.268309198405538
73.25519751639166,28.768902313636385,6.151487827836645
60.6345398831108,3.45435165370314,5.130180625451122
40.37996161443348,23.243915215341794,3.4027692140603616
15.641242738426815,46.19447054664812,1.189827625128492
9.902590237406908,61.467521176679874,1.3046537423330338
32.494806567596896,67.26040364499882,3.909758477968765
48.71276925253483,63.84783235458398,6.364530080275083
55.85532709323198,52.749366904506076,8.224307872159722
52.320810375749716,35.74566281358609,9.08799317973525
37.98160015624498,14.372860348230144,8.764856752272914
14.441687316039783,9.887114129297649,7.2578432088647595
14.999795224601629,35.02535088662662,4.716533965706066
45.76495004711865,58.12762138298434,1.3369852258482928
72.73974085223165,75.66131874759901,2.5834169674589327
91.18889905080908,84.40290691135222,6.554424120190034
97.60376843584666,82.51754075806639,10.008225409463678
90.25773188260136,70.19997348544679,12.39449229688759
69.4076133461221,49.53063144442378,13.226145982182942
37.20334700531859,23.67775817154979,12.224198648168969
2.593564505218121,4.04436601055794,9.517942863861588
45.22192287423634,30.519539500247777,5.563310569417997
85.72473392201513,53.11002620263204,0.9459505359784524
119.5842877712604,69.98681452072057,3.6780403695941333
143.26297721075682,80.04820679465446,7.674799768674804
154.69261034009793,82.89500185646156,10.524549768237103
153.57913040740678,78.9283374028941,11.956750649226567
141.41202029356845,69.46209952331489,12.005854677702214
121.12784921658185,56.616510561221205,10.902655319099393
22.696809668717968,9.514992422935578,3.3221141814045647
27.996226736671325,17.900338257861748,2.85258328339015
30.08518376721736,25.48673034043327,1.9476859208808304
27.637578067833214,30.79907473380317,0.7596191611944918
19.77339594683355,32.52320604045682,0.5190388955346755
6.2010916275843835,29.6694103924308,1.7648136940191244
12.638027258276678,21.770504917350745,2.893985652772848
35.45258788615764,9.006994152463513,3.8707037342230497
59.97022768527713,7.700871771887817,4.770164847142969
82.97981848496536,26.769160931693012,5.697422135902713
100.59488375820347,46.11038709590897,6.6361454377230675
108.68007833558738,63.152277782760656,7.460984720638016
103.55173898151962,74.82168925512863,8.08368796958293
83.26092712995273,78.32911117212728,8.453220605702928
48.67889294585655,72.2650915369697,8.47086653302262
3.3480137655729063,56.621919923933,8.002294568080154
47.14382640900206,32.62408389629052,6.881870154587492
95.93839849135719,2.820383393500329,5.019394818833067
136.11928129383696,29.217245513649956,2.528663694983366
161.7824596519604,59.22055493449195,0.3948355559182645
168.92431179818416,82.8175131197406,3.578736449502531
156.07884871192687,96.41329796448943,6.805136081054616
124.47189168010846,97.88193370426329,9.795333132834555
77.88502056010049,87.05733808241027,12.279493172833103
22.162780922218708,65.70032249915381,13.947612555169266
35.540329139436494,37.02236033388025,14.395514163665574
87.67752892411579,5.064865302472919,13.385004997669354
127.37729553944585,25.932432788740012,11.06995931318887
149.45382426164036,51.95832910023301,7.861670952505407
151.25540348206493,69.56208219813993,4.25534773941712
133.13961553679314,76.21393026905652,0.746044880953902
98.38351597594813,70.73493432391403,2.2591467469350057
52.531073715942,53.72685774692703,4.45748694525358
2.305112858978392,27.763772490462063,5.605652584705311
45.60116123513019,2.856066314006613,5.622933344667539
85.51993198543191,32.887727377116406,4.69309334722268
113.37115055463222,57.22757101295443,3.049160680589409
126.76961665055639,71.9689112792988,0.8007508330590707
124.87281284809107,75.11430571437315,1.8864412597225402
108.21274051885463,66.72979188126423,4.637663851445266
78.65605335085529,48.623532497510475,6.9713388244640555
39.455887139907105,23.75958476125075,8.407208964912883
4.7998149257332186,4.351274547601852,8.512307768389213
48.56854655585668,32.10149178191271,7.110837162569807
86.12905734752387,56.09388047758564,4.428483908851758
112.55684372794433,73.40188730896257,0.9010528053163793
124.58220370598309,81.86408935265358,2.9839093815776785
121.07100776256749,80.41686287977386,6.74325228193948
103.01724352565114,69.3759221335469,10.05371416439643
73.17845085423369,50.527668115126474,12.757677796146908
35.61072240447543,26.9258557347851,14.702061904091547
4.757452218693209,2.3873765235662625,15.684517286173003
42.533395442900265,19.240090954350507,15.562241695937805
72.38089403874547,34.83812936407012,14.359099319840542
89.7743620068562,42.586266117737715,12.188191832588567
91.91775887299305,42.22391862299085,9.222592898988006
78.53159274547376,34.934948477046134,5.771594185566925
52.13628598151097,22.91330307822473,2.173573430818138
17.610037775270925,8.79527271445823,1.2900236329186991
18.895332470967137,4.854260711728104,4.34273745491813
51.3013467228928,15.861497083954397,6.745426125625882
74.75486614446737,22.564116455710103,8.347811763695919
86.2731911871799,23.827086845821274,9.100640826866568
84.81152827818386,19.070598679168356,9.115169992590335
70.96090382563214,8.408805809917332,8.642769799758172
46.595566968221554,7.141512142852998,7.870232602859572
14.634222225134193,25.54214522219821,6.869251026218288
21.11681043707843,43.86370215652922,5.7564385516577286
56.20563012664187,58.74446391831986,4.665079905966842
86.01897002004331,67.09069143004668,3.695853744938107
106.47588800529486,66.78251481041374,2.984133686066269
114.74173297164427,57.13578728127885,2.659233874199397
109.72301775452321,38.98941637191953,2.7827323937080854
92.17543984062233,14.457201991072553,3.256897713549726
64.44748634747951,13.47392131681233,3.8092276541942485
30.024232427234097,41.31298236361254,4.127277645409933
6.9629037594488965,65.36131373692477,3.8652906570516024
42.17583931927273,82.01304658396084,2.7384125655880758
71.47516823704603,88.18915942945745,0.7484743488616937
91.36367779689125,81.96464412597473,1.842083011956241
99.47210269547615,63.24540064352113,4.5955577564510595
94.977945360738,34.21621424818583,6.969112695341976
78.80621198351365,0.7479655296794732,8.592520743264219
53.524440336556424,35.85488988648244,9.385394322533665
22.94613850093749,65.16340625996132,9.349717127743244
8.474048827228334,83.92309706439626,8.495298129100286
36.301972131795,89.52335589110888,6.8799227789077975
56.71145198834238,81.76235194486381,4.586152458782019
66.96116742151138,62.47387150856924,1.7812500848765094
65.76087699725362,34.8190092636158,1.2327815211425457
53.509262945095045,2.6043167070826705,4.0550222000712415
32.332630706696726,30.1487054064648,6.253446624996296
5.830057535366215,59.402236176252714,7.535104714647646
21.509685846936122,81.31940034480232,7.872424372017771
45.13037709353189,92.72683294571999,7.363720192517036
61.24565458480134,91.79064944622965,6.156282873564742
67.44310660118197,78.66092876460671,4.533614591866854
62.92461835529443,55.72841007762786,2.708047669593708
48.413279336388,27.200286309022218,0.6914011124855753
25.874873468495803,1.9606638877935745,1.5064254124177718
1.779837604727531,27.330479137105613,3.829155236084216
30.93363256748608,46.008484354106955,6.084213147261693
57.499884777910964,56.90182484828516,7.8874687166269855
77.29801570863897,60.306862043243605,8.883733065731015
86.65156937438918,57.135431743969,8.866907794595352
83.13278217104754,48.301989116689725,7.815850099697612
66.24153009885015,34.63867358406683,5.860656399859405
37.76190011925018,17.2768943263412,3.2054341170843057
1.613423823738697,1.8943331741897138,0.17797594881205472
36.792086992530066,20.149473226776703,2.8654344023952003
71.50539872695741,34.462291085503956,5.686859677773433
97.05679309804015,42.45318079778751,8.066342071432155
109.31232153391227,43.215173030952116,9.693488797981137
106.03867628714671,37.505809508314364,10.314781918073242
87.1701953539823,27.167581717397137,9.881605699787736
54.84756899830785,14.123774514838486,8.476897396710687
13.218876760573597,0.4356561699379664,6.313697414735728
32.041045362419666,16.15316230906589,3.7319230133221506
74.47720143880815,32.82435992332719,1.0787525830819806
107.81760014512518,49.43848799941331,1.3446943264366207
126.99397041548362,63.65146214775948,3.4215454188186047
129.00634627030223,72.1590758783278,5.234296027752242
113.4474406576939,71.89139179964889,6.809391006053352
82.54518068070553,61.427240017456505,8.019820487646992
40.747905142905665,41.843966077116555,8.683178349286365
6.017663705708739,16.496646739000745,8.667982319285821
51.26955066859909,10.13688285464393,7.959084127854615
88.89377718899689,33.89244530464754,6.656997733477942
113.9568339183542,51.92056620611606,4.933964103918772
123.33952666806717,62.86628220576272,2.9895105256519505
116.11364363584275,66.39634380086684,1.0224274004847793
93.62979740134023,62.62829148575278,0.8396488339888215
59.30310415176066,51.96415905016226,2.562787800492361
18.099725399534332,35.427005002299374,4.088018492876564
24.219747015052924,15.152601626766643,5.241896592428157
61.96031118828705,5.490310134737115,5.867639511616414
90.28595659008369,22.48657902068109,5.972162660606565
105.81660844377627,32.31977732517379,5.5832500368628555
106.94924364817628,33.114222857112836,4.699698053742842
93.91859281435046,25.186538808581407,3.473341957403021
68.65728607393919,10.753601357729906,2.148467105188697
34.514539168097926,6.980207022790679,0.8949336932355496
4.0270174334218725,24.763151857675357,0.20817343882947348
42.143061966569405,40.16193713468987,1.1377306484673857
75.60836139417701,51.97860209077776,1.8983524402555605
101.24522268487009,59.917553816127615,2.4867587343399844
117.19910951710128,64.05791214828446,2.8663647698040458
123.01236538527974,64.50066103376444,3.0175830558378958
119.4961016765726,61.35902300949584,2.9529602917379476
108.44733262460642,54.9914130763066,2.677946877248995
5.897942344026096,8.83021736558439,1.4867636707457244
14.051016104231184,14.815413489574347,2.078003399258634
22.192605141738373,19.662813402049935,2.6911878107260154
28.66893044175203,22.623054191912185,3.26648052778668
31.73691327804984,23.083142718850123,3.695671468883312
29.91159720065363,20.438005799073668,3.819484237894956
22.374759545902677,14.142340850343334,3.551733651494403
9.273537325904494,3.9570735243725976,2.8920827532354068
8.097643986783712,9.625093281993365,1.8320351541206437
27.434610205348918,25.136705958356835,0.3765511153108745
45.79943171457094,40.21548190805433,1.4393207430270072
59.96530954011851,51.91085517095711,3.6183364447698607
66.75039492397126,57.199423823078334,6.170331272961385
63.99058480796958,54.17382051028744,8.957855789975397
51.5021377350509,43.090863171266264,11.657754170489184
30.757726137770202,25.850565342109505,13.81461426901811
4.394336664422177,5.049613175321341,14.942498009413494
23.987226545964408,16.569118003786254,14.744510762838448
50.402819759094434,36.60577357837246,13.134427019599599
70.94823054572521,52.932712435121786,10.165622673417943
82.32763550251411,63.524759274839106,6.092147362181316
82.4902812349156,66.65513481963787,1.346661442765904
70.98713883189342,61.32594848257145,3.4713071689036146
49.15844868497198,47.93479700466985,7.75920877592933
19.903796352086427,28.56366407868993,11.185428547339855
12.851913368335705,6.607130403010163,13.610947875237828
44.7607616621439,14.167823366641283,14.904768375647466
71.65347418194752,30.795255494191757,14.892477037067282
89.92801536556856,41.814691750272125,13.460213497992761
96.83599981622164,47.22492680298849,10.81182828200361
90.75937496185102,47.74658713661537,7.587072003198456
71.51471215833236,43.917483538645776,4.61841614687129
40.66862586261979,35.711691058942115,2.488991428295066
1.6481242975653236,22.896510403172968,1.3959546908126041
40.507863512765425,5.918984121550463,1.256746899681301
79.83264225399589,13.32280501405399,1.7721278248532362
110.4402190892239,31.47579316590757,2.566644769674239
127.58540244904553,44.64793921237812,3.2912676026511685
128.49616194288208,49.83540071081353,3.699651766964257
112.77446279763717,46.09254104445382,3.6735675720035332
82.36514079137801,34.80623161492756,3.1615691136121273
41.181909651448734,18.94626957347516,2.232372694376305
5.48231145935365,1.7704721652021087,0.9989156869277017
51.63296250050543,14.251014520021258,0.5336946343797886
91.3187663998763,27.73589391944799,2.4299599577122124
119.42956538111402,37.89519653830935,4.6774161143633775
132.46655722600656,43.794887775719914,6.989725109381606
129.14000707015074,44.06998816808783,8.879290508554254
110.61612178608402,37.443135385678396,9.992888971341323
80.29421124489645,23.806890855031025,10.286316507369099
43.134880350053784,5.134973317952092,9.910777649289642
4.71871784714659,14.530700282727379,8.987147807529722
29.713291863839398,30.23880661834836,7.583373400883643
56.01680671054584,37.9295233148098,5.800562793088045
71.58442982375945,35.969660001724264,3.76949182993675
75.49009385565923,25.61564799184507,1.622629662888881
68.4251078699888,10.198348613952195,0.5050567813839926
52.51427292032378,6.4202292226715505,2.421320141672923
31.039437115011154,21.234947690667113,3.9247492861163686
8.015754923300227,32.630403955525416,4.888794852222495
12.39140287331415,39.945067622536534,5.239919679343824
26.54098755943217,42.60652451207831,4.9836223701152385
31.972042472310232,39.59028500450455,4.198799487245696
27.84414448378248,29.681785901143904,2.9868597702835986
15.014499071220843,12.429010976895514,1.5116196657797143
4.223746776447038,10.85820289213675,0.009177365980303847
26.630974889860553,36.775666824707,1.4046397585062222
48.565480435292145,60.50575623054288,2.554109800237202
66.43457065726619,77.2548303288011,3.3275949700979623
77.04361695426945,83.74688232139451,3.646377912658306
77.91771480425162,79.06203210078327,3.531864736913717
67.65849871951411,64.51745529507254,3.0464069669285587
46.314949940545205,42.85822576896181,2.2538442926089184
15.658216591566875,17.298134741391756,1.2076569187000452
20.82468383087821,9.110973306660295,0.010686061852917286
58.36077016978946,33.62539946150114,1.250665549913041
91.69578989996913,53.72587796212806,2.3458573050884466
116.0791475518158,67.16310941289589,3.147375786981552
128.11687546211073,72.32129746853643,3.554237543785434
126.22486601067449,68.78356338176931,3.5806030351005034
110.65203361781,57.73226691399719,3.312904332351303
83.18459206775236,41.85517493763755,2.836414676394135
46.7565830538102,24.673728458398557,2.26198584415794
5.16528554596549,9.529759392501498,1.7513392239477454
37.12086158320389,1.344913211684988,1.4565497846947435
75.17423542100788,7.304829428121855,1.4535816268582615
104.03658685868756,9.149997304174205,1.7265357448068457
119.47256764220548,8.507838894776583,2.1552374512648513
118.86072262523577,7.05936068774281,2.5159223077955826
101.93329336474869,5.926434314850202,2.524673704283764
71.07888720289864,5.438742366067658,1.9974096571698616
31.019062957581685,5.300342958304328,0.9821428028437448
12.07448413116557,5.023719648902085,0.3820964948291387
51.734526825905846,4.430673164648619,1.9461263713363495
82.26989023720928,3.9808330975927326,3.443319848608904
99.52379668304768,4.750021685411624,4.555159690769128
101.25474351281115,8.018640179769154,5.017226756161382
87.2420746694898,14.609607551429642,4.6632602587262495
59.27988435213493,24.26720765054168,3.496753232981241
21.069483846242232,35.40105603230834,1.5970071656313758
22.071493247446192,45.397078103635856,0.9463132212603305
63.78069192847044,51.40787856580929,3.8823575813869935
97.57480916776206,51.28037594344451,6.74217615686375
117.99474066000073,44.21192094518559,8.946690550308984
121.68110249577232,30.855934998587575,9.943202647123435
108.06550490751312,12.912861050136886,9.34478866532586
79.43646715649459,7.492231072356304,7.094451174262233
40.38147198246891,28.27043144648895,3.578364345263827
3.169971013480861,47.456696523204336,0.501864244558431
45.01014541282744,63.05534200531964,4.466265457029851
79.57810361338629,72.97441875833717,7.880175419708752
102.61964878883406,75.33228624505715,10.485136520054908
111.58544715786883,69.1395131977904,12.108980363398873
105.83341426494863,54.98814240921993,12.699628780237788
86.66190496181346,35.258411146999315,12.24487259886675
57.150872500086834,13.559816809947677,10.75526110576964
21.759274448462556,6.43850623496171,8.420488033550445
14.34072841565315,22.22795804321813,5.556377586225805
46.069874247674726,33.094863878951074,2.5573252535502307
69.19782465298152,39.829814047347206,0.03420780879963211
80.90917089164498,43.72578744848804,1.7474943562563299
80.06796665412548,45.50088581525624,2.4117479708971006
67.19180525408633,44.78308999663679,2.2012825894893933
44.27792862651056,40.438117789855134,1.5987289687369313
14.537167517361578,31.49158983290947,1.1073788566182954
17.957191368307193,18.05645348637343,1.005356236497226
48.69518093289495,1.7143142500127038,1.3434839979790427
73.29708812807347,14.866660760236698,2.0425707208041355
88.19389784768387,28.824176985557276,3.0632988172150393
91.22700374238268,37.977782348922695,4.381247362673018
81.97928917242342,41.25232868711502,5.856306828069916
61.739365465040606,38.56610513914569,7.320695655571004
33.134988114640215,30.43894840549314,8.596003184642857
0.3900679678378619,17.65737744240845,9.404746732475708
35.06079517315574,1.2208670587958226,9.540197626898149
67.10090337541422,17.460786153769988,9.013223700621275
92.93595460133685,36.37911598573424,7.891765614578979
109.42844885050667,52.99493945772239,6.273521695820432
114.25683439257452,64.6365649268935,4.412541435706005
106.37971450592404,69.09233555439235,2.618746308362678
86.41750158436511,65.14603171246559,1.1008661793664238
56.73472982421271,52.85821569215369,0.1355780592605549
21.227291332903505,34.11096734917436,1.2223833668811508
15.572564837161828,11.955171561677975,2.22848055715299
49.56013075112773,10.80574707883614,3.141084221111912
77.57449050557898,31.985020520622506,3.9233588278913247
97.63457406319101,50.03397470251463,4.532263521729608
108.89513102948467,63.868346745187864,4.9854371127535435
111.45066602523816,72.72202760598054,5.304574004403845
106.13570420989805,76.14783354581424,5.403216546523572
1.2529954185657834,7.068268250322448,3.5027538831119007
8.384306132183834,13.637250514190516,3.6059362895231013
15.913207156109808,19.06241062130949,3.0915678758494884
21.914191131867746,22.061418681827018,1.9252553136447075
24.513136874474277,21.63226561139942,0.24577968323142776
22.406461245317455,17.25929256989906,1.692041073515822
15.198576969704229,9.11801003192535,3.564635955491091
3.457416164574094,1.8736451079634755,5.14934605015798
11.391663111666388,14.121657795485794,6.374117230283461
27.28079525537256,25.678340157568602,7.187350045317121
41.71627852993382,34.66708867058049,7.5022866109381425
51.91705842030493,39.46971918432962,7.207976291889956
55.01471229645066,38.71029041130135,6.223240878231919
48.78474171231387,31.796717061479224,4.609279378338615
32.580869107845686,19.52341081984054,2.607089769552961
7.650532592122576,3.541582146717198,0.5232122054892082
22.87046061295072,14.177954474202451,1.3652856039257926
54.29631255686835,31.382919105481584,2.8412371344502496
81.38232441520383,45.770888666599454,3.8250465959673474
99.42500541256528,55.07167730211311,4.392043318799752
105.1950644912341,57.31917918644894,4.714983748188178
97.45247662804358,51.41429546506981,4.912147439814775
76.88075556412683,37.505944754381325,4.899365085561451
45.75478999240079,17.192506815979687,4.552018593954655
7.486486621244154,6.762789471927301,3.816515713846861
33.74606857062395,31.063378667468154,2.632341442469168
73.28070637398464,52.49959466518549,1.086604801815178
106.36858694180894,68.42084724914278,0.5053205951833776
128.72560620424088,76.85568272136848,1.8165567621565164
137.24944226571515,76.47561612208976,2.6597356017089737
130.67982868542236,66.6489428445593,3.0019449548615733
109.91364794472877,47.6900314936598,2.9249566666952234
77.8527626571958,21.237768295431962,2.5149841231784227
38.809729975679815,9.557098334093045,1.7997340940855457
2.3040147975950735,40.29645201513018,0.8361970008753414
40.73095368442471,66.1292011801186,0.25886395380715427
72.38430945522626,82.83880899268055,1.3875860325481857
94.13607765944373,87.80718714504971,2.437334569077273
103.98983988573566,80.51284624455016,3.2343805022660628
101.25026720705468,62.434377199323066,3.636027123739023
86.71381415469278,36.54214504193197,3.6614524812905977
62.741489705838475,6.681685869684836,3.458695440048966
33.073131943035506,22.934671101516628,3.1125935669581497
2.31252789620249,48.108028218793436,2.6270680029199047
24.86593448172516,65.05059387470357,2.0540554582204176
44.558089052239374,70.92011992851171,1.5120326094732075
54.28083694488684,64.44832335508625,1.1114847747555583
53.27762523406618,46.43858742392456,0.8689119213610859
42.45857221308909,19.85282907852965,0.7120592166262928
24.092091156661713,10.672418987862821,0.5437765703273139
1.3628148180303437,39.79092455418848,0.3048567054580454
22.114067031329224,62.56153203408831,0.010118525581778231
42.75893858116172,75.33735978708042,0.44346731717154175
57.46954997851939,76.2210353020352,1.0365891188105685
64.0335012497711,65.11292044329225,1.7348110851875298
61.44132921320657,43.522694250830455,2.4998068126373294
50.016543209060416,14.313007766537902,3.348807206020111
31.336814340687447,18.579923360645466,4.223267643679807
7.952454380254472,50.5384636838149,4.9892119713927405
17.026742013231335,76.87420167826616,5.546383612318664
40.35831880662194,93.64488813618934,5.788405410441394
59.04960178286851,98.46445719578337,5.537201875588925
70.67557170308864,90.99787582893191,4.664600276735957
73.64733232406603,72.93620185483687,3.190707545614382
67.43536534657795,47.44785603617534,1.312000345597938
52.70926509806157,18.331727300602946,0.6182010767999574
31.355900979529626,10.777132970635261,2.267538102748433
6.278191441477137,36.879871250215395,3.4477589698390956
19.043086540961372,57.71481410341606,4.143388578604299
41.08990185764044,71.64105793440416,4.457628528154216
56.83821047327742,77.54049720090102,4.452364602965899
64.1765460443529,74.91635397448584,4.190225939394397
62.128033650567794,64.15220777289922,3.7996843527123123
50.90149349520723,46.72127882256258,3.35824722294205
31.856009302723518,25.152852218834315,2.894597555066127
7.421111783988771,2.6644924077012595,2.416013195177585
19.071854893086165,17.44578355271701,1.8335997385843998
43.716374033510014,32.423507784755486,0.9969944743650128
62.55767571640936,40.49492510074422,0.1674217128229007
72.29547661371129,41.008122536278535,1.6338622583000675
71.01105403487426,34.34932418233929,3.32601842654718
58.6886568023476,21.766657621752017,5.061596947315488
37.32191525318623,5.18928698162309,6.5833451152352
10.535382624769623,12.903486974913747,7.671716185987874
17.168706003019395,29.62918035506794,8.097300879896506
41.313500692208244,41.982412121070695,7.644355366796908
58.21641489649636,47.29557804171697,6.2719771193400975
65.45714256447802,43.8053643039444,4.161332583524133
62.06283316349658,31.155892910567488,1.642489754670237
48.49448039278718,10.672322140555131,0.9475679382497822
26.539629215020106,14.733961160122213,3.3479896601958066
0.8350659380666304,41.06021966913813,5.354619862414382
29.72777025985146,63.98795908673048,6.815956053971068
55.75030152549402,79.73165906324631,7.633722388981741
74.69777266036812,85.74419688921408,7.800861764201274
83.3046580630495,81.11661683718422,7.429019759168225
79.88593401729901,66.59658016410664,6.646184199949401
64.64633395355831,44.28396081648727,5.507721682935393
39.55267084787959,17.13478200105236,4.04368439066554
7.853029808054165,11.575744048095887,2.304499428087379
26.566235118833653,38.68111169288996,0.34596877792408265
59.75171060697824,61.397325626506245,1.6850870095305213
88.05184388346841,77.49307121611996,3.521098879823805
108.32536155621811,85.43108719355499,4.954417356644383
118.11613851714466,84.5230114924637,5.828297054231128
115.9218660106863,75.06596872060028,5.932269034085776
101.54525424447847,58.390405376743885,5.175421587633735
76.37362523505284,36.72978116055524,3.6840027957186328
43.39983432043505,12.869998697939902,1.6739322058226558
6.851217669684425,10.334579374005603,0.63287272527159
28.535287790847317,30.41095267774211,2.9771010783597633
58.37096299652276,45.53026581041024,5.031543714790285
79.31667370782594,54.54015294504258,6.498718236767371
89.45346170889069,56.84069128173422,7.163376632322078
88.33282710623502,52.25455704970617,6.874630008614985
76.82442550225788,41.06162448799823,5.640177503124014
56.926039296274,24.21953553859576,3.6701979579855832
31.60443418851167,3.613491159753858,1.3007950429401265
4.594541428135658,17.890664036056258,1.0882281962040987
19.95806126697411,36.75918658663772,3.187117471051923
38.0921422543854,49.461535121550206,4.8568708905525835
46.77859942927922,53.31495854136826,6.089610725751791
44.58828362315289,47.1857721224355,6.900726307620271
32.02906743796603,31.78772121756643,7.3285661287625095
11.397969819265798,9.511317435628024,7.428907694263964
13.776846610063938,16.11861668265981,7.166231118724966
39.4667219724207,41.11901886985722,6.407275256714172
61.79174546780062,61.65956649650861,5.081946782547916
77.4315177293436,74.54226662937688,3.3120369735088535
83.83428911513788,77.54998224091337,1.3315907510626568
79.37056135179023,69.72552061392203,0.6405661209128881
63.556807080729655,51.60695130069586,2.403242300814676
37.357069182771795,25.32135763798411,3.821326642044822
3.387206737653002,5.592293949192339,4.871813059480206
34.198824216103375,36.68673825766458,5.555013590836078
70.23924388083235,63.37692457767725,5.829195051726233
99.43829473754977,81.77254431513964,5.56524802273838
117.33229109161518,89.33327769557005,4.555367957773727
121.05340599272067,85.20153496131283,2.7394976360770142
109.72931653132511,70.17668533684729,0.3712904488951009
84.51841655780285,46.4327174425121,2.0990756009321823
48.381230560397306,17.135769093416066,4.163445192016459
5.764126035477403,14.018000961099363,5.470720950439518
38.20436073826792,43.42823070285218,5.9187003246714855
78.62187741732167,68.09244346158141,5.552182568378695
111.30782373130583,85.85510717407543,4.54739402308404
133.2596657559654,95.58119264761257,3.140799851983229
143.02148377679748,97.21930202156166,1.541281966908405
140.8512999911644,91.72782900668432,0.07281824192529328
128.5975568794326,80.84227504448617,1.5468278111213436
12.417305837105765,15.226341950618155,5.948345463402538
19.738881368612695,22.43145798556569,5.139923151215885
25.03711492492329,27.98379548868458,3.405186400944033
26.85237905296327,29.945964592133453,0.7860346018177843
24.29637939839171,26.682088226185076,2.481375103671889
17.23624583626962,17.34507976503057,6.079515574457798
6.330610860648669,2.2233471994420353,9.648375546249007
7.145896646001821,17.215625430953494,12.758800088176159
21.50637151971403,38.53553017994107,15.028716148040075
34.931166936990465,58.77796195474494,16.185596854369955
45.68108704492766,74.94189648647188,16.011246545748232
52.05559023032644,84.27214191127129,14.368396808182123
52.303848370447646,84.44676025956852,11.370586509797342
45.37052138727464,74.17929866514307,7.436581713893198
31.810290537676764,53.82746577330587,3.0680362719725034
13.398583041786608,25.227548502006375,1.2712234913147897
7.3864796683526075,8.523530606210429,5.170601921597996
27.543644123352585,43.22880718061916,8.366702438324026
44.15697704153783,74.24165007154642,10.720396027217074
54.820580052212385,97.22227682292736,12.189726638004272
57.99284825854366,108.9797345066224,12.835752183774805
53.316747305798486,108.1916790437298,12.774390221785204
41.552677041668865,95.56577843002889,12.135156390125266
24.406463794985388,73.54893087884128,11.010225215091577
4.1483208796463975,45.63129634240795,9.526299467316903
16.770303739780825,15.563707182063165,7.8783908333728165
35.899087944993894,13.198527979377145,6.223393552004599
50.89546429589438,37.76787342059653,4.707074710509127
59.57307820790033,55.82779543186106,3.4678328190115586
60.12679038667515,65.64375644823974,2.530842420287806
51.540537339652715,66.24286717761109,1.7796270021510725
34.06330271044119,57.7367717091553,1.058803053035801
9.573090727752462,41.60770608536039,0.31045446752432876
18.50857156906023,20.66499675761902,0.4445519117563932
45.80305980498991,1.4478648797821534,1.1610181224769411
67.92526505360081,21.08779167104228,1.7970683766669633
81.48731878908163,35.44798081879436,2.383160319432133
84.75064742583115,43.04093077186664,2.9932554675799525
77.74221659989793,43.66261829956004,3.6574689876189823
61.89412815838953,37.930449024005625,4.3552432770998974
39.47837516506625,26.748006344118888,5.072972519841058
13.136656097688167,11.047685331738927,5.79160064297553
14.354777804974955,8.048513225611766,6.426588756294121
40.12896364929241,28.824288462933104,6.881470805861333
61.273645447053816,48.71247226624088,7.079201124524815
75.07825964986493,64.49664409727221,6.921247161126173
79.51332916908136,73.0298392714311,6.336014847483181
73.7614732970536,72.20587744457553,5.343771866687808
58.569302070277246,61.708603578103734,4.037305109448807
36.249378532539346,43.158970074793956,2.5532553628990575
10.272432819013428,19.589426795404478,1.0654467783730326
15.408869274068019,5.468734809994045,0.29563762268915456
37.065158129865154,28.81575099612011,1.4898580277481661
51.74031830221211,47.98384860268687,2.4758927390718135
57.56006382217487,61.17338380096392,3.1880402309890314
53.84944854396886,66.99655684228401,3.5724978719761507
41.15622409468706,64.40240541867253,3.5702967013715594
21.206394273850666,52.9853230693752,3.113398679205108
3.2264626022504146,33.553050083698025,2.1838909794070513
28.589920258767364,8.5666765762648,0.9126251307707516
50.998985831178274,17.94278845186973,0.449237430045511
66.81825252973442,41.134889089519135,1.6335422941145257
73.28045289586466,56.576842689371034,2.365962140006898
69.00047596029087,61.40371306598534,2.4233320557155795
54.25474054656899,54.95059799003294,1.7577471528693345
30.975514659194488,38.68398021029362,0.4912206858613687
2.4633275116519546,15.568693791249743,1.18650758278206
27.13744677991292,10.754839584031824,3.025575075641387
53.49691760260416,36.59832021631304,4.72517804818919
72.76667677465763,58.531525153130865,6.014388796212422
82.14555377138628,73.50015978214677,6.635798626195252
80.26604814018202,79.0017079750151,6.4050637808473665
67.35324434890069,73.49001974215871,5.371601443123804
45.143538304531646,56.939575409981686,3.779637138357737
16.59671834039792,31.273720981431833,1.9606113225325665
14.524215537990592,0.3253468595290249,0.23818449977485445
44.118378301076696,30.801631559180308,1.1876987560678012
68.21606207972023,56.83270663369538,2.2139848357291982
83.44036210121672,73.52599835069898,2.8206144189761733
87.43896175276451,78.55367818956574,3.138769247123682
79.24832009837178,71.81765911990588,3.3614806556070005
59.53019805030205,55.18722783567526,3.601397593708641
30.60813904662796,31.856861665974503,3.8828358550516873
3.7730511825126913,5.613864600846526,4.1362875762197655
38.96377627680306,19.79906285214133,4.191088130538112
70.09670211519258,41.12617355138558,3.8864660474111945
92.82768862754506,55.84602218668246,3.114939407251883
103.99494770441605,62.31864387402396,1.8181393632462584
102.07820352992097,59.8899479613039,0.0908109855550593
87.41718908108957,48.961252092575464,1.8696876510049252
62.16754955228593,30.99684789981774,3.8455148575998392
29.993299270896,8.414046210666461,5.492156557901671
4.47141873862881,15.69932779406967,6.406348034012613
36.343061223122675,38.05096888516734,6.345596754409668
61.290233732170336,55.70675060319571,5.297506886964836
76.2367692912038,66.5970549864794,3.4391121249919974
79.78947336461279,69.79686139332988,1.0604317692544396
72.32023453705145,65.4688535184424,1.5114356357264966
55.72302120244868,54.51866214222555,3.940600282019262
32.95675782896418,38.14147071313933,5.884760202001047
7.5416388502668585,17.523312196616704,7.102882703267139
16.88759113251769,6.09400083905721,7.5593400238275
36.93707858407277,31.048115121951007,7.314753657890208
49.76519057772035,54.87382601493001,6.43278462778787
53.4253579817927,74.26932822576177,5.02542535291931
47.207499414550725,85.66588225873429,3.3011976332966886
31.873619898489522,86.26761152511952,1.5005144308276244
9.666994452222658,75.09812439142998,0.26890903419860335
15.988059517425391,53.520926716989294,2.008932180907262
41.0516806913304,24.92593569282806,3.7103597553988092
61.54840857950512,6.26998459516106,5.325220374021385
74.16874205593045,35.79621835603579,6.739493899446254
76.6588309396411,60.295735924799494,7.806055638464379
68.00881204791727,77.41154234885379,8.388354979473721
48.55221173346738,85.41805061431354,8.408118717173554
20.054746671733533,82.92933208387934,7.878827979781796
14.25607563367165,69.13585986278687,6.884970798408346
49.851847219395836,44.57924820230756,5.599195897637458
81.40947619092485,11.966867883295427,4.17985191702537
103.68896175436755,23.673485930395806,2.684005126695065
112.57759600060315,55.92402229314853,1.1281726316185687
105.99786768970367,78.75600347924905,0.5396674716663531
84.36010071403835,88.35902746043129,2.424442006987663
50.40149915592192,84.13873524007464,4.554846114441245
8.556491484152467,68.40904197023497,6.775242035667062
35.86374065934851,45.05741445322531,8.753939241727325
77.4133531148182,18.034644487085213,10.164648440649179
111.04526973011083,9.50056615126828,10.831020697837996
132.5030773256581,35.083804921344104,10.725487091821776
138.71246631449685,56.3007873503014,9.855754929878382
128.25054053363095,70.35836622187165,8.215158370649883
101.79525033300118,74.44423780472692,5.939413510345113
62.32943257855702,66.8647191553988,3.3459781667184467
14.883325104417827,48.27170836278489,0.8153319305601676
34.24737808297125,22.103417629009776,1.2872224436807083
78.61478282180828,6.192792744145871,2.7149701375619473
112.71855067839113,30.881485586168072,3.4132604997773317
132.76299184337947,47.737896366172436,3.5158952591453625
136.94612490243824,55.01514946653369,3.2474803389144093
125.40086709899012,53.22250371416264,2.8246316629455306
99.96980459131636,44.07698326906712,2.48700782825683
63.9708517678048,29.440148896747036,2.44020341548329
21.92671616890291,11.15198437452609,2.800005341382221
21.048357582792857,8.83985692377332,3.5877717171801504
59.98116750042802,28.43674751058049,4.6589618413231655
90.6682493882295,45.243077334857354,5.774433818958758
110.31042124317302,56.87097447013035,6.7243291153976905
117.94842313473247,61.638221760097075,7.336268961363878
114.51504259984337,59.278292514071595,7.471290407392965
102.45329406284156,51.189864922571935,7.054788700901186
12.64051392059545,2.0591520929419977,2.722240351521649
20.167136251054316,8.5434353139361,1.5957243937939936
26.626361499497794,16.444730713501404,0.1296982636640887
30.480646005204115,24.854252502657157,1.369391115077786
30.32299251270617,32.02980035052475,2.6504438577018146
25.125622094523223,35.59545122602507,3.5456215425719853
14.49021372242039,33.25512544092446,3.982236862511179
1.1813101166730728,23.713901481613025,3.9550345660022437
20.54706625262584,7.42113301024814,3.521142826184814
41.37834364078865,13.34714125119842,2.818896876344546
60.789829858908625,35.09364669234999,2.01271536920378
75.52532251921915,53.96303618406201,1.2456606638201329
82.37988391131768,66.50066008821179,0.657280100039552
79.27802645908473,70.56446806599854,0.38729392929928935
66.24244401771834,65.89101544831328,0.5243326837663934
45.010133774700286,53.451944299099644,1.0578312198380138
18.36216758557205,34.720844955725056,1.8279517793615465
10.343055226367161,11.595220709916706,2.539022892964692
37.88509052650036,13.511931141489688,2.9528482752920095
61.52061165348829,37.4513506401302,2.9960732406692974
79.10479077571077,56.5668371513879,2.720543053339436
89.18146762564994,67.6069882112499,2.300586300458873
90.91763927718922,68.79199717038172,1.8980497835915167
84.19875343646282,60.58440448535989,1.5306596572957816
69.73197696499817,45.53727011816041,1.143149355378077
49.11585616183261,27.258958701202562,0.6302860279581508
24.80934328929089,9.08722741624248,0.17813818665558054
0.16565817952922945,6.876674418472403,1.4331696877822666
22.652240587887846,19.8268577380521,3.181620736273995
39.87407426017761,29.564557104144733,5.333723127579671
49.86789622802564,35.63756872444189,7.666150685268757
51.71413700425244,36.948904635967764,9.827836582449786
45.6053422489944,32.175736654659794,11.385188937701107
32.76619760933357,20.716545871057804,11.963640630370756
15.316328640241924,3.564791768629404,11.355742144887802
3.916628024275041,16.464482353408943,9.47386712087242
21.667283703143468,35.34537807320271,6.353240820416575
34.626128294900326,48.993901254493494,2.2836230042926244
39.99092842558191,54.409204241370595,2.246587311972893
36.07289833647141,50.31926398619138,6.6846546747164854
22.802349103327053,37.21186952216413,10.403947170619817
1.9448862986282927,16.961406638080707,12.82933488251102
23.10929743235801,7.6334818640416415,13.614218275137885
47.95910393680968,33.202021436889524,12.629753017837832
68.07503377994625,56.08061793580828,9.983052554829506
79.70765834774018,72.68446619623961,6.0677429102316305
80.57780539001934,80.07478505783216,1.449993404743355
70.22408825495268,76.63236334442726,3.3039504891927893
49.97359060227933,62.57230693828185,7.65868243109632
22.60834560759245,40.056745139487276,11.055227074904893
8.130745425288074,12.812754763266511,13.038218689535766
38.10608320690799,14.648374819858361,13.478320214524649
63.33769865793172,37.94063521710997,12.501502812162148
80.49219200664795,53.58920673520679,10.278243942734871
87.29062336582196,59.5704092561342,7.072787959084326
82.8089372891485,55.56668207454371,3.312231770714203
67.6280099187114,42.94251545627045,0.5629879381477748
43.79664656106207,24.45533855716344,4.154838609595066
14.589648836188534,3.721640141013812,7.099850117300891
15.924194694473547,15.491062400871494,9.203800464615403
43.46119402401122,29.989854938776507,10.460750391960724
64.174482219431,37.70209526374436,10.919158622758859
75.24954771572837,37.88484291562617,10.656819557669492
75.31745780417103,30.97869970140673,9.820871693616477
64.618333903439,18.261790778568606,8.593553969247925
44.89992095503647,1.5060819489638284,7.16118389858645
19.106192928161256,17.222451120752996,5.722661785129359
9.06507936783241,35.608712025625906,4.401245705033692
35.64628911977185,51.14238987115638,3.1702725855904292
56.85387589685811,61.35019015434638,2.0291253315481765
69.51768300030153,64.22493754446407,1.1595572125817446
71.49409867127116,58.728497462864475,0.7668642174684841
62.04447334865864,45.133363400085024,0.8424326578687574
42.126633096975,25.01424926611525,1.1270765581514408
14.475511995978064,0.8932601097997748,1.2594242382420247
16.65400035421567,24.288757024250117,0.9199165146115007
46.09204266568186,47.61926101788337,0.09000871191714997
68.61244052545683,66.43628245055346,1.7789782149287172
79.90203112314198,78.39370673004163,4.002709296580245
77.39125364675233,81.55096704356744,6.558867812437111
60.73285016076775,74.64516900479053,9.165277234084432
31.893557717902546,57.56281354480947,11.482423068487726
5.136921345765373,31.829287119275126,13.237194516951172
44.94140103136234,0.7797180921593725,14.218989060964164
81.44926901832412,30.825669830669966,14.266545384284763
108.82649796599019,57.70135322966967,13.314348946191092
122.36709354048652,75.19673402605002,11.300646629886256
119.2707843410772,80.32327968501748,8.203696533321203
99.19145938350725,72.30472588691055,4.276757919335347
64.3941588999586,52.55830013997687,0.014973733332695275
19.451711938197615,24.248944684050258,4.0619588753057085
29.494141349482515,8.334962563961486,7.577138911906257
75.76785408552028,40.38620787538387,10.424052685330107
113.24200234677775,67.1240233264635,12.654985680622413
137.2406312177592,84.35339196399072,14.262970705180992
145.12357305831716,89.09549841676858,15.161281403006438
136.50802892209535,80.22608170218354,15.234590849417229
113.14501864021605,58.909801044453296,14.36559022425072
78.5320931910389,28.5711397308039,12.509483435551962
37.35714985728055,5.7255811503502185,9.73240503843572
5.176279922323564,38.37679085429779,6.167240619950216
44.052233837189384,64.47940929458431,2.0078958432207763
75.06915022051366,80.76721360188742,2.453658630878792
95.29626613858561,85.95498316083378,6.792867399056588
103.28516370307054,80.50341971771536,10.480268102103524
99.05590445184099,66.05160667709504,13.049137108846667
83.92043963797302,44.85804567703452,14.182994692021321
60.23095524567555,19.49832131539021,13.677383079239046
31.124426574897512,7.188625342174736,11.544130856525086
0.2665778086537161,32.11374815816088,8.10446149160342
28.42813425503719,52.131629574489494,3.918883008151999
51.17346767090762,64.50561219277166,0.35379838535733243
64.80500968504008,67.49884222373704,4.148834208768298
67.29024672986102,60.80194844213752,7.042726925244341
58.14999994223775,45.604217335717955,8.696306204155517
38.66702960136567,24.27072202317861,8.919527948070181
11.77315678400169,0.23570260674586346,7.715237512404903
18.37790903278389,24.90170641412951,5.234592393994447
47.06603035975741,46.97975793150322,1.766485688660975
69.74960545756821,64.06859633075317,2.2319913606487853
82.752975413319,74.11410109364012,6.1389585047622575
83.78726769717747,75.53085140343768,9.297574540700612
72.25243566141901,67.50245154514653,11.262691628735345
49.33334987540284,50.366389346177534,11.924573983006079
17.88441172158839,25.86886550288669,11.344302488515906
17.900246784120032,2.934963229906114,9.587764101154356
52.99788415960078,32.166569711597866,6.799153262257362
82.2243924729362,57.840059096760825,3.2639934663777743
101.00020502890547,76.56861202714182,0.709694638233373
106.11703323861339,86.05144879888948,4.852664157998496
96.34766691127203,85.27856404721688,8.839428633382921
72.72860713513344,74.53878610699981,12.305383052036525
38.45195968293575,55.34565768572333,14.977976577523656
1.6280022385724988,30.306086427045173,16.68216808629881
41.76824600910033,2.8880823658111314,17.269399936517274
76.18336031317179,22.98619526416278,16.60341589180056
99.83194081259543,43.554425134277494,14.663333951440304
109.0707672376799,55.91120023748212,11.621622645619786
102.12587497927876,58.581251549652784,7.7462305973621834
79.39038280613678,51.78326762663941,3.30845888759269
43.53310740091526,37.278881139623664,1.4262876932947497
0.6785205311767898,17.88210055971744,6.127588781896884
47.401000838892905,3.11937354252468,10.347547459484296
90.94828833444795,22.56355584823593,13.70436499022732
126.51033466033074,37.945123812679675,16.053706267507597
150.72536200851496,47.7215038386507,17.38067506981265
162.018442758967,51.412413773607035,17.66146801737643
160.64389948595758,49.51863941013015,16.918269236654215
148.42697348630296,43.31588211963087,15.286298918624516
128.27230915697652,34.54970513604346,12.976668872544876
7.507735515344203,3.8109723218658726,2.881198929480717
15.112606501491195,4.240292304300758,2.9512159329256753
23.71359446490556,14.668601482466135,2.70462416733774
31.64277753726451,26.03305735989965,2.1839262690565002
36.63478294174833,36.33585614929423,1.4484571501366803
36.36534460356029,43.350376015384214,0.5884624722675639
29.136950268100893,45.064855197472454,0.3580352434862501
14.424413848276398,40.120337979549404,1.4119021069653122
6.814822690080442,28.18324573084713,2.59422410003323
32.24570622119385,10.110217014784935,3.9008749505561573
58.52087996891165,12.106663185237567,5.308861663726553
81.66190457832312,35.50688643935004,6.785416065186098
97.51186916768161,56.42457177104282,8.243363971914087
102.72317130810946,71.24313481597972,9.503112362681287
95.61378701165017,77.3944787312495,10.307661858700417
76.0344860919754,73.77017512747783,10.395907309598842
45.3990437377875,60.843197166631136,9.605271596260275
6.959611500741089,40.67321173770927,7.936567479707949
34.52302846418389,16.48640665373328,5.503995377502539
73.35986496965867,7.858733437286769,2.404544195924874
103.93420339897594,28.51961394071348,1.173325932913207
121.90581681780081,42.39632839951478,4.8058313811386135
125.00610377779329,47.681049968531916,8.044351938972815
113.40644515483585,44.228550871376925,10.566655809116295
89.45784470115255,33.58237607199242,12.155956981026138
57.03685578828803,18.640238718220573,12.7481381252654
20.809344002916855,3.039579704871175,12.422046199708182
14.462797798514504,9.636782982012337,11.37530636190475
44.39213762388819,16.597299017435233,9.92304156836063
65.36479066609736,16.374147379135376,8.42493725798339
74.92736778525318,9.018444759328377,7.114824532017252
72.14693342025967,4.055913050889415,5.938153344704889
57.88369693404745,20.471036048925566,4.700591577331206
34.78843657876131,37.386270773104506,3.2817516284231227
6.9478299015238685,51.95641700761286,1.5398107401758152
20.822815771734636,61.696901693818006,0.7131551734082958
43.85419050715628,64.74797524454827,3.499510777715984
58.42025331288762,60.09740103898623,6.559145652694007
62.300642872474185,47.791371691590065,9.44085461098382
54.99744440166466,29.040814763559734,11.619854959127053
37.64761994825089,6.1333383816466975,12.580620218574012
12.742333418260767,17.92035637734569,11.99361696877114
16.246419191036875,39.9966401844688,9.825007763623525
45.28792940379773,57.5448074130479,6.313420715167383
70.26646914058131,69.07044149264115,1.9369143741973103
87.4870391157974,74.21120921176978,2.6961380642277253
94.20747674256624,73.40812695297518,6.910236109796137
89.11878509284185,67.38027867355632,9.99526774711909
72.64198348562267,56.72408849050563,11.402307425051532
46.948520340416415,41.87838086657417,10.95686389896811
15.64838837496687,23.460059559509197,8.893389785543139
16.80343512365398,2.736633811651299,5.672154067878898
45.855111041175086,18.128795668330792,1.7875201913887362
67.59048995414668,36.30665013039177,2.2292146596207747
79.28317579576398,48.97522087792683,5.78025879759129
79.70844123786252,54.145309980520146,8.320467485588056
69.19585852513049,51.219751276870724,9.563405533623028
49.47947423555649,41.04622879154988,9.540650414393289
23.441636012112575,25.522934141597357,8.48389960471491
5.221382114216083,7.032959841461134,6.738826903923856
32.41260489780058,11.975814810962582,4.678194947173768
54.14893445042211,29.11894199584905,2.6316913733809897
67.14347375391601,42.02812219183768,0.8626667383009898
69.35309569060078,48.41171963677216,0.5008930535184729
60.379457674216596,46.43436350346414,1.4514815172536295
41.57035867889553,35.38427838071949,2.0341355584032548
15.76104786140363,16.32998775149261,2.3348194104714763
13.264250250593122,7.654838515852075,2.4246445987305454
41.4474748787721,31.957893512789795,2.2899891275441173
65.06976235154234,51.51329165068395,1.9009089990351975
81.16902169242957,62.12545731613785,1.3349405767726708
87.75692172011806,61.555400099773685,0.7310542969588244
83.91933718588699,50.02301038486688,0.2100853123803003
69.89698205196494,30.013052544282736,0.1085011005347421
47.14354849457354,5.559310176313465,0.1253370283194328
18.310129672578185,18.676059505385652,0.2166662326295803
12.936491533928827,38.290328491027964,0.913137359649439
42.37476369044435,49.86816277861532,1.8558752620171084
65.90892609807071,51.50787324196828,2.824581273651809
80.28471245509525,43.12689587032246,3.514861065688685
83.65900261473811,26.47493604511906,3.6354042754182636
75.86252596724628,4.794788692528579,3.047738491012688
58.32111354739189,17.836251873893477,1.8430205679750113
33.737166690450984,37.340160018349536,0.2968986746653727
5.6518342204007395,50.42461522213838,1.2289470996266607
22.019718432030377,55.12066712146707,2.3874119699695493
45.430826485012986,50.96118130967188,2.9538235014086505
61.24867404203843,38.82875351721513,2.7903595562899937
67.11633003732913,20.635160842180913,1.8669748026537947
62.05565313825959,1.0220620126229456,0.4380260709928556
46.71814363168994,23.200003096628222,1.1021243593109307
23.38265173512815,42.976436502688934,2.458343868250274
4.372451950193198,57.84308213919498,3.3866221761517483
32.24452995515793,66.06303230138118,3.676441603226044
55.897995913670314,66.88404823405733,3.2087836708499466
71.65439596357136,60.530888283096324,1.9673494778663905
77.02810215125726,47.98479164665457,0.14209851938618495
71.05277845522879,30.667438650780415,1.7917828891467589
54.40260150215665,10.208652346756761,3.2980538702356976
29.28187093501236,11.595844632155194,4.00026447278076
0.8728905920106298,32.69590152142665,3.6823142501560295
31.84768075811315,50.7466326148546,2.4073936747876745
59.23835681125587,63.291757226509525,0.5814149597173779
79.05506988317948,68.22986476758946,1.2219106852175943
88.2483968948597,64.41398608939447,2.4661754186112703
85.10532079368046,52.10740882447062,2.8526187554713216
69.48138053900762,33.08287444930023,2.3432944900755213
42.89385400148439,10.287192885138529,1.0929771571651072
8.484815833949241,12.817298591593481,0.5647534840999457
29.208335899858692,32.960657532201104,2.267614897486491
64.73602915459699,47.578644682430976,3.7391575038515787
92.49238763550244,55.04958593399774,4.756161156959503
107.68374341207567,54.72717532438059,5.148292687985376
107.30440047408675,46.889243060350125,4.816528244599944
90.8321281806991,32.663755709763095,3.7266845863974645
60.41950431137982,13.923247718670678,1.9730018697745415
20.497404573475578,6.899136785068388,0.16391064228276042
23.092375488419883,27.118935607386113,2.394090826922736
64.15934336021807,44.20306899468331,4.538208735006612
97.14823097403307,56.12818471576879,6.3913254410785765
117.85211393911129,61.592440412019585,7.706463473120301
123.80510992757456,60.07356652623497,8.293024399468761
114.44485401085333,51.76415797191844,8.062390568378708
91.1384757273166,37.478088474660126,7.0467918021324945
57.08300622422836,18.608012499227222,5.342246242311987
16.99287186604451,2.899978177396359,3.0125812242108116
23.50488660752593,24.639935843609493,0.11071911926186416
58.72819668648526,43.95743901942192,3.1771467058142964
83.91311319573599,58.28544951998805,6.491180510125209
96.05921305453315,65.55656139410144,9.34191670814154
94.38123676860153,64.56767622880953,11.209492277708252
80.25643943271736,55.21121436956918,11.754359367178909
56.7470760671623,38.553945455535725,10.878926827933716
27.90480671302706,16.759643469910856,8.724560191140327
1.9200320078981998,7.122890104549359,5.674271274180344
28.62384911818869,29.512053577616012,2.209467152187881
48.729197729164056,46.786010219366815,1.1387683513988789
59.67637260213256,55.87426227212001,3.839688037795166
60.100438202694455,54.87221081707158,5.570398440139649
50.08235086020886,43.51556152225124,6.296153738275332
31.273262194400097,23.348986810019127,6.18216223979322
6.761658399050453,2.486390243560797,5.487831866197473
19.673021419470015,30.247728125107972,4.47605160324263
44.37792937851088,56.45780388008426,3.362503691856842
64.30559771363818,78.16705253953495,2.3623216963344937
77.44241886882637,93.24143700945191,1.7005612763295554
83.00713717575718,100.5068059126756,1.5118571764568063
81.38565265733703,99.78643706240724,1.7887615791623768
73.86485362872837,91.86351846731367,2.3573809141728006
62.27757836544848,78.36847799402086,2.9291271502614364
15.396614806780992,7.260169405831452,1.2469597101583298
21.507600630048103,10.096966659966471,2.1438752805522747
26.359918401946203,12.946484884873147,3.187270936435421
28.301098846510268,15.134999345034098,4.144408944531444
25.683036947975463,15.65721054071524,4.740203801571015
17.254259881177724,13.397604023091933,4.755300994894585
2.5739947627601056,7.507795844246289,4.024663213796882
17.65775404918369,2.195336563069034,2.507535362832843
41.414170435578676,14.950862351347627,0.33157764378264015
65.4620964845338,29.063598907976353,2.2866891972245136
85.7851392791845,42.190803043632435,5.077519087037306
98.21233261536902,51.7924172770625,7.727561929085558
99.19547804172214,55.65828416342057,9.95737638555488
86.80445438187432,52.50138258994824,11.503325818583164
61.42909822173802,42.27583167075446,12.079563975925064
25.60284770399556,25.98588167527333,11.49750039043563
16.486215814015644,5.492984472611833,9.765906095981455
59.561487192335086,16.603760864313234,7.149265972900881
98.07332923008552,37.28763199273202,4.13715216951305
126.91806993497445,53.529066732851504,1.228751368281222
142.09780943130013,62.820098311760916,1.1786665862557943
141.3044943357255,63.72441501619451,2.841769505921859
124.27210302786293,56.19084715966505,3.8008610760843067
92.94167638826728,41.559961709312766,4.292025009877584
51.27410180779605,22.20518812521506,4.54917371925763
4.717499618636817,1.0076696245017196,4.7725772525595564
40.59644652744453,19.100039171947877,5.093738079160789
78.83250055811045,35.4167368901814,5.501357252419412
105.3380390774695,45.583099852642526,5.898377086570826
117.27256421283776,47.727048597420506,6.157941366168289
113.8705750213593,40.78532757267358,6.174965711942888
96.35863833523486,24.96281683379048,6.0192535001314695
67.65265921723918,2.1053517926979675,5.886019395731613
31.91389203600959,24.334741805123816,5.870929791279194
5.963585856518339,49.89739790932837,5.905876018686574
40.92845802789595,70.15323638817867,5.851039105025037
68.4154029576342,81.75714383610362,5.647395386901529
84.98833632260106,83.04827744423206,5.35277151406977
88.8703318387533,74.00642367850934,4.9897830409091135
80.22170726303217,55.738429146693356,4.463524760739523
61.06045886597296,29.94132536169532,3.631485009851902
34.81978550934563,1.2731078799312214,2.3491907828726215
