12.863446957217285,12.385266168909094,2.981048025150897
12.462318857090404,17.56220929196402,2.900706184355132
8.406019428008703,20.545027649855328,2.3894857562295835
0.00042335267762258337,20.22983766193428,1.4450100852127439
12.47743378780483,15.92631946778842,0.1556053397801388
27.683591741804676,7.477418214192876,1.3084129504039683
43.4271526838531,4.599463801096643,2.7830358879308745
57.05251750589472,19.037498789656862,4.147312234617898
65.85088315188307,33.815072625523364,5.2790079279782125
67.41740438005645,46.4022219049137,6.015928607644313
59.976912163871354,54.206205651604996,6.189979219916753
42.72492298398318,54.97414151286459,5.70566072025106
16.19287138243404,47.144996197662294,4.5800596361277774
17.514567111884002,30.64174161857337,3.004803464648527
54.7905132137938,7.517890157929996,1.3301626303920935
90.91840580807397,18.658919732637326,0.1267470280974478
120.80254116800184,43.7709616032357,1.1816496710336808
139.9568000047057,63.85021620213229,1.7595551299733216
145.40899332206192,75.83706467542747,1.8960683778737533
136.17295480939296,77.95009571816075,1.7069964836322138
113.16708955762,69.83789066926225,1.3292525218667655
78.74405010072016,52.64854287023973,0.8713028363075659
36.14439299374341,28.80868347686807,0.4172979994976832
10.851339300486718,1.6933314315187256,0.043352370943506115
57.988733111439664,24.926131349019496,0.18392958753815086
100.55679693843678,47.53222856006038,0.16766328329477165
133.6935924831053,63.376234881102164,0.1861438270389042
153.13080239147675,70.79879416200312,0.8913201875549893
156.22759745752185,69.25310594376313,1.8463351101034837
142.86472636264202,59.18486878072401,2.8286988749418374
115.73734062475165,41.90360982965733,3.601348309339306
79.81724949383342,19.490008564315595,4.005729109087807
41.13472692153639,5.282683311032604,3.994002501577698
5.359393784870105,29.172813652281675,3.6494469338074196
23.294398769616997,48.909315702675826,3.0919426161069294
42.532258129913096,61.777024156567556,2.435009997223772
51.842184151900526,66.15045848014164,1.7972782034935548
52.04759102732076,61.748913694359736,1.2389088107872133
44.89095577261012,49.51036600503956,0.7702757584750666
32.798424412645566,31.178869029927824,0.3856512497170785
18.734031745098694,8.875503957776859,0.10715265296053376
5.948217390401602,15.109645487633534,0.0001016995580794091
2.52334305445541,38.27991242154792,0.08308548932818871
4.557716195245971,57.838609080302255,0.3138999718735839
0.4382522977643774,70.80712235205806,0.5836579837238444
11.30954099469027,74.53481055044028,0.7136264746598727
25.470911037886335,67.52115553997217,0.5569270884487175
39.655210667283015,50.18229475836894,0.028916536802393665
50.79029163885938,25.12628714851962,0.896584484938857
56.65156244861403,3.31932398841662,2.1137294720186124
56.09939514233437,30.21175615740533,3.3562934070429282
48.94767051342156,51.286487392448606,4.338772707408643
35.691416103174284,63.92876260010214,4.899982411083745
17.364569199495808,67.46695811547718,4.945280555830176
4.393311524879351,62.7815390184336,4.448192239969101
27.20486656623331,51.57055549589146,3.5215992113620684
47.9616111506994,35.71784026254558,2.323009480691966
63.15670747765965,17.043122552125826,0.9901696171883949
69.57445681187296,2.580602397224037,0.3629294108544056
65.13095138215245,21.0065247952388,1.6073209553767793
49.55908562546377,35.84027884342384,2.5357980157867255
24.67274140706692,44.873018094816466,2.950726396168299
5.895377353863458,46.76717971586829,2.7255921833120897
37.38510315835771,41.64826024367324,1.8618427681712055
64.80691818579845,31.241739271198227,0.5547238283475597
83.81095726109008,18.38922012832305,0.9348737655731727
91.36632696976143,6.117515229703429,2.3250677839218326
86.19457538929271,3.299711946428059,3.268605631055077
68.93963608968491,8.855711115169255,3.5005327895831635
42.04455889127119,10.727983273636008,2.9841106534492385
9.340848260736875,9.741623550653104,1.8297476078874277
24.609038671701025,6.733308582969687,0.16879047604136635
55.341768802230575,2.1999564184194407,1.806708524960426
79.29326493994998,3.5851662032787095,3.8388530438163677
94.30243408530593,10.145406381311489,5.65974371157485
99.69520305780446,16.409796248916592,6.974962044421822
95.9826039967208,20.662290733888874,7.51556416773628
84.33762065109994,20.9543833284741,7.093144161290689
66.13851680555311,15.805358057023497,5.6663921827238655
42.80663907347821,4.830198268756412,3.394518303360138
15.97126240902911,10.992687196032945,0.5321450607090193
12.216546211034927,29.50702610499915,2.609845510691142
38.915258263060544,47.88564610672263,5.682419121508593
60.77569074983359,63.19359754978882,8.3304615027865
74.51700064373574,72.77991362439032,10.179029273294066
77.74518904760458,74.47418374806355,10.967871560572158
69.68580630864318,66.75271666730846,10.600094069339622
51.53574828395405,49.02260000377406,9.077833172224713
26.31513078677564,22.041875999528525,6.542864846542501
1.7217639650550105,11.693716873425013,3.261197135660857
27.921352895767445,47.90072967633503,0.4216115949460714
48.08245997736433,81.02847303483101,4.072516609851161
59.150218715672615,105.34511952844478,7.194477350844592
59.6733928822566,116.2701860566695,9.357222519535318
49.992650120634735,111.48953152921463,10.341942758110694
32.13941553580909,91.47227518698463,10.121260564446624
9.44818472837124,59.23442154460741,8.75744990229431
14.088835295923712,19.54137780009214,6.368223509307112
34.61910268869956,22.07544999813974,3.2243115697196316
49.20376072329823,60.167177358614275,0.19488814190496265
56.34386946727218,89.93543811245382,3.3164768927454973
56.078543662676864,107.61717880879098,5.577295259250698
49.68508594085951,110.85880368137717,6.577710756287244
39.14169692184526,99.14272934905419,6.190711984102923
26.545366355871078,74.1358277900247,4.463478409499697
13.70547136540123,39.67803381389855,1.6535913736766497
2.00530913607436,1.2088110535519978,1.7052237861482327
7.551191449679948,35.326594105807025,4.993970989059143
14.248029113480781,64.76355709676996,7.664536020264964
17.63560086209629,83.71694686395534,9.286830063409372
17.600227540972845,90.92778075746813,9.624475857268731
14.457000802711809,86.92208855348541,8.660541351462644
8.974615476802349,73.3027911604157,6.520958929801365
2.2830079581100557,52.11819421943596,3.3867981331717405
4.303487736034445,25.610569576085812,0.4303169059605708
9.450486019672022,3.6508259007424786,4.362927970886782
11.898098909804306,32.545677295002335,7.770425860567454
10.52089572786965,57.45872226763089,10.269189358712811
4.414992511920664,74.80403535293813,11.713385887857903
6.903598947346947,81.86889973002472,12.047975302430356
23.16372157078842,77.58230580138263,11.368525941272473
43.0088326646366,62.84144433400075,9.852676785732775
63.87081634522644,40.25321137890288,7.69051523461967
82.1940771286485,13.43696223545904,5.180880365194417
94.05444076542592,13.76714582018816,2.600449924811089
96.0418462590484,37.8802564872079,0.10557249517574525
86.12237519876435,56.05768747685816,2.1291784660474375
64.17775872242608,66.16963696434104,3.89264972884611
32.0584369162805,66.89752561982463,5.037727786026942
6.811585067507782,57.95023153578009,5.547529351337043
48.08750493870924,40.319308575550856,5.490427138288014
87.18009616300105,16.373347936713007,4.980833650857216
119.78306702218599,10.37310797974444,4.190703542024246
142.2067494635341,35.82949968265534,3.2374657359630796
151.62740123521135,56.08814673160925,2.1364703294090335
146.38630603380125,68.13990850179981,0.9406419345422099
126.36418881777239,70.3545742877382,0.1635894529189487
93.35044168369896,62.650917548065955,0.9834544784250342
51.189867018876924,46.40058087645165,1.4890348840349477
5.461653930698934,24.134463890477576,1.7172649064241696
37.383492182893356,0.9013219665692891,1.6515761753531113
71.28209548702105,25.275307442578633,1.205138302127002
92.4591845365269,45.98677433244086,0.3337571571913365
99.97250966793288,60.79304323451438,0.8494119580102577
94.89603779325519,68.3517795574354,2.173338887906922
79.85058390619339,68.45291999994873,3.5131924117847313
58.3419639139109,62.03690569630921,4.77710077309456
34.10335529127252,50.942208365975844,5.844534759973185
10.563568885002583,37.45883542995509,6.561167947530213
9.50463721865735,23.84284702092839,6.829658514942479
10.383446075927086,5.962073173638689,3.863327037339127
3.941120097359215,8.002091255323274,2.813264414599751
4.669040572546193,7.9986154962587515,1.2017115747157792
15.30109594442159,5.305694804248433,0.822707938301469
27.552366009724313,0.16575904606938854,3.0763892478080916
40.51310363917515,6.410249775361081,5.333034818614418
52.67459962630427,13.100807159929099,7.348858764420798
62.01386849068413,18.76412555203679,8.876203856219002
66.37344099763655,22.69106086159593,9.667057115471673
63.87349464231773,24.520872773253963,9.523012427518573
53.30166883219711,23.97163145569662,8.382752650655341
34.61015504098415,20.644357631300537,6.399750816843772
9.344592172418512,14.054400881437127,3.9394362766566324
20.017160094520364,3.908469764483422,1.363513873831537
51.092858200050856,9.431360398449991,1.1699519284757212
81.18100741226266,24.612652762434816,3.5029785989858393
106.8357058841865,39.48918634401537,5.336187420397742
124.29009957570291,51.73665152837585,6.445155570927297
129.9391826547769,59.469481856291765,6.721885374914395
121.38714145918377,61.54444836825744,6.091330760253765
98.44350251622379,57.41598484525012,4.60631921008302
63.443992787863515,46.82021503905954,2.498911662239622
21.024542257532428,29.691428867994254,0.09858812266282808
22.919098809613793,6.489503692005037,2.2177946813089093
62.513914652301935,21.169981829035684,4.057686543866555
92.97157161442408,50.07381353148365,5.082689923924227
111.21515446064303,75.6554192198835,5.068018065673671
115.91298820378422,93.02512254260162,3.976806970788463
107.26300598973984,98.42779176122751,1.9791374998242894
86.74678173803565,90.4552472864898,0.6471739821823299
57.04822024737912,70.43467371892815,3.5614237907675506
22.057439374468313,41.85977408606679,6.333210200518965
13.326909030842756,9.243756945824716,8.478893123052627
43.74679114914524,22.990118444829328,9.584211434719588
64.36892007039769,51.12770602020829,9.513791371514515
71.98430106279457,72.23309451932685,8.536608890794689
65.76922192774838,84.00609832450559,7.128651362811078
47.419887061049906,84.84916116621326,5.694551503808313
20.562657230676713,74.2888081254669,4.54409802066578
10.255263569703985,53.53682349144289,3.8844910595539464
40.521075488451665,25.744453081806213,3.686858217516691
66.3130105380501,4.403681661717871,3.6996892839808257
84.35788352047955,31.754284771506537,3.6034005093541213
91.85099078213736,52.0161988598906,3.1302825299996737
86.48236310850042,62.74963051000247,2.0868042479520867
66.92059638429662,63.607785617747766,0.3389343469470355
33.65393917592105,55.84513178646749,2.1184054485710013
10.212443916582423,41.454908459222196,5.088672395482844
58.74982923369216,22.453884771034307,8.200803228234307
103.94425974443924,0.6573733689196769,11.018480522978622
137.29716913338854,22.06914888256372,13.128975376041817
151.80597952701496,43.39958161927066,14.172701823061987
143.64261747070555,60.40812810271039,13.959129712179019
112.9955837695523,69.954336495889,12.578715388750812
63.92540716650221,69.49710678420315,10.32623534523103
3.43638810482888,57.991609355085316,7.581966488001945
59.84615428798289,36.46273320562831,4.740585811038088
117.01690185364008,7.969193248255941,2.1421973586209493
160.04780885035754,23.0546665536489,0.04521467002936808
182.76289734126377,51.83151430582738,1.4324845118037124
181.65523586653129,74.25673746023863,2.356674612502871
156.48568247364108,87.55638988895177,2.8352895464339323
110.51107567672214,90.47387375492187,2.939644344803623
50.11503034664624,83.09073213577486,2.8083577067183065
16.233052519197326,66.49847008500963,2.6283497836726384
79.48711024815867,42.53494717116976,2.5229790549801367
131.6255971017881,13.684551312739734,2.5270013495856056
166.91784088552964,16.956130715132335,2.5771415587687794
182.5391013944656,45.84356329637069,2.549997349378687
178.485019659177,69.4165309340194,2.4009078897861214
157.0017782448599,84.78376711106495,2.210153559235072
121.8331737081048,90.42923033726251,2.0973126384841208
77.53924987623223,86.59905439560893,2.1937788910304508
29.01725841930544,75.17643883212816,2.5868755219611255
18.82353178577718,59.034288917958655,3.2510379740339985
61.33655575242337,41.10784727843993,4.165241101674195
94.44575040425345,23.599482685800503,5.343497468649609
115.02679312239658,7.642605886391812,6.686875062119237
121.29503474259498,6.501838788292359,7.966427845993792
113.11581895935639,18.94813701440104,8.917712372475984
92.152993920297,29.73105724542248,9.329594437066346
61.762763752550214,38.639555381110895,9.025961167535106
26.62416711560181,45.388284483673864,7.785455258322022
7.874527810734487,49.925913772858635,5.470429157715068
36.44780971143273,52.59914766435201,2.2205487722102917
54.76836095820415,54.01357930953944,1.5807328887009464
60.182989584047945,54.6603688926558,5.428165700546492
52.13979467708213,54.56328673830344,8.763795879153966
32.2164781478342,53.18153155596269,11.160661456280605
3.7721655392502003,49.64651113846044,12.51970196145841
28.62877602796773,43.17943090833736,12.990968319634847
59.86607531411764,33.417788339808055,12.853897227653084
84.85801545550568,20.473544403029976,12.431342788141771
99.06816863542369,4.714187568960571,11.905386506746822
99.01364839449947,13.530683782644548,11.296552968622652
82.82930323302577,34.050548081955974,10.485580025497494
50.83521797570947,56.48012854817828,9.198640281740712
5.950774776609691,79.77528803148685,7.191220078349328
46.298309885309365,101.76504900726819,4.347290389632953
98.37981081680833,119.11521207389946,0.6741165083712334
141.95263887153902,127.8569985361401,3.6604263280580107
169.4205250019592,124.36775759197658,8.406252188337055
175.4353709353231,106.45974567168105,13.225905939682567
157.93304025330534,74.20177940449193,17.61431334955108
118.47358719836168,30.214347110944082,20.988333682975107
61.899154467496125,20.62832430605079,22.84936524786296
4.506858841777217,71.96507567306877,22.89322758650888
72.09029788155628,116.97208921792911,21.029691095060247
131.94227942801817,149.44735554318314,17.367242476704785
175.99994276726713,164.82281508992278,12.185032195196635
198.12080955584565,160.9750987025844,5.923950341506294
195.08728112346893,138.66819956756072,0.8081546589789599
167.33193747652888,101.49453899834947,7.379559094222097
119.09983593993593,55.26038130620678,13.292226056674993
57.86639896093121,6.893849471645485,18.218392460329977
6.989473753450415,36.86332961717072,21.952799904692156
65.98787252296493,70.63041206430663,24.250776678406858
111.32769203047785,91.12366483095397,24.82039155412065
138.1354829009311,97.31842314644969,23.496044143082322
144.91099277347445,90.15713192685148,20.296257249190912
133.212571380041,72.06881937630158,15.423737580373546
106.84776686134329,46.523874140519915,9.284933775565293
70.93011469106109,17.693821734209987,2.4992487032001574
31.08541379251146,9.883993875084942,4.192868157208758
7.13275709448601,31.793351293168115,10.092668720330803
38.722753481728276,44.42959064066108,14.61306719936206
59.71515348610588,45.77164094823902,17.359888832597665
67.67622869180683,35.9481436332205,18.184490249830162
62.128773605395175,17.270678893000408,17.121456005714187
44.68000354117734,6.370717842072011,14.397664373205806
18.729849809824767,30.538922496833294,10.507058096026748
11.177679913929351,51.3014989589656,6.112377777931798
40.179019973786744,65.88076436418288,1.8027887586849967
63.84533621177373,72.70939157370688,1.9317322011820848
78.66943087863129,71.06003661944429,4.659453038605526
82.27570259220886,60.65080643314785,6.174255265519362
73.5051289384997,41.606921421099486,6.510444526198236
52.54264797535604,14.881669044721097,5.806568638997987
21.13539028117801,17.15501349077984,4.281335882733867
17.230266417189426,50.46530770913848,2.181521734006401
57.45207438858377,79.81652715455336,0.3410544829876441
93.43657865845383,99.98184647567564,3.233414689217604
120.51820177687627,108.22138843918191,6.339490799240858
136.57951543884005,105.01187225364733,9.333958356874213
141.1468683340097,92.69781081384451,11.858615275732067
135.15639777647567,74.60998355544598,13.610830542654249
120.54102184048843,54.04615191267024,14.44894884765402
99.77532758082717,33.535899826326485,14.475266618275542
75.51782840929478,14.631470493589001,13.910513680871693
50.39697862835302,1.8134532692743885,12.857964135660591
5.319515868900477,18.75547685228659,2.366882896372117
0.515780079323106,17.766013879112986,1.0298695219597986
6.158398516310667,13.23417520106206,0.6288687988041782
11.32318026317165,4.458793877044184,2.3969206519880313
16.437014465022614,8.355158640999429,3.9175957191055826
22.16777449501794,23.974923651319667,4.883153031591316
28.755072632364648,40.38868018750403,5.305313215278076
35.433627096170554,55.21684759515313,5.4994245728931945
40.31084990733678,66.12017651877946,5.803208621657958
40.73042036116976,71.00264007957924,6.354344478054223
34.055423218124496,68.12065085020865,7.102069575264714
18.78460891827769,56.410278195750465,7.857315432091807
4.363183904426744,36.07851518764202,8.346434378342119
32.436369850888894,8.814782694689004,8.2202096988219
61.279792665376576,22.368982776439214,7.000259614680365
86.17642629007797,53.05646590135612,4.306525330444401
102.25754571869554,77.92486203608463,0.09001165083196455
105.19172315128799,92.1465419704733,5.357755976919189
91.82185101804718,92.7808670525999,11.345633377660453
60.99922882511895,79.742506342272,16.95965314715305
14.333044196891201,55.781909871958966,21.36263411359564
43.56220096822917,25.427412982719293,23.882571401804267
105.32364246002018,6.377702804064258,24.04299222605129
161.797598063877,35.3632527847082,21.543322561614083
203.4516103941357,58.23981762722965,16.367105473958375
221.9710704346446,72.39013333245995,9.012386757972946
211.83334585998526,75.55127237079505,0.4890285045144177
171.53251822600808,65.97781206127152,8.013167841388238
104.26778505720516,43.260528654448805,15.460562914416322
17.81373881330905,9.300515756216917,21.027661292347837
76.5393474431455,31.277375266978378,24.227782089324688
165.8629881265071,71.77375792183362,25.065918918100923
237.96145072065346,105.06204151978427,23.868343647401637
283.5937975648004,125.521667153293,21.13102889521484
297.93524769888165,130.39228446172035,17.381774573521493
280.91218935893704,119.9702440671451,13.050566504971982
236.46922123471748,96.74559172262758,8.512977762388863
171.2287315341737,64.12708651534612,4.023940807651649
93.12191430679347,25.501061708640787,0.28025450696276394
10.429536858444099,15.940916914582177,4.290384956403333
68.72989857505459,56.79632232177314,7.971114610241295
136.73469366543523,93.0729188290027,11.273968179626403
186.92920142243568,120.40471617965386,14.07924403959894
214.3781849307729,135.00680877729425,16.300641387850334
216.7247116791474,134.96151352987954,17.87567617085726
194.7661112658816,121.13429591357351,18.707391169123454
152.43625951042492,97.15286619579892,18.694341758408292
96.15250982601546,68.38854191691817,17.78006605558571
33.75230580717964,40.39707826672629,15.957056333748119
26.638472634776768,17.51196542028919,13.305674214163213
77.51497705772567,2.127645023509906,10.019928834251305
112.64031031243562,5.230955275842221,6.334131016060173
127.55973943231186,5.345904689489482,2.4978067538426627
120.09868116961077,0.2903190035444674,1.2033187755841643
90.86543846826495,9.780780153741016,4.487816498871977
43.54621169296068,20.84071525396292,7.148020155494657
15.301970218855374,30.756441214129495,9.087604815999988
77.08369956216637,36.56059608423033,10.296913322510067
132.51387355919843,35.531456985517416,10.84422064309235
173.14742760202594,25.851982168561605,10.876818154580153
192.7228571494936,7.139803934964328,10.561254745883002
188.04976371899602,19.372212928607293,10.057074457063308
159.32623570323554,51.05903973038823,9.50505814359815
109.978204106244,84.39863525234024,8.982677072343659
46.14421285842899,115.51844699580747,8.493509659521985
24.12839983383792,140.62769276781628,7.9727630857754574
91.94611075829053,156.31572354321304,7.346786706271563
148.8303222342377,159.840104629881,6.599915380389322
187.99057100691851,149.51653492996374,5.700289976560327
205.34968500650152,125.17765148377356,4.57815154026653
200.04775512081306,88.55199969231712,3.25120995767215
174.29949606559558,43.33790111647102,1.767717602220961
132.71561587289756,5.192832074409168,0.07484899556732016
81.32797605547724,51.03473715736483,1.8384249063154867
26.63479843486234,88.55902009894955,3.847112383268155
25.108625379283705,113.58500860099579,5.843769148984138
68.34693895340146,124.09451199326452,7.746160656126841
98.57273806467532,120.43025280783647,9.359568494994473
112.7239160023859,104.99037883446402,10.369261191689839
109.64340988096302,81.58013943746847,10.49156554292384
90.48287338199346,54.6048001255192,9.685180067322358
58.84011284442989,28.283774217001852,8.150807996557916
20.391551812491063,6.044480079588746,6.131016109543335
18.03291902117971,9.865726989537846,3.812887206599706
49.761299812389055,18.53696145881101,1.3463885224512018
69.65495124182031,20.317120477469846,1.0858306435460998
75.1392010061759,16.530708895570413,3.2518929358707154
66.5714578790203,9.063602775211567,4.996204092974163
46.88069376030828,0.0712085832971334,6.267149458651567
20.656627073546524,9.095509596589437,6.958636718043696
6.9928455658409145,16.683468463916494,6.947750283360055
31.449639574440873,22.008192684070025,6.322762506599214
49.210468309442376,24.668052137373074,5.261274154228563
58.114278535588696,24.545097975010155,3.818471530415575
57.32047129770106,21.661644731892242,2.092759521708743
47.23867358434126,16.08072316305829,0.2744642309815232
29.518467844163112,7.877061445977327,1.504870490735203
7.026921480456013,2.800216825603251,3.1583359062919087
16.361815955120743,15.598773002456545,4.609585839819512
36.32334817166716,29.772324285412765,5.729063963842776
48.98459757698361,44.005077898887556,6.287393330079649
51.903662003674945,56.40064935215803,6.145330598235761
44.73500626358304,64.70027588596626,5.387212116674614
29.302879173297704,66.76398669809129,4.2071094754674565
9.022861252347981,61.22418860536076,2.813708356109474
12.099035244090423,48.05886723670838,1.4349777608026741
30.442412242787643,28.83535983487586,0.29796694451985406
43.383444023208014,6.449860684496069,0.4430277843675088
49.462698075146335,15.592132776274957,0.7490367622903413
48.26001476917282,34.08478464494167,0.6519197534968727
40.279253085315766,46.898622482167525,0.19968205498775846
27.00793607166044,53.342925487750016,0.5013883686758417
11.024048485743924,53.99765405093526,1.240749677651501
4.115978322906837,50.1717321499954,1.796883070649473
14.45612742276254,43.314964941997076,2.0172930336473613
16.686712873306536,34.64170321096316,1.81557012147753
9.283528991086442,25.07710556547746,1.192766923691892
6.788262049693925,15.45488917238674,0.1691616549008986
28.199570153555005,6.711543747071692,1.2712227010245842
50.224686683707304,0.1312707987342925,3.0934249874171913
68.12216198848836,4.237824732115327,5.189908021198707
78.33795965019902,5.3621016188633375,7.335682006851815
79.09469250061827,4.126739299645224,9.125388721140789
70.28102406625061,1.954139462855052,10.154736512400193
52.92876987479599,0.6115552775511077,10.231919973707026
28.706798368545545,1.5480354204824236,9.366172243457784
0.29956708478561667,5.341223169770361,7.63888142572389
31.586026945051632,11.538444745298372,5.190614436789573
62.29849640486864,18.953211427093496,2.3615731224653542
89.5920006954621,26.241745203540628,0.3470907468708631
111.23198668540155,32.45855011606494,2.5074654976015713
126.13693524024757,37.27400593692883,3.846713463496313
134.4741678618351,40.7585421105455,4.252954781772172
137.14334149715955,42.92786149819087,3.8551910742063433
134.87668703478317,43.34841534769912,2.9582334502236662
127.46518138455471,41.084527281190944,1.8879121354590875
113.62679667403926,35.06638900162415,0.9664760671374604
91.70003597125748,24.659789003479723,0.47960140454261707
60.82973466051598,10.114405949772683,0.6243705887684624
22.019960204351694,7.336111382227852,1.5120484339304048
21.49102233255892,25.761063565030273,3.079259786449255
64.75403959928633,43.023873046143144,5.033715916906095
102.89472627805796,57.47661904668941,6.983742489770365
132.33101149011213,68.27410161902367,8.60607446569043
150.8558645831415,75.1230952040906,9.708288871724276
157.74249893220284,77.99562135185903,10.17705992278844
153.52332424610174,76.91497610930644,9.944351872119318
139.68875066439847,71.95987795138817,9.070486373928233
118.46204252215361,63.451168065655445,7.770937622739868
92.65587190173588,52.1758510737389,6.290161364711906
23.833088048566847,20.123099087276486,3.325204011409048
20.026809262216243,20.432020161081653,2.629351548250749
10.618623193323717,16.355762397422236,1.509535081127977
4.388670316579105,7.7841742174779,0.011504229802702484
23.76967492163769,4.5520222275418964,1.736885391341117
45.16863943010446,19.296536757444006,3.5633172191436318
65.45934867915658,34.677010862796564,5.294891184707497
81.23157170366804,48.63633598133833,6.721088456919014
89.32554287250105,58.870223905949544,7.633896556341872
87.31287292441112,63.004323173107075,7.921466575494441
73.89091458939028,58.97772505719184,7.574153217365998
49.264240535525325,45.553109776765886,6.646787760610208
15.483115384446801,22.910825746344823,5.301111099212538
23.68710609563534,6.632109344430272,3.777061315332717
63.43016288384524,38.492600585610006,2.254899084611112
98.55166316505834,66.97281144788512,0.8636642618227713
124.22890403495306,86.7390177083687,0.30734099143095234
136.90245415511106,93.97272702981572,1.2815431052032866
134.87677990330582,87.18983891064762,2.1407493638738946
118.54772981567615,67.3136655618075,2.933303454425894
90.21197816292201,37.273178728248055,3.656235953129886
53.51073679097235,1.4488059023269482,4.301371842503037
12.797007134808883,34.958900565792206,4.871684786101253
27.44288922506876,66.4763843096827,5.335785727168756
62.99299097872641,88.0499133492615,5.692630561433966
90.16945548039371,95.88723394950304,6.001587693641013
106.08813563555807,88.28151524235253,6.256912213446446
108.9800326481074,66.1948444784327,6.365408490546141
98.54427692112381,33.207281620360874,6.2307144198886
76.2179850452747,5.212595928112675,5.7970890864946965
45.19651497604749,42.90849620805389,5.023130165561204
10.086156472177322,74.32239193763942,3.8308376905354002
23.793463213834915,95.41630240065082,2.148172300075407
51.29229784658222,104.05548464073067,0.007053450753663971
68.29170274723897,99.95044916859993,2.447012805597998
72.34725393152958,84.40900677414143,4.789941564458392
62.99865297322384,60.0537199606957,6.62392846270319
41.744600130858686,30.511125422211027,7.6271121966530755
11.755910513556902,0.033381208429429834,7.527128690466681
22.57268252318549,27.535722048227004,6.181311576299448
56.16859661444536,48.909498333988985,3.7145021794055326
83.90192772381388,62.65205424373499,0.506249053008108
101.26535958217536,68.98344094758495,2.9065992198443147
105.08012726285759,69.36085893838472,5.965376099988563
94.13576558745325,65.5961572327958,8.18931385980215
69.57867888549042,59.03725272187913,9.208170843393697
34.856234256787666,50.23360596396003,8.79894462325509
4.85613115642305,39.241860648076674,6.863095093136582
43.67547476646381,26.323629612485167,3.4245622528889275
76.230719984571,12.529327113247849,1.2539121099905968
98.69817397952606,0.24045671122039333,6.6486548402322185
109.354518865714,9.778844422259702,12.056448218515008
108.53194492384773,14.44232423987094,16.62522379047776
98.06252516301595,13.837935596395935,19.538663466393363
80.50950337967517,8.961615407093365,20.33503167997485
58.51431403356335,1.7902821923957957,18.915098434933824
34.46111876713282,5.401060974542002,15.390629504172745
10.492882398319551,10.62335718273147,10.174960228313283
11.304311777717048,12.413629108790285,3.990943830298295
28.825778494624362,9.798024973395695,2.4511807045933454
40.143040535322626,2.2389684477843645,8.64570220235701
43.949627139426795,10.226284070019775,14.130485173287848
40.0792826558335,26.659948768690313,18.386463652949466
29.82622197324452,44.94385715408198,20.98232193452445
15.849973072185676,61.858477561975384,21.710667307636257
1.6381039236285229,73.68354668867,20.626490668624143
9.305260390347998,77.17043185546135,18.03704757136325
14.249744666546624,70.50110268861424,14.380946965375376
11.739992226407281,53.8443317667542,10.074227390893974
1.7282056935731114,29.303648021202694,5.507441201682952
14.589596958231793,0.34021184452464787,1.0867410584362442
35.07175795236561,29.02930133553671,2.8482399228045834
56.89665217522394,54.9479363564612,6.044353822876553
76.78467482327052,74.19031181972055,8.25597228149591
91.27229590475915,84.42278963662754,9.350411948861291
97.14080813444464,84.36493704672314,9.435313704985886
92.06133652014802,73.91475427905345,8.730546086898226
75.29982421651988,54.21881118474675,7.444900520943608
48.16095794523672,27.612411897529217,5.866679198928485
13.925380951220294,2.647439829658793,4.393920858357959
22.786643886473446,32.81512849364456,3.35348857504033
57.05784652991856,59.122743842866974,2.9536892358107902
84.75254144721335,78.19332239626868,3.3632402955669747
103.23512033395293,87.37911528122717,4.63289994339454
111.53159720969045,85.05941821891314,6.649289813121509
109.99897175963798,70.94961821809245,9.170126259718055
99.78136444586099,46.367802539292825,11.797025760743752
82.3951622355357,14.267917358029665,13.960012487895735
59.5804661895537,21.113303706237886,14.972919891026008
33.34294092843833,54.9713341854948,14.209670372677639
6.008481989158968,82.83526357500797,11.342668260503425
19.903853533876365,101.3553467235194,6.446889508628284
42.006448376537556,108.69673075623687,0.0689107266696172
58.40899193325766,104.4755643090637,7.550763889556394
67.93755138913467,89.41142780853703,15.138919603280808
70.08724717199942,64.99635020027843,21.85891779412379
64.79970380032132,33.37928127607228,26.783734514674805
52.3007147436258,2.573914294548727,29.177541523389944
33.197634039965656,39.261097404995894,28.582640561418184
8.855601408936934,72.61769740525293,24.918083843055623
18.189152372641182,98.75521102369407,18.580462112246934
44.12572582563607,114.74540936927066,10.375337343202583
64.32574503282311,119.18694520492923,1.293037416609523
74.35432894046366,112.2937049355616,7.632298131868019
71.21401591836376,95.51051215426453,15.331463973667919
54.329919135693075,70.92438222658667,20.807657158279248
25.85082533059817,40.85573371779715,23.38687404376192
9.841348166529237,7.8411749237611446,22.908577577968924
47.169728236319486,25.147763928909985,19.724531580016667
80.50569125086444,54.60803321496471,14.506802522764644
105.01104520654734,76.82406314045437,8.099084223752778
117.05200011763414,88.6514086711188,1.4579712403494918
114.3310445286925,88.47499880131242,4.505176965954876
96.01825649836329,76.85242472330904,9.07166675599201
63.07291814677709,56.47765180414442,11.793664821073666
18.650724716401218,31.467372425492684,12.552475836386579
31.73625952397436,6.317961323842648,11.565636825240537
80.70727155508455,15.00313676529813,9.337032199834121
120.30565517654422,29.53464328249183,6.472178129952267
143.7869659708445,35.39630682764101,3.489311545645104
147.29803007997063,31.738408165662438,0.8137482418638016
130.79290324822287,18.851437088734187,1.2161531051044525
97.80760693861217,1.5252014371401543,2.468462037045764
54.25133029658911,25.95779512491534,3.0731254033596924
6.785628819589502,49.51190190077138,3.2945162676180026
38.540972507421884,66.59370686583038,3.363291455243223
76.96202280333362,72.28922682865426,3.382708795938517
104.98566747711777,63.744796995793195,3.3929621595669954
120.14932017420396,41.046844983061405,3.49323674475037
121.00785937902418,7.274201838068269,3.8081100850655774
107.52069739530657,32.21875038881091,4.367270694917581
81.6205464242703,70.95229949995583,4.9955264810188735
47.459434146883225,102.48470941870708,5.3546412835605155
10.902018279768091,121.32027798714539,5.15694579218509
21.75975204132139,123.57419069123748,4.299598629419059
45.454002921954995,107.53617988457448,2.904769565317916
57.64107522258337,74.18510973649319,1.2580997994360805
58.72415903364006,27.505475910350356,0.3667645676484823
51.44705896466623,25.68654295496922,1.8105791499032822
39.631593487383896,76.65324835371263,2.9959010902701038
26.893603848059048,116.36550607210144,3.8979642600464137
15.880192010733783,137.48568815114712,4.628410520150226
8.116926847963551,136.96305482176973,5.355948618741232
4.3501459937751,116.40679332512434,6.163636798377609
4.878094146574957,80.44270480832513,7.015893715868926
9.512923255576025,35.61406573329827,7.762801174411246
17.38878759355926,10.98453417490946,8.279979249778187
26.85262060687291,52.9529942945331,8.555994397306199
35.66832501350158,85.44477580954788,8.654834559239804
41.575080945643776,105.5939020313446,8.619058597372613
17.55029393394909,19.391834881744458,3.6566226503967556
16.27502601273613,19.349024213530008,2.7697798149527957
10.676260517524291,16.37401307665203,1.2940980064662542
0.36799955899190306,8.709517305136666,0.646647037305786
14.017309812725582,4.951800563549043,2.8318360293432865
30.790263353321734,24.57728508291456,4.982026476805427
47.43212310329769,48.20777502024669,6.841794088939486
61.03751898611808,71.96700140676377,8.217795319800828
68.87573369023741,90.86659487608942,8.913100192126024
68.90917603436716,100.06028671165768,8.696442900603737
60.14111251753117,96.15427682030935,7.438602870765487
42.77018630082314,78.25582581570217,5.317728693225526
18.185839240787182,48.35384052516985,2.8713595965403425
11.206733619418932,10.323163213142264,0.6673611129742032
42.27715770448186,31.541289169886497,1.0012536074304244
71.49881277881013,72.7461981796791,1.9350239150188453
95.38413510256503,108.51689551422626,1.963658413531047
110.95750929166681,134.10422519811172,1.2009027909483325
116.11725809210282,145.1186111505675,0.0390249909871218
109.89060137967618,138.53717996485324,1.046746552077968
92.54436304343747,113.95566815515569,1.61673259907515
65.56685361559967,74.36637552994311,1.3190222590551817
31.592450659554324,26.139914369756923,0.05381979105077501
5.756193387771537,22.292180021228475,2.45957879309497
42.13526117436007,62.556464323511484,5.589596087765838
72.90903424840556,88.4821129646354,8.982551058206933
93.76517847004308,97.48190721428332,12.119429805302575
101.45184154436198,90.5787914237163,14.442471838656068
94.5207437256834,71.34366104025769,15.424872685960198
73.85988618997509,44.35997904638786,14.744717411135442
42.81586893347041,14.014924636878774,12.433828569413192
6.8093478968778065,15.925731762176882,8.852296646486966
27.557498719265592,42.12683534514131,4.485606054112176
53.71421608473701,61.355796728489395,0.1684994586987551
66.37179293682883,70.57779710235788,4.552142717668939
62.55578306767454,67.62117167490628,8.148305675162096
42.22801860490035,52.08702248152089,10.6686781371377
8.406492742786837,25.953187867815902,12.062492265694882
33.260725128217615,6.6018274458396435,12.453958488124329
75.43192525774991,40.16105587409782,12.07417634966325
110.37443974451145,69.38875222322807,11.188715653963918
131.42388399256419,90.12998552339361,10.051864453804535
134.2757722566991,99.88610509407741,8.812912270551099
117.7856650751574,97.6991691321267,7.508909658547568
84.08001759661786,83.79380122809954,6.161413610829166
37.96527018075613,59.34699068292523,4.729319327357003
14.147926839143976,26.57611670941717,3.0524917147475166
65.47769278252308,11.036465696599254,0.9620273820470174
109.93108517267083,48.79656959196958,1.5907186671426576
142.8101144156612,81.35298170306072,4.457301112871866
161.1553529331135,103.67515901387253,7.344519763000624
163.79162378888924,112.10608679548427,9.953660034409102
151.2237274774334,105.03406646092078,11.987942507126178
125.44110975753543,83.00223712156311,13.103361418732355
89.59772082130657,48.4095943544609,12.982878282842288
47.58558141414271,5.107855205242109,11.550258508742697
3.5355749334730784,41.8488026460974,9.125808330344821
38.618767206503954,86.3315545451068,6.253054458122563
75.36763644775662,121.47510001036261,3.371147125652917
103.6540085613209,140.57991633961961,0.7054113129515948
120.84761979468067,138.59974201207197,1.6375975610792768
124.88267959027043,113.79774264431234,3.5951968797022515
114.68473738711883,68.8633815526751,5.16029746228923
90.81091907372411,10.816202961885306,6.3855394835091435
56.00075954776896,50.462484824866976,7.368195527931286
15.218807075786305,104.58450585633007,8.269711978157039
25.026510573628066,143.03391142268418,9.271949313857377
57.99369903074961,160.7020907283641,10.428169903274854
78.26084006472308,156.21678005986766,11.59485406050816
82.95225687980312,131.33677039543403,12.513697958064988
72.21372566205305,90.01136507997496,12.909803295966688
48.83872606443479,37.71083580337647,12.55466668194268
17.321107256505034,18.827013357946196,11.25437940827471
17.196396715365672,71.81445117666891,8.809511284325806
49.727573409330084,113.09029903884644,5.203073133182697
75.86974628241495,135.5332142845453,0.7792634890915088
91.97010383626917,134.9389046324499,3.968651522861306
95.2924648457193,111.57414777133351,8.588060625628454
84.33252333250735,70.56994973874501,12.65005433908629
59.214749093056206,20.75101309767914,15.79109330648528
21.968290215810757,27.766174711307134,17.697915621761258
23.527628865295057,66.27807397518431,18.151840493963284
72.0203098222946,89.41146111549011,17.167705535324107
117.6330531313717,95.61182093208406,14.886581403476628
154.62541460924734,86.35177514741179,11.537249107885202
178.01899214300124,64.75543169770533,7.62380944983756
184.02153050033814,34.49363906705905,3.8363131500961285
170.29725937734582,0.5511100615970427,0.7889734179581682
136.2580934804267,36.0217235850999,1.0945452469992618
83.43550179103762,66.83962523082268,1.6595621100741123
15.82456701734748,87.61726925863492,0.9905161448970323
60.03140477270045,93.90757362816727,0.6869081752982321
135.48579979169236,83.80484616582389,2.9763681791585888
200.86390210160437,59.04865868771915,5.36077202606468
247.0455831364007,24.895502073156134,7.267336249427154
267.2247339585586,11.377926585901042,8.05537317289155
258.37049559733805,42.746447855709306,7.2375878663998705
221.95193558972503,64.47194855229777,4.657072350838184
163.6863509518571,75.00184286239893,0.4011690405177065
92.34686610218036,75.47017252413508,5.19543700921534
17.93080634579847,68.28888239498694,11.54332175042855
50.31290220329237,55.72157598398491,17.906484364234196
105.47247356152751,39.23028547135506,23.480389766482162
143.79550131282943,19.809600619306842,27.51802056194026
164.61918070520235,1.164817414186253,29.520418159778274
169.6292105518087,21.3520186504056,29.33688640716331
161.86541340568684,37.6821507491964,27.088277676284726
144.85287973441206,47.40744435210879,23.004705565156762
122.0814074619949,49.36465845130637,17.380847785022553
96.806644487181,44.62861359034169,10.664924329204242
71.96381655670916,36.07415816403451,3.4867590569440283
49.98603351075845,27.020029490235935,3.4405419241987785
32.467412887613904,19.706789018928067,9.457901187694224
19.81452372089426,14.465603911032089,14.117640949227637
11.118594702787707,10.022210619646621,17.247167445555256
4.412485423043004,4.716948291531835,18.896726716727592
2.715909665272928,2.142651714219306,19.27618494968394
12.387281028308994,9.650867078446346,18.644865962523856
25.865313578404216,15.7454013216521,17.29215121011639
43.34259925608016,18.385982516049978,15.596644451250699
64.046477672565,16.717958846660675,13.999239945643046
86.47546394278696,11.490883660346071,12.924799377069972
108.57606870723905,4.510503937454845,12.630681329797449
127.79399119690466,2.4243232549740807,13.099468274020206
141.11648565549828,8.369116890228884,14.056455091270983
145.32136783537817,13.32118215939338,15.032996860840441
137.54671233554186,17.53514907171187,15.430250021919655
116.09805120233564,20.61687941168896,14.640254124216627
81.23507799605282,21.096285598753113,12.293467876872036
35.59577053181606,16.86919171930671,8.346022905336271
15.984346877629658,6.303835200274951,2.996395271973467
67.25229355080421,10.650717928280274,3.368474631062086
111.68206247837215,32.00532387038885,10.25707892428549
143.65295540604757,54.171753678366784,17.06980268377268
159.3634258063826,73.0326076832741,23.150224453515005
157.30902152697865,85.04486449089944,27.889325648970697
138.32790985206012,87.8525085823986,30.69968931300896
105.32000818087991,80.31898730802152,31.173546064919044
62.745995275370085,62.30823702447188,29.232622971542007
16.009585785273483,34.61313296667124,25.1331291370431
29.166867973842464,0.7846733428587502,19.46270859277608
67.28974643404935,40.3164936919453,12.91718577797658
94.666194491939,79.49682176532292,6.251607610735006
109.89014905756228,114.0096235367265,0.2146133486361637
112.93062528724602,140.2764398835628,4.695241224190474
104.96798086332049,156.0586580188122,8.236704995767798
88.19432352367265,160.79407604769472,10.383998354624095
65.56729753681516,155.49465444514865,11.230739134444255
40.49169309080033,142.23289417570544,10.945683810311023
16.41051899874549,123.46824492990783,9.819038255976556
59.90364690489866,49.49067292704812,3.4667111217661537
54.84718170097709,45.1974032537863,3.696851500251164
36.02191935635319,30.622496622298353,3.552258269547806
3.1980944006458363,5.700151689183192,2.8993380811448906
40.52997965804968,27.487693076325503,1.5843398339463013
88.9334788790759,64.86481833154774,0.43234987905011846
133.69290445839115,101.02755022463393,2.913169869296677
166.05213795134716,130.28035308721488,5.355680192311495
178.66138227663154,147.70715121890444,7.234649620318741
167.18860849838424,150.03411497354463,8.220370719440663
131.27429608116793,136.08550882396815,8.226784879842677
74.69126283392433,106.87292210992551,7.354028236399509
4.911957135468348,65.5753427560211,5.787477370032065
67.84110903309781,17.41070841984064,3.7704590487838217
132.36507237791744,31.311996883536608,1.6734621549991688
178.730928981523,74.89137428168958,0.045222748702807535
200.06246655872818,109.40185880124818,1.0737680478621447
193.6065042423826,133.0996070867008,1.4264633344482778
161.04663359916873,146.27937040978927,1.3111846298541767
107.93473188853542,150.45249798578854,0.8998500139742662
42.57387835730934,147.3646182555242,0.3427210861419123
25.412441902826014,138.24001062512434,0.15306857078046032
86.5854489884841,123.51095704956637,0.38193246241116463
132.98587390157473,103.24815216456602,0.20727725615925355
159.12199221325466,77.90653618422358,0.4053359124690277
162.49565176987954,48.94875024259439,1.3603479996438097
143.65184772526885,18.962980186247872,2.4249866755112355
105.8097647290858,8.872865046829832,3.3116901928220144
54.133799199940306,31.706042856491237,3.83240561361205
5.141828768987372,47.847242960515885,3.958861586592238
65.54107409181326,57.067429221414336,3.7684013452089737
120.98417079107814,60.306703752071776,3.3412022354464956
166.17857391604105,59.11181513437387,2.7642638634594126
196.83400344281938,55.172240622879,2.260064264094413
209.8449854926933,50.2164829361476,2.0417545136929567
203.5683747341302,46.1639446545453,2.037698305605452
178.18244796309992,45.1405207181225,1.978283684515371
135.9927222283029,49.03548786518339,1.6433740810797568
81.46440446350223,58.62905870314097,1.0283930451563899
20.798615733787894,72.71441276572975,0.3678238130764537
38.95081436066191,87.82179026227442,0.06328957440637631
91.03896247366326,98.96483502041573,0.09542176156098602
130.12813444519875,101.28127246050809,0.4097101723570618
153.02264165938996,91.88011751404716,1.5770387602678364
158.93047362819425,71.01602266850318,3.3630492180466094
149.28496390359103,42.01923513416641,5.492380213867285
127.30860585202726,10.030275208732714,7.5809699327537405
97.5209774355908,19.85036741946861,9.245023473010525
65.24955557957057,44.13446542275264,10.08100266909341
36.08577358112588,61.574092965215854,9.652283216510106
15.18713012149688,72.73793168902439,7.657999563902208
6.439926147001175,78.96228096547462,4.065789927054043
11.65705093394675,81.32196377738023,0.8924411493794762
30.050638367610734,80.14494002399636,6.61339625063108
58.223644381016,75.21072331018387,12.17462837380057
90.73666203660832,66.3477803165169,16.69744361064349
121.0491584879671,53.98195623311268,19.57179495554599
142.54789549442452,39.28942221413791,20.54346828087183
149.41402762472003,23.86768020152266,19.724471357105784
137.2728305425901,9.159139271977057,17.342301330932845
103.78414600774937,3.9979341548877025,13.615438818788272
49.30407526504634,15.418706168188653,8.965157971298984
22.48365031872995,25.21012978718006,4.081527789522431
104.30797040647964,33.25483853453006,0.32216168653771143
185.83675983241608,38.899553829625724,3.7099489773800034
255.24482013279382,41.108079011691274,5.722492683529634
301.61145060273026,39.05382529659789,6.234055503952214
317.40125687750293,32.83321006474568,5.518027758587864
300.16562866903604,23.853755438931444,4.209641310426812
252.8496828068898,14.562164749961175,2.9805628015233157
182.64968415889703,7.533764925682986,2.300874191382423
99.0434674511169,4.328676703044739,2.408572755582
11.831599415301506,4.712386099058462,3.2330882805267778
70.17343836261749,6.675836670288925,4.507557988617357
139.65516668377182,7.237326843451989,6.057792967653374
190.90325918148022,3.6167705686903657,7.839403810450499
220.02804973033477,5.778491767146346,9.803388713490977
225.50061338712783,20.954010739417143,11.693912369692374
208.7741790495522,40.51685993530054,12.977062429680258
174.3592193203841,62.124792295309916,13.124278081230644
128.93622914914255,82.81900222886132,11.918204750021886
79.66407524382082,99.15431824874811,9.497512797985442
32.34760945992615,107.36966766247541,6.198778758589056
9.66029973116732,103.9259520282652,2.4052570628769057
45.28017247664338,86.54021139299584,1.4858420407348942
74.45068867054704,55.37415272345178,5.145997975292401
96.66595661387782,13.706319669131437,8.444646580697851
110.26534289043474,32.47460698009944,11.413848327657092
112.94680058364355,76.0213381147569,14.047968988507801
103.22203676603198,110.68601855595146,16.163705710178807
81.86605814658486,132.71039587953533,17.424486935303346
52.40668813422252,141.2109030647556,17.442571398376078
20.32684117604074,137.3008969219139,15.921751520588101
8.628657120440156,122.71094289191342,12.780220457849946
30.146698500894402,98.90342143582332,8.20501790989402
42.18838011214205,67.21364494164064,2.5474533611282344
44.73240249327373,29.77950172786916,3.8162969712488026
38.85296021400523,9.626193131828854,10.377864380092104
25.903654568815956,45.75861066073747,16.461955089786144
7.35930574034655,73.26045420309428,21.356226797787308
14.714881889977772,88.51378045700996,24.30779685082685
37.10098730474271,90.85474320373129,24.571885390946456
55.44137463024584,82.35029886768879,21.67921803353377
65.12074189413401,66.2318267675072,15.773960685505344
62.71429080044843,45.02257332140145,7.654525180236012
47.31410438219492,19.635804891718166,1.5109522526026546
21.029482316627313,9.927837174811557,10.371893708734333
11.61070441860875,42.75585860995603,17.552236181982565
45.02481417438354,75.41857069206638,22.014167942380155
74.04643231229068,101.89472822362147,23.369960073816642
94.88352124894192,115.40253214891393,21.812132935982323
105.35688026210889,111.28355764999199,17.881653547069902
104.62806458363562,89.28973691624034,12.41062878011465
92.84284640826965,53.89336058258652,6.433971887804708
71.05716505176657,12.432436021691577,0.9892144733374086
41.46658480127097,27.83478784907475,3.0838934701060126
7.651323641542553,62.09293679794653,5.347543317653303
25.509343560589386,88.534464810355,5.794077624832704
52.47578131917945,107.15155253421399,4.765702752867769
68.18726378513486,117.903650838387,2.9240524822609655
69.36647952477414,119.70068580082106,1.116285965850572
55.54535159784006,110.96532966339132,0.0993997843993255
29.46410098335336,91.34075885953477,0.2716447004027865
3.3174391207314904,63.24364870090184,1.6055549441854131
35.547933291233726,32.010807672354495,3.773141243800433
59.863032837528564,4.302006410406385,6.269771133482721
70.4043833995034,14.400018393602867,8.526488031181147
64.09974661043108,21.76764009672935,10.099303287102583
41.3079390609105,19.003370779763593,10.848373960865528
5.684049041354435,9.527725412421363,10.870049418918155
36.6635854042376,3.038972485790528,10.27940462246367
78.44467082560925,16.26469335998555,9.178481259027606
112.54866919468539,28.900109983608058,7.714513988402705
133.20742291286686,39.74841311888867,6.029149168061265
136.76823346300012,46.47989401813287,4.204380298270284
122.08021439077808,45.47980141574984,2.304411172189227
90.5720732697643,33.08389969277548,0.4093253882941149
46.05759342907389,7.555519492727731,1.4570443717166115
5.7065437382395485,29.414110625630812,3.334094298927689
57.74130867581276,72.64017118074183,5.233500413021593
102.85976668509775,114.93108830469158,7.116796238376977
134.84136582133814,149.3306159123851,8.917150653562556
150.18766865997517,171.24881334761596,10.508650197559358
148.779175651057,179.13323761016352,11.670601302136363
133.1130532878871,173.78848678813648,12.186737380808891
107.5390665171761,157.4742919043539,11.986711978170538
77.17664551648767,133.01935334001342,11.145430063602454
46.83326938792288,103.37626559712352,9.858089196431658
20.209038598758763,71.63085361050358,8.383866458519218
0.45562189701316924,41.09473262100856,6.913443669361819
11.083274468526858,28.473692516865448,2.9237617768098745
7.875649739453829,29.25085028611827,2.07077536501143
1.9596904291203128,23.03112006857068,0.9625486555175513
5.801208031381573,9.246764846778785,0.24079980050189936
13.884605150127845,10.957026149173718,1.3164440547418224
20.512386201907898,34.97721292824381,2.0167508604921864
24.188971792516366,59.302850287745166,2.1662952228995045
24.157233683448922,80.1762617637633,1.7578495073224687
20.5638298767067,94.17241410927886,1.0141853489350925
14.279607423110319,98.67095893473201,0.35134453906934643
6.465051025670766,92.1987617049835,0.2168866011498021
1.8776886721008046,74.55848197048029,0.9398755640966447
10.07035489857172,46.79406837740782,2.691916984874131
17.559020319627432,11.277560680287362,5.498653719648006
23.64843705443322,28.306473645791005,9.14800889944937
27.38895918038345,67.60107244043122,13.039616705332364
27.5877240068541,102.43595164668511,16.331072907681953
23.082442648038906,129.42735894812543,18.230117241591238
13.26189685638239,146.29748007048778,18.090313178697723
1.4752239290056868,151.80147011499207,15.588235364827723
19.547420471775375,145.54713463052113,10.905850145079366
38.4361343222426,127.99961674611117,4.569605209281093
55.24969607520665,100.62517952694567,2.7233857914717245
67.33844833019137,66.061119787016,10.115250013913677
72.73506041262418,27.968892699593066,16.700983317015186
70.27309814000542,9.542334757116645,21.712275427418753
59.48414921336645,42.69631634529526,24.627846610195572
40.49646835256405,68.7452835522205,25.299024201201735
14.096058645506105,86.27100228647276,24.002682347668426
18.0351364503118,95.07310519234655,21.247510682654294
53.092628395141006,95.87924574614513,17.631085410149037
87.19067752107944,90.14849458910625,13.820917154007436
115.83779278364209,80.08388956141931,10.382687594172078
134.774389384234,68.63767075253088,7.601322282440335
140.89265592932762,59.17888047187832,5.428303505285211
132.9127123513113,54.66242883442274,3.5917205273563373
111.5936544343443,56.51452354633495,1.8140911295139217
79.48855653674644,63.79836759490148,0.14972722629339216
40.421032960921515,73.21625090237795,2.5069797333985684
1.0884796170519688,80.15172175348994,5.313441213966915
40.31426414762713,80.35272455844341,8.485750389431312
72.7671209169179,71.43457915051732,11.85869430188914
94.66306183117442,53.49890774892771,15.20143565250835
103.47035791924267,28.627684478204323,18.297442968156645
98.45310946082103,0.3240066107589508,20.976982897325477
80.99162907456527,30.798640655969788,23.042358004350483
54.48853291157542,60.86724334155094,24.24712538132471
23.782131727811503,88.78781870724849,24.315342087332457
5.774945110730014,112.33054927625793,22.917543550928144
29.270968245027568,128.60565953683874,19.80344863263848
42.97958710605048,134.76482544312702,14.955983072624962
44.73430962940346,129.2879850937465,8.521024732724502
33.98122438626885,113.04325257279095,0.8403966084500915
11.69036536782745,89.35562073182996,7.464747101804617
19.75192876527524,62.893137959418254,15.546837022166752
56.63761842698967,37.92350129924532,22.348529513615272
94.12820053343053,16.921130003989038,26.815680147921043
126.7095877123237,0.2899194581387621,28.274245149275313
148.97473754091916,12.719807910302048,26.59828223701214
156.6026791180351,22.610403473824697,22.195911280603756
147.23228542596436,28.764034628956253,15.899899357895803
120.93562097426052,29.717156408466185,8.803177913920376
80.11600676588638,24.435511950722702,2.005539082746976
28.878503247024277,13.712379843083045,3.6118069398839183
27.84843353286553,0.6548654276224728,7.39874593147646
85.1010297720742,10.215298527211353,9.013248141504777
138.30588801303077,14.840617461823875,8.630929184471945
183.31635534372126,11.437348080443883,6.920351863652754
216.28306290862292,1.1685131677227656,4.746930808098576
233.6328398930337,12.73855310464955,2.925443635841
232.4163841781653,26.891383980058837,2.0883137121600917
211.0598705184214,39.500865728934635,2.455640092229039
170.22201115046175,50.970042770859834,3.722278513431288
113.35105530231603,62.97815807478171,5.2627612195178255
46.58371428174326,76.67060424652666,6.3110995500137665
22.140659581388654,91.09341035437501,6.154474342988144
84.52855376082358,102.86471463980796,4.454467054345199
133.47426031617866,107.3454666895201,1.3328215728438513
164.19748527059107,100.67122272416348,2.6918215612695673
174.72886364942894,81.52964867197588,6.730743082463117
165.79231702948724,51.76541111521729,9.788799469889092
140.3265348432585,15.601405692690363,11.146947430706444
102.94612349090758,21.97371046212351,10.469898030162328
59.47341450972058,56.70568783239615,7.752449046719182
16.442166020999952,85.70680876579044,3.3496965550713824
19.61460571387312,107.13953025215257,2.0112696518759337
43.1783957306017,119.49464571089689,7.356669240308037
50.90122924239332,121.19414391008897,11.71185803314578
42.52639676453108,110.96795836200495,14.378637278619887
21.14121284520739,88.84523855503674,15.084854210529487
7.4635272055146125,57.08556549951752,13.934684172581399
36.166473471111665,20.32330585860716,11.24650729863801
58.182832489841196,15.377150267052514,7.45722332507706
68.50643767356803,44.217984834379656,3.1657633999779775
64.73949882996247,62.33077147827435,0.9008643330445048
47.20507516455216,68.61730655830995,4.1711542757611175
18.47464482955024,64.43168648110604,6.404966228001361
17.42137140208895,52.41958413243238,7.613848157707005
55.86605987860825,35.24492098503309,8.068532941631995
92.45539224725046,14.882470192332038,8.242823015895045
123.56347212887624,7.2520624648296526,8.62107548941054
146.5739223240775,29.598461197958777,9.591647078577553
159.746833648284,49.805009967507864,11.270114707184916
161.7901333899202,64.6940532207261,13.391352220300917
151.43064732362532,70.9690471250713,15.440944470416635
127.36695315175344,66.32611444433917,16.803248384477726
88.80818584034591,50.414660907253825,16.88753779385137
36.4804391879769,25.198289559947657,15.264569668868287
26.354346419195828,5.431263598094927,11.797947716683973
93.50709589236914,36.549596522229926,6.620252112547698
156.57962222958568,63.1920847694773,0.02899443564911141
206.69395864602873,81.16052186769905,7.7396796718308325
236.5934833337672,87.54486432825587,15.785300673248974
242.33200821511218,81.03822309979161,23.247775348805707
223.9431534701253,62.176318074044644,29.258080750075912
185.00708278833284,33.475208529804426,33.09746125594855
131.56684181267562,0.7138135101799493,34.24013330434514
70.97750593354723,34.784132227151424,32.51474430110194
11.016448851752127,62.886674988005026,28.175195665451074
40.83457340770052,80.1773631904581,21.777260440025234
78.2623258750626,83.89286283264049,14.069290170038155
97.35684045271242,73.86849361813184,5.880081866175772
97.94496807215198,52.371714502717495,2.0297794067324713
84.30193514762705,23.381421922693374,9.095038393230721
64.53995035209212,8.360249942384643,14.979472984127801
48.479338721708054,38.198334868621494,19.502588929661766
44.57612887197332,62.167942788059236,22.60605797124314
57.07146505690228,77.35890989243146,24.317758285613063
84.55784272160676,82.16572941231063,24.686776972320274
120.56620060390108,76.48203854270137,23.818076246733444
155.80212964065106,61.74909919719938,21.88855211255856
180.96414319408754,40.752864384443434,19.101539784712624
189.02699961326192,17.096640724391733,15.716138138561663
176.3294666255567,5.579260942445744,12.014776944579493
142.53076249691384,24.35550013772544,8.139151203461758
90.02121138287133,37.490731595902666,4.129341939628471
23.370262840906825,44.45520629362244,0.1212220753040133
51.00968295204855,45.61670716378517,3.7098908703794566
125.21402603636051,41.821774728429794,7.268972817862267
190.58397921243645,34.14688392005009,10.440333717114614
239.01856202660636,23.914329610340936,12.987194997437879
264.55585267763206,12.828478747386125,14.612934612003187
265.47485919447854,2.6673938124516248,15.159043090495446
244.56780328444438,5.058000268288387,14.682468010224284
207.44223716939055,9.2595784729086,13.363517551844684
161.03361874225368,9.610681449817958,11.457190115079603
112.05820112241808,6.697428728925955,9.246860169119902
65.93382685685667,1.8534007081344888,6.9624978771528365
26.380374060875603,3.2830565185322618,4.762471632214703
4.445889527417337,7.3082186867906085,2.7924460474423314
11.183912089723462,17.245067674179293,3.7335137382111165
8.359087410757791,15.240269327947448,1.6282392296208206
3.870798244325742,10.939286051824254,1.1155342893760578
1.1688546831619793,4.596966018685107,3.9291542804830057
5.709365797221301,3.3466954055177074,6.2049739187222785
9.329799414587091,12.368121286274146,7.424029178340263
12.454852830776407,21.958157402893292,7.373460536717452
16.04581996277271,31.66866866360968,6.105603041657602
20.889256400764005,41.09573966763966,3.8745371057459184
26.863127631404993,49.77080871123193,1.1222730758654298
32.614700978462466,56.99387162668634,1.6459641580755262
35.90209637518221,61.764839646349856,3.903132858445145
34.51533849079698,62.94698144269746,5.1203732871285075
27.332675918735966,59.45355256657422,4.948795688765901
14.885031291193439,50.320455879162495,3.3294817550149403
0.8381913337256334,34.96975028994378,0.3880644043014393
17.112902728669035,13.620959113986162,3.583577654631059
31.34529791943575,12.452164490985304,7.994489878731739
41.62799696781236,40.87453843625799,12.001922965837434
46.77674839262082,68.44227909409926,14.80591086590454
46.05783031174408,91.68003854384847,15.932844802949402
38.962314687214615,107.49950648294707,15.200565783196618
25.34499779075034,113.84072780039433,12.570330889872928
5.9493212054310805,110.10935256910835,8.245565534240962
17.032094271281697,97.31329904678468,2.6876188606337235
39.808651994655904,77.8651455301334,3.5022519320324483
57.531340067677405,55.0521958149801,9.611747560409546
65.43452041190484,32.316171129910245,14.987943608742446
60.1677939764973,12.506226747041076,19.184471465833614
40.78453819692578,2.6909390841482574,21.858681690820667
9.039780782927348,12.958608329681265,22.75624200708298
30.99087234437886,19.17301100802549,21.837565054811762
73.73178619418103,22.9608405910145,19.274162966674126
113.04517801293126,26.200821090658067,15.3902742499285
143.0545180582558,30.6330638930741,10.694348867020187
158.81297333302788,37.59015365650661,5.8490944395896225
156.8780993170565,47.76810198447128,1.5368456681416898
135.82833898529478,60.95309789593971,1.6741968633418343
96.6383272503267,75.74351011181646,3.4576066074980534
42.77202184370182,89.46309422391302,3.8238419420792074
20.114865148469992,98.51067210140643,3.1453859305588145
84.87724752354833,99.26864602660218,2.057764317354654
143.85012719674876,89.3494151685365,1.2433985835860155
189.8899716136631,68.65811646604183,1.249511005285913
217.3439538293708,39.73827151010792,2.346015297336597
222.86322426957562,7.144501128057984,4.471393889095495
205.98300261468205,23.926588931665076,7.3779195231035075
169.35052569529336,49.15268130674526,10.734563809433224
118.44835487771628,66.06716119820683,14.06108678678723
60.697746950407954,74.10573163041109,16.761629043640735
4.037312058844996,73.9170852229715,18.326050020503853
44.66324476973002,66.51305183230858,18.42807631185974
80.86807987066514,52.83714532099123,16.914950688683977
102.87833923603067,33.997111672428936,13.884301511462914
111.44766905716712,11.856235733019528,9.730941985277473
108.83861191806129,10.608943059640595,5.077803458964301
97.86724096942413,29.647708138880017,0.5925014171569261
81.37183738978813,41.775393061908076,3.221296731699884
62.197782483804495,44.99978809484893,6.029737049961423
43.39845871341488,39.52382777133058,7.6760412879797135
28.184138411309817,27.47054788203081,8.328403941787565
19.341221445147447,11.773313774158161,8.408994038640483
18.278165561670615,5.114257180192962,8.322903879349557
24.218646492732322,21.940971612249243,8.324564788849825
34.11446204704172,38.426797189023524,8.505732146103341
43.51299743261812,54.3115272351342,8.828618129652703
48.055467079841186,68.3648076040236,9.190889572082076
44.907407895096036,78.07928154342149,9.432064566598175
33.451202512228775,80.33190005877044,9.35186241274484
15.000195615139786,72.65616687603162,8.780131934825492
8.125415715305614,54.44439411293043,7.598113850658319
33.5185742301112,27.453093123399874,5.7396400358898525
59.052427336291494,4.635222455195424,3.233544693757973
82.58544584360085,37.28160194528125,0.28617716530039305
101.44656680245178,66.19930820447732,2.710380695449644
112.31563602571417,88.02668646301028,5.351113127834439
111.85101640703421,100.44986032917345,7.349733162752449
97.92174719350828,102.04495560188721,8.489427978136362
70.81039086765466,92.22261169740538,8.63554883186108
33.66267834105411,71.46742053418657,7.905157817491312
8.146325265395411,41.7359843946715,6.6899107201874966
48.459576496721326,6.646681873999099,5.369913375620372
81.91731481452007,28.862898202509374,4.138177455297634
104.97295820085888,59.463485250318065,3.1013644781342125
116.01401344724019,80.64568459066206,2.2996028014715058
114.82154272565646,89.7167930198925,1.6755936322271787
101.92261454355321,86.19620538542866,1.1427296175174577
78.32035985493923,71.55139203658602,0.6397939855124415
45.73864997458281,48.53190483566493,0.1443425592163523
7.0745279207205485,20.48345835089622,0.34117870480182466
33.40827327228462,9.07735529213629,0.8436988485892291
70.44884813372032,36.603848784657636,1.4519696106694164
98.69012757713992,58.58390878569392,2.245224038592107
113.755337182678,71.79634206222869,3.175203453191481
113.1034862412178,73.88559803087169,4.036239357101281
96.431601581342,64.12238098511791,4.5586019688514865
65.62728088249936,43.98824899118465,4.5315925060889475
24.46047266532313,17.191317211400836,3.9010354851325486
21.835718560844672,11.042690844864193,2.8576846068571133
67.07780986739994,35.23401273173775,1.7266274131355763
104.8315538554215,51.04560103518808,0.6741557718288316
129.3496556861104,56.28895240725907,0.3031341482149612
136.56062127595527,51.16844169098091,1.1330434383456383
124.80706631383055,37.75726928910457,1.6281365181795848
95.10019275000441,19.052085967628603,1.6709330750625158
50.814418353956526,1.9022087306059015,1.2977850376924567
2.9949862803669576,22.455385953319144,0.564447201528045
60.3195092137237,40.301645627611386,0.494643379548086
114.73375404669193,53.19652868967207,1.7381529763951735
159.76214384509225,58.875269633128376,2.929332645290474
189.34841576624274,55.45208601665981,3.775653837972315
198.65757185846712,42.21573281318444,3.9523052624736765
185.15094588698437,20.411262952313486,3.316669637049126
149.5829843884768,6.532664672118856,1.988526688511054
96.37806002987587,33.64993204039257,0.18269706257968318
32.9865229955767,55.79200234007396,1.8487637751332908
31.706426880903116,69.0907141300179,3.9261461062076144
89.37141803746667,71.87328674778183,6.1024815000417805
133.87167218509384,64.67930490054606,8.379038611266248
161.96306222670486,49.474209593906636,10.389250011342366
172.9620733406857,28.633650105897548,11.608195259885216
167.8415203478394,4.354541870895535,11.631901565820964
148.41140682639949,21.259577003200082,10.286732525771935
117.00943930671508,45.68510378952348,7.603861565939389
76.75270255674518,65.63491608700228,3.69131851528453
31.98292964372904,77.40645212846184,1.1423920302224748
11.671722636487416,77.96169556058547,6.290514775412757
47.97089240999189,66.2468142528523,11.110348206331171
71.38032020482525,43.971072259176864,15.085247961691449
78.52257874697897,15.302360223255368,17.837615895205325
69.14251283871897,14.450214412223623,19.136303005112538
46.204826880487836,40.53031055417539,18.757329889683866
15.084848911858055,59.95102242292557,16.508348790844984
17.797026229493397,71.68392382216268,12.474873225783044
46.33575475236401,75.92373620995978,7.083239036608944
65.6665937825704,73.09417205773727,1.0461305600867767
72.53812566178331,63.31528568536973,4.741110171086082
65.31572775247116,46.64951549736847,9.508300041444096
43.927897752681666,23.916860132662755,12.876720081334447
9.981780874262599,2.589279518219124,14.820234455345599
32.975576434874334,29.122449299429977,15.478680173424234
79.32160313791086,51.34012270154394,15.008892901442396
122.5333423223748,66.28519439151503,13.62949185796981
156.56303378016963,73.08113160506947,11.68630263360968
176.68504277026423,72.15050009437047,9.513528791511252
180.57818100368598,64.82757658328723,7.327856984543418
168.8577390835156,52.79170268098327,5.298166872472428
144.84941911180118,37.65525171344866,3.6189464587887423
113.66012641854867,20.901515142820024,2.4586690933900073
80.85052904913935,4.09141675580746,1.8650548152756912
18.51314854845896,17.698877110791084,0.5527479160188439
11.040332843761641,11.0243129956123,0.8166597589391003
1.2601906577677549,0.5692834370939788,0.851391331680307
17.184584817027275,16.397955439583058,0.470748791511229
34.96414396458715,34.581040355000226,0.3575415744473168
52.39675813720703,52.34215585723105,1.4566250765498168
66.80226733094104,66.6012888814825,2.5732884216431797
75.01004027199869,74.58078252496423,3.511902258926463
73.64824128028978,74.31972035674806,4.197606594833444
59.93235181387983,64.91019639789515,4.600866334155411
32.75225502163715,46.553744661087904,4.652195802868414
6.359406875830342,20.695370009994175,4.267550253182745
52.731951795829026,9.820516054277865,3.3705191876568765
98.81034262771337,41.3317671458553,1.95516126874781
135.73512920926981,70.27141016963802,0.1264132594633792
155.94983975242303,93.26826457317642,1.9777567241357943
155.1478781679572,107.39775299425929,4.21001860660554
132.89111149540562,110.89453830205044,6.38541181426521
92.18785416465934,103.44311360387691,8.316500824724185
38.27409730875918,86.27298937792587,9.84634346112437
22.58087415785505,61.85604775192421,10.820904908874935
83.77865857307515,33.24704918210604,11.141418672761203
138.7222581523199,3.5850476923451455,10.84684427465705
181.04336051093568,24.275772431081194,9.974366024463597
205.20263223158145,47.858501569660746,8.444954462295128
207.50130397038208,65.06676864647547,6.204702888577333
187.14246702420684,74.3302578171695,3.395753662772748
146.8005023157495,74.8485195824098,0.371990361247248
92.22507116984849,66.91745261998496,2.491522584598192
30.931090099737933,52.06060297109048,4.915497526838165
29.55515423534995,32.827193870866,6.642387273114969
83.2083679939023,12.285740293711635,7.540054677385875
126.25095729518989,6.622654242291657,7.732977654290301
157.0319012176362,21.563560139299486,7.447689711560873
175.29947741304707,31.01037873998507,6.8789964966466535
181.3979033027368,34.18105073494551,6.186931795073123
175.82279006655443,30.865160917220237,5.490949207052894
159.23720472528296,21.343175768442503,4.969916931595198
132.80429250232288,6.444003029327496,4.917060344155262
98.54262384867151,12.32191498806866,5.587437174715613
59.45046913249222,32.733837703056274,7.056975743182035
19.317388315361065,52.087037684198485,9.16499948666631
17.744531987641217,67.63197777063931,11.5309445236491
47.928764114449294,77.06280874501404,13.650390125648334
68.39056086529858,78.85656491617587,15.012030780693896
77.83914001578988,72.34696704091037,15.25393555789766
76.93430356146546,57.604357009249334,14.190340473455155
68.34507370710794,35.31276560449896,11.670624215258892
56.350393968472815,6.806711160281976,7.610392050532841
45.951138000294804,25.714953713983615,2.184338434596796
41.67372016818085,58.98186122159304,4.219694420362472
46.398131303636106,88.75494952339704,11.223176827036173
60.55713501662047,110.43891076050127,18.426408154438025
81.9560028720883,120.13789111911399,25.223567458655037
106.26958158386456,115.80912447566051,30.72993757432493
128.02609855636496,98.0146493635829,33.8703465110494
141.7590854814399,69.91058557750895,33.74570528028287
143.04828270481255,36.46037386506551,30.08983814048325
129.2327852079783,3.1869443810245475,23.473751802812213
99.72998734761381,25.02237219862842,15.101735891053831
56.0181463162328,44.63347622404999,6.368244577651872
1.3285083703351188,53.636665459192145,1.4488165009954432
59.84858469189035,51.40314431001697,7.446149831524855
122.29571703146068,38.56111011059503,11.184857784673747
180.52757933638094,17.099288182722827,12.497127815832904
229.08915756023464,9.442084899092476,11.632463392720185
262.73512190311203,36.038714847299595,9.499951222982622
276.6692498129367,56.79523151778172,7.384201440636694
266.99721884130383,66.16923182309995,6.4509192986688975
231.4671702450553,60.44431170472423,7.417217306409358
170.39995027723285,38.84463525829681,10.504250033924395
87.4523737734146,3.840014391356991,15.440174903489842
10.191042937121892,39.47479909404469,21.421073361145996
112.41857108083803,84.61103835207514,27.224901038182423
207.5351432964255,124.97083710588196,31.374383903113635
283.99516525247157,154.77271962942,32.40640845019567
332.0710853461884,169.5279238202326,29.308854509452726
345.1581738221377,166.29056747327726,21.917331383502162
320.6360701875137,143.97585584892812,10.977599686667306
260.37268102325345,103.80854222040197,2.1138946963412555
170.91046625286592,49.683829318436324,15.59324964841191
63.16524959720132,11.93109406889125,27.7427254576548
48.68147629253711,72.8469779257988,37.15050729675227
149.27427862354628,124.66839682032087,42.66097529284019
224.93245237346653,160.49483334247006,43.66859971686825
266.5619460059602,176.24263767047208,40.41321083692621
271.62339505445425,171.20424716872537,33.75962269880761
244.3753862097888,147.77294459557697,24.864005233136176
194.2632977775999,110.61550054038547,14.92638903327855
133.0324976925633,65.69318004920045,5.0491352713884625
71.68706344309821,19.374047456069835,3.893204570856412
18.36854535996436,22.30997833345938,11.344101110553893
22.330529497254282,54.351690022325236,16.981922337503192
48.82239739431652,73.43903145174684,20.658587021957374
61.48739365835936,78.4595297368022,22.389901349648966
61.86198646120488,70.64046114772916,22.377082932740894
52.38044996224591,53.16115700388863,20.976857397699685
36.483697608828095,30.294354236022652,18.57880923536191
18.58207431125082,6.427399324388401,15.578627406775052
3.510090137427932,14.694312817039618,12.345537814882436
4.496433297852529,30.31973459125992,9.168624007419481
2.8724852368021425,38.67341162348656,6.256639127798129
8.668247706353293,38.82643757254267,3.7210112270775197
28.236886922242974,30.69772427734013,1.5948373054594374
52.49880697653272,15.236513632016914,0.1412849350780101
77.62125537522675,5.3926454458931286,1.5498020549169236
99.98585619971746,27.919675848010947,2.7036099912867386
116.49335271665893,48.49954012720165,3.6675756706872362
124.59919095280684,63.532666196385506,4.4796873530132695
122.36293153305917,70.47261461428556,5.135407494241457
108.68045912423776,68.29258179968119,5.623818793792848
83.67399672106467,57.46351493019706,5.969452050627575
49.034277025461414,39.57980620706251,6.215892100076301
8.03313162094988,16.919114471471296,6.387086213249044
34.88919345848307,7.873535744174331,6.4833588480970725
74.83782393951125,31.935717473180453,6.498433024379172
107.24647188814582,52.29792406868775,6.422941311242496
128.51574196088418,66.16371982325074,6.237629594832929
136.4201399171791,71.38957636445599,5.922223789842505
130.30236172356163,67.02345304338878,5.469971832066416
111.14320228892137,53.65998248904535,4.8741551081737065
81.53257332221918,33.39314594630114,4.118402693596959
45.44651364958622,9.378470270380312,3.202267489198112
7.768585098846019,14.832951852769353,2.1745779626959028
26.41958763874653,35.94993587121643,1.1371918092125919
52.669590751149414,51.365841715751976,0.19636564085595937
67.89658982879749,59.339323589170505,0.5618782055289933
70.77457704723365,59.04072789535959,1.0510037774480954
61.72595529834447,50.54676783602749,1.2720248679694919
42.605959955384826,34.82561188148475,1.369276720009989
16.24247257303406,13.682149637599881,1.487517704940829
14.001461286146231,10.41411515874876,1.7471633802886959
44.53333781721967,34.612255559130425,2.2988204088938113
71.72119473630056,55.980633512121045,3.2232877453528226
92.05093169070119,71.75269048348441,4.503909977483613
102.33578504239577,79.51257939266387,6.088840914172227
100.03632709880864,77.41773415632271,7.9008545146091755
83.68260899203358,64.58389845676218,9.77081789593721
53.36049598946824,41.58658808155013,11.384152237381668
11.174836335054401,10.85337020740097,12.348549947259414
38.48817599960915,23.35260152754363,12.252824020978881
89.0939367050146,55.61400499004332,10.788834748788126
134.477688552788,81.58631899105718,7.997907174826705
170.3927655837915,98.8325356711773,4.234291236060165
193.839484609392,106.06035270109071,0.04878214092674644
203.24203266463596,103.23055788422789,4.359840488192995
198.53617541708613,91.48102234310986,8.19603740733873
181.14722023595505,72.90041400991979,11.173539439900614
153.8291404359878,50.22022020627188,13.113222161621403
120.34331848079867,26.480572127002247,13.928738889009825
67.49538917649667,6.987076162172721,0.3897294580433608
50.206080529799294,3.5747010220573006,0.26241584731580514
19.250613724631876,2.5835275793073227,0.7125382798062425
23.0747377996688,9.301920671157266,0.7847052750135388
72.45132398866397,13.969114001303073,0.4881219466285089
123.08236561911535,14.683223060030736,0.04807734701649778
168.36949938946103,10.989068271574867,0.692475279093944
201.6522868074049,3.9421988658998717,1.3357411445385001
217.0949368698808,4.528107310634981,1.8298548274196338
210.59916719191403,12.424359343595679,1.9834287350455266
180.58314252632562,18.264578252328516,1.633853388247902
128.68716150079504,21.37087725547416,0.7401044493702346
60.36913386625352,21.77351608331797,0.5515069930127459
15.725419457086748,19.354361505150223,2.0535647716992136
90.07483188517118,13.232087498070875,3.652421240569352
154.41878957573013,2.794313645685157,5.127780931214951
202.81174167159162,11.008432621121317,6.120626836606027
231.9854130318575,25.342166334792577,6.289302422649649
240.9690368980096,36.0133226583513,5.42826227051957
230.5571313461737,39.062673293576545,3.6335984417657565
203.0442250083922,32.513337244317576,1.288686371026677
162.08926484248133,17.273116022692026,1.0944658682730422
112.62261175247752,3.0915933380227933,3.0123970487833094
60.4270693199797,23.75291667318412,4.155122311379578
11.363167797956653,40.31011123291939,4.403682224559527
29.53903860289873,49.99477104326104,3.7479926877880447
58.83442348779384,51.992645276279035,2.3379584570892877
74.93499050821845,46.892393233415504,0.4587331516192081
77.966917002071,35.88669204695069,1.5494396985303627
69.42328991066056,20.205672574306924,3.3221573159474755
51.866009506158434,1.0578627692015632,4.572599727496301
28.809683866963844,20.036835130548546,5.249597713253234
4.617697425583714,40.94547120554499,5.4286398746209885
15.833381500684332,58.9614040438754,5.085183031067133
27.887397174336158,71.30772269132812,4.16402155971294
28.121891287953986,75.85977091816812,2.6927355114712137
15.266789523822453,71.7225838276869,0.819741982879396
9.368450887562862,59.439681821805856,1.2101345628728046
42.188248518837106,40.77763386830022,3.2174788774481327
78.20120001628871,18.248397254320583,5.085872160478542
112.13971781415326,5.410631882649301,6.709335851115338
139.40953253102361,27.624016759965357,8.021625646055972
156.62346745735965,46.164455498442656,8.945929783175718
161.74975259207258,59.21872847326993,9.48798022629728
154.03836717425483,65.46991265515835,9.76152957332447
133.87897761054265,64.25982516722857,9.771058771025643
102.64533951156855,55.78178730299042,9.414792225500307
62.47814144305488,41.22020875524871,8.632931079893636
15.998198554554117,22.742449036695017,7.421312656370501
33.94251192870744,3.259959139195656,5.804988977589576
84.29439761990965,14.035866308497283,3.838591460481925
131.56484311352108,26.2693031416703,1.6459806658234133
171.4759939460884,31.44247693921673,0.5832860975280989
198.8975492347408,28.79728823569761,2.6520891837292706
208.43173820327416,18.904336631030624,4.36621417162812
195.72441307070645,3.487688912188129,5.559217520113192
159.1264447990486,14.923609232233721,6.150374745328762
101.02034384998694,33.374618599603515,6.167159868969025
28.109092040784205,48.82205008813155,5.75852349567826
49.633825876129784,58.43348653154888,5.16713878169984
121.02970971447068,59.89773215899231,4.636583755441811
176.02635155933226,51.803069320480716,4.384070768499658
207.51390033590698,34.027162667113295,4.629400804060967
212.20502520436904,7.9911306422340935,5.50413963949373
190.66645707652555,23.372632299849936,6.916977361006532
146.87624234499333,56.02684757917425,8.593847359171024
87.62699442148862,85.52951680472282,10.258787850652064
21.812158450829795,107.81178973330256,11.723256676982507
40.634324569769745,119.81382411848051,12.811100854163783
90.34003470132097,119.83634231765681,13.271261408599687
120.44317332749746,107.60641252431776,12.792599766853971
128.27619362391974,84.18683794579098,11.100764324830065
116.0485007298582,51.84210821291962,8.039196032362605
90.08659615616558,13.879963215254834,3.6436921761330043
58.85370508616139,25.581342282128144,1.7714313689336463
30.569683919804763,62.029162497559476,7.586741213889293
11.374129599380387,91.1783959787418,12.974969691573465
4.627077285497659,109.66388481084512,17.19589234473792
11.255631305474658,115.60474316399201,19.841951368311065
30.459914958204315,108.8519022231181,20.818529687724165
60.06842957488419,90.88430295768651,20.273020844632338
96.31038474120383,64.47741246800756,18.496153568562928
133.40040273845364,33.29406477737005,15.797761332760013
163.69107188162968,1.5111442191251108,12.492452593321676
178.91260884397556,26.53660670523257,8.886734752044678
172.31144969061242,46.81956475399041,5.298643242984159
140.82593405705745,56.24793480200643,2.0790833944914215
86.25610378943159,53.38633799282262,0.5322470247076718
14.854759621820575,38.992274854668686,2.5061679698174104
64.39965443075363,16.0977654096504,4.03000725492409
141.96018828337716,10.501268976039281,5.478726111570929
209.3280264883975,35.24474350746203,7.246950350783572
259.67748599984674,52.96169071462781,9.602286098555302
287.8125251364105,59.823386103967266,12.603533377100545
290.17202262798656,53.908414267069,15.962323696521564
265.39794455710677,35.38105387814645,19.053783922679617
215.3725922333438,6.426246145960646,21.19514219154343
145.9954003099907,28.921168954000912,21.88740063443406
66.86183799724826,65.07080993367047,20.888582895186527
10.454641492275774,95.4831422541801,18.217921488729612
75.05639311000976,113.7216813298955,14.077883877616136
119.25812435799232,114.85349813445589,8.78166368455961
139.94395089903952,96.87434380671243,2.743484449550842
138.35065566011863,61.61949171287,3.5624267865259127
118.69176174917838,14.675356031472338,9.658636163128167
86.51105023904286,35.78947731618011,15.08014659778535
47.57338061980991,80.91085751770366,19.428226752858567
7.517549601150173,113.0947176086763,22.45348688781152
28.108319363774356,127.43006690512944,24.064191552731216
54.02398152113047,122.22527086518686,24.3412905405125
65.93774423955074,98.7650899532072,23.515077979745136
61.60324644269057,60.66674479035812,21.86652684244675
41.641254643725894,13.214737249493771,19.688942651493647
9.588662707015265,37.19456450121092,17.21191989919492
28.95244966506076,83.60845857769915,14.52851188212501
67.67178051247126,119.27182794402806,11.627738282727119
100.8111337011513,138.68617366358265,8.444172499785859
123.90288702135534,138.76139299721405,4.964425946124803
133.97954358032055,119.61121639610826,1.2651090996612302
129.57202875121058,84.60820726540612,2.616937946072416
110.79953421741651,39.58196335197155,6.736395751584736
79.61350244810454,8.586031244902841,11.115977485732559
39.92094632731517,53.44669112887542,15.612342110600608
2.7838887436315973,90.01194296255912,19.900699749901502
42.38358044939893,115.08223435871375,23.52976976063889
73.44997418176351,127.03576567469118,26.004502718475454
92.37952556055633,125.44920556118407,26.932070812557363
97.87921772491032,110.89605698179804,26.14547987532603
90.70627803716732,85.05122335003001,23.742880197973875
72.96598029302962,50.90270256700052,20.04954479429437
47.47149144587619,12.74540749862313,15.52633809272745
17.47499533456199,24.265574759874198,10.694702551180583
13.275449376300044,55.00309956727014,6.035566691333254
40.47076611389655,75.40761368351599,1.9008110136942318
59.57300379778648,83.29184298925769,1.4946508784213417
66.66705340365901,78.64869725021539,4.062358057294883
59.56518795114098,63.40255251906331,5.7824205441507965
38.687250340515725,40.78988806951163,6.698470713103311
7.265999331058466,14.667877477970759,7.013652643814295
29.239350421157923,11.047667552578698,7.04804355084504
64.27737308329566,32.76985015700202,7.09116891241908
91.4741152737903,47.51216389453893,7.373018772670542
106.87731965076271,53.55362556082471,7.966838546302247
109.66710100425213,50.79396793765891,8.743957077469238
100.96904575280674,40.541687822952184,9.506097458578733
83.26597630818358,25.30744327932737,10.064182268471392
59.79256087820169,8.281812355478891,10.301178930219656
34.03380441007882,7.394954286897753,10.18506286726452
9.328697250695456,19.333452575737876,9.700506184032886
11.486683257789295,26.326289380524038,8.847169158501776
54.70393308711901,30.85893854148618,5.66155274541828
40.056608211684214,24.01269526566291,4.399531058534039
13.070289424068783,10.711982551541594,2.0141397384322146
24.67810704751671,8.095989151953896,1.3172949932426157
69.40242888669148,30.419420004264094,5.233333638818586
115.39904555728072,53.62722644752011,9.26775629737203
155.65424936341375,74.91299822444942,12.878620097921804
182.7355451273862,91.67228396124479,15.565525775570038
190.03426742861961,101.78952808027293,17.014811518236762
173.1793034912652,103.79888799715535,17.070227891321764
131.33882778725393,96.94354960756378,15.553567967581683
68.1863897031801,81.23635263566953,12.222480862291446
7.77950842448155,57.57575424671418,6.987269322458652
84.66869477916227,27.53384388213442,0.10371692246632652
150.31456937701566,7.176848518709604,7.762416552795182
195.0492797958322,44.84593635317502,15.512809764793488
213.51543668565157,83.59732597346107,21.947419753524716
205.41124631147355,121.19973370335444,26.250214810958706
174.6901444825508,154.83076374587068,27.92388604949056
128.0487506268441,181.1528635720969,26.62351615093931
73.36139902867876,196.71694152343767,22.312704643880767
18.428633719436064,198.49872198503303,15.288253746276798
29.658087918087745,184.43317837970062,6.196747052352425
64.96155673069688,153.71736559756053,3.9426755670937035
83.19394679614038,106.98789794407887,13.932941755625471
82.37389478151603,46.531570761462646,22.559831714411185
63.49525388610942,23.397778009615262,28.721204658890603
30.71529685017236,96.29771752676645,31.531844458861226
9.233959076454466,163.65027843079167,30.438587947215016
48.463582902778704,216.03015868552197,25.487359205526765
79.7482042320816,245.11560203944987,17.442394048844722
98.09096577311426,246.04795918509961,7.656141668348098
101.48306403818849,219.11733810915058,2.21859738132068
90.6295251406362,169.9055414256056,10.66951381708037
67.91611450609308,107.64416355970349,16.65443969373049
36.16074291487646,42.44533514524657,19.5921445074629
2.228981016139415,17.327804420122664,19.281506331146048
45.33588236780817,66.41609634499157,16.117162732719894
91.16052779941221,102.39222440276981,11.153643481631697
136.81627179236062,124.37409317794135,5.768925593805507
178.05606021407678,131.86030187825153,1.331921662674173
209.5459367296643,124.59712501414735,1.1863028062459557
225.91458264108937,103.51993417644442,1.39473765246005
223.19610634433877,71.9184917479777,0.6314498157955643
200.0691862484839,35.69388454187701,4.339834880567122
158.36271988858894,2.071626168948876,8.847370420532544
102.61730782797008,22.797083399382668,13.16822157025111
38.935278857532225,36.04978947209063,16.296606230461986
26.349204172002064,38.870874253039815,17.40864731308728
87.60606121948923,35.323911218163516,16.02046707000897
140.1849034941623,29.925134105113724,12.041144397449095
180.21560155796342,25.39464614920355,5.888798039574978
204.37459415592681,21.86039487583997,1.499237829937454
210.07842052277243,17.838845829385328,8.930204646898442
196.2458946765464,12.170393372078308,15.297340400718483
164.284130152267,5.515815159749651,19.779985335138957
118.68388798157034,0.37664590903530737,21.982584351688466
66.6725134755544,0.4013426031574019,21.996758719580424
16.80600409168871,4.33801839570618,20.262827468902408
23.07856046900778,12.827733891108075,17.336685197995436
47.78826352700858,20.78594183386944,13.75844808747998
55.82552407808907,23.321010814515965,9.98144240712971
49.26715814279876,17.315362410599892,6.2768503977176735
32.699651465580224,3.018624352423029,2.7883009832864762
11.770133068360883,15.94986212387765,0.32015694289629565
8.03791258795909,34.09194798125244,2.8669668002895983
22.123787831428842,46.18967265329155,4.718900864558475
27.072926945045197,49.130622897156925,5.794402738062313
20.818641594719267,42.7140637294854,6.107022151485519
2.8890801944408984,29.316822995080237,5.8295927556341445
25.302662692319732,12.787073121700566,5.165589957667664
60.34792336612432,2.8512486909258836,4.227900662199104
97.11878422381257,14.41772935663882,3.1272939097410903
129.48706681686008,20.113050109885936,1.972204652575861
151.30269491404567,19.559035743810952,0.8136006090073008
157.34478970853957,13.500153554955274,0.2925561870542187
144.04350368307698,3.3821136950491932,1.242722724206803
109.95013197818378,9.040811528348678,1.934677382461455
56.072046423083044,21.929534515792863,2.350564805987383
13.846065426284893,33.37723569518474,2.486303863482872
93.15571436495863,41.38292491473965,2.2629569631684188
172.52106220865022,44.00676284738028,1.6902760430590444
240.8119631599362,39.811520216828555,0.8970531933708578
286.7133204259389,28.495221489322525,0.11904802600084485
300.83177689278006,11.398772464481217,1.482692387574781
277.7994395598263,8.542582992909702,3.1933156901426667
217.74533716547873,27.602149543404614,5.088657149764441
126.70657069344736,42.552707084946015,6.877478195269639
15.840114588089056,51.81227867100386,8.207395994772234
100.37235658441686,55.771132676141505,8.962758089007831
206.49998898790454,56.04708966198772,9.279910722234769
288.67294751800387,54.0568280129449,9.25479681690108
336.78828137403013,49.78590946825415,8.925404011735
346.05061867372245,41.63010982284999,8.274724011435485
317.61995741312126,27.519999306242138,7.208749070124283
258.22457482354594,6.7298925401443865,5.740905274744789
178.76267694941635,18.698881762602372,4.005715957742284
92.14975937361277,43.9080341545341,2.1855005951100335
10.841454748527037,62.784461391557045,0.5246661291687671
55.44606998002057,70.36989683795515,0.8390763280261876
101.29339860622036,64.83565771389466,1.9574144161354474
126.08615683436328,48.00171657520308,2.9281342679675246
133.44360704146467,24.22231881908948,3.9106517902119
129.73366736646497,1.5795193777784122,5.090070340501129
122.0497300206819,25.533636971179096,6.413768122057749
116.18565297706297,45.282873764918065,7.618318575011369
115.12630426766638,59.31848570128914,8.475852945541082
118.4740058798479,66.02203840162355,8.87349050523223
122.99316130297778,63.39889069740355,8.907178568490492
124.10154074941515,49.92436021312113,8.870059604195891
117.82192630395713,26.025318777985543,9.010767319185527
102.47573171680887,4.896611077621452,9.395046849788628
79.47045674146528,36.801475523338176,9.89789559602359
52.90170345148197,62.80805855702664,10.228410178532004
28.104191438278374,77.64557088298211,10.063751774564821
9.702426378747191,79.45073258930537,9.243618992851383
0.06871763502690041,69.95221028647914,7.826277969900902
2.172534853002229,53.039499507411215,6.023538928214374
0.47900004502213867,32.633200407184376,4.126694075405666
0.531696190841793,11.123313681837377,2.3107629725595165
7.849072220155125,10.80864739761111,0.517938167191246
26.313755558639777,33.12426643784375,1.4057873820225946
57.030035117455604,55.0551848178289,3.599485798684019
97.82473208846447,74.41267922593768,6.078464487827863
143.43384862489867,88.0477097393302,8.671550805494336
186.30910427726036,93.17064607983386,11.132595833238534
217.92100145116322,88.60241799384882,13.201955174801512
230.40397985283485,75.1492224497222,14.720952125420759
218.27931931474365,54.96060298688245,15.76151567085173
179.89096570912378,30.399888957727967,16.476052063692016
118.15598511560952,3.2743985368124053,16.89705848463324
40.34077443967002,25.110839669297416,16.906875934591394
43.126122616259224,53.24681667124464,16.252360021907606
120.55344473463171,78.66886097237955,14.595943238162569
181.16759936082093,97.87019739082916,11.736253378641793
217.04598951795245,107.13576761490842,7.767295229994919
224.42681071212849,103.90040415122854,3.0149252391021397
204.1888174686449,87.8903148883259,1.9969528546038326
161.45140345222322,61.42968261274704,6.658830327452406
104.45302680320468,28.795294033097782,10.500380285520283
42.9602453189649,4.9691584796094475,13.236006832552087
13.492346195156173,35.158220181118864,14.713342044887922
57.83492931124104,58.28696945620198,14.92129160721548
86.47700199024744,72.47122256038664,13.956889534129798
98.84462932702185,77.25991163249526,11.962948805848951
96.89305635991325,73.39636402854427,9.124347815178389
84.24266686454912,62.61280289112743,5.761566770895815
65.19290846738907,47.429336083053045,2.381618805728426
43.86495712220331,30.828725868730647,0.4779886273241073
23.621184465953352,15.708099672431649,2.4491094597903333
26.185148870831462,23.418174043610286,6.850892509807478
21.59016980880543,23.658691042913013,6.306472854244995
11.543153881636647,19.644084460798645,4.709462174322464
3.776976059317568,10.727600803416111,2.0797138724638686
23.21347948792776,3.127737100090106,1.4203017203878119
44.75761265124501,21.102096508299425,5.450128962597556
65.82594933460634,41.34322408997918,9.523952627076826
83.55999181324819,61.06025092716539,13.104513888223513
95.12784376226368,76.94441658299176,15.750791823308074
97.9878552220808,85.88127144035033,17.209855445679224
90.20383727854718,85.66223999146702,17.35493468605598
70.96653633797975,75.39136363785273,16.149407401368638
41.25624714127128,55.55399141742142,13.713661931990394
3.9929933015978314,27.981872909407745,10.296505090155692
36.476951604372566,4.494159812641171,6.21732344880483
74.94322288383212,38.796833166596365,1.8348451856165762
106.15245259059951,71.9342986670917,2.5690049086354985
125.94413477368528,100.84046741504051,6.716825157158636
132.13720474143184,122.31449930792814,10.202621094895305
125.0565078521041,133.22161841264926,12.69207414722077
107.45574820625302,131.18856052955076,14.055636380468158
83.80347849742363,115.5350049525362,14.289828485456578
59.216026164167886,87.85415037361777,13.532482341461064
38.187026020638335,51.93596415220262,12.065809025925377
23.506169042959847,12.893799888251403,10.243995223541857
15.626480638015073,24.0817727961325,8.427885791221257
12.626339951148505,54.76747176879511,6.915552833004452
10.868111951897587,76.41582809713611,5.935987299055502
6.139399150705988,87.68137934006926,5.663313341960292
5.022718087752192,88.34533697328891,6.1143055916993125
24.219723511511546,79.18810197608204,7.0822580140794935
50.66405738370837,62.11084799502987,8.187531092241358
81.36723331202302,40.30338572584945,8.936654471874641
111.91119023868437,18.049858198212544,8.847503624797225
137.46922060104623,0.0452271142819599,7.577986294111632
153.7513752484109,10.258682061235303,4.967884125806946
157.6864256168991,10.862644838226927,1.1135151566245387
147.85733627304586,2.609038544101907,3.580138312628892
124.76531952448707,11.646684879479814,8.54612536565363
90.91916785727163,27.976585311334734,13.207652282969812
50.66276093414756,42.50198238758784,16.966557131486425
9.538787632174428,52.1214003406665,19.26296179703006
26.876560822816913,54.71033162881548,19.772788556908885
54.38348696688406,49.00355083359926,18.606520310533828
71.29997458049723,34.540210427733626,16.29214655875875
78.82448801734813,11.890819886907828,13.475391032553308
80.38742124240756,16.954091170745592,10.725651841936433
80.23891799856186,48.438809008164384,8.46103231259287
81.8913600315224,77.88553228407811,6.809704764755449
87.04129523651075,100.49677285897947,5.6394312269628895
95.31262508925535,112.53669465670838,4.69365498736494
104.72430149391707,112.15319204489923,3.6641644122762598
112.45860653944223,99.49169175074597,2.1996441022030107
115.52940585943153,76.18354106364087,0.10124020891862583
111.19421242709862,44.65398291058353,3.4939989820318846
97.25099971656132,7.745677755242775,7.8740528865765365
72.46490736830239,31.181632305733476,12.85609583219213
37.16353620699399,67.94926687677847,17.93986743885779
6.241148239937749,97.56933111695236,22.494073246118656
53.199605283825186,114.9671625319885,25.74442664878885
97.69144958222424,116.35054084762147,26.99927157717965
133.48998511406216,100.64559769701266,25.841670790121196
155.56415278474853,70.23962964014555,22.252894263412603
161.0783006016936,30.56504755298745,16.676064394663655
149.73453908236314,11.389861553131972,9.752936701615164
123.54550593535319,48.99313935491079,2.1421346710131832
86.33774026895287,77.42219891826015,5.476643897053748
43.272111231645354,94.13238223707906,12.531200975515668
0.37570371212102716,98.40467026498716,18.514625186853138
36.12799103124312,90.52346207326949,22.87977460944614
60.860918615160855,71.28574623558386,25.17513370056564
70.5648424112035,42.17635334908441,25.197717642288325
65.10520494001332,5.978162890428205,23.090495501314294
47.68519000427649,32.800931357925535,19.302938090925046
24.021082167211006,68.27756556454626,14.36681716063948
0.7157431751161722,94.46418684981012,8.81379390186119
16.489513674482446,107.00912051312014,3.2199235182023513
23.913289455721486,104.5677158608772,1.886403990308314
20.27131657602,89.08006478695349,6.070352723936499
6.327507876873324,64.79234265590765,8.945497939992595
15.655353665646151,36.553699470802464,10.272203068344677
42.2635235581602,8.28421942031378,10.047078500475205
69.0607120442677,17.659803198571982,8.451743769880622
90.85361733717461,40.057764799059306,5.8473312228269725
102.42813416569685,57.85861307068799,2.7684771033959366
99.75582182197566,69.50267250229993,0.1867907887403619
81.26936756994554,73.10037086395113,2.4608891410377605
48.56796414765642,67.45888306717744,3.6780958356435027
6.133949152235772,53.300089090349935,3.7545273778254846
39.85062737004488,33.77649902195182,2.8003452193614216
83.02836975791767,13.78347983582441,1.0494750962112969
118.03884493515082,1.72669913667397,1.1401852406481727
141.00296972654147,9.616832198912206,3.4155871486884184
149.45964327368188,9.64615975189461,5.478329999301725
142.19583508103827,4.194241212310589,7.02120022863023
119.39257388571937,3.16947939334668,7.785903898632558
83.07097392695509,9.427029183534877,7.698882678534948
37.41042605217339,13.20021051497,6.943788636281149
11.52199281668386,14.680659108110678,5.826953914486893
56.8071198152887,14.64930824389627,4.582763763652665
92.1716361347524,13.362390559500307,3.3940579930412484
113.31960690944089,10.101057176286384,2.441545330433708
118.54668278881697,3.6995026875011767,1.8924420319887925
108.51662896182444,6.328032624594591,1.9003956133862516
85.56598388987068,18.85085747174074,2.511902748265408
53.080283444031814,31.091387180750278,3.5815453489606583
15.279771514365118,39.67054516293285,4.806364322272858
22.691325122749163,42.190137515523006,5.79484773160117
54.8431788851209,38.45632709975185,6.163143437415339
75.04754421932753,30.61234710271011,5.633303545851646
78.42674265414144,22.063237936801332,4.063022925280003
62.955322671122126,15.774625510736646,1.4560985702122222
30.5551317584072,12.878662864796874,2.005988880933292
12.917899658258111,12.350573213301862,5.945657589205008
58.94099347558885,11.88048605744996,9.857733559042648
98.37318990356043,9.380013369410756,13.285103476818561
123.51393708514627,4.235561063592151,15.933895378207913
129.54236017969762,2.410889713952964,17.635509546199287
115.07371250030879,8.469675516264463,18.287485520560875
81.98305395970047,12.261091956788311,17.901412169378656
34.843326707791654,13.583687374008495,16.678147261146762
19.760435061200937,13.832036070156018,15.01324764365296
73.99464460928692,15.071054198998201,13.407776972093187
119.7327323048513,18.630635406504204,12.149158291398654
149.77613230507768,24.096907904620085,11.029170892754998
159.20552663841968,29.349592682793148,9.48593011341397
146.50108847337603,31.67745513882033,6.945668668093929
114.00018610234918,29.343951462090494,3.1245876292776824
67.43819632346064,22.676074570761177,1.8737145933973605
14.680779936886447,14.023777954317714,7.710062484380448
35.95300026489454,6.582148373424653,13.925824753315426
77.27865739719554,2.698077791722774,19.991878317583254
104.296606995728,2.6260305914711677,25.325728095163623
114.53596374085524,4.454802741832134,29.33489011614979
107.8494004225133,5.202486838146781,31.599032938686143
85.94289478638888,2.4364391020555503,31.923107187327776
51.90729517878487,4.493528504236952,30.244842258176828
9.88315244332245,14.272591901468125,26.64156031116319
35.18172268280896,24.483184678594544,21.377767201700635
77.82055763849154,32.90843034048712,14.921526598525137
112.51593083700436,38.462579425630494,7.925506598012668
134.36904937945536,41.21444641438586,1.152492325592029
141.00096387805772,41.750793192050345,4.717867787832178
132.99508791982726,40.286394856906774,9.371926646434641
112.65634472402105,36.22838534699278,12.875916325033595
83.58273949971218,28.64110504716868,15.415770738654635
50.0761931025,17.124466481125186,17.090036236548478
16.510438815874668,2.558440783641677,17.877184646618417
13.246476294404156,12.764248137797077,17.729135562802853
36.27848193013948,25.77688833547154,16.67164372066994
18.429798135528156,31.479557063518847,0.7824019357039872
15.932119078638934,31.927444586083354,0.14512959544713339
10.227269549608838,25.447753661032735,0.5451944541946536
1.0844496213115626,11.25386680487754,1.2030457835127508
11.414673740827727,9.802420249820347,1.715861494626803
26.753226946272033,35.22263334248157,2.0003617246198186
43.83814962249116,61.25890007667712,1.9978927391462291
60.890493225697035,83.60221372389393,1.6865873246445844
75.44599597737553,98.15518556127053,1.15042466037284
84.50601533184609,101.7433326978832,0.5140096657815871
84.92529752466652,92.62238664232063,0.12449110415878452
74.10982584456211,70.72616034882157,0.6599877005773969
50.935752497722206,37.75370284409899,0.9582871223162207
16.3574578196539,2.721248253580275,0.9186750358464422
26.56424668160599,45.4103897526854,0.5499094222192946
72.84430834318574,84.16403381385966,0.053875831875015164
116.09260102923128,113.15535155861713,0.7582770480064921
149.54129674607117,128.0148656975829,1.4136440963903598
167.2480796956805,126.74600614883074,1.8948704789129585
165.3027968241802,110.05996853293775,2.123180914017249
142.71138947510167,81.09856818735646,2.0646300678608864
101.66866315997858,44.68621198138787,1.73007765571505
47.25585087560043,6.316831911456408,1.2100101501645537
13.386939373871753,28.787944102548554,0.6231679121334052
72.18996801641399,56.37441975654232,0.01812355857364664
121.35261421254685,73.52079148249915,0.5340812173591065
154.4554510434986,78.75055009366092,0.8886312637559498
167.35917810659373,72.04285892511373,0.9560554187713697
158.83666559097617,54.78832483354502,0.7467139740323449
130.81222164542226,29.691156967502426,0.336571173537346
88.11367200481192,0.5058231463134577,0.2356969111533245
37.68767463903291,28.453475478892504,1.0802706312944643
12.681528002846663,52.970649602586676,2.3255021040890855
55.87847768443745,69.6098580229355,3.9025166469287345
86.80410623555653,76.19771390338501,5.438840709868733
103.1712467561685,71.98572984321939,6.285454982972398
105.50614655460956,57.532450771717656,5.810149217236285
96.39655215464516,34.452841899527485,3.7123138269967044
79.30043140395847,5.204250936453722,0.09257156689533709
57.42437070784427,27.046154029565802,4.58097684022207
33.09388756767622,58.55733740355565,9.598375900331238
7.772347007921598,85.29927204280523,14.2044716930196
17.404540838568927,103.463386927739,17.657197923681935
40.99190001985362,110.11166823506497,19.19336597203385
60.9414711128504,103.77063215660688,18.20204903696627
74.86643760377851,84.76844487082842,14.578939962106272
80.76605759719773,55.222537504706175,8.84521132217032
77.85123507875736,18.734806955754724,1.9448112267463655
67.04586154567804,20.052855421043002,5.00219415739556
50.88366297580534,55.92652176739448,10.833880627818003
32.82478749341278,83.62224526719552,14.430108351701632
16.264373477135575,98.4969994041767,14.99316258597239
3.5880675094050165,97.38649881796962,12.424869340227609
4.429552904595938,79.52144724007631,7.417766581334345
8.767046538225443,47.1717128180746,1.2867594709263965
11.85029906792979,5.629774008081628,4.449513321165507
16.874710763138715,37.69954981691741,8.551884635288882
26.87284482364242,74.95589754887281,10.189100758233572
43.67900746764509,99.69891116568206,9.009084484778342
67.05813674215408,108.35600119297109,5.220743233923792
94.32910936900475,100.75127126633348,0.5992199746080099
120.69272518748458,79.61249756633164,7.615548186445273
140.260166265274,49.37488382715248,14.67069960817568
147.5082045338194,14.820642504783276,20.391274881473944
138.65474856763828,19.926221015023103,23.605071111285028
112.46548702518118,51.78252525645916,23.802876530859805
70.29550265468315,78.57362569424521,21.23360446421572
15.55030279337314,98.72654564810429,16.692820845836614
47.01509824422524,111.08522870208158,11.214624870852582
111.80722616930055,114.9600998738514,5.859074651656637
172.66187905313888,110.33775347507124,1.5052254394242728
223.12278459984293,98.04454555492475,1.4831705301555138
257.08130947081173,79.67210497753321,3.3092699438985824
269.8651849060505,57.23950459343922,4.551408711384358
259.42547281162,32.7667649016748,5.864098860330227
226.99604997648774,8.000915702806255,7.609326689134502
176.71515313200686,15.589197998074619,9.886792328597235
114.26966398783514,36.59875992309792,12.689003779569127
45.24064301258208,53.44965237343806,15.884183958070095
25.943665214872333,64.4010721849107,19.21831193654068
95.88183060051922,67.94264290556495,22.275816339921278
161.12016926963412,63.48528658934963,24.574977058012863
216.99458794891498,52.06558922162164,25.718449205072826
257.4236642638314,36.6328505187218,25.474709131474675
276.16297261773553,21.607828964017173,23.900770288011035
269.0710727585841,11.746669965326019,21.28419417905904
236.2420531605736,10.66803909891011,17.979408646104332
182.78687906846716,19.594426769362805,14.298053778143412
117.733734375148,36.81405156986774,10.478629071006958
51.54244969058893,58.087454169397915,6.6983687924425785
6.621958555094594,77.86440811378758,2.9276329725343047
50.68811817279229,90.8380351924716,1.1122303425473283
78.03170992113361,93.23732641939259,5.779740689057069
88.71386150274039,83.48859072932478,11.357810318896322
84.42940566883003,62.197051713482445,17.83430060507488
67.92146377375126,31.63514565708608,24.794210735696335
42.982843707095334,4.913979857457463,31.617467850512117
14.590940735848509,43.662067953148465,37.65336944345746
11.39286099442674,80.61411718489192,42.17059985885335
29.225059153745317,111.78262129842089,44.4202293828037
34.66091242504775,133.49752135370042,43.93176515339902
26.06460102174062,142.90608346436963,40.655937048246614
4.7032172121642715,138.55100909334183,34.93357630066124
25.88330501326468,120.80160449768405,27.429340879060927
61.007382403425446,91.92991638878416,18.93464650140444
95.8645855003395,55.74226864807266,10.142861898456388
126.08822339501371,16.87294876746665,1.4950279911559745
147.8804468473716,20.028971773204646,6.792836376240098
158.09664458282248,50.970843890356626,14.52702427851775
154.5673270416011,72.99637437821816,21.468009483691134
136.65347738819088,84.30978093272576,27.327895922496122
105.70402623131928,84.30380151148762,31.77060814496271
65.02697356424628,73.61178364225556,34.5843379010127
19.28630239433612,54.15945046127904,35.74812904971565
26.44396650596219,29.094200382439567,35.31234997264842
67.5247449698096,2.4435843400786625,33.41106778768414
100.14286394462866,21.54710205088886,30.28154759938337
121.28957209460668,39.241467502808376,26.133531683903136
128.69077726937385,48.307695348962014,21.15904691717278
121.0446251943918,48.00947127453255,15.655365989879058
98.61279139555552,39.02541503535903,9.990098532600376
63.83561262277913,22.97548245795372,4.536667905787505
21.437024574944797,1.9514280633815346,0.35556385295729825
22.300155474159588,21.69021988443691,4.401138001776865
60.90197857950218,45.24976464137282,7.422138728521017
89.13837778094445,65.57594244043003,9.454345160564776
103.85343932281607,79.2588389191748,10.734642980231543
103.87536339766088,83.27027177033172,11.558758792961031
89.28330923463643,75.87116705875081,12.225675817463616
60.670286442369225,57.36052959812816,12.910293338427863
19.04675123472841,30.213990102343995,13.518349459205707
33.44588212790858,1.5614858470878397,13.842868514970002
92.50291557048405,33.56093885917145,13.734505028063385
151.08525184760524,62.025573779355106,13.080795086604668
199.96725478435062,84.29086659827594,11.8793753695384
229.54419204691993,98.5356908559272,10.258063118880411
232.31813171243425,103.23129765986373,8.345051350258032
205.1021453363677,96.88893016427741,6.274619801526873
150.13295660149717,78.49938622195134,4.186477297035245
74.73965922204808,48.535758270313714,2.143121140108292
10.206288124886742,9.886423397963298,0.1876833182743673
92.39883515206886,32.01915965135998,1.6135155051179135
162.04575226088525,71.18161576474965,3.1931430944867834
213.04823223874396,102.78581460220435,4.463229736088444
241.37246072213725,123.6338787745694,5.33030159832256
245.24499867757663,132.67495372340855,5.735537564269892
225.51756653329343,130.8633714008717,5.712904725967439
185.98458800635083,120.45977418210353,5.437922959238145
133.27410573030014,104.145108566681,5.112097545738883
75.9957827369162,84.3808468820142,4.783856974059107
46.32869281623611,0.5637934003465306,3.3129273877833723
26.17619678587277,1.587246899691987,5.079590600395606
5.239229500652162,3.141756577208476,6.731166370481835
45.06863204527357,3.7775356594125276,7.817709570271618
88.42635406490162,2.120815046884023,7.980264826859766
129.13501150723633,2.243723241787008,7.109654483828338
160.78410807049292,8.362740543559202,5.228659693787333
177.75037044828977,14.23796477063893,2.3712268653356667
176.15815658226526,17.765688786563768,1.394288668025802
154.4324955642607,17.71126445783255,5.879902254578362
113.49218007224002,14.190710746358148,10.700030503830753
56.98083041152811,8.51013425320384,15.27741615896585
8.52302193883382,2.503350381066842,18.932799131310713
74.8823170275548,2.532117514259009,21.06158897298157
134.85237228896358,6.645300482605549,21.339193056739283
182.85999567446456,10.746262491289901,19.76752527422643
215.13131701948916,15.283020777073638,16.541843619126826
230.0106625541068,19.30604502551847,11.959027692894734
227.44505663852513,20.502053799888984,6.411729120447353
208.62702165222709,16.373150507320368,0.32547274298242734
175.7512885010076,5.871342830765139,5.881896716550898
131.7021637517908,9.5838997555221,11.805361266969093
80.13550038993755,26.321997255046288,17.081288266358495
25.376494864994537,39.846085675100014,21.317175575240594
27.80544211147155,46.59968041623483,24.086002044432185
74.65267008811487,45.09941562990482,25.119168050947493
111.17480895883695,35.89538637676581,24.41773028738559
134.79358436821406,20.53556200960192,22.21626120542389
144.7894309919749,0.42411521578378175,18.85909767955272
142.26953601910535,23.60542213098076,14.617493116324965
129.72872766702872,50.70727660094869,9.703045077758325
110.46580381063883,78.87375801567558,4.376283958965283
88.01961546299634,104.15558939382602,1.0911371548247368
65.83786359904147,120.99379039077051,6.411933203673853
47.06274392221458,123.79641191285263,11.2820970715409
34.27995706065445,109.08700847010878,15.440453282513493
29.10364579177333,77.11474244312785,18.64126404147702
31.611693272154106,32.10020065321576,20.69619091124736
39.956913151303,19.004953550091006,21.522748304428987
50.44887663188646,68.6137210249368,21.056544771572074
58.28751629605647,110.4426233327314,19.207957840377944
58.836024434944434,140.48021207618652,15.928465367108052
48.94196842592306,156.8339608486722,11.349714968195846
27.79547023196202,158.95704399760572,5.859135860734058
2.9711801581531367,146.98855778713536,0.03667199043295297
39.90067522655553,121.7135164679191,5.482815288589585
78.66866817594962,85.07023728777183,10.161953506002789
114.91677636651681,40.678250439678976,13.62755608102273
144.68497006118582,6.190779016928251,15.72124408786626
164.49847414813314,49.48441418477875,16.52079394690943
171.42204284544928,83.79441613180099,16.27616587660349
163.39109316610322,105.66749962371524,15.287316076995898
139.85576269220627,114.19533089948352,13.718391848897422
102.46267661032046,110.63481058535322,11.638671556830838
55.343575608708406,97.36566839516802,9.18393118304415
4.676451754621722,76.84545899898936,6.480209224389594
42.48686626082131,51.12496954648636,3.5990806360238707
79.77558136848754,22.09038181151431,0.6349542730015763
102.88323885834775,7.895602534765474,2.2867478543158613
110.30777167451005,35.56532154357903,5.056619517698016
103.29260613870343,56.99342968388073,7.591818077715876
85.143448224584,68.54516895356296,9.752480293714486
60.273668447576306,68.12113483875744,11.314816018389948
33.31400274831133,56.04112382855345,12.084826943502737
8.45423576820067,35.056238187260085,12.012172066020543
11.000733084588644,9.486705402498565,11.155028585989974
22.926050168734015,16.098136332605016,9.577539041792207
26.558963435872556,38.05832185430428,7.4197207050491505
22.542331170845088,54.2112146379915,5.024203967215365
12.730378640405945,63.628612001457405,2.8419398002604526
0.2791584695551142,66.04825699883813,1.1656276528916227
13.782683891748857,61.38553449121167,0.031116442098869393
25.589176481894143,49.688922790800675,0.6267537314877552
34.41662640252224,31.52421876740242,0.8709383247681858
39.94433077883981,8.455255379746307,0.8028744086551063
42.529621754549076,16.7905433848973,0.6040962126453708
42.74231067614669,40.709983667839076,0.42024380034467584
40.952914853008714,59.83422998404582,0.24725258763449853
37.159097823692484,71.56132618967197,0.07330345129202392
31.12316770764033,74.64190422002847,0.04916912832939213
22.758449242033215,69.16307152255631,0.12582025317422577
12.563818604063155,56.15911593000207,0.20815815236542198
1.8541032212435655,37.191474425357164,0.23094901818621955
7.379867983787097,14.181161849461295,0.01744651685383073
12.978807267694087,10.494745824077173,0.497731888457044
13.317330212087535,33.86806431955824,1.2298535424414618
7.924222073162717,52.51598186924916,2.0737264494004557
2.2392187327880824,63.146929223151766,2.965560214716821
14.949006974889288,63.523976839037935,3.8808947008149346
27.22299737871611,53.337533480673734,4.7365542453154585
35.92674126474287,34.57097961165023,5.431902144558164
38.26959156725732,11.131512817696368,5.963932024251839
32.110227971505246,12.157293120043345,6.344739036123386
16.166018822293513,30.830381263140634,6.559542091918617
9.72970508283031,41.832915429209834,6.593579624923481
44.288175063321745,44.010259255506604,6.420457386849805
84.47737533450763,37.990571048010445,6.028840428518886
125.54538360998056,25.665877974724108,5.439316175758337
161.58071910692516,9.59005767927264,4.677452285845124
186.61271452855252,7.466876520843696,3.7933732660624786
195.9559065268597,22.7606854539908,2.8781697554995826
187.3076124227458,33.711542668299685,1.9373153417343647
161.1880410189082,38.09983388889093,0.8847588031875755
120.61343553746782,34.41342138465774,0.30738483731192096
70.21106752451608,22.281657536364854,1.6205527350032878
15.203132587408092,2.8336026251911,2.992939252150843
39.333579788918506,21.214344070296537,4.329326528355602
88.80024266550535,45.89057120756829,5.594244551545835
129.16398078304678,66.70540990954912,6.763684861982102
157.07891548258854,79.59693546842746,7.803918524467083
170.2339057999844,81.80365086827354,8.685934427085844
167.88325111432522,72.41032381961253,9.311971128411843
151.27369810931813,52.42528947760388,9.541514223885647
123.6570735888169,24.425619827719018,9.296930917181113
89.765588700691,8.025500381487436,8.594989755850447
54.86459525875799,40.94778057964117,7.499509495985913
23.706529432177785,70.37204310714593,6.1123498780496135
0.2429591942998155,92.64064706292329,4.580186577483323
15.115306069535956,104.69432343835003,3.055846615739845
20.510550767058398,104.49203446948347,1.6818119146532533
17.128057147786876,91.57335749710819,0.5362417745595153
6.414979011277177,67.547185096339,0.4154835810546702
9.63297132658432,36.191624578842664,1.2549952436508314
28.509366122666954,2.9436252693279403,1.9912994221115525
47.17608774478208,26.220428793870312,2.5301375706143268
62.14865696626655,46.22085759192943,2.8135050265288326
69.7742438586851,54.119287750559224,2.938090098279003
66.74840368612698,49.71165303847408,3.0962576369419033
50.85497539211579,35.30473650511832,3.465703987894452
21.756826154957007,14.859648636538518,4.182948455445846
18.403060647152184,7.090572586351813,5.306323856186761
64.83964805348283,26.336915174623865,6.728428134023335
110.60020615212649,39.51302070317946,8.239446098471548
147.70232971164478,44.3230274414008,9.654311700313432
168.72737076573884,39.67741800261878,10.790799283105468
168.4330038834616,25.851752703771826,11.439139676862064
144.92197504098525,4.603737015176162,11.407791544703928
100.0687967901748,20.93799675757833,10.559513792915974
39.16397586033644,46.7687254808114,8.89088846578922
29.996828251457252,68.85182550621373,6.586068837995616
98.26736176223297,84.01948520404588,3.890788224368084
156.30561402419704,90.54111250948624,1.004813959121656
196.69424538659837,88.34076586805647,1.803023022080738
215.1175585957816,78.8619589501169,4.162681005802528
210.2839167706579,64.52763298322843,5.778703104108227
184.31148606318706,48.04799125456618,6.558243803632303
142.52316620031675,31.83350484207331,6.589520661832105
92.52725815087526,17.66437942432686,6.038013103628208
42.70451072732327,6.619648494476266,5.116388004279396
0.45657945905585806,0.8550004901348663,4.052218140966414
21.555231052565816,26.135520444063925,3.3905691626427372
19.398585870791585,26.63214749658308,3.1437884501485445
11.774648343862317,22.151980620045517,2.3811015267284583
1.0989402232288443,12.484791149185186,1.1726247672478967
17.76660754072484,1.8262126800039395,0.3194838288865242
35.69797839546185,19.630871025613896,1.8938785344879911
51.694873752545824,39.23912030383714,3.3801527760283903
62.505421814609775,58.43282914509994,4.715938958861322
65.47611975074327,74.475326921864,5.87801382289533
59.16308663711621,84.33770223822309,6.79254816581387
43.673213453907906,85.16514261401366,7.332845844956339
20.589314767110174,74.8493544845153,7.342632232105353
7.323755610277232,52.70348090372499,6.74282939831451
36.18318393837995,20.41079950996957,5.561897953887485
61.35729552996963,17.59679340374914,3.893705213093267
78.71816297737472,55.22220416093205,1.9521340916543835
85.65195434948,86.21622021659695,0.02907239729962962
81.43058930848554,105.47284486030362,1.6641190249735494
67.32382049587967,110.16983405900086,3.066610273025529
46.13005203710581,100.17511454565735,4.171058389715472
21.431472424173343,77.83176982773901,4.923987623836261
3.1660367925022106,47.341187588350735,5.29634814671285
24.761879582295002,13.803494929590386,5.28794502866694
41.50023284507216,17.676840081558375,4.855643217332112
52.53549510707773,42.72077339575206,3.97683374703726
57.65098247049611,58.1246749770046,2.7292610109133624
56.751821828325724,62.04852044455478,1.3293433411801407
49.60119622731841,54.12327514435382,0.09532678258874891
35.914209020781676,35.51042378853414,0.677183612554438
15.864944315324752,8.966088454056546,0.8222713326759367
9.25867149184841,21.260724868013128,0.3799294795105285
36.67225546374209,49.90990290268294,0.4446880759085871
62.242640573470894,71.61410793170957,1.412241011573476
81.21250035062535,82.07728601075387,2.325390612554473
89.24608357016832,79.09974084216705,3.0566809268279393
