File Name: not saved
Channel 2: 'Channel 2', 34590 values, raw ADC, no filters.
Channel 3: 'Channel 3', 34590 values, raw ADC, no filters.
Channel 4: 'Channel 4', 34590 values, raw ADC, no filters.

53	14	32
111	23	211
154	33	291
171	46	326
159	65	294
119	85	110
58	91	-111
-3	82	-389
-55	52	-394
-89	11	-81
-105	-34	116
-108	-74	-90
-104	-102	-246
-100	-117	-242
-91	-114	-264
-76	-96	-127
-49	-60	21
-15	-14	91
22	31	103
56	63	83
78	72	49
89	59	21
87	31	-10
76	3	-69
51	-13	19
17	-16	270
-24	-11	240
-67	-10	29
-105	-15	-107
-127	-29	-193
-128	-39	-211
-108	-36	-71
-74	-14	113
-31	23	234
15	58	461
64	85	486
110	86	210
148	67	-112
169	35	-317
159	2	-494
118	-18	-605
54	-26	-505
-15	-24	-211
-68	-26	69
-93	-42	32
-88	-68	33
-65	-97	7
-43	-108	-31
-30	-93	96
-23	-45	134
-17	19	218
3	77	84
33	110	-9
66	110	-19
87	84	-241
84	44	-287
57	9	-294
17	-20	-155
-24	-42	112
-57	-58	186
-83	-72	155
-105	-78	8
-121	-70	-145
-127	-52	-221
-115	-26	-267
-75	-5	-147
-12	8	37
59	13	155
115	22	304
142	43	250
145	76	24
131	114	57
117	135	126
106	126	16
94	79	5
60	10	7
-4	-62	-219
-101	-121	-565
-206	-147	-479
-288	-145	-67
-321	-123	103
-296	-94	140
-221	-61	233
-115	-28	81
-7	3	-93
85	33	-122
154	54	-119
195	68	8
209	70	85
196	63	95
164	52	187
119	35	263
69	15	159
22	-13	107
-22	-41	128
-65	-63	34
-111	-68	-171
-144	-51	-328
-158	-19	-289
-131	22	-205
-67	51	-226
17	64	-188
101	60	-40
154	49	20
163	43	195
133	49	258
85	59	100
36	57	26
2	33	-93
-23	-13	-319
-47	-70	-341
-76	-116	-256
-108	-139	-133
-123	-133	166
-115	-106	225
-75	-72	232
-9	-38	314
60	-3	278
117	44	249
147	103	96
142	159	-162
111	190	-449
63	168	-671
5	87	-689
-53	-40	-387
-105	-173	-88
-145	-264	13
-167	-286	202
-169	-234	158
-151	-136	80
-113	-34	127
-61	36	268
1	66	390
64	62	382
121	54	201
158	60	38
169	85	-67
148	119	-255
102	139	-291
42	131	-371
-18	88	-308
-65	22	-108
-101	-47	91
-122	-102	222
-130	-127	290
-125	-123	326
-104	-93	207
-68	-46	67
-19	8	-185
29	60	-437
69	101	-391
92	122	-193
97	114	-79
91	77	-105
82	22	-162
76	-33	-23
66	-64	176
50	-64	365
21	-32	486
-15	7	527
-47	29	387
-68	15	-132
-75	-32	-662
-71	-90	-924
-67	-133	-850
-66	-136	-494
-63	-99	-81
-43	-37	108
3	26	190
71	68	184
142	84	206
184	79	265
172	67	260
102	55	291
-6	43	268
-111	32	238
-180	13	278
-198	-7	109
-172	-28	-134
-125	-39	-328
-76	-41	-377
-36	-33	-259
-5	-23	-104
31	-15	-147
70	-5	-165
105	2	-112
118	11	-145
101	20	-230
59	26	-295
10	24	-203
-27	11	-36
-41	-13	87
-37	-45	-11
-32	-80	-25
-41	-106	45
-70	-121	162
-105	-116	199
-124	-91	164
-111	-46	225
-60	3	184
15	51	180
92	91	210
148	115	253
175	125	264
172	123	260
145	118	216
107	104	52
61	82	-359
12	50	-680
-40	10	-582
-88	-34	-387
-124	-74	-144
-140	-104	-27
-132	-120	-135
-102	-125	-238
-55	-117	-218
0	-96	33
52	-57	130
96	-4	152
125	64	155
138	132	1
136	179	-98
120	185	-16
94	137	52
59	45	60
15	-66	201
-42	-162	272
-108	-207	331
-172	-186	337
-217	-109	258
-225	-11	81
-180	72	-121
-89	106	-284
21	84	-402
118	20	-328
172	-49	-246
172	-90	-297
123	-84	-518
48	-37	-572
-29	17	-349
-84	50	-143
-113	41	42
-123	-7	215
-120	-70	179
-111	-123	186
-93	-134	252
-62	-101	260
-17	-40	116
41	21	-185
100	60	-248
145	69	-136
162	58	14
145	43	113
101	41	228
41	54	270
-17	77	181
-58	92	240
-79	88	241
-80	65	19
-71	31	-204
-67	-2	-330
-75	-28	-205
-91	-44	-51
-107	-55	-19
-112	-67	-109
-97	-79	-341
-57	-83	-265
-3	-65	-76
58	-28	-11
111	22	-101
147	68	-171
160	92	-60
150	83	-2
117	43	49
67	-10	98
12	-55	168
-37	-78	190
-70	-74	104
-83	-53	81
-71	-28	77
-49	-7	54
-23	7	59
-4	17	87
4	28	64
7	43	15
13	54	39
26	61	-21
48	60	-160
71	52	-205
88	39	-120
85	23	39
63	7	138
25	-13	97
-24	-35	74
-72	-54	127
-111	-60	64
-129	-45	-140
-126	-10	-333
-102	37	-327
-57	74	-135
-2	84	10
56	57	64
106	7	98
139	-45	65
150	-78	54
136	-72	-155
99	-40	-374
45	-3	-437
-15	12	-441
-77	-9	-344
-134	-63	-284
-181	-127	-19
-206	-171	208
-207	-176	208
-176	-143	321
-118	-89	412
-40	-28	350
38	23	172
99	64	61
133	98	138
138	126	152
121	147	99
96	143	21
68	115	-178
44	66	-381
21	13	-504
-8	-28	-524
-44	-51	-403
-80	-60	-125
-104	-68	-43
-109	-85	-59
-89	-103	8
-51	-111	-2
-7	-92	171
33	-41	229
62	26	265
83	88	132
94	116	-60
101	106	6
100	65	-40
93	19	27
71	-17	142
38	-32	194
-8	-35	140
-59	-38	61
-107	-42	125
-142	-49	200
-152	-44	141
-133	-23	13
-88	15	-121
-25	56	-368
40	86	-675
95	95	-770
123	85	-389
126	64	79
104	43	115
69	26	71
31	8	116
-3	-17	163
-30	-47	121
-53	-80	59
-70	-101	65
-85	-105	50
-89	-94	48
-86	-71	-7
-72	-46	-63
-53	-21	-57
-31	6	0
-4	34	71
22	66	87
48	94	130
66	113	144
78	118	56
78	110	-67
66	90	-86
49	56	-24
30	8	42
12	-57	22
-8	-131	-116
-34	-192	-158
-65	-215	-109
-99	-183	-86
-118	-102	-3
-109	0	102
-66	80	95
-1	108	29
65	84	-121
109	35	-323
114	-1	-371
85	-5	-290
38	17	-132
-3	37	-8
-27	29	38
-30	-16	151
-34	-77	201
-49	-118	104
-83	-117	38
-124	-71	27
-150	-9	60
-140	43	217
-89	67	268
-6	69	-26
82	70	-296
151	81	-268
187	103	-254
184	111	-302
149	88	-190
95	27	-69
29	-49	-142
-35	-113	-161
-97	-142	-96
-145	-129	-5
-169	-95	221
-159	-58	298
-114	-34	184
-43	-21	115
37	-2	36
107	27	-36
147	66	-98
148	97	-166
117	102	-178
68	78	-198
19	30	-186
-17	-16	-234
-40	-49	-187
-53	-61	-25
-66	-65	66
-86	-67	142
-104	-76	215
-117	-80	268
-110	-65	238
-80	-27	151
-30	31	13
29	90	60
82	129	113
119	131	92
138	103	145
144	57	97
144	15	125
133	-7	-17
107	-13	-344
62	-14	-463
-2	-20	-441
-78	-40	-276
-139	-68	-79
-175	-93	6
-174	-97	138
-142	-75	271
-96	-28	300
-48	26	184
-6	71	-10
31	93	-259
67	83	-436
107	50	-262
138	11	-24
144	-21	80
115	-31	128
46	-28	140
-40	-21	119
-128	-29	106
-184	-54	120
-195	-93	112
-170	-126	16
-116	-130	-113
-56	-102	-201
3	-45	-324
58	17	-345
109	60	-341
151	77	-376
176	67	-182
172	52	149
135	47	292
67	53	324
-8	62	372
-69	60	93
-103	34	-231
-101	-6	-251
-83	-46	-164
-63	-70	-70
-63	-72	-136
-77	-58	-210
-93	-39	-189
-96	-27	-183
-68	-23	-138
-16	-19	-30
48	-8	60
105	16	89
136	43	160
138	64	233
114	70	309
77	55	308
37	30	213
-1	-1	13
-36	-29	-111
-67	-48	-30
-96	-61	36
-111	-61	66
-108	-51	-87
-84	-27	-211
-42	10	-132
6	45	-10
51	77	40
86	88	37
105	84	7
111	65	-38
104	43	-54
84	24	-257
51	6	-315
4	-14	-106
-48	-36	2
-100	-54	81
-135	-66	78
-151	-61	93
-137	-41	85
-105	-19	-24
-59	-4	-127
-7	-9	-136
42	-27	-14
91	-47	-57
129	-49	-40
152	-25	114
151	18	145
120	59	129
63	77	38
-12	55	-126
-85	0	-232
-139	-69	-233
-165	-125	-257
-158	-149	-201
-125	-134	-5
-78	-92	294
-28	-36	299
16	20	113
48	67	-6
68	104	-287
75	128	-470
74	136	-371
69	121	-120
69	82	-77
76	26	17
81	-35	211
76	-79	326
44	-95	352
-14	-83	285
-92	-51	213
-167	-24	-19
-213	-13	-162
-214	-24	-319
-165	-45	-424
-84	-58	-282
10	-46	-41
88	-5	109
135	50	129
158	100	152
155	122	53
137	112	28
107	76	155
69	30	123
22	-12	-90
-28	-45	-189
-72	-65	20
-108	-86	199
-121	-98	225
-116	-100	196
-95	-78	-64
-63	-32	-363
-28	29	-500
13	88	-336
50	121	-256
85	117	-389
107	81	-235
112	25	2
99	-27	5
69	-64	35
34	-83	152
-5	-87	160
-39	-86	155
-69	-81	127
-91	-70	84
-102	-52	56
-97	-29	59
-75	-1	94
-31	21	184
24	40	326
81	59	335
124	85	190
143	120	-2
136	157	-129
107	174	-278
61	150	-567
11	78	-582
-42	-27	-301
-96	-135	-239
-145	-206	-246
-188	-224	-125
-210	-188	77
-205	-123	149
-168	-61	67
-105	-16	161
-29	11	138
42	35	213
102	60	233
144	87	29
170	95	-189
179	71	-308
167	22	-200
130	-35	-128
68	-69	-32
-8	-67	-54
-84	-35	-43
-139	1	68
-160	8	129
-152	-18	116
-125	-65	33
-97	-101	36
-70	-99	128
-44	-56	175
-11	10	160
40	69	138
101	103	13
155	103	-49
185	86	-239
175	64	-449
133	45	-407
69	26	-308
7	-1	-99
-42	-36	81
-72	-71	188
-92	-93	155
-104	-92	93
-116	-69	233
-121	-36	310
-111	-1	331
-78	35	255
-16	75	163
59	120	-55
136	165	-456
195	187	-654
214	174	-606
187	114	-500
113	17	-338
12	-89	-74
-95	-167	190
-181	-200	242
-229	-185	164
-229	-139	164
-187	-85	117
-124	-35	97
-56	3	64
-3	35	108
37	68	235
65	93	159
86	97	38
107	67	-36
122	14	-76
128	-43	-84
119	-78	-105
92	-68	-161
49	-25	-172
0	25	-52
-49	46	-92
-85	23	-202
-103	-39	-236
-102	-110	-102
-83	-148	-41
-52	-132	-119
-16	-69	-81
19	6	-71
48	61	28
69	79	113
81	65	106
82	49	192
70	49	397
51	71	319
22	95	108
-11	94	36
-46	52	-55
-77	-20	-169
-97	-97	-126
-106	-145	-55
-97	-148	-348
-78	-111	-457
-46	-56	-279
-14	-8	-29
13	22	183
34	38	306
46	51	368
49	67	147
44	86	-38
32	92	-125
8	77	-279
-27	38	-534
-66	-10	-552
-104	-56	-264
-123	-86	-27
-121	-96	133
-92	-96	164
-47	-86	158
0	-68	218
42	-41	120
78	-2	15
105	47	-66
132	93	-143
160	118	-51
175	114	59
167	82	222
128	39	217
58	3	100
-24	-17	22
-100	-23	-112
-145	-30	-158
-161	-48	-132
-147	-79	-76
-121	-105	-78
-95	-109	-109
-69	-78	-69
-39	-14	56
4	57	201
61	110	152
122	124	-139
166	100	-282
175	53	-239
145	7	-11
85	-21	142
7	-33	34
-66	-32	104
-121	-32	155
-151	-36	61
-158	-40	-89
-141	-40	-213
-112	-36	-267
-69	-32	-182
-26	-31	-55
18	-36	24
60	-41	111
94	-35	158
121	-12	196
137	25	200
142	65	234
128	89	225
93	85	53
36	53	-234
-32	13	-340
-102	-26	-277
-161	-47	-221
-193	-52	-120
-193	-45	-92
-160	-35	-68
-101	-32	42
-25	-30	126
50	-28	151
111	-18	14
147	1	-251
156	23	-289
148	44	-227
126	56	-103
101	56	22
67	43	-138
20	19	-254
-40	-13	-222
-114	-48	-85
-173	-77	49
-202	-93	71
-185	-89	119
-127	-68	149
-50	-35	187
21	0	138
68	24	95
86	36	23
86	33	-30
82	27	6
80	19	-34
76	12	-16
62	6	5
35	-11	37
-1	-33	128
-38	-62	181
-62	-85	169
-71	-88	26
-71	-64	-65
-69	-20	-74
-64	27	-151
-51	65	-203
-20	82	-43
29	80	62
86	72	-17
127	69	-47
136	80	-26
102	91	15
40	93	72
-24	68	155
-70	18	36
-92	-42	-99
-93	-94	-115
-91	-109	-128
-93	-89	-165
-98	-44	-211
-97	-2	-251
-75	16	-105
-28	5	60
31	-24	-57
89	-42	-68
129	-32	-39
145	13	152
140	75	186
122	123	55
93	132	180
54	93	180
10	19	24
-41	-63	-271
-86	-127	-462
-116	-157	-559
-122	-153	-489
-106	-128	-97
-74	-103	49
-39	-77	70
-12	-49	172
10	-12	164
28	36	102
50	90	30
72	135	18
91	153	-30
94	138	36
75	94	-1
40	31	-80
-4	-34	4
-42	-92	-15
-65	-127	40
-71	-145	70
-70	-141	76
-65	-118	30
-64	-84	-54
-66	-41	-92
-63	-2	-76
-51	30	67
-27	52	167
8	68	181
46	81	-15
79	89	-124
97	94	-141
97	86	-193
72	62	-77
30	24	60
-27	-19	211
-89	-58	375
-138	-82	385
-164	-80	178
-160	-58	16
-126	-23	-147
-77	11	-489
-20	38	-747
31	53	-593
70	55	-206
99	49	-3
118	38	125
130	29	200
130	19	169
113	11	159
80	3	145
29	-7	213
-26	-14	189
-77	-24	181
-109	-31	196
-117	-37	-43
-104	-46	-302
-69	-55	-319
-26	-60	-181
20	-56	-276
60	-40	-382
92	-11	-206
113	23	-167
119	45	-184
111	51	-174
84	35	-90
42	8	77
-10	-16	147
-67	-24	234
-114	-19	253
-140	-12	320
-139	-16	305
-112	-36	192
-66	-63	10
-19	-79	-283
20	-62	-530
49	-13	-546
66	55	-188
78	117	181
83	148	411
85	139	560
78	97	584
60	36	408
37	-26	31
12	-82	-407
-12	-126	-819
-32	-153	-870
-51	-152	-631
-67	-118	-147
-78	-58	96
-72	14	230
-47	72	326
0	96	352
54	77	290
104	36	281
124	-1	238
110	-13	82
65	7	-147
5	35	-227
-51	49	-133
-98	26	-85
-130	-29	-131
-156	-91	-129
-173	-134	-42
-180	-131	-55
-169	-91	-84
-133	-25	-140
-72	35	-95
-1	72	21
62	84	11
107	74	-102
124	59	-63
124	49	192
117	48	194
111	53	98
110	53	22
102	44	-24
75	20	-44
25	-18	-236
-43	-69	-425
-115	-117	-377
-170	-151	-58
-187	-156	170
-165	-118	245
-106	-47	304
-29	41	212
47	122	36
114	168	39
158	164	175
180	114	95
182	44	-40
164	-19	-13
125	-53	-154
63	-57	-356
-14	-43	-371
-101	-31	-300
-174	-36	-250
-224	-59	-279
-229	-89	-130
-194	-105	75
-126	-95	176
-43	-58	225
35	-4	111
104	50	-34
150	92	-201
172	112	-142
178	112	199
162	97	278
126	66	215
69	32	87
-1	-6	-103
-76	-41	-171
-139	-69	-183
-183	-89	-279
-191	-96	-282
-168	-100	-97
-116	-96	-7
-44	-86	85
30	-61	191
99	-21	215
149	32	163
172	87	54
172	127	-14
151	143	-25
111	129	-18
63	93	4
15	45	42
-29	-4	-8
-65	-44	26
-94	-76	95
-112	-95	98
-120	-103	-6
-119	-96	-205
-112	-72	-311
-101	-41	-497
-85	-7	-435
-67	20	-175
-49	38	-74
-25	47	82
-1	51	225
25	51	385
48	42	464
64	17	386
67	-25	189
53	-76	-63
24	-116	-296
-18	-129	-435
-60	-109	-331
-92	-61	-83
-96	-5	194
-72	40	300
-27	70	78
31	85	-129
84	94	-188
121	102	-306
139	100	-318
140	82	-175
127	38	28
101	-21	201
64	-78	270
15	-108	351
-40	-97	304
-91	-58	164
-120	-11	71
-124	17	0
-103	17	-192
-63	-2	-364
-23	-23	-527
15	-21	-501
44	2	-124
69	35	15
93	58	-20
111	61	-94
113	42	-72
97	18	-43
56	4	32
1	5	180
-57	13	112
-109	15	54
-139	-2	-76
-148	-35	-102
-134	-72	-70
-103	-94	-155
-59	-88	-94
-7	-58	154
41	-20	242
78	12	208
85	30	90
64	34	-26
20	35	29
-32	40	106
-69	45	155
-80	45	64
-58	26	-89
-23	-13	-109
8	-62	-98
15	-102	-211
-4	-114	-314
-36	-94	-360
-61	-47	-289
-60	1	-198
-28	33	-179
25	38	-74
80	24	104
110	6	181
111	2	187
86	17	200
49	40	145
20	56	37
1	51	-48
-10	22	-42
-24	-23	-59
-49	-65	-37
-85	-92	38
-113	-98	108
-118	-84	134
-87	-57	110
-22	-27	72
57	7	56
129	43	119
171	85	110
175	123	116
144	150	32
93	157	-230
35	140	-302
-16	104	-164
-61	57	-106
-95	6	-137
-117	-45	-132
-129	-92	-156
-128	-129	-48
-117	-149	85
-96	-140	85
-67	-101	45
-34	-33	1
7	34	41
52	84	-10
100	92	-103
137	64	-256
156	20	-353
141	-19	-208
97	-28	59
31	-8	381
-39	22	560
-91	35	464
-115	14	45
-111	-38	-295
-93	-99	-560
-75	-137	-687
-62	-139	-555
-58	-104	-330
-48	-53	-101
-20	-10	19
29	18	95
90	31	192
144	48	180
172	75	117
162	104	140
116	121	9
48	101	-69
-21	41	-21
-83	-41	116
-127	-117	201
-156	-158	247
-168	-151	325
-159	-108	201
-132	-53	202
-85	-7	192
-22	20	-14
42	42	-267
97	70	-488
131	106	-500
143	139	-345
135	150	-302
111	122	-252
80	56	-46
44	-29	70
7	-102	208
-27	-138	240
-51	-133	205
-66	-101	98
-71	-60	-86
-72	-33	-111
-74	-24	-101
-72	-26	-78
-70	-27	-11
-55	-14	62
-26	10	115
16	38	91
58	57	16
90	58	-24
97	42	-42
74	17	-33
29	-7	-90
-28	-22	-167
-79	-24	-151
-115	-19	-32
-126	-18	48
-116	-24	-9
-88	-40	-84
-46	-50	-76
1	-45	-31
46	-12	-44
86	43	-38
115	106	-27
129	154	35
126	163	48
107	133	112
79	71	200
42	4	113
1	-51	182
-40	-83	294
-82	-92	346
-115	-92	306
-136	-90	150
-135	-87	-126
-109	-80	-457
-58	-55	-771
5	-13	-875
66	41	-576
115	90	-264
140	115	-64
143	109	155
129	71	100
104	19	176
69	-37	185
25	-80	136
-30	-104	27
-93	-110	-100
-155	-103	-52
-194	-90	52
-201	-71	89
-166	-52	80
-103	-29	112
-25	-3	89
44	28	107
97	64	74
124	95	118
133	114	160
131	116	46
120	96	-115
101	54	-331
65	4	-409
17	-48	-275
-42	-94	-133
-104	-122	-122
-158	-134	34
-191	-126	124
-199	-100	87
-186	-58	58
-148	-7	43
-93	48	-20
-25	98	-133
46	129	-130
111	136	-104
166	112	-15
192	62	110
190	5	224
159	-45	281
105	-68	294
42	-61	225
-24	-32	-9
-80	1	-217
-120	15	-207
-140	5	-140
-139	-28	-238
-117	-62	-294
-71	-76	-211
-14	-62	-149
49	-22	1
102	23	54
133	60	-94
137	76	-117
116	71	-173
83	57	-119
47	40	45
19	23	34
-5	-2	31
-30	-36	46
-63	-77	105
-100	-109	130
-128	-117	170
-135	-95	190
-109	-41	95
-55	23	-9
13	82	-48
75	121	-38
117	135	-7
134	129	104
128	110	145
111	83	59
82	44	-97
48	3	-255
6	-39	-341
-40	-68	-272
-83	-78	-135
-110	-70	-46
-115	-60	123
-100	-64	184
-72	-90	135
-49	-125	97
-33	-149	8
-22	-133	-115
-7	-76	-260
17	12	-214
49	93	53
76	131	168
79	116	-15
54	54	-206
7	-20	-257
-49	-80	-159
-92	-108	-59
-112	-107	-2
-109	-90	-40
-95	-67	-23
-77	-45	53
-54	-15	97
-23	23	149
22	66	133
80	103	205
136	119	107
171	117	-157
171	104	-315
130	90	-313
63	81	-287
-8	67	-236
-67	38	-149
-102	-17	19
-119	-90	216
-122	-157	219
-123	-188	104
-121	-171	-9
-110	-110	72
-86	-34	158
-43	27	137
12	58	54
69	59	-37
116	52	-143
143	55	-263
151	75	-227
142	100	-179
122	106	-50
91	88	49
49	39	57
-3	-18	207
-58	-64	279
-111	-84	289
-147	-75	271
-155	-54	265
-132	-35	242
-85	-27	-23
-26	-23	-245
34	-16	-330
83	1	-407
111	23	-345
120	42	-414
110	53	-399
89	50	-179
58	41	-113
23	32	-13
-12	27	-15
-46	19	22
-77	1	138
-101	-35	166
-116	-87	151
-120	-137	145
-109	-166	178
-85	-156	158
-41	-102	130
16	-21	59
78	62	119
137	119	96
180	139	-87
196	125	-99
175	89	-161
122	55	-279
44	30	-218
-42	16	-28
-122	1	68
-182	-22	82
-212	-57	17
-210	-98	-41
-181	-128	-6
-128	-137	-43
-64	-117	-106
4	-71	-211
64	-16	-311
107	38	-219
128	79	-163
125	96	-17
103	89	78
67	63	-33
30	28	28
-5	-7	30
-37	-32	-11
-67	-46	44
-89	-46	112
-101	-43	103
-99	-39	21
-77	-34	-15
-35	-27	86
20	-8	142
75	23	21
117	64	32
137	102	71
132	122	79
105	122	102
59	99	-44
9	62	-182
-40	19	-168
-80	-23	-236
-109	-63	-290
-125	-100	-297
-130	-126	-247
-122	-137	-106
-103	-126	4
-68	-95	34
-20	-50	57
36	-5	116
93	30	103
142	51	169
172	64	207
180	72	91
166	77	55
133	76	87
86	57	49
30	24	-62
-33	-16	-65
-98	-51	-130
-154	-63	-238
-195	-52	-200
-207	-29	-131
-191	-7	-93
-144	-2	-102
-78	-13	-48
-2	-32	-40
70	-40	-42
130	-30	-5
170	-4	22
182	27	118
166	45	225
122	51	225
58	44	126
-16	32	7
-87	18	-108
-140	2	-188
-175	-24	-188
-183	-62	-140
-169	-104	-53
-132	-134	68
-77	-133	194
-9	-93	225
64	-24	209
128	51	208
169	108	150
175	127	0
143	106	-155
86	59	-209
14	8	-371
-53	-34	-554
-106	-57	-536
-134	-68	-345
-143	-72	-68
-134	-76	121
-112	-77	134
-79	-70	159
-36	-59	119
9	-35	21
54	-6	22
96	26	-14
128	58	69
152	85	134
165	106	62
164	114	124
144	106	184
104	83	87
44	43	-21
-24	-2	-25
-90	-41	-92
-139	-64	-282
-161	-76	-363
-159	-74	-211
-135	-65	19
-102	-53	164
-65	-34	246
-27	-4	218
15	34	48
59	71	-109
102	97	-204
130	97	-276
132	75	-294
107	40	-295
52	7	-147
-6	-11	-5
-55	-17	-48
-84	-21	-35
-86	-37	-2
-79	-68	74
-70	-106	150
-72	-131	85
-76	-126	78
-68	-92	40
-37	-33	-32
17	24	-62
80	66	-16
130	86	91
143	88	96
115	82	103
54	76	130
-14	66	137
-70	49	34
-103	18	-135
-104	-25	-272
-87	-72	-260
-59	-108	-197
-34	-121	-89
-19	-107	164
-12	-69	224
-11	-22	194
-10	25	117
-4	57	-38
15	71	-189
42	65	-299
74	43	-284
99	15	-193
106	-14	-55
90	-35	-25
49	-46	31
0	-43	105
-46	-33	81
-77	-21	74
-85	-12	31
-75	-13	87
-48	-16	117
-20	-19	9
9	-12	-64
34	10	-50
58	40	45
77	74	83
90	96	52
94	98	68
79	72	113
45	30	40
-6	-17	-142
-68	-54	-320
-130	-77	-505
-180	-81	-454
-205	-75	-170
-207	-63	42
-184	-52	57
-142	-31	133
-87	0	164
-21	38	130
52	77	91
127	97	51
189	86	141
229	41	138
228	-21	68
184	-83	-58
104	-116	-211
8	-115	-270
-79	-84	-229
-137	-46	-251
-156	-27	-208
-141	-34	-36
-102	-61	51
-54	-84	103
-6	-78	101
37	-39	42
76	27	17
106	96	14
125	143	29
129	157	22
116	139	26
91	106	30
58	70	-61
23	38	-98
-10	5	-85
-44	-32	-4
-78	-72	124
-109	-107	264
-130	-117	274
-134	-97	152
-112	-51	-38
-64	-1	-257
-4	34	-373
58	45	-457
103	41	-265
124	39	-32
120	54	-7
96	89	52
60	120	-55
22	122	-135
-14	75	53
-46	-16	201
-76	-120	175
-97	-196	133
-115	-214	57
-126	-172	-76
-132	-94	-196
-130	-18	-243
-120	24	-150
-94	29	-29
-52	9	79
3	-4	176
66	6	170
120	43	75
152	91	49
154	120	121
124	113	208
71	65	10
7	-4	-256
-52	-77	-268
-98	-124	-279
-123	-138	-306
-127	-122	-175
-110	-86	-74
-77	-44	66
-28	-5	91
24	30	-45
71	61	-79
107	92	-105
125	114	1
127	122	-9
113	103	-42
91	56	7
60	-7	41
21	-69	65
-23	-102	178
-65	-95	333
-97	-52	292
-103	-1	144
-79	30	-36
-28	22	-52
32	-23	-206
81	-76	-383
98	-101	-308
86	-76	-221
54	-8	-39
22	71	-42
6	123	-103
11	123	-68
26	74	57
34	7	161
21	-41	141
-17	-53	47
-72	-34	-88
-130	-9	-39
-172	-9	-56
-184	-38	-112
-168	-79	24
-126	-98	87
-72	-76	-23
-12	-16	31
41	58	0
85	110	-117
111	122	-62
113	93	4
95	50	87
53	15	112
1	-2	142
-53	-11	118
-96	-29	-74
-121	-66	-210
-126	-116	-317
-111	-147	-262
-79	-137	-62
-29	-83	13
30	0	121
101	74	271
166	110	278
208	109	183
216	85	115
181	70	37
117	80	-236
40	101	-517
-23	106	-570
-60	69	-430
-76	-14	-247
-79	-119	-173
-89	-198	31
-104	-218	193
-114	-171	216
-102	-87	278
-54	-3	233
20	49	137
98	61	69
149	53	42
155	49	-80
117	64	-186
54	85	-41
-2	92	22
-40	67	-39
-55	11	-157
-62	-52	-201
-71	-100	-60
-91	-112	34
-106	-96	76
-110	-67	53
-94	-45	119
-63	-40	181
-28	-38	188
1	-28	152
17	2	-6
29	45	-164
42	83	-283
64	100	-301
88	86	-229
97	50	-65
82	6	97
37	-29	130
-24	-52	72
-88	-66	26
-133	-72	69
-153	-75	40
-145	-64	-24
-115	-35	-16
-69	9	-28
-15	59	-84
42	95	-171
100	101	-94
143	77	-54
163	35	-15
153	4	18
111	1	-161
54	25	-226
-4	60	-145
-48	74	32
-74	40	60
-80	-38	-90
-76	-141	-97
-69	-226	-34
-62	-244	56
-51	-188	62
-28	-77	31
9	46	162
59	131	248
111	154	116
143	122	9
147	74	110
110	43	98
44	49	-151
-35	74	-463
-107	80	-542
-158	40	-306
-181	-51	-114
-178	-157	97
-159	-233	136
-129	-240	-36
-91	-178	-128
-43	-75	-160
14	26	-70
74	89	20
131	106	90
172	94	91
192	83	113
182	88	199
151	104	275
100	116	318
38	106	324
-28	70	313
-91	19	156
-138	-27	-67
-161	-55	-233
-153	-62	-291
-118	-57	-325
-67	-48	-428
-14	-36	-352
27	-28	-85
54	-18	-28
71	-7	24
86	-7	40
98	-16	-51
107	-27	-10
103	-31	-25
78	-19	48
38	6	108
-7	30	104
-39	34	103
-53	10	28
-49	-32	-9
-35	-69	-77
-25	-81	-193
-22	-59	-195
-26	-14	-130
-32	29	-42
-35	51	25
-30	48	45
-18	37	116
-2	34	55
14	44	-52
24	58	-114
20	56	-169
-8	27	-138
-56	-26	-14
-118	-81	54
-176	-110	189
-205	-105	262
-191	-66	47
-130	-25	-24
-44	5	-74
44	12	-56
115	7	-43
154	5	-185
164	17	-107
158	41	-102
144	64	-192
128	68	-238
104	47	-210
68	8	-38
19	-32	41
-34	-57	102
-87	-63	168
-118	-59	75
-128	-54	-71
-112	-58	-147
-76	-70	-109
-23	-80	-13
34	-69	17
86	-32	4
124	23	-26
136	85	-37
122	130	30
83	142	102
33	121	152
-15	72	276
-50	17	264
-65	-32	86
-65	-66	-56
-56	-85	-228
-48	-93	-356
-46	-89	-325
-46	-70	-141
-45	-35	41
-35	12	152
-12	65	155
25	106	152
68	122	89
109	104	-45
130	56	-182
116	1	-215
66	-43	-149
-16	-61	-173
-108	-54	0
-187	-39	111
-229	-33	112
-226	-47	166
-182	-75	121
-120	-97	75
-56	-95	-35
-3	-57	-66
39	2	-17
81	61	-80
119	93	-289
156	89	-351
172	61	-141
155	32	1
105	24	65
34	35	8
-30	48	-64
-70	38	-7
-80	-5	83
-61	-67	238
-43	-123	402
-34	-138	411
-40	-109	260
-46	-51	-2
-41	4	-331
-14	32	-485
26	34	-457
65	30	-260
89	42	-63
91	80	-92
82	116	-108
67	121	-268
56	69	-382
42	-26	-87
18	-127	160
-23	-189	121
-76	-183	49
-125	-120	10
-152	-40	40
-143	11	100
-101	16	98
-42	-6	186
20	-18	205
69	9	38
107	76	-136
130	152	-150
140	196	-175
129	181	-249
93	109	-97
29	14	19
-54	-67	-38
-129	-116	55
-177	-125	166
-182	-118	150
-149	-102	68
-95	-89	-64
-42	-65	-102
-5	-30	-65
16	14	-93
29	56	-8
49	78	137
78	76	91
111	56	-28
132	38	-98
129	29	-50
99	31	52
44	32	77
-15	21	130
-68	-7	109
-104	-46	-25
-118	-83	-172
-114	-103	-292
-94	-105	-265
-65	-88	-177
-31	-61	-111
7	-30	-36
49	4	-7
93	33	13
132	57	111
159	67	159
158	61	182
123	41	213
54	19	175
-32	7	86
-117	7	-75
-178	19	-200
-202	28	-141
-191	31	-81
-161	19	-127
-124	-1	-116
-91	-21	-143
-54	-37	-101
-6	-44	-32
56	-45	-19
123	-39	32
175	-22	40
188	3	34
157	35	-8
87	56	-51
10	56	-30
-51	26	-16
-84	-26	-5
-91	-82	63
-86	-120	0
-79	-121	-46
-79	-93	-43
-69	-48	-124
-44	-11	-32
1	14	26
59	30	43
111	47	4
139	80	-222
132	123	-364
98	165	-355
45	180	-150
-6	157	164
-45	94	316
-65	5	207
-67	-88	79
-58	-161	-54
-46	-199	-276
-40	-195	-224
-41	-154	43
-44	-90	124
-42	-23	129
-19	24	116
20	38	-11
72	23	-77
117	-4	-55
137	-22	-69
124	-15	-42
85	11	18
37	38	39
-5	41	43
-33	11	-21
-50	-42	-17
-60	-90	61
-69	-101	130
-77	-70	109
-69	-12	-23
-48	41	-74
-14	65	-43
16	57	60
30	33	120
25	22	-128
8	37	-364
-4	76	-268
-2	110	-155
11	117	-130
19	88	-67
7	29	-43
-32	-29	91
-85	-69	209
-125	-82	280
-136	-74	374
-107	-59	215
-59	-47	19
-13	-39	-195
13	-25	-345
19	-7	-462
24	17	-532
46	38	-248
94	43	52
151	37	150
193	17	174
188	-4	210
123	-22	188
17	-34	-62
-101	-44	-339
-191	-57	-429
-237	-67	-302
-226	-75	-57
-175	-68	87
-106	-47	94
-37	-15	59
21	24	42
68	60	78
105	88	79
128	100	80
135	98	120
128	83	120
105	53	103
72	19	19
37	-17	29
6	-47	76
-24	-70	-20
-52	-83	-34
-82	-79	-19
-106	-62	-25
-120	-29	29
-110	10	27
-76	51	32
-15	81	-18
56	88	-64
122	74	-70
166	47	-112
175	23	-19
149	12	-23
93	15	-185
22	17	-185
-46	0	-109
-97	-45	-47
-124	-109	221
-128	-160	313
-119	-173	64
-107	-127	-61
-92	-45	-167
-75	40	-353
-50	91	-439
-15	80	-320
28	26	-157
71	-37	-103
99	-67	-35
106	-48	42
91	7	111
61	61	130
25	75	63
-8	39	4
-38	-29	69
-64	-86	80
-85	-96	46
-97	-56	84
-90	13	40
-61	72	28
-15	91	18
40	61	20
90	13	64
121	-24	80
128	-23	110
116	16	80
86	67	-20
44	98	-122
-3	84	-209
-55	24	-297
-105	-53	-324
-147	-121	-167
-168	-154	42
-169	-153	78
-143	-122	45
-102	-85	11
-48	-52	33
11	-27	49
66	-3	7
113	27	102
144	64	177
155	99	32
138	118	-147
102	112	-182
56	83	-98
10	38	-75
-22	-2	-105
-44	-31	-68
-58	-40	43
-76	-36	91
-95	-27	48
-113	-18	-21
-120	-8	-44
-103	4	-3
-56	20	46
13	35	38
92	45	37
163	46	4
206	41	-25
210	38	-19
175	39	-198
107	45	-190
21	43	-100
-68	20	-236
-140	-28	-288
-185	-92	-208
-199	-149	-124
-185	-173	14
-153	-154	76
-107	-101	38
-54	-38	85
4	5	158
67	21	196
128	18	172
175	20	155
193	43	180
175	90	206
124	136	107
50	154	10
-36	122	-33
-111	47	-168
-166	-44	-235
-195	-114	-254
-198	-142	-310
-179	-124	-286
-139	-87	-192
-85	-51	-149
-26	-35	-130
32	-34	-89
85	-30	22
126	-7	150
156	35	217
175	84	255
181	110	216
170	101	112
140	53	18
89	-12	-35
24	-70	-103
-51	-98	-104
-118	-95	-42
-166	-66	43
-184	-34	151
-170	-16	116
-129	-11	-10
-68	-11	-132
-4	1	-134
46	35	-101
76	87	-118
82	139	-14
72	169	84
60	156	70
57	95	-42
59	3	-211
59	-90	-229
41	-157	-67
-2	-177	16
-63	-157	-59
-123	-113	-97
-157	-66	-95
-150	-34	-21
-101	-15	105
-35	1	130
28	28	161
66	66	249
82	106	130
83	129	-103
79	121	-246
75	84	-282
62	32	-254
35	-13	-235
-12	-39	-232
-68	-49	-294
-116	-58	-131
-139	-81	68
-129	-117	111
-96	-151	87
-52	-161	34
-12	-130	76
24	-60	82
58	24	63
95	95	142
132	126	177
158	114	56
159	77	-107
127	33	-203
71	7	-189
7	-1	-130
-49	0	-26
-83	1	25
-99	-7	-3
-102	-18	-9
-103	-25	42
-101	-16	178
-94	7	279
-72	32	278
-35	50	152
10	49	-76
52	36	-245
78	17	-348
85	4	-335
74	0	-153
56	0	10
36	-3	42
16	-20	34
-6	-46	-1
-35	-76	-13
-64	-93	15
-90	-89	54
-97	-64	97
-79	-29	79
-40	4	106
11	27	107
56	41	19
91	50	-88
106	62	-172
107	79	-156
97	92	-140
84	93	-183
64	76	-88
33	40	55
-13	-6	149
-82	-48	152
-158	-77	-3
-229	-85	-30
-264	-77	37
-249	-62	47
-176	-54	-5
-59	-58	-103
65	-64	-147
165	-66	-181
211	-48	-205
203	-1	-27
159	59	137
109	119	108
75	144	26
62	122	-109
56	57	-262
37	-28	-339
-7	-100	-273
-67	-134	-58
-124	-123	135
-151	-86	155
-139	-39	135
-97	-6	138
-47	14	108
-7	30	84
16	51	34
30	77	-119
48	89	-213
74	76	-245
102	28	-280
111	-37	-103
93	-97	6
44	-125	44
-16	-115	113
-71	-81	133
-106	-44	163
-113	-25	39
-103	-24	-28
-83	-22	-57
-57	-2	-79
-28	45	17
12	110	116
57	166	208
101	185	213
125	158	108
120	95	-187
84	17	-420
23	-48	-485
-40	-93	-376
-87	-113	-128
-107	-118	15
-101	-121	129
-76	-123	150
-44	-117	135
-14	-98	91
9	-61	55
27	-13	21
42	38	100
57	84	194
67	115	96
69	131	-10
62	135	-211
44	123	-265
16	98	-150
-18	57	-85
-51	0	-115
-81	-63	-27
-105	-123	163
-119	-160	131
-122	-163	97
-109	-132	152
-75	-72	209
-18	-5	145
52	55	-79
121	96	-201
171	113	-279
189	110	-389
169	92	-335
115	70	-227
47	47	-95
-18	24	14
-70	-1	84
-106	-30	192
-128	-64	184
-145	-103	140
-156	-140	87
-156	-165	-98
-139	-166	-275
-104	-137	-256
-48	-81	-113
16	-6	14
77	65	111
129	115	93
165	131	61
184	121	56
184	97	65
162	70	102
111	54	180
37	41	164
-51	27	53
-132	4	-3
-182	-25	-219
-184	-53	-392
-135	-70	-341
-57	-67	-269
24	-52	-137
82	-32	21
101	-17	204
83	0	285
39	27	184
-4	66	56
-33	118	-64
-40	157	-203
-29	154	-197
-10	95	-54
8	-11	30
12	-131	120
-3	-223	100
-33	-248	55
-66	-206	-23
-92	-118	-197
-95	-27	-260
-65	31	-124
-16	48	95
43	35	141
95	22	59
125	32	61
130	68	63
111	120	-51
88	153	-205
58	147	-298
28	92	-100
-8	0	115
-51	-107	184
-101	-190	141
-145	-224	-92
-175	-196	-156
-178	-116	-85
-152	-11	-64
-97	80	49
-20	123	61
64	110	-77
143	58	-84
201	-3	-133
223	-36	-320
205	-26	-374
151	12	-192
78	48	96
4	48	217
-52	8	210
-89	-53	192
-110	-102	90
-121	-109	-17
-132	-74	-135
-132	-17	-120
-117	25	43
-79	34	120
-20	12	75
40	-13	-54
85	-17	-110
104	13	-129
98	59	-55
75	96	82
47	98	62
25	59	42
1	1	60
-26	-51	22
-62	-78	1
-98	-78	-14
-121	-68	-14
-119	-60	0
-87	-58	-40
-37	-51	-11
15	-24	22
49	23	15
64	82	-20
62	127	-31
58	138	25
57	114	-8
60	68	3
58	26	-37
38	2	-188
1	-4	-291
-50	-7	-260
-100	-21	-126
-130	-51	-54
-136	-89	-14
-115	-112	-43
-76	-107	-39
-24	-68	38
26	-11	52
74	48	16
111	91	-9
138	109	-2
147	106	78
134	90	112
105	65	166
61	32	203
15	-9	150
-26	-57	14
-53	-103	-120
-69	-137	-124
-77	-145	-92
-77	-119	38
-74	-62	108
-64	12	89
-46	88	85
-18	137	-7
16	143	-176
50	100	-383
79	19	-565
91	-77	-463
81	-152	-222
48	-181	-187
2	-159	-83
-50	-99	81
-98	-37	90
-130	-6	64
-141	-21	51
-130	-68	46
-106	-113	100
-70	-122	152
-29	-77	110
14	8	91
62	95	85
113	148	51
160	149	79
190	110	138
198	62	159
169	36	80
106	40	-25
20	59	-17
-78	67	76
-164	43	97
-226	-4	-22
-248	-57	-219
-228	-89	-273
-165	-87	-185
-71	-54	-203
29	-13	-210
115	20	-178
164	41	-157
169	54	-52
137	72	-126
91	93	-141
50	104	42
28	93	125
20	51	108
12	-9	-1
-6	-70	-62
-38	-108	13
-71	-110	104
-92	-86	94
-89	-52	133
-68	-29	191
-44	-20	63
-26	-15	-169
-18	0	-211
-5	29	-70
18	61	41
57	87	87
102	88	53
128	63	19
121	22	-13
77	-18	-125
14	-47	-276
-49	-65	-251
-99	-75	-133
-129	-82	-42
-150	-84	127
-163	-80	211
-170	-61	150
-156	-29	91
-109	12	107
-27	51	-6
69	83	-279
151	101	-387
198	105	-316
196	93	-141
159	64	-51
107	16	42
59	-47	217
18	-112	326
-22	-160	352
-65	-176	241
-112	-157	105
-145	-111	-42
-152	-59	-268
-121	-16	-408
-61	12	-241
12	31	-48
76	49	7
116	72	12
132	99	-124
128	113	-260
113	107	-193
87	79	-13
50	35	46
7	-9	69
-41	-45	70
-86	-66	112
-117	-82	182
-129	-93	221
-126	-102	243
-112	-98	169
-88	-69	60
-54	-16	-81
-5	57	-182
52	128	-254
110	175	-328
151	187	-359
163	157	-231
137	102	-67
83	37	-39
22	-17	-1
-29	-57	41
-57	-87	85
-66	-110	133
-63	-132	241
-61	-149	318
-68	-147	249
-82	-121	103
-91	-69	-89
-84	1	-189
-57	68	-158
-14	114	-88
38	128	-84
81	112	-41
104	81	57
100	51	50
75	31	-139
29	20	-306
-22	3	-273
-71	-30	-210
-110	-84	-102
-130	-137	37
-132	-173	39
-108	-164	-59
-60	-108	-84
-1	-25	-27
57	58	-16
99	117	-79
119	137	-99
111	126	-79
87	97	-118
58	65	-35
36	31	96
21	-6	231
11	-55	278
-6	-103	297
-35	-135	263
-70	-136	-4
-107	-100	-175
-126	-45	-262
-120	6	-205
-85	33	-147
-27	30	-112
37	13	1
98	7	31
136	27	169
151	66	243
138	105	217
105	115	192
57	88	41
3	32	-171
-51	-29	-345
-98	-72	-429
-130	-89	-379
-144	-85	-252
-136	-77	-34
-107	-77	94
-63	-77	78
-12	-67	91
34	-33	47
69	22	9
89	84	22
97	130	132
97	142	281
95	122	264
91	81	151
77	40	-46
45	13	-281
-5	-1	-371
-69	-9	-273
-134	-26	-91
-175	-51	101
-180	-82	149
-144	-106	70
-80	-112	-61
-10	-97	-199
50	-58	-182
89	-6	-162
107	53	-91
120	103	15
136	129	49
161	125	103
175	84	78
167	21	32
113	-45	28
13	-92	40
-119	-100	75
-252	-74	91
-341	-35	80
-365	-11	45
-312	-15	32
-199	-48	12
-62	-87	-119
66	-99	-253
151	-66	-261
184	4	-144
172	84	-78
144	135	-21
111	128	45
87	67	-69
69	-21	-194
46	-98	-137
14	-133	25
-31	-122	101
-71	-81	181
-98	-34	147
-96	-3	22
-68	9	-114
-26	11	-273
20	17	-229
56	30	6
83	50	191
98	65	171
107	74	37
109	72	-123
94	64	-211
59	50	-156
6	27	-44
-53	-11	26
-110	-58	90
-143	-106	103
-153	-131	37
-138	-127	-108
-108	-90	-162
-71	-36	-50
-31	13	20
7	41	123
44	49	217
76	49	159
96	56	21
101	76	-138
89	95	-256
66	101	-263
33	82	-188
-2	42	-121
-38	1	-42
-69	-31	-59
-92	-44	-83
-100	-50	12
-87	-56	47
-54	-70	52
-4	-86	90
50	-81	152
100	-47	242
135	11	319
151	70	369
144	106	343
114	101	155
63	60	-176
-2	9	-500
-68	-32	-560
-125	-54	-398
-159	-64	-295
-166	-80	-170
-156	-104	-17
-139	-130	22
-128	-133	38
-122	-97	-5
-115	-21	-4
-89	67	19
-37	132	46
40	154	141
128	131	217
198	93	288
234	67	289
219	68	209
164	87	-13
81	92	-316
-10	63	-598
-86	-12	-647
-136	-105	-328
-156	-185	70
-143	-224	225
-106	-208	221
-55	-158	133
-6	-94	30
34	-36	77
60	6	-47
78	36	-216
88	61	-139
97	82	-53
102	90	60
97	82	215
78	53	122
40	18	-136
-7	-13	-263
-58	-36	-315
-102	-46	-201
-133	-53	30
-145	-63	71
-138	-75	28
-112	-78	9
-66	-61	14
-5	-22	36
60	38	44
116	99	54
151	145	53
159	162	45
140	147	47
110	105	34
70	43	-28
36	-19	-78
-1	-76	-173
-40	-110	-251
-85	-119	-136
-128	-104	-7
-157	-71	86
-162	-41	155
-133	-21	202
-84	-15	263
-22	-12	225
35	0	123
77	33	119
97	82	144
95	127	54
74	145	-190
36	122	-311
-6	61	-307
-44	-16	-457
-69	-84	-492
-76	-117	-377
-61	-121	-132
-40	-103	-4
-25	-83	-22
-22	-68	78
-33	-55	150
-42	-36	144
-34	-1	60
-1	40	9
54	77	-11
115	88	44
157	68	51
161	31	42
126	-5	97
65	-20	141
-4	-11	133
-63	11	-25
-102	26	-69
-118	15	-50
-121	-19	-36
-112	-61	91
-96	-90	176
-69	-89	155
-28	-52	28
21	5	-205
69	62	-372
105	103	-524
114	113	-464
99	95	-181
62	51	34
22	-2	156
-16	-54	170
-42	-96	186
-57	-117	152
-60	-117	33
-56	-98	-41
-44	-69	-25
-25	-40	-6
-1	-12	-34
20	16	-27
35	51	53
40	89	90
34	120	116
23	134	233
16	117	260
13	67	71
17	2	-249
19	-58	-453
12	-99	-298
-11	-111	-171
-47	-107	-166
-90	-98	-84
-128	-94	-112
-145	-94	-91
-135	-86	13
-93	-62	51
-30	-19	85
39	34	84
97	79	46
130	106	94
136	112	51
123	103	90
102	85	95
81	64	-113
62	35	-104
41	-2	-136
10	-44	-178
-35	-81	-144
-91	-95	-188
-137	-80	-168
-162	-40	-104
-152	12	-51
-108	52	-7
-44	72	12
25	69	40
82	57	86
116	45	123
125	41	190
113	42	187
86	35	111
52	15	11
19	-23	-11
-12	-67	-2
-40	-107	-90
-71	-126	-63
-103	-121	14
-130	-92	-34
-147	-47	-15
-134	-2	74
-90	32	107
-12	49	116
77	49	39
150	45	-181
186	48	-371
175	62	-247
132	84	-57
70	97	-37
17	81	-60
-20	27	-79
-44	-52	-88
-69	-134	-178
-104	-185	-160
-141	-185	-100
-169	-140	-81
-168	-72	-48
-126	-13	14
-53	22	176
34	32	303
113	39	412
163	61	513
175	103	510
159	147	291
115	168	-25
58	143	-413
-5	70	-774
-68	-27	-847
-120	-118	-532
-157	-176	-44
-167	-186	81
-152	-157	43
-111	-104	123
-58	-49	205
-1	-5	183
51	28	19
93	54	-121
120	77	-135
131	91	-119
127	97	-111
107	85	-162
81	59	-180
42	25	7
6	-11	160
-27	-40	205
-58	-61	182
-81	-71	52
-94	-76	-31
-91	-72	-59
-74	-62	-35
-41	-43	-40
0	-13	48
40	21	145
69	57	117
83	85	116
82	101	126
65	104	96
46	97	34
25	81	-25
2	53	-141
-21	16	-268
-48	-33	-218
-75	-90	-20
-97	-137	-14
-109	-161	-103
-107	-152	-117
-89	-108	-159
-51	-48	-101
1	15	8
62	58	115
120	78	127
160	76	57
167	58	-84
130	40	-312
54	19	-378
-40	2	-202
-126	-21	43
-178	-43	167
-182	-66	144
-143	-84	97
-86	-90	34
-30	-78	-22
-1	-52	-1
1	-15	-72
-17	26	-157
-30	64	-129
-26	89	-40
5	98	20
54	84	-44
105	57	-12
138	26	21
138	3	6
105	-6	83
46	-7	178
-20	-9	181
-76	-29	121
-107	-67	147
-111	-114	43
-94	-143	-88
-62	-134	-47
-29	-80	-113
9	13	-209
48	110	-223
92	189	-157
136	221	19
167	204	142
174	150	135
143	66	-26
78	-24	-312
-12	-116	-441
-105	-189	-398
-174	-228	-331
-208	-223	-162
-201	-169	-12
-161	-87	84
-101	-3	155
-38	49	198
17	61	168
62	41	137
95	18	127
119	19	-6
129	51	-14
123	93	57
99	119	42
56	106	21
9	55	-3
-37	-11	17
-68	-59	75
-82	-77	89
-80	-64	75
-72	-45	15
-69	-38	-16
-70	-48	24
-71	-59	16
-60	-48	31
-33	-4	74
13	65	35
66	131	-104
111	166	-215
137	151	-118
132	93	1
104	16	-55
51	-50	-76
-8	-86	-47
-70	-90	-46
-125	-77	-41
-164	-55	-18
-177	-42	-66
-159	-38	-133
-113	-40	-97
-47	-40	-50
20	-34	22
74	-24	64
104	-4	85
104	18	37
89	39	-51
66	55	-222
46	59	-459
32	49	-430
18	25	-131
2	-12	42
-21	-54	64
-47	-93	136
-75	-123	131
-91	-139	24
-93	-131	-16
-79	-102	-51
-48	-49	2
-5	13	118
44	75	133
93	120	134
130	138	52
150	127	-37
145	95	-32
118	55	4
74	17	-82
22	-9	-185
-24	-25	-176
-58	-35	-166
-79	-43	-114
-88	-52	-19
-89	-56	84
-87	-52	95
-80	-37	57
-67	-9	39
-41	22	1
-5	53	1
40	79	-41
85	93	-42
115	95	-26
123	85	-15
105	61	28
65	23	47
9	-24	44
-51	-75	67
-111	-112	149
-158	-128	115
-186	-121	123
-190	-91	164
-162	-55	61
-105	-21	-95
-26	1	-301
57	18	-395
128	38	-325
171	65	-209
180	102	-64
162	127	-36
121	126	-83
75	86	42
20	15	174
-34	-70	209
-93	-140	250
-148	-171	213
-183	-164	152
-191	-125	-5
-161	-75	-244
-97	-27	-281
-12	14	-265
69	49	-234
130	86	-149
162	119	-112
163	138	-123
147	135	-209
122	102	-209
94	45	-45
61	-21	32
24	-74	44
-18	-110	28
-61	-125	124
-99	-127	289
-127	-125	260
-143	-120	271
-145	-109	115
-133	-86	-138
-104	-51	-294
-58	-4	-341
2	45	-310
66	87	-201
119	113	-2
143	121	68
133	114	152
96	94	125
40	65	29
-12	32	-19
-54	-4	-61
-80	-36	31
-94	-64	133
-97	-83	205
-95	-87	205
-80	-76	181
-51	-50	101
-8	-14	-102
44	29	-251
96	68	-339
136	98	-326
158	105	-131
156	86	-51
131	49	-58
85	2	66
20	-38	142
-55	-63	209
-128	-66	192
-181	-49	56
-201	-29	-82
-182	-13	-151
-131	-12	-176
-59	-22	-189
13	-36	-112
76	-38	-64
122	-21	-30
152	17	39
165	62	79
158	95	55
130	104	-116
80	83	-282
13	41	-209
-65	0	-56
-137	-31	15
-187	-45	71
-208	-54	93
-190	-70	102
-141	-96	105
-71	-120	72
0	-123	49
56	-90	13
86	-20	-52
89	61	-75
74	126	24
54	137	70
44	97	78
45	27	81
50	-33	-15
44	-53	-145
16	-31	-190
-31	7	-62
-84	27	41
-118	2	77
-120	-56	119
-91	-115	59
-40	-131	-72
10	-86	-99
48	6	-221
71	100	-435
90	149	-457
107	130	-319
128	56	-162
139	-28	-63
128	-83	67
87	-87	155
19	-51	225
-53	-11	306
-117	5	326
-153	-17	231
-159	-57	32
-141	-90	-132
-110	-91	-203
-77	-55	-84
-37	-1	-69
4	51	-136
50	85	-36
95	100	7
132	104	-40
151	104	-65
148	99	22
118	79	-4
64	35	-79
-1	-28	-84
-71	-98	-87
-129	-147	42
-163	-158	219
-166	-126	311
-141	-66	225
-96	0	76
-42	52	-57
8	80	-223
49	85	-338
81	77	-376
105	63	-235
122	45	-19
127	26	49
114	2	93
77	-24	39
19	-48	-34
-50	-66	-93
-113	-79	-138
-157	-87	-61
-170	-93	-15
-153	-97	4
-113	-96	85
-54	-82	97
8	-51	5
68	-6	-30
121	41	-11
155	85	196
169	115	449
154	126	472
117	124	250
62	110	20
0	90	-188
-60	65	-486
-113	37	-559
-151	7	-557
-170	-24	-446
-169	-54	-200
-150	-80	-34
-111	-97	77
-65	-105	138
-15	-100	120
30	-77	155
71	-37	312
110	15	408
138	71	409
154	119	263
144	143	23
111	136	-256
53	99	-463
-15	35	-509
-77	-34	-452
-115	-96	-266
-126	-134	-116
-116	-142	-61
-95	-124	-85
-71	-90	-112
-50	-52	-33
-22	-21	34
16	-1	135
69	10	242
121	21	249
159	36	204
166	58	147
138	76	43
86	78	40
23	54	-13
-33	10	-141
-70	-40	-90
-91	-80	-48
-97	-93	-65
-99	-80	-62
-95	-50	-175
-85	-21	-235
-63	-5	-20
-31	0	193
9	2	178
45	16	91
71	45	32
80	84	-63
69	114	-169
46	113	-262
16	74	-270
-14	1	-88
-42	-83	82
-68	-153	61
-92	-184	5
-109	-175	10
-112	-133	21
-100	-77	8
-61	-28	25
-3	8	94
68	30	107
141	49	58
196	74	43
225	106	108
215	139	175
169	159	281
91	151	401
-7	117	332
-106	60	39
-188	-3	-341
-235	-62	-623
-245	-106	-790
-221	-131	-702
-173	-135	-402
-116	-117	-163
-59	-77	-140
-7	-16	-145
46	49	-54
97	106	-30
139	138	115
166	131	231
167	91	213
141	28	209
96	-34	205
41	-78	233
-8	-91	208
-47	-78	194
-78	-51	106
-100	-20	-3
-115	0	-90
-120	7	-66
-106	-1	-5
-69	-19	-90
-12	-36	-190
52	-46	-260
111	-37	-276
145	-8	-240
151	37	-247
131	82	-251
95	106	-59
53	100	175
16	54	337
-16	-12	326
-47	-81	224
-77	-128	213
-101	-142	186
-117	-130	-33
-117	-97	-282
-100	-61	-289
-68	-26	-178
-30	8	-104
7	43	-64
42	82	-86
71	113	-19
99	129	89
116	120	44
119	88	27
97	33	25
49	-29	24
-21	-92	20
-96	-144	-31
-156	-175	-82
-188	-178	-57
-183	-143	-71
-148	-83	-116
-88	-11	-16
-16	48	0
50	77	-13
109	74	-54
150	52	-43
166	39	61
155	47	85
122	74	46
74	101	-62
23	103	-99
-23	70	13
-60	11	133
-89	-48	137
-112	-81	32
-130	-78	-193
-140	-46	-283
-132	-9	-162
-105	17	-14
-56	24	155
4	23	196
64	24	85
112	35	6
137	51	-170
138	59	-359
119	51	-365
85	26	-218
42	-6	-56
-4	-34	40
-49	-55	78
-91	-69	28
-119	-87	81
-129	-104	124
-116	-114	168
-79	-102	155
-24	-62	-43
33	0	-189
81	66	-190
109	117	-66
114	138	-56
99	129	-16
77	99	68
52	61	22
35	22	-24
23	-21	-79
12	-67	-116
-3	-112	-55
-23	-145	22
-46	-154	138
-65	-130	278
-78	-84	260
-76	-31	159
-59	12	13
-36	38	-107
-13	57	-188
8	76	-256
21	98	-259
26	114	-186
26	106	-120
21	61	-142
11	-12	-106
-3	-92	1
-20	-143	124
-40	-147	60
-59	-104	78
-71	-38	158
-70	16	99
-55	37	124
-30	30	83
-1	12	-55
24	8	-322
43	28	-372
54	62	-147
63	93	11
69	97	62
76	74	67
74	30	68
56	-15	70
24	-51	136
-22	-79	236
-69	-96	238
-111	-107	43
-133	-104	-135
-134	-85	-260
-112	-43	-371
-69	8	-497
-16	53	-412
42	77	-234
90	76	-176
121	57	-55
127	37	46
111	27	175
80	24	242
40	16	233
6	-2	180
-22	-36	233
-45	-66	247
-67	-82	95
-85	-66	-12
-96	-29	-72
-93	15	-42
-71	44	-151
-35	51	-163
10	40	-10
48	23	-111
77	13	-135
89	16	1
91	24	155
86	31	176
74	25	47
58	7	-135
30	-21	-241
-4	-51	-182
-42	-81	-208
-77	-107	-136
-99	-122	-74
-105	-121	-26
-92	-93	32
-65	-41	-21
-29	22	-75
10	78	-56
42	110	-8
68	117	-16
75	106	68
62	95	87
36	94	49
3	97	70
-26	90	113
-46	53	185
-55	-13	181
-59	-98	99
-63	-166	-11
-71	-192	-97
-75	-167	-94
-66	-105	-60
-40	-38	-133
1	9	-185
45	26	-182
84	23	-119
102	22	-89
100	32	-141
82	56	-211
57	74	-208
33	74	-82
10	53	30
-18	23	124
-49	5	151
-82	1	196
-106	6	246
-109	-2	204
-86	-36	138
-43	-90	91
8	-137	-69
46	-140	-180
69	-89	-138
72	8	-75
65	104	22
58	158	-28
55	149	-101
56	84	-215
46	1	-319
21	-57	-241
-24	-72	-95
-80	-54	-31
-129	-32	-115
-156	-29	-164
-145	-50	-38
-107	-82	171
-45	-96	194
20	-74	161
81	-23	65
125	37	-81
150	85	-40
153	106	111
135	105	173
102	90	213
57	74	260
14	60	178
-24	39	37
-48	6	-162
-60	-38	-320
-66	-85	-270
-68	-115	-50
-72	-117	141
-76	-88	147
-72	-38	-63
-60	15	-282
-36	60	-383
-8	90	-387
22	104	-242
42	103	-153
52	87	-155
49	50	-184
36	-7	-186
16	-82	-99
-12	-156	116
-44	-210	149
-84	-224	115
-115	-190	184
-129	-122	199
-121	-42	246
-86	20	238
-31	51	263
31	55	233
86	49	213
122	56	209
136	80	25
130	117	-210
106	144	-194
72	145	-93
31	112	-139
-12	53	-167
-48	-8	-246
-77	-57	-239
-89	-84	-243
-87	-90	-282
-72	-85	-175
-51	-77	17
-30	-64	130
-3	-41	98
32	-11	142
74	30	151
116	65	107
151	85	151
163	85	222
145	66	297
102	43	155
37	24	-109
-31	13	-317
-98	6	-515
-151	-12	-483
-183	-40	-316
-191	-80	-180
-172	-114	-44
-122	-130	-24
-52	-116	-41
21	-66	22
82	1	209
116	72	321
121	127	285
103	155	291
72	151	270
41	121	161
10	72	-77
-20	14	-341
-56	-44	-430
-95	-103	-384
-126	-156	-252
-143	-196	74
-137	-217	235
-110	-207	213
-66	-159	135
-16	-77	-157
35	21	-428
81	112	-463
118	169	-255
142	174	-61
148	134	64
131	65	152
96	-2	182
48	-47	149
3	-60	89
-35	-51	97
-60	-35	110
-76	-26	122
-85	-27	98
-90	-33	93
-83	-35	94
-59	-26	43
-21	-3	-61
28	21	-234
70	42	-296
98	55	-406
100	61	-472
84	62	-267
56	54	-48
30	41	47
10	19	123
-8	-11	194
-24	-44	164
-41	-68	122
-54	-76	94
-60	-65	69
-52	-43	44
-35	-17	68
-15	8	159
2	30	183
11	51	125
14	77	45
13	99	-36
11	113	-123
10	109	-178
5	85	-197
0	44	-238
-12	0	-219
-29	-40	-63
-52	-69	51
-81	-87	94
-112	-100	56
-134	-109	15
-134	-113	-9
-106	-108	-39
-47	-92	-52
27	-62	-149
99	-21	-94
143	21	-119
154	60	-192
136	93	-140
104	111	-119
75	112	-22
49	89	37
27	43	111
-2	-17	155
-44	-76	183
-91	-119	192
-125	-131	166
-130	-113	120
-109	-72	74
-65	-24	-11
-15	17	-245
28	45	-320
59	62	-227
81	72	-69
99	79	166
111	77	122
111	64	-67
90	40	-64
46	10	-67
-14	-13	-111
-75	-27	-241
-117	-30	-449
-132	-36	-468
-120	-57	-149
-92	-96	102
-58	-140	129
-26	-161	145
6	-142	66
44	-75	36
90	17	24
142	103	67
192	150	135
221	145	215
214	99	253
160	37	151
65	-12	46
-57	-40	-34
-185	-50	-80
-281	-55	-144
-321	-66	-121
-299	-78	-147
-221	-79	-215
-114	-54	-187
-13	-6	-117
56	48	-14
87	90	-7
86	98	1
76	72	21
65	27	39
64	-13	69
60	-28	56
42	-17	34
6	14	19
-42	38	112
-87	43	155
-111	21	96
-110	-13	90
-90	-41	68
-55	-48	-78
-18	-30	-332
27	1	-394
79	30	-152
132	37	121
180	26	387
197	5	549
175	-11	464
119	-7	124
44	7	-287
-24	18	-536
-68	11	-666
-84	-18	-562
-85	-57	-349
-80	-88	-243
-81	-86	-143
-82	-50	-28
-72	8	34
-47	60	26
-5	86	91
34	81	203
67	52	289
84	22	249
86	1	99
83	-2	-2
78	4	30
65	7	14
38	3	-59
-7	-12	-51
-64	-33	-81
-115	-61	-167
-143	-89	-188
-137	-114	26
-103	-127	47
-54	-117	29
-5	-80	-38
34	-16	-166
66	53	-59
90	104	-108
107	119	-39
110	99	68
93	59	69
51	22	6
-7	4	-42
-68	2	26
-118	0	68
-144	-14	42
-152	-46	-21
-140	-84	-31
-117	-108	25
-81	-100	161
-31	-60	116
29	-6	43
89	43	-48
132	74	-164
151	84	-142
139	85	-9
107	87	116
68	93	89
33	90	22
1	68	-90
-36	20	-332
-83	-42	-558
-136	-103	-459
-183	-141	-194
-199	-149	-13
-173	-130	-19
-102	-100	54
-8	-70	68
83	-47	29
150	-21	133
175	14	128
169	60	164
139	106	137
105	131	111
74	118	105
44	68	77
14	-3	78
-23	-71	61
-65	-111	22
-108	-112	-20
-134	-84	-3
-137	-45	26
-115	-16	83
-74	-1	-58
-23	6	-180
25	22	-170
61	51	-250
85	95	-178
97	131	-41
103	144	59
102	125	42
91	77	-67
66	18	-87
18	-30	-36
-46	-53	66
-116	-55	95
-169	-50	84
-187	-52	0
-163	-70	-206
-102	-92	-259
-26	-105	-176
43	-87	-52
92	-34	41
117	34	-14
124	93	-35
121	116	-33
111	95	-88
93	37	-51
59	-31	40
6	-83	152
-49	-106	167
-101	-98	78
-128	-76	69
-129	-50	32
-109	-31	-65
-79	-12	-120
-48	11	-79
-19	41	-34
12	71	-79
50	89	-37
90	88	-6
123	70	-32
139	43	57
128	22	149
94	11	164
44	7	55
-4	-4	-197
-51	-23	-327
-87	-52	-203
-113	-84	-87
-129	-104	38
-130	-105	68
-117	-89	-113
-87	-64	-201
-44	-33	-315
1	-3	-341
40	28	-159
66	66	9
84	99	186
91	117	292
93	105	279
86	60	239
70	-4	205
44	-66	199
3	-100	116
-42	-99	3
-85	-70	-76
-116	-41	-237
-132	-31	-375
-128	-42	-431
-108	-60	-437
-77	-63	-240
-32	-38	-24
19	13	78
74	68	238
119	100	265
145	96	202
141	60	161
110	16	110
54	-16	44
-12	-21	-27
-71	-6	33
-112	12	27
-125	19	-9
-115	8	79
-86	-15	83
-45	-35	42
-2	-41	-49
37	-29	-292
69	-3	-299
94	29	-88
107	54	-70
107	69	-115
98	68	-76
77	53	-151
48	23	-271
10	-18	-138
-30	-60	24
-71	-99	84
-108	-120	99
-133	-120	85
-139	-99	130
-121	-58	205
-82	-11	191
-23	35	57
37	72	-46
93	98	-84
130	106	-173
141	103	-260
132	92	-208
106	70	-157
68	43	-90
26	8	27
-16	-32	52
-58	-68	15
-96	-101	65
-126	-118	115
-147	-117	113
-145	-98	130
-125	-63	97
-85	-24	78
-31	19	7
29	56	-93
82	88	-101
119	108	-90
132	122	-95
122	127	-110
93	117	-102
48	93	-21
-3	50	46
-53	-5	-30
-95	-69	-47
-124	-127	-39
-134	-170	-101
-125	-189	-74
-101	-182	-86
-61	-154	-110
-18	-108	-137
22	-47	-183
52	19	-116
72	85	1
81	133	238
80	158	357
72	150	274
59	115	93
37	67	-164
11	19	-235
-21	-22	-227
-52	-61	-222
-75	-101	-150
-87	-147	-85
-86	-182	-128
-70	-188	-147
-46	-153	-43
-11	-74	65
33	19	53
81	96	17
124	127	126
153	113	240
159	72	229
139	40	190
101	38	85
54	60	-9
11	80	-140
-26	66	-276
-60	14	-48
-93	-57	70
-128	-113	40
-160	-116	77
-174	-67	-30
-159	6	-137
-107	64	-287
-30	79	-267
51	51	-199
119	9	-100
153	-13	108
154	0	183
128	39	217
92	75	192
52	79	113
14	44	-10
-30	-15	16
-81	-71	29
-132	-105	-66
-178	-113	-61
-196	-101	-118
-181	-82	-162
-125	-56	-168
-45	-25	-130
36	19	-48
105	68	-129
140	106	-253
143	118	-209
119	89	-55
85	34	-43
47	-25	-30
18	-66	87
-7	-83	62
-34	-81	-64
-62	-76	-66
-95	-79	78
-116	-85	149
-117	-83	246
-91	-55	387
-38	0	379
24	64	260
80	121	115
115	149	-30
128	138	-160
117	106	-242
96	70	-249
68	45	-195
36	31	-198
0	21	-230
-45	2	-230
-91	-29	-320
-130	-69	-300
-147	-105	-123
-133	-125	72
-91	-123	242
-28	-100	237
36	-65	66
91	-27	-134
127	9	-292
147	35	-298
144	48	-180
127	47	-66
94	30	16
46	1	163
-9	-29	242
-71	-51	213
-129	-58	177
-170	-52	60
-189	-40	4
-175	-27	-33
-133	-23	-65
-66	-23	103
11	-20	291
84	-11	176
135	12	0
155	38	-197
140	64	-425
99	83	-345
46	88	-59
-4	84	191
-41	66	260
-67	43	201
-86	13	142
-103	-20	87
-122	-49	-30
-134	-68	-98
-131	-64	-211
-105	-41	-345
-52	-11	-245
16	10	-148
84	11	-159
131	-7	-140
152	-31	-74
141	-38	39
113	-21	96
72	21	147
34	60	161
4	76	70
-23	50	-21
-45	-7	-165
-61	-72	-257
-69	-119	-97
-69	-123	150
-59	-91	235
-42	-35	144
-20	17	-8
7	50	-80
34	61	-48
64	57	-17
90	51	-102
110	53	-142
113	61	-76
99	68	53
64	68	130
17	57	34
-31	32	-193
-74	0	-328
-102	-34	-256
-116	-65	-139
-113	-90	64
-101	-106	196
-81	-107	216
-52	-96	69
-22	-68	-187
10	-29	-317
36	15	-311
60	63	-213
79	100	-32
90	122	67
97	120	13
94	95	81
79	45	130
46	-20	109
-2	-86	125
-54	-140	138
-103	-167	133
-130	-164	90
-129	-131	43
-97	-81	29
-47	-20	-12
8	38	-113
48	84	-81
65	115	33
57	129	-21
31	123	-13
1	100	-9
-26	59	-181
-39	7	-188
-43	-43	-136
-43	-85	-79
-47	-104	-30
-59	-103	-37
-75	-85	-7
-87	-62	35
-88	-44	121
-70	-32	113
-36	-21	104
11	-4	129
59	23	99
106	59	41
135	89	-40
147	102	-54
135	91	-50
105	60	-40
59	23	-54
3	-6	-95
-52	-21	-138
-99	-24	-155
-126	-25	-130
-130	-32	-113
-109	-47	-85
-71	-57	56
-27	-52	144
17	-24	80
54	19	33
85	57	-48
107	69	-119
123	47	-136
129	0	-149
116	-52	-152
82	-81	-70
27	-76	-82
-36	-42	-141
-89	-3	-84
-116	21	69
-112	22	117
-81	4	94
-37	-14	110
1	-17	-25
30	-4	37
46	19	33
60	35	-42
74	38	35
86	31	-145
86	25	-280
63	30	-235
15	47	-246
-55	62	-282
-123	56	-269
-170	17	-48
-180	-54	232
-156	-138	337
-113	-203	338
-69	-223	240
-42	-178	103
-24	-84	64
-3	32	-46
36	131	-248
99	181	-223
164	174	31
211	130	142
207	77	65
148	36	-10
43	22	-77
-72	15	-18
-165	-5	-30
-211	-50	-38
-206	-116	-2
-166	-168	-2
-108	-179	-59
-48	-134	-103
11	-52	-48
64	28	-40
108	72	30
136	68	134
136	35	205
110	2	110
64	-2	-79
19	25	-262
-13	56	-275
-28	65	-183
-31	35	-108
-33	-21	13
-40	-76	45
-50	-98	44
-51	-80	-3
-40	-36	-61
-12	5	-86
22	25	-5
48	22	138
62	16	231
59	29	294
49	66	275
41	116	205
38	148	38
37	137	-245
30	83	-410
11	6	-334
-24	-65	-175
-66	-104	-133
-111	-105	-109
-140	-80	-85
-149	-51	-65
-131	-38	9
-92	-41	85
-40	-48	101
17	-44	-30
63	-21	-157
97	17	-246
115	56	-315
117	82	-215
107	81	-62
86	59	94
46	27	213
-9	-5	224
-74	-28	204
-136	-40	149
-174	-49	-2
-172	-56	-172
-129	-65	-210
-56	-72	-222
15	-71	-121
66	-54	19
89	-20	97
89	25	161
85	70	100
87	100	76
105	106	129
121	85	194
121	40	95
90	-15	-84
33	-70	-153
-37	-112	-150
-100	-137	-164
-134	-140	-155
-139	-127	-78
-120	-101	-36
-88	-63	-34
-47	-22	-114
-3	22	-145
42	61	-144
89	96	-33
123	121	93
139	137	147
129	139	168
101	126	130
61	99	142
23	54	92
-9	6	54
-40	-41	-13
-71	-77	-81
-109	-94	-152
-140	-100	-175
-158	-95	-87
-151	-85	0
-115	-67	110
-65	-40	174
-15	-4	97
24	38	-119
45	76	-257
52	95	-211
50	86	-195
46	57	-168
36	18	-118
20	-17	-66
-8	-37	16
-36	-50	46
-64	-59	36
-78	-77	-98
-72	-94	-242
-53	-104	-254
-25	-94	-175
1	-57	-109
23	-2	-18
39	58	37
51	110	63
63	138	84
74	143	119
83	124	130
86	85	113
82	26	164
65	-40	176
34	-105	139
-8	-152	29
-55	-167	-30
-96	-149	-96
-118	-104	-133
-110	-55	-115
-79	-15	-144
-31	17	-151
16	43	-81
49	83	36
65	128	121
67	174	181
65	197	104
64	174	19
68	106	-70
65	3	-104
46	-102	105
11	-181	265
-40	-211	225
-90	-196	54
-122	-150	-136
-124	-90	-330
-96	-35	-406
-44	7	-363
10	33	-289
50	45	-119
69	51	50
65	49	81
48	50	82
30	53	129
18	61	196
14	66	191
8	64	55
-5	48	-59
-32	16	-173
-65	-27	-292
-99	-71	-391
-117	-105	-254
-112	-118	-23
-84	-106	71
-38	-70	142
14	-21	155
61	35	199
98	85	155
122	121	-6
131	138	-64
122	131	-127
99	103	-193
59	54	-151
11	-3	-84
-39	-62	11
-84	-110	33
-112	-138	87
-121	-143	263
-112	-123	312
-90	-86	352
-57	-40	287
-23	2	40
13	33	-158
44	57	-353
69	74	-444
86	88	-435
92	98	-239
86	101	-64
68	87	-96
44	54	-76
15	7	-102
-14	-48	-164
-43	-98	-96
-74	-133	51
-103	-144	30
-129	-133	56
-144	-102	30
-137	-55	-60
-103	-2	-24
-40	47	-4
36	82	-14
111	91	-6
162	74	126
172	41	125
144	10	-5
90	-12	-57
28	-14	-25
-28	-3	28
-66	11	130
-93	22	121
-110	27	48
-121	28	72
-118	24	21
-95	11	-35
-45	-20	-54
19	-66	-69
78	-113	-145
115	-136	-81
119	-116	52
96	-51	94
66	31	91
46	92	-19
41	99	-165
41	45	-205
31	-38	-113
-6	-107	-104
-60	-125	-64
-118	-89	-58
-152	-21	-84
-147	36	11
-107	57	48
-42	40	78
23	13	126
79	4	115
116	28	62
133	77	105
132	119	46
109	132	-150
66	105	-306
10	51	-299
-49	-8	-195
-95	-52	-50
-113	-74	101
-108	-80	102
-87	-79	126
-55	-76	39
-25	-65	-148
7	-41	-292
35	3	-267
62	59	-122
81	110	4
78	137	137
54	128	242
16	85	326
-21	23	249
-44	-35	118
-48	-70	-54
-43	-87	-167
-43	-86	-194
-55	-83	-210
-82	-86	-200
-102	-92	-125
-98	-94	-28
-60	-76	-122
1	-40	-163
62	7	-122
102	47	-2
103	66	11
72	59	-52
32	32	-124
3	3	-189
-3	-15	-43
7	-15	29
19	-2	93
15	11	144
-10	15	191
-46	3	194
-77	-19	91
-88	-43	-10
-68	-61	-76
-24	-63	-55
32	-49	14
94	-18	126
142	27	172
172	83	155
175	134	141
148	169	-13
90	171	-251
9	134	-392
-76	64	-295
-143	-22	-56
-178	-102	68
-183	-156	276
-164	-171	346
-138	-154	258
-120	-118	95
-108	-77	-156
-91	-40	-309
-51	-8	-490
14	23	-429
96	55	-152
170	82	-50
209	95	-32
203	88	30
154	53	138
82	10	213
14	-32	150
-36	-56	39
-67	-57	-21
-88	-45	-74
-107	-32	-75
-124	-29	-57
-133	-34	-24
-124	-36	56
-89	-24	14
-28	9	-90
40	51	-123
101	91	-164
138	106	-215
150	90	-140
132	48	-100
97	-3	7
51	-48	138
1	-78	127
-48	-91	84
-94	-91	36
-123	-83	-31
-135	-68	-142
-125	-52	-194
-95	-34	-319
-50	-19	-237
1	-7	-8
47	6	62
85	25	161
104	53	169
107	87	123
97	113	141
72	113	68
42	80	4
9	13	1
-22	-62	-122
-50	-120	-164
-69	-140	-92
-87	-121	-15
-94	-74	129
-95	-23	128
-87	11	22
-64	21	2
-28	16	-76
22	10	-196
78	15	-217
132	32	-148
170	56	-5
180	72	52
151	71	70
84	53	115
-8	19	133
-110	-22	150
-190	-59	97
-233	-88	-13
-232	-100	-4
-191	-99	-44
-129	-79	-123
-60	-44	-104
3	-2	-102
60	41	-27
110	74	-32
156	91	-46
189	90	11
201	80	39
187	67	-41
142	60	-186
77	62	-15
-4	59	270
-81	43	219
-140	5	76
-181	-49	-93
-191	-103	-265
-174	-137	-270
-129	-133	-372
-68	-90	-323
-3	-21	-120
54	45	-40
96	84	-29
116	84	-163
117	51	-163
106	8	-25
84	-28	57
52	-41	167
14	-38	196
-30	-29	167
-68	-26	141
-97	-36	44
-106	-50	-76
-100	-58	-112
-85	-54	-48
-64	-39	70
-44	-20	185
-19	-4	217
17	8	141
68	24	82
124	45	125
172	77	98
190	100	-80
163	99	-269
94	65	-316
0	3	-315
-88	-62	-336
-151	-109	-270
-174	-119	-135
-159	-99	51
-120	-64	107
-74	-34	91
-31	-20	159
4	-13	217
35	-1	242
63	26	175
91	66	-11
114	104	-173
124	125	-253
117	121	-422
95	99	-387
59	69	-81
18	41	80
-25	10	150
-67	-35	124
-106	-96	48
-136	-160	9
-155	-198	-14
-151	-185	28
-119	-114	54
-65	-7	44
4	90	57
69	135	-32
119	110	-167
136	35	-215
120	-45	-168
77	-92	-68
15	-86	-27
-44	-47	60
-91	-13	176
-111	-11	242
-105	-40	196
-79	-79	33
-40	-92	-129
0	-54	-223
33	18	-200
56	95	-166
67	138	-156
63	135	-142
44	96	-57
13	41	63
-20	8	100
-43	2	87
-49	15	40
-38	29	14
-20	26	28
-10	5	90
-16	-27	111
-37	-52	104
-61	-64	72
-70	-54	7
-51	-29	41
-6	4	-5
50	38	-54
101	67	-122
128	82	-287
134	79	-297
121	56	-179
101	24	-15
79	-9	112
49	-34	47
15	-45	-99
-31	-46	-154
-79	-53	-142
-121	-70	-18
-144	-101	135
-149	-131	249
-135	-142	216
-111	-121	155
-78	-64	123
-38	11	76
7	82	0
60	130	-193
109	147	-270
143	137	-264
155	115	-66
140	93	108
107	69	-25
63	40	-129
17	-2	-219
-28	-60	-363
-74	-122	-439
-118	-170	-409
-155	-190	-246
-169	-175	-54
-152	-134	152
-101	-81	335
-31	-27	372
41	19	372
97	61	292
125	104	111
132	147	-167
127	174	-324
116	183	-256
100	154	-161
69	94	-5
17	13	123
-54	-66	145
-134	-127	96
-198	-163	56
-223	-168	111
-201	-155	179
-135	-124	267
-41	-81	285
54	-28	155
139	30	-166
195	82	-413
216	114	-470
201	118	-446
158	92	-230
93	46	-5
15	1	137
-61	-35	192
-130	-54	113
-183	-60	-32
-215	-63	-46
-222	-66	-38
-201	-66	-56
-156	-61	11
-90	-39	52
-13	-6	48
64	33	96
128	68	238
170	93	249
186	104	164
179	103	-77
151	92	-412
101	69	-410
40	38	-241
-28	-6	-167
-91	-52	-45
-137	-88	91
-156	-104	76
-141	-93	-40
-104	-62	-90
-55	-24	-43
-11	7	-46
24	26	21
46	38	141
63	49	91
81	66	28
97	85	-109
106	95	-235
97	85	-182
72	45	-104
34	-11	48
-4	-71	142
-36	-115	106
-58	-127	-9
-71	-110	14
-85	-68	85
-98	-23	74
-104	14	6
-93	30	-109
-60	28	-159
-9	13	-214
46	-2	-251
93	-11	-259
115	-4	-86
111	16	69
86	37	138
52	48	201
20	34	74
-10	-7	-33
-30	-69	-162
-42	-130	-222
-47	-165	-108
-41	-157	-72
-32	-101	56
-23	-15	221
-21	75	222
-27	143	123
-34	168	-29
-32	147	-131
-15	90	-124
14	19	72
45	-41	255
61	-79	261
52	-84	56
20	-62	-143
-23	-28	-215
-62	-2	-359
-91	1	-338
-105	-18	-163
-110	-51	-33
-108	-74	93
-90	-71	98
-50	-42	48
15	1	8
98	35	-80
172	47	-155
211	38	-215
194	22	-36
128	13	106
36	21	31
-47	35	173
-102	34	238
-118	9	242
-108	-35	249
-88	-75	98
-69	-87	-39
-52	-57	-132
-29	1	-211
10	59	-173
56	96	-28
97	95	-41
115	70	-115
104	40	-149
67	24	-185
23	22	-177
-17	27	-84
-41	26	6
-56	13	48
-67	-2	29
-79	-18	29
-91	-29	79
-93	-41	-48
-81	-60	-163
-54	-83	-92
-18	-96	-138
20	-86	-140
58	-43	-76
92	17	-7
121	76	90
141	102	142
151	87	172
135	41	98
97	-8	56
34	-34	19
-37	-32	-72
-104	-11	-197
-156	5	-196
-181	0	-118
-185	-26	-103
-166	-59	-2
-129	-80	108
-80	-78	249
-23	-52	281
32	-17	260
81	17	205
114	45	49
132	65	-56
133	85	-113
120	96	-152
87	91	-235
36	58	-326
-26	1	-410
-89	-71	-311
-136	-138	-273
-153	-177	-252
-138	-181	-139
-98	-149	-31
-53	-97	175
-12	-38	213
16	16	213
44	56	187
80	86	140
126	102	97
175	102	-66
200	88	-224
184	62	-184
118	32	-127
18	1	-120
-90	-27	16
-174	-51	29
-213	-67	99
-206	-74	183
-165	-67	213
-109	-41	280
-50	-7	193
5	28	1
54	51	-179
99	57	-217
133	51	-252
157	44	-260
159	45	-89
139	55	85
97	65	98
39	61	93
-25	35	39
-92	-3	-55
-143	-45	-56
-172	-75	-109
-168	-87	-129
-129	-85	-38
-65	-77	-82
5	-66	-156
62	-48	-31
89	-15	74
81	38	41
49	97	-14
4	145	-7
-31	162	-24
-50	138	-102
-48	85	-144
-33	14	-164
-15	-59	-12
-4	-125	71
-10	-179	44
-26	-213	65
-48	-218	41
-58	-182	117
-44	-106	168
-2	-8	219
60	82	271
122	135	158
162	140	-28
160	109	-176
122	67	-251
59	37	-295
-4	26	-184
-47	20	-100
-70	-1	-75
-79	-43	-59
-85	-94	-137
-96	-123	-141
-109	-112	-59
-113	-56	77
-96	22	105
-52	85	52
10	110	-26
78	94	-105
135	56	-208
169	22	-166
172	12	40
149	21	114
104	29	152
49	24	112
-8	-2	12
-59	-39	-80
-100	-67	-86
-124	-79	-48
-135	-68	49
-132	-51	203
-113	-33	222
-84	-20	170
-42	-1	-32
3	26	-300
46	62	-373
81	98	-320
97	109	-273
98	89	-183
82	34	-37
53	-29	129
17	-77	246
-25	-90	275
-67	-68	255
-103	-36	96
-126	-19	-193
-132	-36	-460
-119	-81	-530
-91	-127	-323
-52	-149	22
-11	-120	305
29	-50	360
65	34	320
97	103	127
121	131	-203
133	126	-349
132	102	-234
111	82	-44
72	72	17
22	69	106
-34	54	60
-84	15	-70
-119	-43	-145
-131	-108	-109
-120	-154	-10
-88	-167	64
-42	-143	169
7	-94	31
52	-37	-15
91	18	-3
119	63	-48
133	96	-16
129	113	26
103	109	163
49	86	204
-18	48	186
-92	10	108
-152	-21	-23
-182	-36	-100
-175	-41	-183
-134	-45	-211
-74	-56	-232
-10	-71	-294
44	-76	-211
87	-53	1
115	-2	54
132	68	31
139	130	95
127	159	113
95	138	29
40	79	-74
-23	-2	-71
-88	-76	-15
-134	-122	20
-161	-135	-53
-166	-118	-84
-156	-85	-24
-132	-43	49
-100	-7	95
-57	17	98
0	26	49
60	20	-104
117	8	-242
158	-3	-284
169	1	-195
156	17	-14
120	38	94
76	49	98
26	38	84
-23	7	66
-70	-34	36
-108	-63	43
-128	-71	199
-126	-58	412
-100	-35	401
-56	-16	246
-9	-2	90
32	7	-113
58	25	-256
75	58	-282
86	101	-245
97	135	-279
101	143	-313
96	117	-378
74	60	-485
30	-5	-508
-22	-59	-565
-75	-94	-395
-111	-106	-50
-129	-110	74
-126	-114	176
-107	-120	242
-78	-119	256
-39	-99	233
4	-53	164
47	11	129
87	74	78
109	115	34
109	118	9
88	83	91
54	26	123
20	-34	117
-7	-78	111
-24	-98	16
-40	-96	-38
-67	-78	1
-108	-50	102
-156	-13	162
-188	29	117
-184	70	22
-134	97	-92
-43	98	-252
64	68	-278
155	20	-103
203	-22	12
197	-40	27
151	-21	-26
87	22	-95
25	61	-155
-22	66	-180
-51	28	-84
-69	-36	17
-82	-97	65
-84	-120	133
-72	-95	84
-47	-36	29
-14	22	82
19	52	43
41	47	-38
48	18	-122
46	-2	-168
42	3	-163
44	32	-134
48	68	-98
48	83	-89
36	60	-28
9	3	85
-28	-65	162
-65	-119	147
-87	-139	155
-91	-126	111
-76	-92	19
-49	-49	-58
-17	-8	-92
15	28	-32
44	64	29
69	94	142
86	115	-21
95	117	-403
90	98	-518
77	59	-446
52	12	-182
21	-31	34
-17	-64	2
-63	-86	-3
-111	-98	85
-157	-102	234
-185	-97	260
-182	-82	225
-148	-48	180
-82	-5	-2
0	41	-223
76	79	-300
130	101	-211
159	105	-91
159	92	69
139	72	150
110	47	103
71	15	79
28	-23	-4
-26	-63	-142
-84	-98	-150
-135	-118	-48
-168	-114	14
-166	-87	96
-128	-43	238
-59	1	250
18	38	118
86	63	-133
124	81	-378
127	101	-449
99	118	-457
50	128	-402
-1	114	-200
-44	65	-10
-70	-15	50
-80	-113	94
-77	-199	176
-65	-247	145
-58	-242	91
-52	-191	110
-50	-120	104
-42	-53	130
-25	-8	133
6	18	127
48	37	59
93	65	-40
132	103	-123
151	140	-125
148	158	-64
122	142	-38
80	91	53
29	19	69
-24	-46	68
-68	-86	105
-99	-94	65
-111	-72	29
-105	-38	46
-83	0	124
-49	32	91
-13	54	-69
24	67	-186
55	65	-261
81	49	-233
90	22	-143
82	-2	-28
54	-17	53
12	-17	26
-34	-3	-86
-78	7	-252
-101	5	-331
-105	-15	-316
-96	-42	-182
-86	-63	-38
-77	-70	143
-68	-58	281
-52	-39	281
-20	-19	238
23	-4	87
74	12	41
113	35	-25
130	63	-129
120	88	-110
91	89	-75
54	57	-78
16	-2	-121
-18	-66	-169
-51	-108	-211
-81	-111	-201
-105	-79	-72
-116	-32	39
-106	7	-42
-77	27	-85
-35	34	28
5	43	44
38	60	28
61	80	13
75	82	-20
85	52	29
89	-3	118
83	-61	222
59	-90	233
19	-72	113
-29	-22	-23
-74	27	-168
-98	38	-249
-96	-1	-200
-70	-70	-155
-34	-125	26
6	-131	252
35	-80	172
52	-4	22
56	50	-108
47	53	-208
33	12	-193
19	-40	-165
14	-63	-56
22	-38	12
39	16	9
52	60	47
42	59	96
4	9	127
-64	-59	36
-136	-109	-94
-185	-106	-161
-186	-53	-156
-134	15	-26
-50	71	28
39	92	29
101	84	66
128	68	132
120	64	111
95	71	-37
67	74	-42
42	56	-69
19	13	-120
-11	-39	-101
-50	-80	-126
-91	-89	-137
-120	-71	-163
-129	-43	-84
-112	-21	43
-71	-14	110
-22	-13	206
29	-2	248
69	25	158
100	68	82
117	110	-19
122	132	-267
116	123	-468
97	88	-364
68	36	-103
32	-16	21
-5	-60	83
-41	-99	47
-69	-129	93
-89	-147	182
-100	-143	113
-95	-114	57
-77	-63	-43
-40	0	-54
4	56	15
50	96	-82
89	112	-205
109	110	-204
107	101	-114
84	90	-79
45	79	-119
-3	55	-154
-52	14	-71
-99	-46	44
-138	-119	61
-166	-183	131
-174	-222	205
-158	-218	300
-120	-174	343
-60	-98	224
9	-11	46
74	60	-245
127	103	-509
158	106	-559
164	84	-410
147	50	-116
111	28	141
66	24	176
20	32	95
-18	38	36
-46	24	15
-62	-12	100
-79	-56	116
-93	-91	60
-109	-90	63
-120	-57	14
-112	-6	-162
-80	38	-211
-19	56	-109
52	51	-51
117	36	-34
150	33	20
143	49	115
104	76	65
48	85	25
-4	63	4
-46	9	3
-76	-58	72
-99	-108	116
-116	-120	81
-123	-97	-23
-113	-54	6
-77	-16	30
-18	7	-123
48	14	-282
106	22	-331
143	35	-408
158	54	-384
151	64	-85
132	51	79
105	21	56
67	-18	84
17	-47	102
-41	-58	139
-98	-57	275
-140	-54	433
-157	-60	449
-148	-70	320
-118	-71	116
-83	-46	-124
-44	5	-376
-11	71	-552
20	130	-646
50	160	-495
80	156	-238
99	123	-64
102	76	-12
91	22	-71
63	-31	-48
27	-83	-43
-12	-126	31
-49	-147	129
-80	-137	213
-98	-99	209
-101	-46	145
-87	-4	102
-52	13	6
-7	6	-3
38	-6	-15
78	-2	-38
101	28	20
104	71	91
90	99	17
61	88	-129
24	36	-148
-18	-32	-101
-56	-90	71
-93	-108	249
-120	-93	264
-138	-60	108
-147	-36	-50
-142	-29	-188
-120	-29	-323
-71	-21	-238
-1	8	-114
81	51	0
155	90	140
195	103	162
189	84	49
141	44	-38
69	10	-142
2	-9	-248
-39	-11	-131
-54	-11	-5
-53	-21	-18
-56	-48	-64
-72	-83	-16
-96	-105	16
-111	-101	-27
-99	-70	-88
-56	-27	-117
6	17	-66
69	48	66
117	70	202
137	85	242
131	95	266
107	103	189
69	100	37
29	83	-100
-18	48	-192
-63	6	-182
-99	-36	-124
-120	-71	-126
-118	-95	-166
-100	-106	-190
-66	-101	-138
-31	-85	-241
7	-54	-310
41	-16	-123
74	21	-4
102	51	120
116	64	221
111	64	302
85	56	297
40	43	117
-9	32	-61
-52	18	-136
-77	-3	-110
-85	-31	-172
-79	-55	-252
-66	-63	-189
-53	-48	-52
-36	-8	80
-14	37	85
18	68	63
56	64	53
94	26	65
115	-25	3
111	-65	-113
80	-76	-72
28	-56	-32
-28	-27	58
-77	-16	133
-106	-38	135
-119	-87	64
-121	-136	-147
-120	-153	-306
-117	-124	-353
-106	-56	-282
-79	24	-107
-31	81	8
27	100	80
88	84	142
128	57	209
140	41	243
128	48	232
93	68	147
51	81	4
8	72	-35
-36	40	-104
-80	-4	-126
-121	-44	-176
-147	-66	-196
-149	-72	-90
-118	-71	-12
-61	-68	87
4	-65	130
58	-48	155
92	-13	12
103	41	-71
102	99	-70
103	135	-249
105	131	-355
105	86	-442
86	17	-273
44	-47	12
-13	-90	87
-76	-96	86
-120	-79	7
-137	-55	6
-126	-39	0
-99	-27	59
-62	-16	151
-27	4	141
12	35	98
51	70	24
91	96	-11
122	101	8
135	86	44
122	58	87
86	28	129
39	2	78
-6	-19	13
-42	-37	-22
-68	-54	-90
-87	-70	-144
-101	-76	-119
-112	-71	-109
-111	-54	-138
-92	-32	-125
-54	-8	-62
0	11	-26
56	23	-5
105	33	34
136	43	14
143	55	-18
125	62	-63
89	58	-110
39	38	-191
-16	-1	-140
-68	-51	-28
-108	-101	45
-128	-127	224
-129	-127	238
-113	-98	138
-84	-50	57
-50	-2	-47
-12	30	-143
22	40	-189
54	39	-99
80	37	-16
90	47	-5
79	69	15
46	93	22
2	99	28
-46	69	106
-87	5	120
-107	-81	-14
-105	-160	-178
-86	-205	-292
-55	-203	-306
-20	-157	-202
13	-84	-26
46	-8	87
77	51	128
100	83	134
115	95	86
118	93	-31
109	87	-134
86	76	-160
49	56	-140
3	25	-88
-48	-15	-5
-97	-55	82
-136	-86	128
-159	-94	77
-159	-79	-120
-135	-50	-256
-98	-21	-254
-49	-2	-83
3	7	54
51	9	124
96	18	242
130	35	242
152	61	158
151	85	-57
126	92	-374
77	79	-456
13	43	-48
-54	5	222
-107	-27	105
-137	-42	30
-143	-39	-111
-128	-29	-140
-97	-15	-116
-56	-7	-140
-11	-4	-18
34	0	82
77	9	150
107	28	189
123	50	234
120	68	199
102	71	103
78	52	41
50	14	-112
26	-36	-215
1	-80	-143
-26	-107	-90
-60	-108	-172
-96	-90	-226
-123	-63	-249
-132	-41	-177
-115	-32	-56
-72	-31	26
-17	-30	64
35	-19	-8
70	6	-64
81	35	-15
69	63	36
50	74	16
31	66	36
15	44	47
-2	18	111
-24	-2	209
-60	-14	271
-101	-20	281
-133	-27	234
-139	-36	144
-110	-45	-77
-47	-47	-289
31	-35	-473
104	-9	-479
151	25	-291
166	54	-100
149	68	62
113	66	104
66	46	76
19	20	-19
-25	-5	-132
-63	-25	-169
-93	-41	-54
-114	-52	98
-118	-61	201
-110	-62	238
-85	-53	213
-51	-31	178
-8	2	-3
40	37	-213
84	64	-325
118	83	-325
133	85	-224
125	78	-99
94	62	-45
46	39	-68
-8	9	-98
-58	-32	-90
-97	-79	-122
-125	-121	-149
-135	-142	-70
-133	-135	19
-115	-102	109
-81	-50	161
-34	-2	208
14	33	242
57	44	265
87	43	201
101	39	8
106	39	-80
105	42	-47
100	41	22
84	33	112
52	13	91
4	-8	48
-55	-26	-13
-110	-30	-219
-148	-27	-441
-158	-26	-558
-143	-32	-353
-111	-49	-45
-67	-64	61
-19	-67	15
33	-46	-27
83	-4	111
123	48	117
144	93	116
142	115	185
122	103	149
91	59	109
60	-3	-1
29	-64	-139
-2	-106	-179
-42	-115	-145
-87	-90	-115
-124	-45	-55
-137	0	-106
-114	24	-121
-58	23	-64
13	2	37
77	-18	96
116	-20	69
125	4	61
110	45	-11
80	85	-33
39	104	-108
-3	89	-119
-48	50	-45
-92	-1	-11
-117	-46	68
-123	-75	115
-107	-84	110
-80	-74	86
-56	-54	-12
-46	-26	-159
-46	5	-205
-45	29	-172
-30	45	-124
2	47	-26
40	36	68
74	19	71
86	7	115
77	1	138
54	-1	38
27	-7	19
4	-21	53
-18	-39	56
-38	-53	66
-61	-47	8
-79	-17	-121
-79	25	-236
-59	63	-333
-20	78	-432
28	61	-339
68	25	-60
93	-10	209
99	-23	326
95	-13	196
85	12	85
72	29	-11
52	21	-156
25	-16	-251
-15	-69	-295
-60	-118	-173
-102	-144	28
-129	-137	61
-133	-105	82
-116	-55	45
-79	3	48
-29	56	164
24	109	194
68	148	313
97	170	335
104	163	152
88	123	-34
57	55	-234
18	-28	-422
-12	-106	-446
-31	-162	-303
-39	-181	-98
-42	-167	138
-46	-129	218
-50	-87	117
-49	-49	-28
-37	-24	-181
-12	-12	-116
21	1	-98
49	22	-277
62	57	-283
58	102	-164
39	138	1
20	155	147
10	130	203
11	71	181
15	-11	191
7	-91	178
-19	-143	81
-64	-157	77
-113	-129	111
-147	-83	87
-145	-34	13
-107	2	-89
-39	23	-90
35	37	14
97	51	63
133	72	12
143	94	-21
131	106	-121
105	105	-417
72	85	-500
33	56	-327
-12	21	-270
-60	-12	-133
-104	-43	6
-130	-76	19
-136	-103	94
-118	-123	109
-82	-124	98
-36	-103	108
10	-59	116
48	-5	140
80	43	107
101	76	77
113	89	86
111	86	-43
91	74	-189
57	57	-80
9	35	64
-40	2	130
-81	-38	154
-102	-81	77
-105	-107	-93
-93	-109	-173
-69	-79	-201
-39	-22	-322
-6	40	-208
29	92	29
63	116	26
91	110	22
101	85	51
90	51	63
57	20	77
15	-6	16
-32	-28	-30
-67	-53	-51
-82	-81	-89
-77	-107	-129
-53	-123	-62
-22	-118	-31
9	-95	-53
31	-55	7
42	-11	26
42	28	39
33	54	133
24	64	152
20	61	115
24	49	30
33	37	-89
38	24	-221
28	15	-227
-1	6	-81
-49	-5	-40
-104	-19	42
-151	-36	30
-175	-50	-58
-172	-57	-98
-142	-52	-104
-96	-31	-90
-42	0	-120
12	34	-18
62	63	109
104	84	173
133	95	138
149	96	65
143	89	10
119	70	-53
81	36	-115
36	-14	-116
-10	-71	-160
-47	-125	-200
-79	-158	-170
-100	-157	-238
-107	-125	-176
-98	-77	15
-68	-29	201
-20	3	343
35	15	383
89	16	300
123	18	28
133	30	-339
120	52	-478
92	72	-387
54	79	-205
18	61	-54
-18	24	9
-49	-20	61
-78	-60	68
-101	-87	107
-113	-96	119
-112	-90	102
-97	-69	105
-67	-40	53
-30	1	22
11	45	-6
50	89	-136
83	117	-208
105	124	-151
113	109	-86
103	72	-39
77	23	68
35	-28	130
-14	-74	100
-61	-108	107
-105	-125	33
-135	-115	-48
-150	-83	-84
-140	-30	-142
-110	19	-168
-60	49	-117
3	46	-40
63	14	-45
114	-24	39
142	-44	89
143	-25	126
123	27	225
86	84	194
44	108	177
0	82	100
-43	14	-48
-91	-60	-203
-132	-101	-282
-166	-87	-282
-178	-32	-230
-162	30	-104
-118	64	-76
-54	57	-11
10	23	80
64	-4	80
102	-1	-37
127	31	-131
141	66	-145
148	72	-214
139	35	-202
106	-32	-78
49	-93	21
-24	-117	68
-90	-101	246
-126	-59	322
-125	-29	253
-91	-24	144
-44	-37	64
-2	-40	80
28	-8	-60
50	60	-117
77	139	-30
109	187	-64
138	174	-265
143	110	-479
113	22	-455
45	-51	-284
-36	-90	69
-110	-95	231
-152	-94	168
-163	-107	140
-161	-134	-30
-152	-159	-76
-147	-154	-119
-129	-110	-56
-90	-38	44
-17	33	65
72	84	84
151	103	-13
191	103	-97
178	106	-125
122	118	-140
52	135	-222
-2	134	-163
-28	96	-60
-30	17	64
-25	-85	200
-28	-181	164
-45	-241	74
-69	-248	-31
-86	-206	-40
-87	-129	3
-71	-37	100
-44	47	142
-15	112	172
15	145	155
42	150	46
72	128	-7
97	95	-113
110	56	-234
103	22	-297
69	-2	-273
15	-22	-138
-48	-35	-1
-104	-38	-13
-135	-31	16
-136	-13	101
-103	7	79
-51	16	57
5	7	-20
49	-18	-64
75	-43	-46
79	-46	-21
69	-19	16
57	31	-19
49	77	-12
46	89	54
42	51	132
25	-18	145
-9	-94	90
-54	-136	30
-97	-127	-74
-121	-83	-228
-118	-26	-327
-87	10	-203
-39	16	-40
8	6	-20
48	3	-9
78	21	93
98	62	200
115	105	133
121	123	-108
111	106	-283
74	56	-217
14	0	-70
-54	-44	-98
-114	-66	-78
-143	-68	-32
-140	-62	-17
-109	-55	50
-65	-53	66
-26	-46	103
5	-31	107
29	-9	121
52	18	63
77	39	5
100	51	-65
112	53	-155
106	50	-114
79	41	-149
35	30	-107
-16	14	-68
-67	-9	-64
-113	-29	-3
-148	-45	11
-164	-52	-8
-158	-56	-32
-125	-64	-13
-68	-78	55
-2	-93	173
60	-91	116
104	-59	-16
121	2	-157
119	78	-214
107	138	-122
92	163	-59
77	138	9
56	88	-51
26	31	-112
-16	-5	-35
-60	-16	16
-96	-21	24
-116	-39	87
-115	-83	54
-101	-137	-72
-84	-177	-133
-61	-175	-106
-36	-124	-58
0	-43	-44
49	35	68
98	83	118
132	89	112
137	65	97
103	34	-6
42	15	-42
-28	11	-80
-83	14	-27
-110	11	89
-108	-4	95
-84	-24	15
-52	-39	-79
-21	-38	-101
9	-20	-102
34	11	-107
58	41	-113
82	58	-35
96	61	20
98	49	-17
84	29	-50
51	7	-43
3	-9	39
-50	-19	121
-99	-27	164
-125	-34	128
-122	-45	138
-93	-59	112
-48	-72	-32
-8	-70	-262
19	-48	-383
29	-7	-270
29	48	-202
33	99	26
48	130	297
76	136	281
99	115	149
105	78	-55
86	32	-316
42	-11	-463
-12	-50	-381
-64	-81	-135
-104	-102	99
-125	-113	141
-126	-112	84
-108	-101	13
-69	-82	51
-14	-58	65
49	-30	-2
111	3	87
154	41	159
163	84	38
135	114	-178
79	125	-344
7	110	-470
-63	77	-345
-121	34	29
-160	-4	142
-172	-31	96
-162	-53	103
-132	-78	4
-92	-106	-68
-46	-131	-149
-2	-137	-99
34	-114	7
67	-59	23
98	5	99
126	58	58
147	80	22
144	66	91
115	35	58
54	5	42
-26	-8	54
-104	-10	35
-156	-13	56
-167	-28	108
-142	-56	210
-96	-82	196
-47	-86	140
-10	-58	31
16	-4	-144
34	55	-219
51	104	-300
70	131	-273
86	142	-166
91	145	-86
89	142	-50
75	126	-26
62	81	47
50	7	6
36	-85	-84
12	-161	-92
-30	-198	-10
-81	-181	60
-126	-124	70
-147	-55	38
-128	-2	32
-74	20	64
2	22	29
75	20	11
127	28	-3
150	45	29
144	58	62
115	58	8
68	38	-42
14	13	-76
-41	-4	-144
-88	-6	-197
-118	0	-197
-125	1	-140
-116	-13	-45
-100	-43	41
-86	-72	64
-77	-83	41
-60	-64	97
-36	-24	117
8	21	71
62	56	74
114	71	76
140	72	-108
135	64	-211
100	51	-79
46	33	-55
-4	5	-129
-46	-29	-161
-71	-65	-166
-86	-88	-109
-92	-89	-26
-87	-70	49
-70	-43	135
-40	-19	38
-1	0	-183
34	15	-302
54	38	-335
54	68	-306
36	96	-176
13	103	38
-2	72	222
-5	10	222
2	-66	142
6	-130	147
1	-155	103
-16	-142	37
-41	-102	-39
-61	-63	-84
-68	-41	-9
-55	-35	84
-28	-30	134
8	-6	186
44	40	178
70	103	97
87	157	4
91	183	-215
85	169	-341
67	112	-203
42	27	-99
11	-65	-82
-24	-145	-113
-56	-195	-192
-86	-200	-98
-103	-162	-7
-105	-95	-9
-89	-19	5
-50	38	32
3	65	137
58	64	254
104	54	320
125	53	268
122	68	196
100	93	74
69	105	-116
41	92	-215
17	48	-205
-12	-9	-147
-48	-55	-164
-96	-74	-201
-150	-61	-137
-190	-38	-29
-201	-22	-48
-172	-23	-215
-106	-36	-267
-16	-43	-280
71	-31	-261
133	2	-56
155	45	75
132	84	133
80	101	180
16	96	216
-35	77	217
-61	49	249
-60	18	254
-43	-19	167
-25	-58	72
-19	-94	-48
-28	-116	-189
-38	-115	-289
-38	-96	-159
-19	-65	41
20	-41	68
66	-27	13
99	-11	-113
111	17	-211
105	65	-142
89	121	-150
76	157	-178
66	144	-69
53	81	49
26	-14	194
-20	-97	272
-79	-130	194
-127	-105	89
-148	-46	-17
-131	3	-230
-88	7	-336
-34	-30	-189
9	-82	72
33	-103	230
39	-75	222
42	-5	138
46	64	-94
54	93	-378
57	70	-474
49	11	-377
27	-44	-224
-5	-67	-78
-37	-54	56
-63	-22	199
-81	-2	205
-93	-4	122
-97	-25	71
-92	-38	29
-69	-25	56
-28	12	-44
26	61	-153
84	93	-93
123	101	9
136	87	22
116	65	16
69	47	71
14	27	123
-43	3	150
-93	-36	74
-131	-81	-26
-154	-114	-140
-157	-117	-194
-135	-88	-207
-89	-40	-215
-21	3	-140
52	20	-17
117	15	-52
158	3	-103
169	3	-31
152	27	2
118	60	26
74	85	1
28	76	24
-15	31	70
-52	-32	105
-85	-93	184
-108	-120	242
-121	-111	205
-124	-69	55
-110	-19	-101
-81	26	-189
-33	54	-109
22	62	15
79	62	-8
125	58	-47
150	58	-164
148	62	-257
121	66	-204
82	63	-108
37	43	-24
0	7	-32
-30	-38	-9
-55	-81	-6
-76	-107	33
-97	-110	46
-112	-96	77
-118	-76	149
-110	-58	118
-85	-48	106
-46	-35	81
1	-6	52
50	40	99
92	98	95
114	145	-115
109	161	-318
77	132	-306
25	71	-195
-29	-7	-171
-68	-81	-155
-81	-130	-97
-72	-157	4
-58	-153	95
-53	-127	107
-62	-86	82
-76	-29	-4
-75	27	-100
-41	77	-110
21	102	-66
98	101	-3
158	77	74
181	41	196
158	14	241
103	-2	141
35	-6	-84
-24	-9	-279
-62	-19	-368
-87	-39	-436
-102	-68	-309
-110	-93	-147
-112	-102	-44
-102	-91	-9
-79	-62	32
-38	-23	95
8	16	84
51	45	-40
85	64	-39
102	68	84
102	64	162
86	51	275
57	33	285
17	13	264
-26	-11	161
-65	-30	-28
-95	-43	-140
-107	-43	-234
-108	-31	-351
-92	-11	-292
-61	16	-99
-18	38	-3
38	53	69
103	58	152
160	61	96
196	63	-67
198	61	-192
162	53	-231
91	29	-133
0	-14	-39
-85	-71	6
-151	-127	63
-186	-160	106
-188	-160	82
-166	-121	76
-126	-64	104
-85	-8	72
-42	30	43
-3	45	45
34	49	69
71	53	4
104	70	-102
127	89	-127
128	98	-75
104	81	11
54	38	122
-10	-19	242
-68	-67	222
-112	-89	77
-126	-82	-211
-118	-56	-490
-95	-32	-452
-65	-26	-302
-38	-30	-170
-10	-35	-48
18	-25	42
49	6	126
77	51	150
95	96	87
99	117	-22
93	114	-116
81	82	-186
65	36	-138
49	-17	-52
26	-66	37
-12	-111	141
-63	-142	141
-115	-151	121
-150	-131	89
-150	-84	76
-111	-21	34
-43	41	-47
34	89	-24
92	118	-68
118	135	-170
107	150	-326
71	162	-351
32	158	-125
0	118	19
-17	36	121
-26	-79	130
-35	-192	58
-54	-263	58
-81	-269	107
-106	-212	80
-115	-128	-114
-95	-51	-257
-45	-9	-190
22	5	-107
89	11	-83
135	34	13
151	76	124
136	115	179
103	128	184
58	99	178
20	40	85
-15	-20	-71
-45	-50	-287
-72	-47	-352
-98	-26	-192
-112	-14	-87
-113	-29	-2
-92	-62	28
-52	-86	29
-2	-71	8
50	-13	-36
90	66	4
114	135	33
117	161	68
105	139	136
82	92	155
54	41	182
28	13	175
0	-2	48
-28	-13	-136
-60	-39	-245
-93	-78	-302
-124	-113	-300
-145	-129	-86
-151	-111	84
-134	-67	128
-98	-11	110
-46	35	-8
12	63	-66
63	71	-45
100	67	7
117	61	20
113	51	53
96	38	91
63	17	51
24	-7	-43
-20	-25	-119
-65	-34	-93
-107	-29	-40
-130	-22	-61
-127	-24	-120
-95	-41	-97
-35	-71	-121
32	-94	-105
92	-92	80
122	-52	101
121	16	-36
96	86	-173
64	130	-221
39	124	-185
22	70	-127
9	-13	6
-12	-89	79
-43	-131	107
-80	-133	93
-107	-97	102
-110	-48	155
-85	-2	102
-36	30	12
16	50	-16
58	63	-30
82	70	-97
88	70	-108
88	56	-99
90	28	-84
91	-8	-107
82	-40	-48
52	-57	-19
2	-57	-49
-59	-43	55
-116	-29	-32
-148	-22	-58
-144	-29	-88
-116	-38	-153
-71	-43	-28
-31	-35	26
0	-12	67
23	18	65
42	46	13
69	62	9
95	63	32
110	56	81
102	43	130
64	35	74
8	29	0
-53	20	31
-104	-2	9
-130	-36	-113
-130	-81	-200
-112	-119	-172
-84	-133	-53
-48	-112	85
-12	-55	171
24	18	135
57	85	24
83	123	-136
98	121	-297
101	82	-291
91	23	-318
69	-28	-344
40	-61	-144
1	-69	10
-44	-62	10
-88	-51	25
-117	-43	14
-123	-44	61
-106	-44	130
-68	-36	124
-25	-19	110
15	8	-16
44	34	-134
68	53	-72
90	59	14
110	60	50
123	60	128
116	63	151
83	67	112
27	65	27
-35	47	-20
-87	12	-22
-111	-36	-72
-108	-81	-9
-89	-110	54
-64	-108	11
-43	-77	3
-20	-23	32
11	38	50
50	89	68
93	121	47
121	127	16
120	113	-45
86	80	-257
32	40	-349
-26	0	-209
-70	-40	-111
-97	-78	-23
-109	-114	-1
-114	-143	-40
-120	-162	-20
-121	-162	-17
-111	-134	-11
-84	-89	32
-36	-29	111
17	27	77
69	68	-62
107	88	-246
130	88	-311
135	83	-132
129	78	1
111	80	31
85	79	175
48	64	218
8	29	87
-30	-29	-28
-64	-91	-171
-91	-135	-86
-109	-139	90
-123	-97	135
-128	-19	91
-119	62	-108
-87	112	-257
-30	110	-257
40	56	-130
107	-21	56
156	-84	186
171	-99	162
150	-64	72
101	-5	-13
36	41	-55
-26	43	-50
-83	-9	-51
-122	-89	-54
-139	-157	-28
-134	-175	11
-107	-132	-62
-66	-47	-86
-24	43	-66
11	109	-62
32	133	-181
47	122	-262
64	98	-82
90	74	4
119	59	78
137	45	55
128	26	-32
82	-2	-10
6	-35	-25
-85	-58	20
-159	-67	90
-195	-59	180
-189	-43	221
-145	-24	207
-83	-6	132
-16	12	-72
38	36	-249
79	64	-282
107	91	-190
123	100	-176
122	87	-127
106	53	-12
72	9	28
28	-31	32
-18	-60	46
-58	-75	105
-85	-81	118
-97	-88	135
-94	-93	106
-83	-93	64
-65	-74	80
-41	-36	-50
-14	15	-260
19	65	-311
52	92	-384
82	85	-466
98	49	-356
97	2	-147
75	-38	152
35	-55	304
-11	-48	386
-56	-33	352
-89	-26	194
-108	-33	60
-111	-50	-178
-105	-58	-341
-93	-47	-279
-71	-10	5
-39	40	130
11	82	164
72	95	87
139	77	-79
188	41	-109
198	9	-98
166	-3	-43
99	5	30
19	18	49
-50	19	-15
-91	-1	-26
-100	-38	-68
-88	-72	-80
-65	-84	-39
-49	-67	36
-37	-29	130
-26	10	164
-11	35	171
9	40	112
28	32	-14
41	26	-164
44	25	-182
39	30	-221
23	28	-254
4	12	-222
-23	-16	-228
-55	-45	-130
-87	-60	-59
-112	-55	7
-123	-37	59
-115	-21	60
-84	-21	71
-38	-36	95
13	-56	149
60	-59	213
96	-35	242
117	19	196
122	83	183
116	131	63
98	145	-163
70	117	-387
36	59	-438
-5	-11	-320
-46	-75	-194
-85	-116	-16
-111	-135	-9
-122	-127	-61
-108	-100	-11
-71	-56	-25
-20	-4	-30
36	48	54
83	95	101
113	123	149
119	132	171
105	121	6
76	92	-135
36	51	-75
-3	2	-46
-47	-48	-186
-89	-94	-255
-125	-125	-141
-151	-136	-16
-163	-126	22
-156	-102	94
-130	-74	135
-91	-47	142
-35	-27	99
27	-6	19
97	21	-52
159	58	-182
202	93	-94
216	110	12
192	101	-5
135	63	33
56	13	103
-19	-28	170
-77	-44	183
-109	-35	110
-117	-19	-76
-114	-9	-140
-105	-20	-166
-95	-41	-193
-77	-56	-19
-45	-49	192
3	-12	238
61	36	151
117	79	70
158	94	-108
171	82	-365
154	52	-567
109	22	-472
45	2	-241
-30	-16	-116
-108	-38	13
-175	-70	52
-221	-106	-15
-232	-122	-157
-204	-104	-80
-143	-49	89
-63	25	155
20	89	205
90	109	184
137	79	117
161	14	40
162	-52	52
140	-87	30
104	-77	18
51	-29	2
-4	22	-85
-55	49	-166
-94	36	-156
-112	-9	-90
-110	-61	46
-94	-99	115
-67	-103	110
-34	-81	97
0	-43	23
36	-2	87
68	36	82
92	71	-45
100	103	-194
91	127	-251
66	132	-213
30	117	-89
-5	81	60
-40	34	52
-67	-6	36
-91	-33	70
-106	-45	75
-113	-50	44
-111	-59	24
-93	-69	-47
-61	-77	-173
-16	-68	-309
35	-44	-335
83	-7	-226
120	30	-36
135	54	59
133	61	110
116	49	164
95	26	70
74	-7	43
56	-45	77
34	-81	124
-4	-109	172
-60	-118	167
-130	-103	33
-187	-66	-179
-210	-26	-319
-185	2	-356
-117	13	-300
-29	10	-176
49	12	-38
95	32	-14
105	72	-27
91	113	-13
77	126	24
68	99	30
66	33	66
56	-41	115
24	-96	64
-30	-111	12
-98	-82	14
-151	-37	36
-174	2	29
-158	17	49
-105	15	86
-34	14	126
39	23	134
104	51	152
149	84	75
170	105	-92
164	98	-203
132	65	-302
81	20	-331
19	-28	-183
-40	-60	-34
-83	-80	47
-108	-88	145
-110	-92	7
-100	-92	-51
-82	-84	4
-56	-62	6
-28	-30	-42
6	8	-183
41	43	-113
72	72	19
91	90	56
96	101	142
85	106	241
62	103	207
35	83	139
5	40	60
-24	-23	-129
-55	-97	-289
-85	-152	-301
-105	-173	-229
-112	-149	-90
-98	-89	-59
-64	-16	-226
-19	43	-349
27	71	-328
66	78	-171
91	66	34
101	55	201
101	45	217
88	32	209
63	4	134
23	-44	22
-28	-98	94
-82	-140	60
-122	-151	-100
-134	-123	-185
-116	-74	-175
-74	-25	-71
-23	1	103
16	3	249
37	-5	158
41	3	-48
41	37	-135
44	93	-167
57	145	-202
67	161	-103
65	122	11
39	38	60
-10	-59	32
-65	-135	-17
-117	-163	64
-139	-141	30
-133	-99	-11
-101	-57	84
-57	-36	178
-14	-29	254
19	-15	253
40	18	171
54	76	42
67	138	-115
82	182	-241
94	189	-228
99	155	-158
93	98	-114
67	37	-213
32	-12	-298
-13	-50	-160
-56	-82	-66
-92	-111	-93
-112	-134	-158
-115	-139	-125
-100	-119	-17
-68	-70	-4
-26	-11	14
24	44	46
70	80	135
113	92	225
141	89	182
151	80	126
141	72	84
113	64	-13
69	47	-77
15	18	-35
-44	-21	-50
-103	-60	-55
-152	-89	-65
-180	-99	-210
-183	-93	-149
-157	-75	-45
-106	-50	16
-39	-23	173
26	11	230
85	47	338
126	85	304
147	113	2
148	121	-243
122	109	-403
72	77	-518
3	34	-542
-77	-14	-426
-144	-61	-157
-182	-109	82
-175	-155	133
-130	-190	120
-64	-206	51
-5	-188	-40
33	-135	-7
44	-52	117
42	36	323
46	105	402
66	140	265
102	137	74
131	104	-179
135	58	-340
100	14	-373
29	-25	-382
-49	-61	-289
-118	-91	-140
-153	-113	-41
-154	-115	59
-128	-92	120
-93	-41	95
-60	29	128
-30	98	142
-1	149	87
33	169	-6
70	158	-48
107	124	29
136	78	80
145	30	90
132	-15	134
98	-51	158
48	-79	126
-11	-93	52
-65	-95	-134
-107	-90	-261
-124	-81	-223
-116	-71	-139
-87	-60	-4
-42	-41	32
5	-13	-7
51	28	-44
86	72	-103
107	106	-76
117	116	-59
111	99	-60
92	62	-38
57	16	-25
15	-23	34
-29	-49	95
-75	-60	65
-112	-64	87
-143	-64	139
-162	-64	64
-166	-63	-64
-144	-57	-82
-103	-43	-52
-44	-16	-6
23	20	83
81	59	-23
124	96	-151
145	118	-165
145	121	-296
127	101	-341
94	62	-133
44	12	72
-20	-39	152
-93	-81	78
-158	-108	-27
-195	-117	-18
-195	-112	-4
-154	-90	24
-84	-51	46
-4	-4	76
63	47	144
107	90	26
128	109	-213
130	96	-297
121	58	-210
104	6	-74
78	-42	4
38	-71	-97
-12	-86	-261
-66	-88	-206
-111	-93	-83
-137	-103	37
-139	-111	127
-117	-104	107
-79	-72	130
-30	-16	155
23	45	103
75	91	81
117	106	28
144	93	-34
151	63	-55
138	41	-60
107	33	-30
69	36	-74
28	33	-97
-10	8	-24
-46	-39	-11
-78	-93	-9
-105	-125	15
-122	-121	-41
-121	-79	-87
-102	-17	-64
-62	38	2
-16	70	11
29	77	-66
65	76	-52
86	76	61
97	86	104
98	98	0
86	95	-20
59	72	9
17	29	11
-40	-20	22
-101	-60	-27
-151	-88	-34
-178	-100	-13
-176	-105	82
-148	-102	204
-97	-86	260
-39	-48	232
16	11	59
64	82	-118
100	142	-230
122	169	-292
131	145	-226
129	77	-101
116	-15	-137
91	-97	-235
53	-147	-235
2	-151	-185
-54	-124	-172
-111	-84	-147
-149	-52	-65
-154	-36	24
-123	-36	120
-63	-39	152
3	-28	152
60	1	95
96	45	7
107	93	-26
103	127	-23
97	138	-8
88	121	31
72	86	109
43	37	117
-10	-15	29
-70	-63	-60
-129	-106	1
-162	-131	93
-160	-134	-8
-126	-112	-28
-75	-68	13
-25	-13	-153
15	38	-328
44	65	-418
66	71	-378
86	59	-198
104	46	-39
109	38	42
97	39	176
65	38	245
21	18	192
-22	-23	133
-53	-79	117
-64	-126	84
-60	-147	-104
-49	-126	-153
-35	-72	-111
-23	-8	-123
-5	43	-28
18	65	-27
45	60	-67
68	43	-31
75	32	21
56	41	128
18	66	105
-28	92	72
-67	98	77
-87	74	34
-85	21	-20
-71	-52	-38
-60	-121	-5
-58	-166	-64
-63	-170	-76
-65	-133	-20
-51	-64	33
-16	18	124
33	93	103
82	145	34
114	160	-64
125	135	-133
114	84	-168
90	19	-159
58	-38	-12
26	-78	72
-8	-93	98
-44	-90	24
-83	-76	-66
-110	-63	-157
-121	-56	-284
-109	-51	-378
-78	-44	-384
-36	-23	-278
4	11	-135
37	56	11
60	97	-21
78	119	-20
87	113	61
85	77	78
65	23	93
24	-29	65
-31	-65	121
-86	-75	217
-121	-60	249
-126	-35	196
-99	-16	87
-52	-11	10
-6	-21	-51
29	-33	-90
46	-33	-81
53	-16	-117
57	16	-99
69	45	24
89	60	78
107	51	4
114	22	-32
101	-10	-28
67	-31	-46
18	-33	6
-35	-24	-7
-80	-15	-55
-107	-16	-75
-116	-30	-44
-111	-45	-17
-97	-50	-90
-82	-36	-177
-61	-7	-125
-37	25	0
-4	48	59
38	53	96
82	50	-39
116	43	-174
127	43	-184
111	47	-127
65	45	-18
1	29	118
-66	-6	127
-120	-52	-61
-145	-101	-27
-140	-134	81
-109	-145	14
-59	-132	-49
-11	-98	-68
31	-48	-53
58	11	8
74	67	-15
77	112	-92
71	135	-75
58	132	-44
38	106	-83
11	62	-30
-23	19	128
-54	-24	205
-81	-57	285
-92	-81	225
-90	-96	100
-70	-94	104
-41	-77	-92
-6	-38	-315
31	11	-381
68	58	-408
98	88	-228
117	89	45
122	68	95
107	39	48
81	22	17
40	21	-52
-4	26	-34
-44	21	-89
-80	-14	-137
-104	-77	-152
-118	-145	-178
-121	-190	-117
-112	-187	-76
-89	-133	18
-52	-48	113
-7	31	194
41	83	183
87	93	74
119	81	-1
132	65	-5
125	60	58
102	68	105
63	71	98
17	57	102
-30	21	41
-72	-24	-142
-108	-59	-205
-129	-72	-163
-134	-56	-82
-119	-27	-10
-83	3	22
-32	23	65
24	32	21
78	42	-76
115	55	-166
133	70	-127
132	74	-23
114	55	-10
80	17	4
32	-34	102
-21	-75	204
-75	-98	204
-117	-97	185
-138	-88	112
-133	-81	-58
-105	-81	-273
-62	-80	-371
-22	-61	-335
12	-18	-271
36	40	-202
57	93	-107
84	115	16
110	98	24
131	51	8
128	5	93
91	-19	154
24	-13	117
-57	4	58
-129	6	0
-172	-23	-13
-174	-80	10
-143	-131	-28
-99	-149	0
-52	-111	68
-13	-36	46
24	41	-51
59	92	-195
96	101	-248
122	82	-211
132	62	-118
116	62	-22
79	77	9
31	81	14
-15	53	24
-48	-13	77
-80	-94	44
-105	-157	24
-124	-166	24
-133	-122	-4
-120	-53	17
-80	7	53
-19	35	93
45	33	126
99	24	133
128	32	44
137	62	-188
132	98	-387
122	116	-328
107	99	-125
81	49	29
37	-9	79
-28	-53	72
-97	-70	51
-152	-65	68
-181	-58	2
-173	-60	-112
-137	-69	-125
-85	-70	-88
-31	-54	-3
19	-15	60
65	32	27
105	68	-102
136	80	-140
150	65	-49
139	40	29
100	19	84
42	10	97
-22	6	94
-79	-1	24
-116	-18	-11
-137	-39	64
-139	-53	69
-128	-49	59
-101	-23	49
-58	11	-37
-3	36	-176
57	41	-280
111	25	-245
148	3	-179
155	-11	-38
138	-9	31
102	3	-32
52	15	-40
-1	14	-71
-56	-7	-61
-105	-37	-16
-142	-70	30
-158	-94	49
-148	-105	108
-116	-103	213
-70	-87	287
-28	-54	352
2	-1	225
19	67	-52
29	136	-186
43	186	-223
67	197	-243
97	166	-319
115	97	-398
110	17	-245
72	-58	-151
10	-113	-176
-60	-145	-247
-117	-163	-230
-143	-167	-81
-139	-159	21
-111	-130	152
-68	-82	178
-22	-16	155
24	49	140
68	100	179
109	124	280
140	125	248
156	114	59
147	98	-115
115	85	-190
65	68	-244
11	40	-229
-41	-5	-139
-85	-63	31
-114	-120	130
-125	-158	43
-121	-164	21
-101	-137	7
-62	-91	-24
-15	-32	-14
34	20	42
77	63	130
107	91	122
120	101	129
118	96	150
105	74	137
78	44	115
39	13	17
-8	-9	-119
-60	-21	-186
-110	-27	-234
-150	-26	-252
-170	-25	-271
-167	-23	-325
-140	-12	-168
-94	9	3
-34	35	-38
30	53	-136
86	49	-90
127	19	-32
143	-24	-49
137	-55	104
115	-54	224
88	-18	225
62	31	173
37	62	-86
6	41	-325
-46	-28	-423
-114	-123	-243
-188	-196	-22
-240	-208	119
-242	-148	176
-183	-40	79
-77	64	40
41	122	-25
133	121	24
172	77	79
154	27	61
100	2	16
38	11	-111
-4	32	-113
-24	38	2
-27	12	7
-31	-42	35
-40	-96	68
-53	-123	45
-58	-106	128
-47	-54	167
-20	7	115
15	56	11
46	83	-29
69	91	-105
83	96	-242
89	106	-280
92	117	-204
92	116	-51
83	92	37
60	43	52
24	-14	-25
-22	-64	-72
-68	-94	-102
-107	-101	-124
-127	-96	-40
-124	-86	64
-97	-78	149
-47	-61	204
14	-32	203
78	15	80
130	68	-69
158	110	-162
159	124	-204
132	104	-150
89	56	13
32	2	124
-28	-41	67
-89	-63	-55
-145	-72	-192
-187	-77	-202
-206	-83	-42
-191	-91	33
-148	-92	49
-80	-77	109
-8	-40	74
52	7	22
97	56	-66
118	93	-215
122	113	-181
114	114	-90
97	99	-112
71	74	-131
36	38	-155
-4	-4	-102
-46	-48	15
-85	-86	63
-119	-108	55
-145	-115	21
-160	-107	28
-157	-95	48
-123	-85	29
-59	-75	-57
29	-60	-153
121	-29	-112
190	17	-76
216	68	-130
194	112	-53
135	130	72
63	117	192
0	82	263
-47	39	247
-79	-1	181
-107	-33	47
-133	-64	-55
-152	-93	-121
-156	-110	-192
-127	-104	-349
-69	-64	-280
9	3	-30
89	77	-1
145	123	12
170	122	-19
160	72	-44
124	-2	-27
75	-70	-68
20	-105	-31
-30	-102	-28
-72	-79	62
-102	-56	186
-117	-52	246
-115	-66	266
-100	-78	113
-71	-66	-124
-39	-23	-313
-3	42	-320
34	109	-259
71	153	-132
107	156	9
132	126	57
144	77	119
126	31	81
82	0	0
13	-14	-34
-59	-20	-60
-117	-29	-110
-148	-47	-86
-147	-74	-68
-124	-97	-44
-93	-103	47
-61	-87	50
-35	-45	67
-5	5	52
30	52	37
74	85	8
117	99	-19
149	97	76
156	82	171
133	63	249
90	39	216
29	12	26
-30	-20	-178
-83	-50	-406
-116	-72	-446
-130	-83	-269
-125	-78	-165
-102	-66	-145
-68	-50	-62
-27	-35	46
16	-18	138
54	7	213
89	41	182
111	81	147
118	113	39
104	124	-63
67	103	-111
12	50	-227
-51	-17	-202
-108	-84	-70
-142	-124	-15
-151	-135	-7
-138	-116	69
-110	-81	100
-79	-42	57
-44	-15	23
-5	1	-43
41	11	-74
93	21	-79
138	36	-125
167	55	-157
162	67	-84
124	67	-59
61	48	-13
-7	15	8
-71	-23	-4
-119	-58	42
-144	-81	49
-156	-89	87
-150	-86	23
-128	-78	-109
-92	-59	-166
-41	-33	-112
14	6	11
66	57	152
105	109	183
127	145	91
131	149	31
123	116	-54
107	49	-143
84	-30	-182
50	-98	-116
8	-135	-80
-37	-135	-72
-82	-110	-21
-111	-74	-40
-123	-42	-55
-111	-21	-80
-83	-9	-105
-43	6	-59
1	29	22
46	58	-3
92	79	-30
126	81	-15
142	57	-70
131	20	-70
89	-16	4
25	-33	90
-46	-32	105
-101	-24	105
-128	-25	91
-124	-45	24
-100	-78	-25
-71	-102	-7
-50	-98	43
-41	-56	0
-34	8	-109
-23	72	-108
1	109	11
34	110	49
63	88	11
82	59	-52
78	43	-122
60	36	-104
33	30	-62
8	7	35
-13	-30	89
-34	-68	56
-52	-86	60
-71	-70	82
-78	-27	130
-63	18	233
-27	40	240
24	28	65
70	-1	-6
95	-21	-102
86	-4	-397
50	47	-630
5	109	-550
-26	136	-312
-33	105	-164
-18	19	-16
4	-86	16
14	-163	12
8	-187	61
-16	-158	31
-38	-109	14
-54	-69	63
-54	-54	90
-40	-55	97
-19	-41	74
5	2	-12
27	71	-70
52	138	-24
72	174	68
87	166	-10
87	115	-192
64	50	-201
25	-8	11
-25	-50	133
-71	-85	40
-106	-119	-102
-121	-152	-119
-119	-171	35
-104	-155	100
-79	-101	138
-46	-22	162
-4	52	106
38	98	116
82	106	91
114	91	42
127	76	16
121	71	-32
93	80	-97
51	82	-118
4	57	-136
-46	7	-176
-91	-56	-196
-122	-105	-196
-139	-121	-221
-135	-103	-209
-111	-61	-57
-68	-19	49
-16	15	45
37	36	37
83	52	54
113	66	74
122	74	84
115	65	70
91	39	67
56	2	69
15	-35	66
-24	-56	90
-57	-55	66
-82	-42	11
-95	-27	-17
-97	-21	-2
-86	-19	29
-64	-14	24
-34	7	3
5	43	-9
48	81	-49
91	106	-187
121	103	-364
136	74	-478
131	32	-412
109	-5	-190
75	-31	-23
33	-50	30
-6	-71	63
-45	-104	149
-84	-139	196
-125	-162	196
-159	-157	207
-178	-112	222
-174	-47	155
-135	18	44
-70	63	-39
8	81	-194
77	82	-353
118	78	-351
121	84	-186
89	94	-41
35	100	68
-21	81	44
-66	38	49
-93	-20	130
-95	-76	79
-78	-113	-37
-43	-129	-167
-4	-126	-183
31	-110	-133
52	-82	-24
59	-38	-5
56	16	-76
52	72	-80
61	109	-15
85	106	0
105	61	-53
113	-11	50
90	-74	60
36	-107	27
-34	-97	41
-94	-61	52
-126	-26	90
-124	-11	90
-96	-21	86
-60	-35	25
-30	-35	-51
-9	-5	-71
11	46	-62
36	100	-107
66	131	-92
92	133	9
102	113	125
86	84	149
54	60	100
16	40	86
-13	16	124
-29	-18	91
-36	-60	-99
-46	-99	-215
-64	-116	-300
-92	-100	-355
-114	-56	-282
-119	-4	-80
-98	41	44
-51	59	46
8	57	66
66	38	97
109	22	82
129	15	-43
121	19	-137
90	25	-150
42	25	-83
-14	14	21
-67	-14	164
-109	-50	182
-128	-85	102
-123	-105	34
-95	-102	-183
-48	-74	-309
6	-28	-246
63	20	-150
110	51	-13
138	60	110
140	41	210
113	12	236
62	-15	130
-2	-22	-13
-61	-6	-193
-105	21	-341
-123	44	-289
-123	43	-35
-110	17	127
-95	-31	176
-80	-84	168
-62	-118	130
-39	-126	38
-5	-105	-203
35	-61	-308
75	-11	-270
102	39	-154
111	79	0
107	102	-25
88	100	-86
65	80	-16
42	40	53
21	-5	91
-5	-46	141
-38	-75	152
-77	-84	76
-116	-79	-57
-143	-63	-139
-148	-45	-93
-122	-21	-46
-67	12	-22
6	49	-4
86	86	11
155	108	70
194	106	91
195	76	109
157	33	98
88	-7	53
7	-33	48
-70	-36	78
-125	-25	96
-150	-13	77
-143	-10	-18
-115	-16	-123
-76	-27	-214
-34	-32	-300
7	-25	-238
42	-6	-168
71	19	-123
94	43	-86
106	60	-119
104	67	-135
87	57	-122
59	32	-153
21	-11	-151
-20	-58	12
-63	-97	168
-103	-112	300
-134	-97	276
-150	-58	102
-144	-19	-75
-116	2	-251
-69	-3	-259
-15	-27	-182
36	-52	-78
77	-51	2
101	-16	62
111	45	113
115	106	150
114	145	149
107	139	57
90	95	-24
57	24	-12
12	-48	70
-42	-102	44
-99	-129	-20
-141	-126	-95
-163	-103	-101
-153	-70	-78
-114	-40	-51
-47	-16	20
30	3	4
104	22	-21
152	48	-101
163	84	-98
133	117	-5
77	135	44
10	119	101
-52	61	92
-94	-25	-1
-115	-117	-69
-123	-176	-109
-125	-183	-138
-124	-135	-170
-116	-57	-178
-95	12	-79
-54	44	61
4	32	64
68	-5	-1
124	-32	-10
156	-21	-35
159	34	-49
128	106	-48
79	158	-40
20	158	8
-31	99	59
-71	7	25
-98	-78	35
-110	-122	155
-112	-117	266
-103	-77	360
-83	-32	330
-50	-2	53
-7	8	-234
42	11	-425
94	21	-631
136	41	-602
164	67	-335
167	77	-110
147	63	75
100	24	92
33	-21	42
-42	-60	38
-112	-84	-72
-160	-90	-100
-178	-93	-39
-161	-97	-8
-113	-98	74
-54	-86	147
4	-52	128
49	0	60
76	59	9
84	106	-7
86	130	-11
86	123	83
87	100	192
86	70	189
74	41	133
47	16	28
4	-13	-157
-48	-45	-289
-99	-80	-131
-135	-104	52
-152	-108	24
-147	-89	-104
-119	-48	-200
-78	-7	-168
-25	27	-77
32	49	42
90	62	78
136	77	66
164	92	66
167	106	10
141	108	-120
95	85	-240
34	37	-142
-31	-30	-19
-92	-94	-17
-142	-136	24
-178	-143	44
-195	-119	81
-189	-79	110
-156	-42	123
-94	-20	134
-16	-13	105
61	-9	53
127	3	-50
162	30	-155
165	63	-273
137	85	-345
96	81	-278
46	50	-239
-3	4	-215
-47	-37	-20
-88	-60	152
-118	-62	196
-133	-55	141
-123	-59	81
-86	-79	32
-26	-107	-48
39	-117	-43
96	-89	34
132	-20	125
141	71	126
134	150	74
114	186	-23
90	166	-74
61	108	-27
22	40	27
-26	-11	80
-83	-35	-12
-133	-45	-159
-167	-55	-195
-168	-75	-223
-139	-97	-211
-91	-102	-128
-40	-80	-52
-2	-29	36
19	29	178
30	78	234
43	99	133
65	93	79
90	72	-44
110	45	-194
104	23	-198
72	-1	-182
18	-29	-60
-39	-62	-34
-83	-93	-119
-99	-105	-118
-91	-92	-72
-68	-56	26
-43	-17	24
-23	12	2
-2	21	19
23	14	14
51	10	16
80	16	37
93	38	74
85	64	105
54	74	155
15	58	167
-21	18	82
-44	-30	-54
-55	-64	-176
-61	-74	-309
-67	-57	-381
-75	-29	-277
-72	-1	-89
-56	13	54
-23	19	164
20	21	189
56	28	97
80	41	10
83	55	-51
72	59	-30
55	48	54
36	26	94
16	-5	54
-11	-36	4
-41	-63	-47
-75	-86	-120
-97	-100	-68
-104	-108	-30
-89	-101	-87
-60	-81	-150
-27	-46	-185
5	-7	-103
30	32	-90
53	64	-83
72	86	67
90	103	160
99	112	141
93	112	62
74	97	-46
38	56	-67
-1	-4	-91
-42	-77	-70
-76	-137	45
-100	-166	29
-113	-152	-57
-110	-97	-114
-87	-27	-90
-42	36	-30
17	71	-34
78	78	13
122	66	36
136	55	3
116	58	-23
68	74	5
7	89	-12
-50	85	-63
-92	47	-21
-111	-18	30
-108	-99	79
-90	-165	50
-62	-195	-42
-33	-177	-128
-12	-115	-132
0	-34	-109
5	40	3
8	83	192
22	82	155
46	45	28
81	1	28
105	-30	-17
110	-35	-205
86	-13	-371
37	14	-345
-24	27	-128
-79	13	89
-113	-24	213
-126	-61	200
-118	-80	149
-95	-65	112
-54	-28	-26
-1	18	-83
63	51	-38
124	62	-38
169	63	-20
175	62	39
148	72	58
90	88	-69
22	95	-195
-36	82	-228
-77	43	-195
-101	-5	-81
-117	-50	-32
-132	-72	-32
-139	-79	-13
-135	-69	61
-111	-58	224
-65	-55	238
-11	-50	182
42	-35	108
85	-3	-34
113	40	-177
129	83	-262
132	106	-117
122	98	22
90	64	-72
37	18	-254
-35	-23	-302
-105	-49	-197
-158	-64	-4
-174	-78	142
-155	-95	180
-108	-115	152
-50	-127	13
2	-116	-64
45	-75	-123
77	-12	-134
100	53	-49
113	103	-47
113	121	4
99	109	24
65	80	-50
24	45	-145
-20	12	-109
-52	-19	85
-76	-56	166
-91	-95	162
-102	-125	145
-113	-130	115
-115	-103	-48
-101	-48	-190
-61	13	-231
2	51	-165
74	59	-7
131	43	21
158	24	25
147	25	38
105	46	14
57	74	24
17	80	34
-7	51	-13
-18	-4	12
-28	-61	-8
-44	-92	-118
-65	-83	-190
-83	-45	-170
-90	-8	-33
-78	7	36
-53	-2	63
-21	-21	58
15	-21	22
51	6	-25
90	57	-46
118	102	-86
132	115	-91
116	91	37
66	41	155
-5	-2	180
-79	-23	130
-130	-19	67
-148	-2	-42
-130	5	-124
-92	-6	-176
-54	-34	-162
-22	-56	-22
-1	-57	160
20	-32	238
48	10	168
81	48	-2
108	68	-243
118	60	-348
103	30	-301
64	-13	-236
17	-56	-121
-32	-94	4
-70	-116	138
-96	-122	189
-111	-110	77
-113	-83	-43
-108	-45	-163
-89	-8	-200
-57	23	-185
-18	43	-150
25	59	-71
63	71	-34
91	87	-11
103	98	12
100	96	60
81	72	102
50	25	54
12	-35	-38
-29	-97	-45
-67	-136	-23
-98	-147	28
-110	-129	86
-106	-93	86
-84	-52	97
-52	-14	69
-15	16	62
26	42	-49
68	68	-155
115	93	-96
161	114	-32
196	120	-31
209	111	-92
181	81	-5
110	38	89
2	-8	43
-123	-50	-106
-231	-81	-230
-291	-100	-221
-296	-107	-214
-247	-107	-149
-164	-102	72
-72	-93	208
9	-78	191
69	-52	134
118	-15	79
151	32	-8
172	80	-167
172	115	-214
148	129	-170
94	110	-70
24	68	48
-46	10	99
-100	-43	132
-128	-79	125
-135	-92	108
-125	-80	29
-110	-55	-125
-92	-26	-149
-61	4	-100
-19	33	-88
37	61	-90
94	85	-112
132	101	-140
141	103	-99
117	93	-38
74	68	22
26	38	66
-8	3	53
-26	-32	65
-28	-65	65
-30	-97	68
-38	-118	111
-51	-123	119
-62	-108	81
-60	-70	60
-42	-24	-40
-10	21	-162
30	47	-166
62	53	-192
85	43	-168
90	28	-61
85	18	39
69	14	75
48	13	58
20	2	8
-12	-21	-75
-45	-52	-30
-77	-83	-26
-96	-96	-100
-103	-88	-86
-93	-54	-75
-70	-5	-137
-40	48	-215
-6	95	-160
23	122	25
46	128	222
64	111	257
77	80	190
81	40	113
77	6	-7
61	-16	-63
36	-29	-170
6	-35	-241
-31	-46	-176
-63	-65	-127
-92	-88	-17
-108	-103	63
-109	-96	20
-93	-66	43
-59	-19	155
-16	28	179
31	61	83
66	72	-40
82	63	-151
78	48	-292
51	29	-383
19	13	-341
-16	-11	-190
-44	-41	-55
-68	-82	-30
-86	-123	31
-96	-149	116
-97	-151	112
-83	-125	104
-56	-81	95
-20	-24	93
18	29	134
50	70	164
74	101	143
90	117	49
101	121	-111
105	113	-230
104	93	-205
85	62	19
50	22	231
1	-20	199
-50	-60	56
-93	-92	-169
-118	-106	-353
-119	-105	-336
-99	-82	-205
-65	-45	-95
-24	-3	12
21	38	87
63	72	143
102	98	176
128	110	103
135	109	79
120	94	32
84	64	-76
32	21	-92
-25	-27	-82
-81	-71	-20
-121	-101	-19
-145	-108	-40
-144	-97	21
-122	-72	-15
-81	-47	-14
-26	-24	-79
27	-2	-197
77	20	-109
111	50	41
132	82	171
138	108	264
129	116	274
104	100	207
62	62	-5
11	13	-314
-50	-37	-460
-107	-78	-438
-151	-105	-334
-177	-119	-206
-182	-121	-41
-167	-108	85
-133	-77	102
-84	-26	87
-19	32	61
52	86	65
124	120	15
175	123	-24
200	103	-44
189	63	-51
143	23	6
78	-7	31
0	-27	75
-75	-36	76
-140	-44	40
-190	-49	72
-214	-57	64
-205	-66	-34
-154	-82	-123
-70	-102	-119
28	-117	-53
111	-118	52
158	-90	56
157	-33	-30
122	41	-153
81	108	-200
53	136	-87
51	115	0
59	51	36
58	-28	26
28	-87	3
-28	-106	10
-89	-86	15
-126	-48	9
-121	-11	21
-84	6	44
-27	14	17
20	24	-47
42	49	-83
45	85	-124
40	117	-149
41	127	-201
44	106	-198
46	58	-42
32	4	51
0	-40	114
-44	-66	108
-84	-80	52
-105	-84	38
-103	-84	51
-80	-77	98
-48	-58	117
-18	-29	100
9	8	46
30	40	-48
51	62	-121
68	68	-181
82	66	-303
86	63	-282
80	60	-38
63	58	93
37	43	62
3	16	21
-36	-24	-10
-77	-68	27
-108	-101	-59
-121	-111	-206
-109	-98	-241
-76	-69	-187
-28	-36	-114
18	-2	3
54	26	143
71	51	181
76	68	87
74	79	-18
69	72	-35
66	47	-92
56	11	-140
37	-29	-101
8	-59	-52
-30	-76	19
-71	-77	65
-108	-67	127
-133	-57	237
-147	-46	256
-139	-37	233
-113	-23	155
-64	-6	60
-1	12	-131
65	29	-368
125	41	-350
159	49	-155
164	54	-63
137	57	-74
93	53	-28
40	42	-18
-4	23	-102
-38	-6	-120
-60	-32	-47
-74	-52	-87
-85	-57	-7
-91	-49	97
-94	-31	95
-86	-11	145
-64	5	125
-31	17	164
14	24	142
59	32	76
93	39	-13
107	45	-118
95	47	-205
62	41	-279
14	28	-202
-35	3	-122
-72	-30	-67
-91	-70	-39
-89	-113	2
-69	-150	34
-44	-171	57
-18	-164	-2
7	-131	-72
29	-72	-65
51	-5	-31
71	57	87
85	100	97
90	116	19
82	106	-54
62	80	-148
33	47	-214
2	20	-107
-28	1	87
-56	-8	79
-83	-13	-10
-106	-13	6
-122	-12	-25
-126	-6	-68
-108	2	-105
-64	13	-154
-3	24	-83
65	29	-27
120	29	18
147	25	43
141	24	43
113	26	8
70	27	-43
28	24	-28
-11	7	-32
-41	-25	7
-71	-62	79
-103	-92	103
-126	-97	93
-134	-78	54
-114	-39	12
-65	2	-23
6	34	-35
84	51	-40
138	57	-11
159	66	31
135	79	83
84	92	155
20	92	120
-32	66	9
-66	16	-49
-80	-48	-248
-83	-108	-459
-86	-143	-364
-94	-145	-195
-103	-121	-36
-100	-82	61
-78	-41	155
-31	-8	210
32	21	168
92	48	115
135	79	-12
151	106	-125
143	118	-241
113	105	-233
74	59	-100
30	-6	-62
-14	-77	-94
-53	-126	-122
-88	-141	-119
-112	-119	-78
-122	-67	59
-117	-12	201
-100	38	225
-79	68	237
-53	83	141
-28	81	-27
6	68	-205
48	45	-327
98	11	-273
135	-28	-129
145	-64	3
118	-84	104
54	-77	193
-24	-50	170
-97	-18	160
-136	-3	131
-138	-14	44
-114	-47	-78
-78	-82	-196
-41	-93	-252
-10	-64	-242
22	-4	-141
62	65	-70
103	121	22
139	147	13
155	136	0
142	106	28
107	71	-8
57	41	-27
10	15	-128
-32	-13	-172
-67	-48	-67
-100	-93	-23
-132	-132	42
-161	-160	141
-172	-160	126
-155	-130	161
-105	-72	155
-30	-1	87
50	66	-47
117	114	-155
155	131	-115
158	117	-49
130	81	-8
82	35	-14
28	-3	8
-24	-27	61
-71	-33	104
-111	-27	39
-138	-18	-114
-148	-10	-186
-129	-9	-209
-85	-12	-148
-17	-18	-47
57	-22	-48
120	-22	-24
156	-15	-24
160	0	-4
134	19	4
96	41	-52
52	58	-27
13	64	21
-19	52	68
-48	29	87
-72	-2	85
-96	-33	109
-110	-58	152
-111	-80	142
-103	-95	32
-83	-104	-111
-55	-101	-260
-22	-80	-376
17	-39	-276
62	18	-119
107	77	-60
140	119	9
154	131	35
137	113	-7
94	74	-95
30	28	-111
-39	-8	-99
-102	-36	-99
-150	-60	-42
-173	-84	34
-175	-112	96
-152	-131	117
-104	-131	127
-37	-99	155
35	-39	86
102	34	-16
144	97	10
156	130	120
137	129	152
101	102	107
57	64	138
18	29	127
-14	2	-91
-43	-21	-352
-76	-46	-402
-105	-72	-315
-128	-95	-252
-126	-101	-252
-100	-83	-183
-47	-43	-64
14	6	21
64	51	112
91	84	101
90	97	91
77	97	64
59	88	-17
54	72	-56
56	51	-63
58	20	-45
48	-20	-97
16	-62	-103
-34	-101	-10
-89	-122	107
-133	-124	164
-156	-106	152
-149	-77	125
-113	-45	55
-60	-21	-18
4	-2	-135
63	16	-105
107	43	-17
126	82	34
116	122	68
84	150	10
38	140	-23
-3	86	-62
-35	-7	-32
-53	-109	59
-65	-184	87
-77	-201	97
-90	-154	60
-98	-63	-43
-88	27	-102
-51	84	-231
12	86	-297
82	47	-93
140	-5	-23
169	-39	-36
154	-40	-20
107	-15	-80
44	15	-58
-16	28	-56
-60	17	-48
-89	-11	-51
-105	-36	-85
-114	-41	17
-116	-28	83
-107	2	60
-82	33	37
-37	57	-59
20	66	-123
78	61	-116
122	48	-94
148	29	-30
144	11	44
120	-4	178
80	-11	290
33	-6	255
-16	6	168
-60	16	7
-102	15	-205
-131	-3	-311
-145	-41	-306
-139	-86	-250
-108	-123	-236
-58	-138	-176
1	-123	-14
53	-83	46
85	-24	104
94	36	133
81	85	83
59	112	43
38	109	6
24	81	3
11	35	2
-10	-12	11
-38	-50	26
-75	-69	46
-104	-70	-23
-116	-61	-72
-103	-45	-35
-70	-30	3
-31	-13	19
9	9	-83
40	35	-145
66	67	-117
91	94	-90
113	113	-22
124	116	44
118	104	72
92	76	105
51	30	60
7	-25	-30
-32	-90	-133
-61	-148	-186
-89	-183	-103
-115	-181	-54
-139	-137	-51
-152	-68	-27
-133	3	-15
-80	51	39
3	69	62
92	65	5
154	57	-3
172	64	-1
148	84	11
97	104	81
43	99	104
8	58	79
-8	-8	9
-11	-77	-44
-16	-117	-19
-33	-119	-9
-55	-87	-103
-79	-43	-208
-89	-7	-219
-81	12	-127
-52	20	0
-12	30	62
31	45	-25
64	62	-112
81	64	-97
75	47	-90
48	11	-37
9	-27	-17
-33	-48	-51
-63	-51	-17
-80	-39	77
-84	-31	207
-81	-36	308
-81	-52	345
-81	-66	243
-76	-60	28
-53	-28	-221
-13	17	-428
42	57	-456
98	75	-417
133	67	-328
142	43	-154
118	21	-39
71	4	80
20	-13	172
-28	-38	196
-62	-78	188
-88	-117	149
-103	-140	87
-112	-123	-46
-113	-68	-106
-102	4	-104
-75	63	-133
-28	86	-138
29	74	-101
94	39	24
148	13	104
183	12	138
189	30	160
162	51	129
107	55	22
34	35	-47
-39	1	-38
-104	-25	-125
-143	-30	-181
-154	-18	-130
-137	-3	-37
-98	-6	3
-48	-24	0
0	-43	14
35	-38	17
55	6	-25
57	74	-28
52	133	-9
46	140	5
46	82	70
49	-26	61
48	-133	16
32	-190	-56
1	-174	-108
-40	-102	-101
-76	-23	-78
-92	22	-25
-84	15	-4
-57	-23	19
-24	-50	-51
3	-37	-103
23	20	-83
36	90	-72
46	137	-7
56	137	42
56	98	69
42	46	36
8	11	-25
-38	4	-59
-80	8	-102
-107	5	-110
-109	-23	-113
-96	-69	-98
-74	-111	-55
-53	-126	-4
-36	-103	63
-19	-55	103
7	0	130
41	41	133
81	65	64
114	80	-92
129	90	-175
123	100	-150
100	97	-228
64	68	-193
25	13	-49
-14	-61	-30
-47	-132	48
-77	-175	96
-95	-175	76
-100	-133	6
-90	-68	-9
-65	-2	57
-34	48	61
-5	80	79
17	93	136
30	98	85
37	101	-77
43	99	-157
54	90	-270
67	61	-332
77	13	-231
68	-49	-65
41	-111	100
-10	-155	130
-66	-170	56
-117	-154	0
-140	-119	-43
-126	-78	-94
-82	-43	-68
-18	-15	-6
42	12	18
87	45	-1
110	85	24
111	119	61
101	134	100
79	117	110
48	66	20
10	2	-51
-35	-56	-48
-79	-89	-35
-115	-90	-103
-135	-66	-49
-140	-33	142
-128	-6	185
-105	13	99
-67	27	0
-22	43	-151
29	64	-239
82	86	-263
118	99	-306
135	94	-178
125	75	58
97	40	195
58	5	234
21	-29	155
-10	-56	15
-32	-78	-135
-50	-94	-208
-68	-101	-243
-78	-100	-211
-79	-84	-136
-64	-54	-86
-35	-17	85
2	20	155
41	40	149
75	43	89
97	31	68
104	12	77
96	0	11
72	-1	37
36	7	19
-5	15	-13
-44	14	-66
-72	-6	-171
-89	-40	-204
-89	-77	-47
-81	-100	49
-64	-99	0
-43	-72	-6
-20	-28	19
7	23	-1
31	70	-113
48	110	-172
57	132	-162
54	138	-25
46	121	-10
36	84	-17
24	28	109
8	-36	152
-20	-89	135
-60	-123	-2
-105	-127	-122
-136	-109	-159
-138	-79	-75
-104	-47	1
-45	-19	-28
21	8	-10
69	36	-11
91	67	-71
90	86	-145
79	88	-106
76	59	22
79	6	80
84	-52	90
69	-96	65
30	-108	4
-29	-89	-15
-93	-49	-48
-137	-13	-35
-150	5	-2
-130	4	-62
-94	-8	-96
-48	-11	-86
-6	2	-29
34	30	14
72	65	86
107	90	80
130	99	86
129	91	61
104	75	-95
59	55	-88
11	33	-64
-27	8	-124
-47	-28	-211
-54	-71	-215
-65	-114	-100
-84	-140	1
-110	-137	91
-129	-106	84
-122	-53	3
-81	-2	-19
-10	35	55
70	50	43
133	49	16
163	43	63
151	43	-2
110	51	-50
57	56	-118
8	52	-245
-33	32	-236
-64	-3	-98
-92	-38	-4
-115	-60	38
-129	-63	21
-132	-49	-27
-114	-25	-70
-71	-6	-82
-10	3	-36
63	0	60
133	-9	150
186	-17	203
202	-18	268
182	-10	235
126	2	128
50	12	67
-31	16	51
-98	7	29
-141	-13	-68
-161	-36	-341
-159	-55	-497
-142	-63	-316
-112	-58	-136
-70	-41	-46
-21	-18	-43
28	11	-36
68	41	-7
90	72	-39
85	103	-55
62	120	-36
35	113	9
14	76	53
5	12	69
0	-60	43
-8	-119	12
-29	-140	-54
-57	-121	-77
-84	-71	-43
-87	-17	7
-61	23	67
-12	39	65
45	41	65
93	48	91
123	68	74
131	101	-15
128	127	-39
121	125	34
107	87	120
83	21	162
36	-49	91
-31	-101	-136
-108	-121	-341
-172	-120	-319
-200	-110	-211
-185	-107	-141
-128	-110	-130
-52	-106	-126
22	-81	-70
77	-32	-79
102	28	-76
100	77	-65
77	96	-22
41	80	81
0	45	112
-39	11	92
-72	-4	61
-95	0	15
-104	7	-38
-101	5	-17
-86	-13	27
-66	-38	84
-40	-60	173
-11	-57	232
24	-29	224
62	17	150
102	69	61
138	111	3
158	136	34
156	139	-1
124	125	-131
69	96	-211
-2	51	-237
-70	-1	-218
-124	-62	-308
-152	-116	-328
-149	-153	-223
-125	-164	-178
-91	-153	-190
-57	-126	-224
-28	-95	-116
-3	-67	3
22	-43	89
52	-20	124
83	7	108
107	38	64
117	69	22
106	90	49
74	93	68
28	75	94
-20	39	80
-58	-7	74
-83	-52	71
-89	-87	75
-83	-99	37
-65	-89	18
-39	-57	54
-7	-13	62
29	31	51
68	66	39
97	88	52
111	93	16
103	89	-53
74	78	-123
32	64	-193
-14	47	-260
-48	25	-215
-70	-2	-83
-83	-29	53
-87	-47	152
-85	-53	134
-75	-47	95
-55	-36	60
-24	-28	21
14	-26	-52
50	-31	-172
71	-32	-210
74	-22	-186
58	0	-158
31	30	-80
7	55	-62
-12	62	-90
-26	49	-101
-44	16	-89
-68	-27	-13
-97	-62	25
-117	-84	63
-112	-85	-53
-78	-70	-138
-22	-48	-52
36	-30	-25
76	-18	6
83	-11	22
65	-2	77
42	13	149
40	32	141
64	48	84
107	55	20
141	46	-84
136	24	-121
80	-3	9
-13	-29	87
-112	-43	54
-181	-52	12
-199	-58	-56
-167	-70	-137
-107	-78	-153
-44	-76	-72
2	-47	54
26	8	118
40	74	87
50	131	20
63	158	-43
72	143	-91
70	97	-135
52	38	-138
20	-8	-132
-16	-38	-119
-48	-52	-101
-68	-64	-86
-78	-81	-13
-77	-96	1
-67	-100	45
-50	-78	183
-21	-30	289
17	32	337
62	88	255
101	119	138
124	119	-5
125	94	-117
104	59	-244
68	25	-385
29	-2	-335
-2	-28	-219
-25	-55	-103
-38	-82	51
-47	-100	83
-57	-100	27
-68	-79	-23
-79	-42	-132
-80	1	-257
-67	39	-322
-37	59	-236
5	62	-45
53	53	208
93	40	320
106	30	196
91	28	45
45	29	-37
-13	27	-44
-69	10	-134
-104	-28	-198
-115	-87	-201
-105	-145	-172
-87	-182	-41
-75	-173	82
-64	-114	69
-53	-28	25
-28	52	65
19	92	40
78	82	14
128	40	11
155	-2	17
138	-10	17
87	19	28
19	65	51
-43	90	53
-84	69	78
-100	9	64
-101	-62	90
-99	-105	32
-102	-100	-104
-103	-50	-135
-95	16	-96
-63	66	-84
-8	84	-116
62	71	-106
132	51	-34
186	32	58
208	23	99
191	12	54
139	-9	-1
66	-37	-55
-14	-62	-124
-83	-70	-189
-125	-60	-147
-132	-37	-23
-113	-18	60
-77	-16	99
-39	-24	124
-13	-33	140
7	-27	133
21	-3	135
39	32	47
59	63	-31
77	78	-63
82	72	-131
66	53	-141
34	31	-141
-6	6	-219
-44	-20	-222
-71	-48	-89
-87	-75	-91
-89	-88	-245
-86	-82	-280
-75	-53	-147
-56	-17	-102
-30	11	-70
3	18	52
37	8	127
64	-5	102
78	0	65
81	31	41
69	77	47
53	109	117
30	106	124
1	57	86
-36	-17	57
-80	-89	4
-116	-127	-57
-138	-127	-64
-134	-98	-28
-101	-61	-47
-46	-38	-49
16	-24	-3
70	-11	77
105	17	149
117	62	141
111	112	150
96	147	137
81	150	64
68	119	-72
57	66	-186
40	10	-160
9	-33	-188
-35	-59	-328
-88	-66	-349
-135	-69	-229
-166	-67	-74
-164	-68	-51
-130	-71	-1
-72	-71	11
-6	-65	-46
54	-47	-8
96	-17	-34
115	21	32
118	54	89
109	65	131
90	46	142
63	-3	142
20	-67	221
-34	-115	170
-95	-126	53
-148	-94	-118
-175	-37	-249
-172	19	-302
-132	51	-301
-67	56	-209
12	48	-10
88	49	63
150	69	29
187	103	46
196	124	1
172	116	-4
128	75	47
72	18	101
15	-30	124
-30	-48	120
-63	-43	19
-85	-34	-70
-100	-42	-101
-113	-68	-61
-119	-102	-7
-114	-115	-38
-91	-88	-42
-54	-29	-136
-8	36	-163
36	75	-67
64	72	-44
79	36	-38
74	-8	-12
55	-27	-23
27	-18	20
-7	10	17
-44	28	-56
-81	18	-112
-107	-19	-161
-120	-68	-135
-110	-97	-126
-83	-96	-58
-39	-62	10
12	-17	39
64	22	84
110	48	150
144	63	183
162	77	161
154	90	145
121	96	113
69	85	85
9	49	37
-46	-3	-31
-89	-56	-20
-111	-90	35
-116	-96	-54
-107	-77	-100
-91	-45	-38
-66	-21	-99
-35	-6	-261
3	0	-359
46	12	-374
85	33	-306
112	66	-176
121	98	-84
110	112	53
89	98	166
60	56	196
36	-2	177
11	-60	149
-15	-107	87
-50	-132	-13
-92	-143	-67
-136	-141	-66
-170	-133	-7
-181	-115	0
-166	-82	-4
-125	-29	-9
-67	35	-80
-4	98	-77
54	138	-90
98	138	-108
121	100	-34
120	35	36
95	-31	63
50	-76	20
-1	-90	-30
-47	-77	-46
-79	-56	-14
-87	-38	11
-72	-30	-35
-44	-23	-89
-7	-3	-130
28	32	-62
56	81	29
72	126	39
81	154	29
77	151	55
66	117	80
53	62	2
41	0	-78
30	-53	-82
14	-92	-13
-9	-110	32
-40	-105	2
-75	-88	-31
-100	-64	-32
-106	-48	-41
-88	-43	-29
-51	-44	17
-8	-45	6
28	-27	-45
57	14	-97
74	67	-111
90	113	-43
103	131	42
110	111	118
96	59	191
56	1	115
-2	-46	-25
-66	-66	-86
-114	-64	-104
-134	-52	-34
-121	-44	112
-88	-44	187
-46	-40	144
-10	-28	-80
18	2	-282
39	37	-341
54	62	-303
64	72	-165
63	61	-67
49	43	-9
27	26	-33
-1	13	-78
-26	1	-33
-47	-17	12
-65	-41	44
-82	-71	54
-95	-90	52
-97	-90	72
-82	-69	30
-47	-36	-32
0	-4	-10
46	21	21
81	40	-59
97	57	-159
97	72	-137
94	80	-2
95	71	30
97	38	-43
98	-11	-81
81	-66	-79
41	-108	-34
-20	-126	-80
-92	-126	-122
-159	-111	-142
-209	-98	-147
-228	-85	-201
-210	-68	-163
-158	-40	18
-76	2	70
13	48	102
92	92	119
140	116	195
153	116	196
131	96	181
91	68	189
46	39	130
9	9	71
-22	-23	-106
-52	-54	-166
-83	-80	-127
-106	-90	-118
-109	-76	-82
-83	-36	-35
-24	12	-34
54	55	-64
129	82	-7
175	88	51
180	80	64
148	68	44
95	61	43
36	55	59
-12	39	11
-50	7	-72
-77	-36	-147
-99	-83	-167
-114	-116	-106
-118	-123	54
-108	-104	104
-85	-67	9
-52	-31	-6
-15	-2	-44
17	18	-149
48	32	-150
79	49	-45
107	66	139
129	81	272
131	82	294
107	68	119
54	44	-217
-15	19	-428
-91	0	-518
-144	-14	-436
-169	-23	-243
-161	-36	-57
-123	-55	41
-71	-77	66
-19	-89	91
28	-78	80
61	-45	167
86	2	215
97	47	196
99	76	173
89	78	155
66	57	110
34	29	67
-4	0	84
-43	-22	24
-80	-37	-104
-105	-54	-365
-117	-70	-449
-112	-89	-378
-95	-98	-422
-67	-96	-395
-33	-79	-196
4	-48	19
42	-13	122
78	21	145
107	47	85
124	64	94
126	68	107
110	60	103
78	41	101
33	19	71
-20	0	20
-70	-13	28
-111	-15	138
-134	-15	179
-133	-21	171
-109	-32	127
-62	-48	53
-8	-50	-86
47	-30	-236
94	13	-234
122	66	-140
130	100	-83
118	96	-28
91	50	16
49	-15	31
6	-72	-8
-39	-97	-81
-75	-85	-90
-101	-52	-93
-116	-28	-28
-122	-28	4
-120	-45	-40
-106	-64	-31
-80	-56	-32
-40	-15	-66
11	45	-58
65	104	41
110	131	147
136	131	140
138	108	37
115	81	12
80	65	1
36	55	-20
-4	40	13
-37	10	-46
-60	-34	-113
-72	-78	-130
-79	-109	-162
-74	-112	-58
-63	-95	-19
-50	-64	-93
-36	-36	-147
-21	-14	-163
-5	7	-57
13	26	-20
33	41	-16
49	48	-12
57	39	18
50	14	89
29	-17	142
-4	-41	183
-39	-54	171
-65	-54	123
-82	-54	43
-83	-58	-61
-77	-65	-157
-62	-65	-242
-43	-44	-323
-16	0	-262
21	57	-115
61	104	49
103	121	160
128	102	129
131	54	-18
109	1	-113
69	-38	-114
23	-53	-107
-20	-53	-100
-52	-51	-85
-76	-57	78
-89	-71	195
-96	-81	137
-89	-74	116
-61	-42	72
-14	6	8
52	59	-24
117	101	-105
167	116	-70
186	110	-8
170	90	6
125	66	32
63	43	-86
-5	24	-155
-75	3	-115
-142	-25	-99
-201	-56	-176
-243	-92	-188
-258	-120	-36
-234	-133	57
-175	-126	84
-93	-94	46
-5	-43	-27
69	17	-63
118	71	-38
140	105	8
139	110	108
125	87	182
99	48	104
67	7	-25
28	-20	-140
-12	-35	-157
-47	-40	-83
-71	-45	-79
-83	-55	-118
-80	-63	-79
-65	-62	8
-45	-44	79
-16	-9	48
17	33	-37
52	67	-88
89	80	-122
112	77	-107
118	61	-28
103	51	61
68	53	141
20	62	186
-28	68	213
-68	51	173
-96	8	69
-104	-58	-41
-97	-124	-182
-77	-166	-278
-50	-163	-255
-21	-117	-158
8	-40	-43
37	35	13
70	86	4
105	100	-1
134	83	-10
151	50	-47
144	24	-117
110	10	-101
49	1	-10
-25	-19	15
-95	-60	24
-147	-116	26
-170	-169	7
-166	-189	14
-140	-164	44
-101	-97	84
-53	-12	100
-7	58	81
33	99	84
62	108	91
77	103	4
72	99	-144
54	103	-224
30	104	-232
4	83	-182
-21	34	-95
-46	-32	-26
-69	-94	-15
-96	-126	-21
-115	-119	-58
-119	-81	-76
-104	-37	-32
-62	-4	26
-3	11	81
61	20	10
119	38	-44
156	71	-14
169	110	-10
158	131	-8
129	120	-55
85	71	-185
34	0	-97
-17	-68	145
-61	-110	199
-93	-120	173
-107	-110	101
-105	-93	14
-92	-80	-12
-69	-67	-56
-45	-52	-183
-21	-23	-252
6	20	-231
30	66	-284
51	106	-237
67	129	-69
74	132	31
69	117	54
56	79	28
34	20	43
6	-55	37
-26	-131	96
-62	-186	126
-94	-195	64
-113	-152	14
-112	-72	-52
-83	12	-71
-30	68	-34
34	81	76
94	58	90
133	31	1
147	26	1
129	49	12
86	88	54
28	106	69
-32	86	14
-80	19	-60
-107	-64	-198
-111	-135	-230
-95	-167	-141
-70	-155	-78
-53	-113	-2
-48	-62	36
-54	-20	30
-54	14	5
-34	45	-7
14	77	33
83	102	45
150	112	14
184	101	-15
169	74	-13
103	40	13
5	20	60
-89	14	91
-157	13	79
-181	3	70
-165	-23	59
-125	-62	54
-79	-97	37
-39	-106	-42
-6	-84	-211
23	-36	-315
55	15	-324
93	47	-295
129	53	-192
155	40	-113
158	23	4
136	14	43
93	19	43
39	23	69
-15	15	47
-63	-13	68
-99	-57	1
-125	-100	-116
-139	-121	-62
-141	-110	20
-125	-66	29
-91	-9	21
-38	48	-52
22	90	-57
80	112	-51
123	119	-109
139	114	-118
130	100	-78
100	76	-21
54	40	-40
4	-8	-72
-46	-63	-97
-91	-121	-59
-123	-163	65
-142	-182	161
-141	-175	199
-122	-137	135
-84	-80	100
-31	-15	42
25	43	-52
78	84	-93
116	102	-116
135	100	-62
129	87	17
107	65	30
68	44	65
30	28	129
-8	10	108
-38	-5	-9
