File Name: not saved
Channel 2: 'Channel 2', 30800 values, raw ADC, no filters.
Channel 3: 'Channel 3', 30800 values, raw ADC, no filters.
Channel 4: 'Channel 4', 30800 values, raw ADC, no filters.

-71	-22	-18
-156	-81	-23
-189	-117	-33
-173	-123	-42
-124	-106	-54
-68	-77	-40
-27	-42	-21
0	-11	-6
21	22	-1
48	53	4
86	88	9
120	113	-1
133	118	-14
115	100	-21
66	60	-22
6	10	-13
-50	-39	-19
-89	-72	-23
-107	-93	-19
-112	-99	-13
-112	-94	-20
-105	-83	-21
-86	-62	-42
-49	-36	-57
2	-2	-52
57	33	-63
102	65	-52
124	85	-42
122	89	-31
102	78	-15
71	51	8
38	20	26
1	-14	28
-38	-48	19
-80	-76	-6
-114	-94	-12
-133	-100	18
-129	-93	36
-104	-71	15
-61	-39	-22
-12	-3	-54
34	34	-65
75	65	-85
104	87	-87
121	95	-70
125	89	-68
109	71	-47
77	40	-16
29	6	-7
-23	-30	-22
-71	-58	-23
-110	-79	-27
-130	-85	-32
-136	-80	-15
-120	-67	6
-93	-51	14
-50	-30	-33
0	-3	-55
48	29	-48
90	64	-49
116	92	-55
128	96	-42
123	72	-22
104	21	-42
72	-38	-27
28	-87	-4
-23	-104	-9
-77	-91	0
-119	-64	11
-144	-41	16
-143	-39	14
-120	-52	-12
-82	-62	-6
-34	-49	0
10	-5	-13
51	55	-13
90	111	-21
121	136	-26
138	125	-28
135	87	-23
107	41	-23
55	7	-30
-4	-13	-43
-61	-26	-54
-103	-46	-58
-123	-71	-51
-125	-98	-18
-116	-106	-5
-98	-85	-3
-69	-41	1
-32	14	-1
16	58	-13
68	84	-42
110	88	-39
133	82	-25
130	75	-7
105	65	8
65	53	-17
22	28	-32
-18	-9	-36
-56	-51	-19
-89	-87	0
-114	-102	-4
-126	-98	-10
-123	-78	-8
-97	-51	-12
-54	-24	-20
-4	0	-28
46	23	-26
85	50	-36
111	71	-44
121	85	-24
118	83	-6
101	61	-3
68	27	-17
25	-13	-21
-27	-48	-40
-78	-75	-83
-117	-92	-92
-134	-101	-69
-132	-100	-45
-111	-88	-43
-76	-64	-28
-33	-29	-13
12	11	-8
54	51	-2
94	80	-20
120	94	-26
128	92	-38
118	79	-54
87	54	-47
46	22	-28
-1	-15	-6
-46	-53	6
-86	-89	14
-116	-109	10
-131	-115	8
-131	-99	16
-110	-64	18
-71	-22	-8
-20	22	-46
34	56	-46
81	81	-40
111	93	-39
122	96	-37
113	87	-37
88	72	-21
51	50	-14
9	19	0
-33	-15	5
-68	-51	-6
-91	-81	-13
-91	-97	-31
-72	-99	-50
-42	-85	-64
-13	-59	-59
7	-27	-42
19	7	-11
29	37	17
52	59	26
87	76	17
124	82	-20
139	77	-30
110	60	-22
34	32	-22
-71	-5	-4
-164	-46	-12
-198	-85	-18
-148	-111	-27
-25	-120	-19
127	-109	-16
245	-78	-33
275	-33	-39
198	16	-45
32	59	-41
-161	90	-48
-321	100	-37
-383	89	-20
-332	60	-13
-191	30	-23
-19	8	-33
113	-3	-12
161	-5	-8
111	-11	-4
13	-29	-12
-69	-61	-24
-82	-97	-43
-5	-116	-72
121	-106	-58
224	-64	-30
234	-7	-7
125	45	11
-58	71	16
-236	70	-2
-325	51	2
-288	38	24
-156	45	19
3	68	5
103	88	-49
106	79	-111
27	29	-131
-75	-50	-112
-135	-134	-64
-126	-188	-36
-60	-190	-34
15	-141	-30
69	-61	-18
85	18	-18
83	75	-7
90	96	1
121	93	18
165	78	15
193	65	-9
184	59	-7
129	51	-10
52	35	-17
-22	2	-9
-69	-39	8
-87	-79	7
-86	-100	-4
-81	-98	0
-80	-71	-13
-71	-34	-49
-47	4	-62
-1	34	-54
56	56	-38
107	71	-10
135	83	-5
132	88	-17
107	85	-30
72	66	-15
36	35	5
0	-4	-11
-38	-42	-13
-80	-72	-25
-118	-92	-32
-142	-95	-24
-145	-88	-30
-119	-69	-30
-72	-46	-36
-20	-16	-41
30	16	-39
69	46	-39
104	72	-27
127	85	-20
138	86	-26
127	72	-27
87	49	-20
20	21	1
-63	-15	-7
-137	-47	-12
-190	-80	-13
-203	-105	-11
-185	-123	5
-149	-127	1
-105	-117	3
-61	-92	-14
-12	-49	-17
40	2	-30
99	57	-56
155	110	-51
189	150	-30
191	165	-36
159	152	-50
101	112	-42
36	51	-34
-19	-12	-15
-62	-67	-12
-96	-100	-15
-122	-105	-18
-137	-92	-28
-132	-69	-6
-97	-52	6
-30	-44	5
49	-43	-4
114	-36	-26
139	-14	-42
116	23	-55
60	66	-65
-3	97	-54
-40	98	-42
-47	67	-37
-34	13	-32
-25	-40	-17
-40	-77	5
-80	-89	26
-123	-83	38
-142	-69	18
-124	-62	-2
-70	-57	-30
-2	-45	-52
55	-16	-51
90	32	-52
101	85	-49
102	123	-42
102	131	-40
105	105	-38
107	57	-19
105	9	5
94	-25	10
69	-44	6
35	-53	-30
-20	-64	-49
-99	-83	-44
-195	-99	-53
-285	-102	-47
-321	-81	-42
-278	-37	-28
-148	15	-17
27	58	-5
184	83	19
262	86	18
236	74	12
135	57	15
23	40	0
-35	23	-23
-21	1	-33
40	-33	-55
90	-68	-48
77	-100	-21
-6	-113	-30
-128	-104	-53
-229	-70	-47
-256	-25	-15
-197	21	-8
-77	59	-7
57	83	-3
158	93	-32
197	89	-54
180	77	-69
123	57	-59
52	32	-29
-12	6	8
-58	-22	34
-87	-47	31
-100	-69	23
-101	-88	-10
-95	-94	-52
-81	-86	-86
-55	-60	-84
-17	-25	-75
35	13	-59
91	41	-31
142	55	-21
171	53	-6
174	43	-8
154	32	-3
115	24	-4
68	16	-18
16	0	-16
-45	-26	-20
-113	-58	-19
-178	-88	-9
-218	-99	-7
-217	-89	-21
-165	-58	-10
-75	-21	2
27	12	-12
100	37	-21
127	51	-9
117	66	-4
87	81	-4
68	91	-1
64	90	-31
69	70	-33
63	34	-28
32	-14	-55
-17	-53	-40
-67	-79	-14
-96	-85	-2
-98	-74	1
-80	-55	-24
-63	-36	-42
-61	-21	-37
-60	-4	-36
-44	13	-27
3	33	-24
77	55	-26
141	69	-35
162	76	-26
115	64	-3
17	38	-10
-93	3	-21
-160	-35	-21
-168	-65	-39
-125	-84	-51
-70	-86	-32
-40	-80	-40
-42	-69	-36
-56	-61	-22
-50	-53	-25
-6	-37	-9
66	-8	7
137	38	14
172	85	25
160	120	11
111	126	-9
56	94	-2
15	39	5
-8	-20	-10
-29	-62	-60
-63	-80	-95
-111	-79	-114
-159	-70	-93
-185	-65	-66
-173	-61	-59
-120	-53	-32
-37	-27	0
52	15	13
139	67	2
210	106	4
252	120	-8
251	104	-21
203	68	-23
114	28	-30
5	-4	-8
-94	-25	51
-156	-43	96
-169	-64	112
-151	-85	113
-120	-98	62
-95	-91	-9
-77	-59	-57
-50	-11	-98
-3	40	-82
63	77	-46
128	91	-54
165	86	-108
155	71	-134
104	53	-133
38	39	-149
-17	25	-168
-46	0	-142
-59	-33	-83
-72	-72	-60
-97	-106	-9
-129	-123	9
-149	-118	-1
-140	-95	11
-96	-56	24
-31	-9	29
34	34	6
79	70	9
100	95	26
106	100	16
106	89	-4
106	63	-10
99	34	-7
75	3	-4
30	-27	-2
-31	-57	16
-95	-90	32
-143	-119	48
-165	-134	60
-158	-123	14
-126	-87	-37
-76	-29	-51
-19	26	-46
39	63	-51
86	77	-60
113	75	-59
118	72	-36
105	79	-14
80	92	-9
50	98	-12
19	89	-5
-17	66	9
-56	41	-14
-97	25	-23
-122	8	-29
-124	-25	-37
-97	-94	-33
-47	-189	-33
5	-270	-21
46	-282	-35
69	-196	-29
81	-29	4
91	150	8
106	259	-5
117	244	-21
109	127	-35
74	-25	-51
11	-123	-75
-58	-124	-86
-113	-52	-81
-138	24	-89
-132	34	-70
-111	-29	-39
-89	-127	-23
-75	-178	21
-62	-132	81
-42	-6	95
-7	142	58
41	236	15
93	238	-38
136	166	-68
164	76	-51
170	21	-22
155	14	16
114	31	46
49	30	24
-33	-7	-16
-113	-70	-13
-169	-121	-3
-178	-127	-7
-140	-88	-24
-72	-28	-45
-3	12	-38
42	22	-17
56	9	-5
47	5	-48
33	28	-92
30	71	-107
34	106	-125
36	99	-136
22	41	-135
-14	-48	-135
-61	-126	-119
-107	-159	-62
-135	-140	-51
-139	-93	-23
-121	-53	14
-83	-44	45
-29	-62	70
29	-82	65
93	-69	68
148	-17	34
180	67	11
186	149	3
161	201	4
116	206	9
59	165	34
7	92	66
-37	2	79
-76	-88	111
-107	-163	61
-131	-207	-8
-143	-203	-49
-136	-149	-53
-108	-55	-34
-57	42	-97
3	110	-152
61	122	-226
101	86	-297
114	28	-251
99	-19	-175
64	-33	-122
17	-21	-52
-27	-8	30
-65	-22	86
-100	-66	111
-130	-124	99
-157	-166	65
-168	-158	18
-144	-102	-11
-79	-14	-21
32	71	-18
159	126	4
265	138	19
319	113	42
302	70	49
231	23	32
133	-11	2
46	-28	-16
-14	-25	-8
-52	-5	-1
-87	18	-17
-125	32	-28
-167	23	-22
-194	-8	-21
-185	-47	-2
-140	-68	-8
-77	-52	-44
-23	3	-64
2	72	-49
-2	118	-33
-18	112	-32
-18	47	-11
11	-43	-8
75	-119	-10
158	-143	-11
245	-109	-21
312	-39	-29
324	28	-46
253	62	-58
83	58	-46
-163	35	-44
-431	14	-33
-610	7	-13
-614	9	-16
-429	5	-18
-116	-13	-18
191	-37	-13
371	-43	-21
358	-15	-41
195	45	-45
-2	108	-45
-120	138	-48
-106	110	-44
-8	33	-48
85	-57	-66
86	-124	-74
-7	-137	-61
-135	-107	-64
-209	-56	-48
-178	-16	-3
-62	2	13
66	13	30
138	33	34
135	80	6
85	135	3
45	180	38
52	186	53
97	145	33
131	76	14
116	4	-11
46	-42	-27
-47	-58	-49
-120	-52	-57
-142	-39	-66
-120	-35	-63
-80	-37	-31
-49	-38	-15
-32	-26	-8
-15	-2	-11
18	28	11
69	53	31
119	62	37
143	55	42
125	35	3
79	9	-58
24	-21	-96
-16	-51	-105
-36	-80	-63
-50	-108	-26
-69	-126	19
-100	-131	42
-124	-117	-30
-123	-87	-79
-89	-48	-90
-23	-9	-54
42	23	-45
93	47	-53
110	62	-30
106	67	-39
93	64	-69
81	45	-104
66	17	-119
40	-21	-111
-2	-63	-41
-64	-102	19
-126	-127	53
-173	-132	62
-191	-122	87
-178	-97	122
-140	-66	118
-81	-35	133
-6	-11	80
80	8	-23
162	20	-87
214	29	-134
216	40	-190
170	50	-156
86	56	-129
1	47	-180
-52	19	-163
-63	-28	-149
-46	-87	-72
-32	-136	-10
-46	-162	-21
-91	-143	-2
-145	-85	7
-174	7	12
-158	103	7
-93	171	23
-2	186	49
85	128	79
149	15	129
175	-116	145
172	-210	112
141	-221	59
83	-135	21
11	10	-6
-65	145	-28
-123	202	-65
-143	142	-92
-122	-5	-87
-71	-170	-59
-24	-271	-39
1	-257	-42
-3	-143	-47
-15	9	-43
-14	125	-17
22	160	-1
83	122	-4
138	59	-24
164	21	-53
139	27	-68
75	61	-69
-4	82	-79
-69	56	-74
-104	-9	-19
-113	-88	13
-108	-137	13
-107	-131	1
-109	-83	-2
-109	-19	19
-99	26	48
-70	45	60
-22	45	30
41	52	14
107	82	-12
167	132	-24
197	189	-40
184	219	-55
121	206	-2
17	138	37
-97	24	42
-191	-111	44
-232	-230	25
-208	-297	4
-133	-289	-60
-38	-203	-137
50	-71	-223
125	59	-284
182	143	-208
228	161	-109
257	124	-52
258	67	-15
214	32	-14
130	31	-20
21	54	-15
-79	65	-6
-142	43	-6
-164	-13	-3
-155	-81	32
-139	-123	49
-139	-120	26
-145	-76	13
-143	-16	-4
-113	31	-1
-55	54	-2
16	59	5
78	66	13
107	81	-2
104	101	-3
79	107	8
53	83	34
31	27	50
10	-42	71
-22	-101	32
-69	-127	-52
-121	-121	-131
-161	-96	-173
-166	-67	-147
-136	-46	-104
-77	-36	-40
-10	-24	-8
44	-5	9
85	22	36
103	51	57
113	69	65
115	75	56
109	63	55
87	42	37
46	15	4
-1	-11	-27
-50	-36	-46
-89	-58	-100
-113	-74	-151
-123	-76	-127
-126	-55	-114
-122	-17	-84
-102	36	0
-58	88	28
12	115	-34
98	106	-84
178	59	-121
225	-3	-114
216	-58	-67
160	-76	-31
74	-50	49
-9	-1	61
-69	43	51
-99	51	-18
-107	8	-107
-109	-68	-86
-112	-142	-75
-113	-175	-11
-97	-150	32
-56	-76	24
8	12	-3
78	78	-1
131	105	12
151	102	-8
133	91	-6
94	91	-8
48	102	4
12	101	13
-15	63	-8
-40	-19	-30
-66	-126	-53
-100	-214	-76
-126	-244	-54
-134	-196	-4
-114	-97	49
-63	12	65
1	85	54
66	99	42
110	72	17
124	40	3
113	35	-30
85	64	-71
52	104	-79
24	122	-67
0	92	-53
-23	22	-29
-47	-58	-40
-79	-112	-70
-107	-121	-45
-125	-93	-40
-126	-50	-59
-103	-23	-10
-60	-16	56
-6	-18	56
43	-5	36
84	28	16
109	77	-13
118	114	-14
115	118	-24
97	82	-24
64	17	-11
18	-41	3
-37	-75	30
-94	-74	17
-139	-51	-6
-161	-30	-46
-156	-21	-76
-121	-29	-70
-66	-40	-94
0	-40	-138
60	-25	-134
103	2	-109
121	27	-102
110	41	-80
84	43	-96
49	41	-60
29	33	-17
31	20	-3
46	-5	64
63	-43	104
56	-88	92
14	-121	-4
-57	-120	-50
-133	-82	-38
-177	-15	-20
-165	54	-16
-95	93	-50
8	86	-57
104	43	-42
159	-7	-21
163	-33	-27
126	-21	-7
74	25	16
30	68	22
0	85	17
-22	52	-18
-50	-12	-27
-90	-81	-35
-129	-122	-48
-152	-117	-46
-142	-74	-16
-100	-17	1
-34	28	-1
35	50	-38
91	54	-25
127	55	17
137	72	-1
127	103	-7
91	138	-1
33	153	9
-39	127	7
-105	59	2
-145	-40	-3
-150	-138	-14
-118	-209	-20
-76	-227	-21
-44	-190	-36
-37	-118	-50
-46	-37	-40
-47	26	-29
-22	58	-9
36	62	-6
107	56	-19
161	54	-53
172	65	-75
139	81	-69
82	85	-66
22	65	-67
-18	21	-41
-42	-36	12
-59	-87	0
-88	-113	-24
-117	-110	-31
-136	-89	-52
-130	-61	-50
-90	-38	-43
-27	-19	-37
38	1	-45
86	30	-56
104	66	-47
103	100	-42
93	119	-28
83	110	-19
69	77	-19
50	26	13
18	-27	32
-27	-68	39
-75	-94	26
-111	-104	-3
-128	-96	-8
-123	-71	-24
-101	-32	-28
-63	11	-17
-16	47	-11
40	63	-31
97	56	-34
142	28	-11
160	0	4
142	-11	43
93	0	56
29	22	45
-30	34	50
-72	20	48
-93	-25	24
-97	-84	-34
-96	-126	-74
-95	-133	-86
-90	-97	-112
-74	-38	-96
-41	17	-98
5	48	-165
58	51	-215
105	42	-194
132	37	-78
142	46	-41
132	62	-33
104	70	6
58	53	24
-4	12	51
-72	-38	53
-136	-81	59
-177	-101	38
-181	-98	37
-144	-79	41
-78	-56	27
-2	-34	6
61	-6	-32
99	27	-48
105	68	-51
87	104	-31
61	122	-19
42	114	-24
39	82	-31
52	40	-23
70	2	-5
71	-20	-2
35	-26	-10
-44	-23	-7
-151	-20	-20
-251	-24	-27
-298	-34	-12
-262	-49	-43
-145	-63	-48
24	-71	-46
190	-64	-41
309	-35	-19
346	11	-12
306	66	-6
200	108	2
63	118	15
-75	82	11
-184	13	0
-242	-62	-24
-229	-114	-48
-145	-122	-44
-20	-95	-27
96	-54	-33
144	-27	-57
93	-27	-62
-42	-45	-55
-202	-56	-36
-308	-39	-5
-303	8	3
-182	68	4
1	110	31
155	114	36
218	81	26
172	27	19
59	-20	-14
-56	-45	-45
-122	-47	-67
-119	-43	-72
-76	-45	-38
-24	-56	4
0	-68	9
1	-62	-8
0	-32	-13
22	17	-40
70	72	-94
127	110	-142
166	123	-136
166	110	-92
130	80	-46
78	41	-22
35	3	-10
11	-38	17
-2	-81	59
-18	-118	104
-45	-141	87
-79	-138	53
-101	-107	11
-96	-52	-49
-57	9	-122
3	56	-185
62	83	-241
107	84	-238
128	71	-92
127	54	6
112	41	22
89	35	24
57	23	4
17	6	-2
-31	-21	13
-80	-50	65
-122	-78	72
-148	-91	39
-151	-89	10
-136	-74	2
-107	-49	13
-69	-21	21
-28	11	67
15	47	108
54	85	111
87	123	118
109	150	111
119	153	-5
116	123	-144
102	64	-193
74	-13	-99
28	-87	9
-35	-135	31
-104	-151	29
-161	-134	30
-185	-99	13
-165	-59	-68
-108	-28	-182
-32	-2	-226
31	25	-149
62	56	-111
67	92	-106
59	115	-135
58	117	-193
71	88	-127
90	28	-55
91	-39	-6
55	-96	-3
-14	-122	-71
-96	-119	-71
-156	-96	-34
-170	-70	-11
-133	-60	8
-65	-60	16
12	-61	12
79	-45	-2
127	-4	12
160	52	20
170	106	29
153	132	51
95	127	22
3	89	-1
-98	41	0
-175	0	7
-193	-26	20
-154	-39	30
-83	-51	36
-28	-67	38
-18	-87	31
-50	-92	27
-91	-75	25
-96	-33	21
-44	21	22
48	68	24
138	94	24
184	93	-7
170	78	-30
113	58	-48
52	44	-50
14	36	-47
7	22	-78
6	-2	-84
-10	-40	-67
-46	-77	-42
-92	-100	-23
-122	-102	-19
-123	-81	-3
-96	-51	-21
-51	-21	-44
-4	3	-46
46	28	-54
106	58	-50
170	90	-58
210	112	-49
198	106	-34
109	63	-41
-35	-11	-52
-182	-93	-60
-260	-155	-52
-228	-177	-46
-107	-157	-13
31	-117	7
103	-79	-6
69	-57	-20
-40	-48	-24
-151	-33	9
-185	2	47
-117	57	46
13	113	16
134	144	-3
184	132	-4
151	86	-4
74	29	-11
8	-16	-23
-16	-32	-35
-8	-30	-31
-6	-25	-13
-38	-35	0
-94	-57	-2
-143	-78	-37
-141	-72	-93
-83	-35	-86
11	23	-59
93	78	-62
127	105	-23
118	97	-8
91	66	-1
74	34	21
75	18	19
80	19	2
62	26	-34
12	20	-53
-55	-5	-70
-114	-42	-58
-134	-76	-20
-116	-90	-29
-76	-81	-53
-36	-51	-70
-15	-15	-50
-1	18	-43
17	49	-72
54	79	-56
101	103	-24
136	116	-17
135	109	5
89	77	26
12	16	22
-71	-52	43
-129	-108	69
-147	-136	64
-125	-135	48
-79	-113	22
-31	-80	7
4	-41	-5
18	7	-9
15	65	-40
4	131	-45
6	180	-47
27	186	-48
69	129	29
115	21	24
135	-98	-6
115	-179	51
48	-184	14
-38	-121	-84
-110	-31	-188
-139	27	-297
-119	16	-327
-71	-57	-289
-28	-150	-223
-15	-201	-153
-26	-177	-52
-39	-88	-10
-27	23	4
18	106	53
85	134	58
132	121	68
138	100	65
99	97	76
36	115	103
-20	127	111
-50	104	84
-57	36	20
-56	-53	3
-69	-125	3
-95	-149	1
-116	-118	-8
-113	-57	-21
-72	-8	-27
-2	12	-13
76	2	11
137	-11	16
165	-4	28
159	27	36
126	67	-13
78	88	-66
18	67	-55
-46	12	-53
-110	-53	-55
-158	-100	-53
-179	-111	-43
-173	-92	14
-142	-56	32
-105	-25	39
-65	-3	29
-29	14	8
14	38	14
66	70	6
119	106	-7
161	125	-44
170	119	-43
143	83	-49
88	25	-75
29	-37	-93
-12	-90	-131
-34	-119	-123
-45	-125	-104
-65	-107	-82
-101	-77	-61
-142	-42	-53
-161	-17	-5
-135	-11	39
-63	-19	74
36	-32	96
129	-34	89
182	-14	77
178	29	37
133	78	-24
74	106	-48
20	99	-53
-14	51	-88
-38	-16	-89
-60	-77	-67
-89	-107	-36
-116	-100	-43
-129	-68	-84
-120	-31	-98
-81	-5	-102
-28	10	-74
28	22	-53
71	40	3
97	67	13
107	95	6
106	110	28
97	101	34
75	67	63
37	22	61
-17	-22	56
-78	-52	16
-136	-69	-33
-173	-76	-52
-172	-78	-36
-129	-76	-20
-52	-65	-25
38	-45	19
119	-12	45
166	26	61
166	62	78
127	88	69
69	99	27
21	98	-6
-3	85	-81
-3	67	-202
4	41	-179
-5	14	52
-42	-15	222
-100	-37	186
-151	-51	143
-167	-62	35
-135	-78	-103
-65	-104	-271
14	-133	-476
72	-154	-546
93	-143	-493
83	-89	-422
64	-1	-254
59	87	-130
71	133	-89
85	115	36
78	38	20
37	-61	22
-34	-133	30
-107	-148	13
-155	-106	99
-161	-44	161
-134	-3	186
-93	-5	203
-58	-35	234
-35	-54	234
-11	-30	142
33	43	50
99	134	2
171	198	-89
223	201	-89
224	142	-108
170	58	-135
75	-12	-100
-23	-45	-65
-95	-45	-3
-132	-37	18
-140	-46	66
-137	-76	80
-135	-103	57
-134	-107	65
-122	-68	68
-87	3	39
-32	80	7
33	134	3
94	145	-10
136	118	-15
159	62	-46
161	2	-66
141	-53	-74
100	-93	-64
36	-108	-17
-43	-97	17
-115	-58	47
-159	-11	44
-159	31	5
-118	45	-35
-58	30	-66
-3	-1	-84
28	-22	-86
39	-12	-90
42	31	-67
52	85	-70
69	119	-78
80	109	-51
66	61	-67
24	-6	-68
-32	-56	-51
-76	-77	-6
-83	-67	53
-54	-51	72
-13	-47	24
7	-61	-15
-16	-83	29
-74	-89	18
-131	-66	-37
-148	-16	-80
-95	45	-75
15	91	-78
149	109	-82
250	98	-64
280	68	-61
232	37	-9
124	11	15
-1	-13	32
-106	-37	24
-168	-63	11
-183	-89	16
-163	-107	-17
-125	-111	-13
-84	-99	4
-43	-71	-22
-6	-35	-51
26	7	-71
54	47	-102
75	81	-36
81	99	72
69	97	107
39	72	93
-3	34	99
-42	-4	57
-67	-34	-38
-68	-48	-99
-49	-53	-190
-24	-56	-256
-6	-61	-261
-10	-69	-96
-31	-68	115
-55	-49	170
-57	-8	205
-28	41	101
34	84	-30
111	103	-99
172	93	-149
196	65	-181
172	35	-150
107	15	-101
24	7	-89
-54	-7	-132
-114	-36	-250
-152	-86	-211
-172	-139	-110
-182	-179	32
-190	-184	52
-197	-154	30
-199	-101	-15
-188	-43	-75
-150	3	-31
-78	38	-48
28	65	-18
156	90	-6
278	114	36
373	130	80
414	130	89
394	114	102
321	90	93
206	62	71
72	38	33
-60	8	30
-175	-33	30
-245	-81	24
-251	-119	14
-186	-125	22
-70	-84	57
57	6	68
151	113	61
171	200	28
121	236	0
26	208	7
-61	130	-3
-108	32	-15
-110	-55	-64
-90	-116	-154
-82	-145	-185
-101	-143	-154
-140	-125	-83
-165	-99	-74
-153	-70	-93
-97	-49	-59
-23	-30	-46
41	-16	-40
76	1	-43
78	23	-42
70	49	-46
67	68	-71
75	68	-43
77	45	-20
52	0	-12
-1	-49	12
-75	-89	46
-138	-107	95
-170	-102	103
-156	-86	78
-110	-64	34
-53	-47	-27
-4	-26	-47
32	3	-53
62	41	-88
90	83	-68
118	114	-23
133	124	-28
127	106	-12
92	67	-4
34	15	-59
-28	-34	-82
-82	-74	-35
-112	-101	4
-117	-108	-12
-96	-99	-8
-55	-75	2
-4	-40	-6
46	-3	60
85	27	91
99	43	49
89	49	49
64	48	18
44	49	-8
37	56	-71
47	63	-151
56	62	-135
50	43	-124
13	5	-107
-48	-49	-119
-115	-102	-71
-170	-141	5
-193	-156	30
-187	-142	-12
-156	-108	-129
-112	-59	-149
-55	-7	-115
14	41	-82
94	86	-67
175	117	-17
237	132	70
257	125	118
223	97	158
138	51	82
25	3	6
-93	-35	7
-195	-60	-23
-274	-69	-40
-324	-82	-72
-351	-103	-64
-340	-135	-10
-277	-159	-6
-153	-149	-28
33	-80	-49
242	44	-78
429	192	-116
545	305	-81
561	339	-18
486	275	58
360	142	83
231	-5	9
123	-109	-8
39	-143	-22
-40	-117	-59
-128	-72	-48
-222	-49	-37
-288	-60	-22
-295	-92	56
-232	-105	107
-120	-80	97
-14	-15	82
46	58	20
42	103	-79
-5	95	-151
-54	38	-189
-70	-34	-213
-47	-95	-178
-16	-118	-113
-6	-105	-101
-37	-66	-59
-99	-17	6
-157	32	65
-180	76	95
-155	104	84
-93	114	86
-24	98	61
30	57	30
62	10	-8
78	-26	-21
87	-30	39
96	0	59
97	46	10
86	80	-44
59	74	-96
21	25	-71
-20	-48	-56
-55	-117	-71
-85	-154	1
-108	-148	43
-124	-108	-38
-126	-57	-96
-109	-15	-155
-63	11	-140
5	25	-33
82	33	-22
145	40	-14
183	44	1
188	38	22
163	23	20
121	-1	11
68	-23	-50
10	-38	-109
-57	-46	-60
-127	-49	-54
-192	-54	-15
-241	-60	-4
-251	-63	-31
-216	-60	-15
-134	-47	4
-22	-27	26
94	1	12
184	30	-4
219	61	-2
202	92	10
140	115	11
69	123	-34
19	104	-90
3	53	-72
13	-17	-41
22	-84	-24
7	-130	-25
-40	-140	-62
-97	-120	-26
-126	-86	13
-101	-49	37
-21	-24	49
78	-2	27
156	24	74
172	56	98
137	89	119
77	105	120
33	91	24
27	48	-55
39	-5	-151
37	-49	-194
-11	-60	-214
-98	-39	-234
-187	-3	-160
-228	29	-82
-193	37	-7
-102	16	17
0	-19	37
60	-43	49
58	-43	-7
14	-13	-12
-28	38	-8
-29	90	-25
17	121	-2
89	118	6
145	79	-21
162	14	-16
136	-63	23
85	-127	16
30	-170	6
-28	-177	-5
-94	-154	-47
-172	-106	-56
-243	-48	-81
-280	8	-81
-252	57	-49
-152	93	-28
-6	120	15
132	135	56
214	141	78
222	135	42
164	113	4
82	77	15
7	30	15
-42	-20	-3
-67	-64	-21
-82	-99	-103
-87	-117	-170
-85	-122	-110
-65	-116	-33
-32	-103	-5
4	-84	9
30	-58	0
39	-28	-27
39	5	-98
44	39	-156
64	66	-115
92	79	-78
107	71	-57
91	43	-54
33	3	-13
-49	-41	51
-133	-72	72
-188	-83	90
-209	-69	67
-201	-39	72
-173	-6	57
-126	13	-8
-57	14	-43
34	-6	-11
136	-33	-12
222	-53	-58
248	-52	-79
202	-31	-64
93	8	-32
-25	53	-106
-100	88	-142
-95	101	-72
-16	83	-66
87	35	-49
164	-32	1
170	-103	13
107	-152	0
1	-162	-25
-98	-123	-32
-145	-44	-33
-128	48	-14
-50	124	-4
54	155	5
150	136	24
195	77	21
167	5	1
69	-56	8
-75	-93	53
-212	-102	74
-307	-94	61
-333	-69	11
-296	-36	-14
-224	8	-42
-136	59	-93
-47	105	-80
53	131	-74
181	135	-63
320	119	-22
431	104	20
470	109	49
401	136	43
239	165	26
41	168	-3
-119	118	-50
-190	20	-90
-182	-99	-151
-141	-192	-197
-126	-231	-128
-166	-206	-49
-234	-142	24
-280	-82	66
-254	-45	28
-151	-38	24
-6	-39	-6
116	-24	-19
167	11	-49
132	54	-64
48	79	-25
-38	68	-23
-83	26	24
-69	-20	55
-12	-46	52
56	-43	39
106	-19	32
116	-1	22
85	-2	-45
26	-25	-60
-34	-51	-55
-67	-61	-71
-60	-47	-53
-11	-14	-63
54	16	-104
109	32	-109
124	33	-107
98	29	-63
44	31	-14
-13	34	-122
-51	27	-163
-69	-7	-51
-79	-65	6
-94	-132	15
-118	-176	19
-139	-171	24
-142	-122	63
-113	-50	55
-60	13	-13
-3	51	-92
39	65	-97
62	71	-29
76	86	4
94	106	0
120	116	-5
140	92	15
134	34	21
83	-38	11
-3	-92	-2
-97	-99	-16
-157	-65	-40
-159	-16	-84
-108	16	-80
-28	13	-44
41	-17	-9
74	-41	24
67	-34	41
38	12	55
15	79	41
16	129	16
46	138	1
89	106	-28
123	53	-40
121	8	-6
68	-16	17
-25	-20	14
-143	-27	12
-248	-51	5
-308	-92	-8
-305	-136	-1
-245	-153	96
-151	-127	159
-45	-60	100
54	28	2
143	110	-75
221	162	-104
283	174	-187
311	148	-252
284	97	-260
195	35	-215
60	-22	-53
-69	-62	49
-157	-84	69
-169	-84	13
-121	-68	-59
-52	-54	-69
-8	-44	-21
-12	-44	44
-43	-51	65
-64	-50	54
-40	-36	0
33	-6	-31
124	24	-27
186	47	-6
186	49	-8
125	33	-58
34	7	-88
-44	-19	-101
-88	-36	-117
-100	-49	-185
-102	-62	-247
-119	-80	-170
-149	-96	-87
-175	-100	-44
-169	-84	-31
-113	-42	-12
-22	18	56
78	85	91
148	138	100
167	168	89
137	169	82
85	138	94
38	88	79
14	20	47
17	-46	19
28	-97	-30
31	-122	-68
8	-113	-100
-39	-82	-114
-95	-43	-79
-137	-18	-20
-141	-13	15
-107	-19	22
-36	-22	37
40	-5	28
96	35	19
115	82	11
93	110	22
46	106	20
-6	69	-51
-51	16	-48
-85	-28	45
-112	-51	102
-130	-52	101
-134	-49	48
-103	-53	-27
-32	-69	-99
69	-85	-102
169	-84	-60
224	-56	-136
211	-11	-167
136	33	-121
42	56	-115
-25	48	-75
-35	15	-81
2	-21	-59
46	-49	-27
53	-58	-6
0	-56	46
-93	-50	55
-180	-41	37
-221	-31	-2
-195	-8	-20
-126	26	-41
-50	68	-84
0	106	-79
19	123	-44
24	120	-13
39	103	19
64	83	53
86	63	57
78	43	45
21	13	12
-70	-39	-6
-154	-106	-1
-185	-170	-61
-140	-205	-48
-33	-195	6
90	-140	-22
179	-57	-37
200	18	-56
156	74	-53
86	97	-31
34	97	-26
28	90	-52
68	88	-81
126	89	-47
172	86	-28
182	72	-44
158	43	-81
107	6	-81
46	-31	14
-26	-56	44
-113	-70	60
-208	-78	89
-297	-78	55
-339	-78	54
-310	-68	48
-203	-51	47
-57	-22	-46
74	16	-95
148	48	-24
144	71	-64
91	82	-157
27	85	-249
-4	82	-216
1	72	-127
20	50	-66
17	3	11
-23	-64	45
-89	-140	68
-145	-200	-1
-159	-214	-76
-121	-174	1
-53	-92	54
10	5	37
44	81	-24
50	114	-108
42	106	-55
43	80	-2
58	52	-53
76	38	-38
81	29	15
64	16	31
35	-14	53
12	-53	95
7	-84	102
17	-89	86
26	-63	45
14	-25	5
-22	8	-4
-61	20	-43
-85	15	-110
-65	8	-104
-14	17	-15
46	45	42
82	80	78
75	98	86
38	82	58
1	39	26
-10	-9	-47
12	-39	-154
42	-38	-246
47	-21	-327
6	-9	-296
-70	-23	-222
-144	-61	-147
-172	-106	-74
-130	-124	-41
-36	-97	15
66	-28	47
133	57	42
147	123	53
115	148	69
72	125	84
46	68	91
42	-1	59
39	-62	21
13	-105	-7
-42	-123	-14
-116	-122	12
-173	-98	22
-188	-57	6
-157	-3	-19
-95	47	-32
-30	84	-55
21	96	-19
45	83	19
53	60	17
49	40	15
32	34	-9
1	37	15
-42	39	11
-77	26	-1
-75	-6	-18
-22	-48	-35
71	-86	3
163	-97	-4
204	-82	0
163	-48	29
52	-13	7
-76	6	-6
-154	11	-8
-134	10	-55
-23	18	-131
131	40	-197
249	76	-235
280	105	-182
214	110	-61
90	82	-34
-36	22	-30
-124	-49	-18
-160	-120	6
-167	-171	59
-166	-192	4
-170	-188	-30
-167	-155	1
-136	-103	3
-75	-43	16
3	18	33
59	61	-8
74	84	-45
41	85	-47
-3	72	-32
-20	60	16
8	55	28
67	57	9
113	54	31
100	36	71
16	1	98
-109	-40	57
-212	-69	-27
-241	-68	-52
-172	-40	-33
-36	1	-66
107	33	-135
211	39	-126
248	24	-81
234	6	-43
206	9	-10
188	41	-4
170	89	-41
121	125	-164
9	123	-237
-166	78	-170
-361	-2	-98
-503	-87	-48
-516	-154	-2
-386	-195	31
-154	-213	21
82	-211	9
236	-192	-7
260	-147	3
178	-64	74
68	52	121
9	174	192
39	269	225
137	301	160
237	261	97
270	168	15
214	56	-116
94	-34	-224
-31	-85	-227
-106	-94	-193
-122	-85	-181
-102	-72	-92
-85	-70	15
-99	-77	76
-132	-76	69
-155	-61	-5
-132	-27	-43
-59	19	-58
36	65	-35
118	101	10
150	113	37
124	103	84
60	70	86
-12	23	141
-68	-28	145
-101	-67	-9
-107	-89	-193
-93	-89	-294
-61	-70	-282
-20	-45	-228
24	-24	-108
57	-9	-65
66	0	-75
56	13	-33
39	34	13
39	65	5
60	93	2
94	105	8
115	93	-21
94	61	-16
30	20	3
-64	-21	-35
-150	-53	-4
-195	-83	59
-197	-110	72
-168	-136	112
-131	-150	69
-102	-138	26
-76	-97	51
-30	-34	66
43	25	32
137	58	-51
218	53	-20
248	24	14
202	-5	36
93	-11	101
-44	11	98
-160	46	93
-210	68	-42
-190	53	-211
-114	6	-247
-17	-53	-184
66	-100	-169
115	-114	-201
122	-98	-121
105	-60	46
79	-19	126
62	18	70
61	56	32
69	93	-23
78	121	-84
67	128	-176
36	102	-268
-12	40	-241
-63	-37	-124
-106	-106	31
-130	-140	169
-138	-135	232
-135	-104	166
-127	-62	47
-115	-30	-15
-91	-8	-27
-50	12	-75
1	37	-71
54	68	-17
97	95	-19
116	103	-11
116	85	-34
101	48	-99
82	5	-145
57	-32	-101
22	-56	-55
-30	-77	-34
-92	-94	1
-151	-115	10
-184	-131	28
-177	-131	11
-129	-108	26
-53	-64	42
25	-16	28
95	24	24
143	48	47
170	57	72
184	64	56
175	71	30
148	84	-40
92	87	-86
20	75	-89
-54	45	-40
-116	6	41
-154	-24	-42
-175	-37	-169
-188	-28	-177
-199	-11	-149
-198	0	-52
-167	-6	-52
-88	-28	-46
32	-47	19
162	-49	27
253	-22	9
262	27	-41
190	77	-38
66	105	-16
-39	96	24
-77	50	8
-30	-11	30
66	-58	60
147	-74	83
156	-52	100
80	-9	28
-37	26	19
-126	38	39
-132	24	47
-40	2	8
103	-6	-34
216	12	-30
244	53	-51
163	92	-133
17	102	-178
-124	69	-190
-204	2	-155
-207	-71	-84
-159	-129	-74
-107	-157	-38
-93	-157	49
-116	-143	60
-155	-124	28
-170	-94	112
-149	-43	156
-102	28	158
-53	108	134
-27	163	95
-17	166	37
-6	109	-77
30	18	-282
88	-60	-479
149	-92	-426
172	-60	-230
139	4	-62
59	61	12
-23	69	-3
-65	25	-10
-48	-47	-11
13	-107	-13
75	-116	103
100	-68	118
71	16	53
13	106	15
-33	174	-8
-34	206	-34
10	202	-136
78	163	-154
132	93	-76
158	2	22
151	-92	37
124	-162	56
89	-188	25
40	-165	17
-31	-107	6
-122	-50	-46
-210	-18	14
-261	-16	-23
-240	-29	-50
-144	-28	-50
-8	0	-35
114	45	-50
176	77	-80
166	68	-27
98	13	-1
14	-64	70
-53	-122	87
-91	-134	86
-111	-98	65
-128	-43	24
-148	-2	24
-158	7	7
-140	-9	9
-89	-24	8
-10	-13	-6
66	28	-58
116	78	-96
129	109	-97
113	105	-88
89	70	-48
69	33	-26
61	9	-21
47	7	-40
16	8	-38
-39	-2	-25
-108	-38	10
-163	-89	72
-184	-125	48
-159	-126	23
-97	-84	0
-21	-16	-33
51	48	-46
100	85	-85
123	90	-60
125	74	-21
111	51	-31
83	37	-18
40	28	-20
-13	15	-34
-69	-8	-23
-112	-39	-9
-124	-66	12
-101	-78	9
-48	-68	-25
8	-47	-64
51	-30	-86
68	-21	-56
63	-24	-50
57	-26	-53
60	-16	-41
80	12	-71
98	49	-50
98	85	4
69	106	42
25	103	18
-14	84	-23
-26	54	-21
-10	22	-36
10	-15	-96
1	-60	-136
-53	-114	-48
-135	-164	34
-204	-192	87
-208	-181	65
-130	-123	-2
7	-31	-92
140	68	-183
212	147	-238
198	181	-222
114	168	-66
18	119	85
-42	58	160
-43	2	133
-7	-44	77
26	-77	22
20	-103	14
-38	-121	87
-125	-125	47
-206	-106	-91
-251	-62	-167
-245	-4	-201
-197	51	-145
-115	85	-26
-8	85	-22
116	51	-103
242	-2	-41
346	-56	-28
402	-96	-115
386	-106	-99
299	-89	-54
155	-45	13
-3	14	-27
-145	74	-54
-252	127	45
-300	156	141
-292	154	167
-235	120	108
-142	67	82
-39	14	48
40	-17	-20
71	-14	-70
50	18	-72
2	60	-43
-31	84	-4
-18	74	47
49	30	30
130	-32	-8
167	-87	-18
122	-113	-25
3	-111	-45
-132	-93	-59
-218	-75	-39
-204	-66	20
-101	-70	91
30	-66	108
123	-46	119
133	-5	74
81	44	-64
15	85	-186
-8	100	-221
24	82	-195
77	42	-137
99	-4	-38
51	-39	-30
-56	-58	-56
-174	-61	-43
-241	-56	-39
-228	-52	-17
-145	-52	27
-41	-58	82
36	-63	166
62	-61	230
44	-44	155
13	-4	28
-3	53	-20
10	121	-25
50	174	-48
102	190	-99
150	155	-186
176	70	-306
172	-34	-333
128	-127	-222
43	-174	-93
-59	-164	48
-150	-109	110
-191	-42	130
-166	6	68
-80	23	-99
29	17	-106
120	9	-129
163	15	-169
151	38	-168
105	61	-84
46	63	25
-6	38	35
-49	-5	20
-90	-43	-51
-125	-56	-53
-152	-42	28
-153	-16	33
-124	-5	-54
-68	-19	-78
-11	-54	-12
30	-81	111
48	-76	169
52	-28	142
61	46	94
86	111	47
117	138	50
129	114	-32
95	56	-157
12	-7	-163
-96	-49	-67
-186	-61	-35
-221	-56	-34
-185	-53	-17
-101	-65	-53
-5	-86	-61
68	-98	-85
106	-86	-93
118	-44	0
117	13	45
113	64	72
104	89	96
82	85	66
44	59	61
2	32	36
-30	17	12
-51	16	-17
-58	22	-76
-68	17	-71
-86	-6	-7
-100	-46	0
-91	-91	-80
-43	-116	-104
37	-111	-142
118	-69	-113
157	-6	-10
129	57	46
44	98	87
-52	104	96
-113	84	135
-111	54	116
-56	41	52
10	51	-42
40	74	-176
13	87	-251
-60	64	-201
-148	4	-62
-216	-82	10
-248	-160	12
-237	-200	30
-188	-183	59
-100	-118	58
28	-31	72
183	47	46
333	95	-75
439	109	-168
462	99	-192
393	79	-141
256	57	-71
98	35	-35
-35	10	-16
-128	-25	-95
-185	-61	-126
-222	-94	-142
-248	-110	-183
-252	-101	-43
-221	-69	22
-143	-23	-5
-40	24	57
52	60	45
104	74	28
96	65	54
46	47	80
-5	28	99
-23	26	56
6	39	-28
74	62	-64
148	77	-44
191	62	-39
181	16	-16
109	-53	47
-10	-119	126
-152	-159	102
-278	-153	-13
-347	-108	-40
-338	-50	-4
-245	-3	-24
-102	16	-57
44	10	-140
154	-5	-202
198	-8	-120
191	10	22
161	42	69
136	72	3
119	79	-58
97	51	-131
46	2	-65
-32	-51	38
-122	-89	4
-188	-99	-66
-195	-82	-79
-149	-52	-75
-64	-21	-51
14	3	-12
62	20	21
74	33	69
62	43	54
46	53	43
39	62	34
38	64	29
34	55	17
27	36	4
17	8	-48
11	-27	-93
6	-57	-57
-10	-84	-15
-42	-95	-26
-93	-93	-57
-139	-83	-46
-156	-66	-54
-129	-46	-53
-59	-13	-120
20	35	-133
83	104	-67
106	177	-21
101	233	62
89	237	98
89	180	162
97	65	179
90	-71	134
48	-186	109
-25	-243	58
-93	-228	11
-107	-154	-41
-46	-60	-140
72	21	-219
187	67	-189
225	81	-224
154	74	-272
-1	59	-164
-161	47	-46
-250	36	26
-224	22	116
-102	3	115
50	-15	40
164	-29	-41
188	-43	-56
126	-58	-82
10	-79	-228
-105	-98	-235
-187	-106	-66
-217	-84	47
-194	-26	61
-132	50	62
-40	121	81
53	155	117
129	136	135
166	74	63
155	1	-3
104	-52	-57
37	-67	-46
-20	-49	11
-57	-28	-64
-80	-25	-96
-102	-53	-95
-129	-96	-115
-159	-122	-143
-166	-109	-130
-134	-48	-66
-59	34	-19
44	106	86
136	138	94
188	127	91
184	94	38
140	62	-34
89	54	-16
56	61	-41
52	63	-35
65	36	-21
66	-28	32
31	-110	68
-45	-181	45
-144	-210	10
-225	-189	-7
-247	-131	-53
-195	-58	-104
-77	2	-74
61	47	-75
175	85	-64
224	120	-22
196	153	30
119	170	77
36	153	98
-11	96	104
-16	15	112
4	-61	115
12	-103	124
-22	-100	119
-95	-62	3
-176	-19	-156
-225	1	-280
-217	-8	-397
-156	-36	-492
-70	-60	-381
2	-65	-189
44	-46	-116
63	-15	24
85	13	170
121	28	147
175	28	141
219	23	144
221	8	53
163	-20	47
49	-67	69
-80	-131	109
-181	-190	81
-223	-210	1
-194	-162	-42
-111	-49	-13
-7	97	39
77	224	-90
107	277	-257
74	240	-353
-12	129	-224
-124	3	-97
-218	-88	-26
-255	-102	76
-214	-40	83
-100	56	29
56	142	-55
206	178	-119
309	149	-144
335	66	-82
285	-36	-3
184	-122	112
70	-168	203
-25	-161	267
-82	-108	246
-97	-29	163
-83	49	68
-56	99	-49
-32	110	-143
-17	82	-256
-11	31	-257
-10	-25	-128
-11	-66	-46
-21	-92	-120
-46	-111	-136
-92	-133	-149
-150	-169	-38
-205	-205	89
-231	-223	94
-202	-196	128
-115	-115	95
22	13	149
175	160	99
313	285	13
396	359	-27
405	359	13
342	292	119
223	180	68
81	47	-54
-57	-68	-192
-166	-153	-282
-232	-200	-200
-253	-218	-80
-247	-213	-135
-231	-191	-49
-214	-154	-98
-204	-93	-198
-185	-13	-96
-139	74	-54
-52	148	26
68	186	20
193	179	36
284	130	24
302	62	24
241	-2	31
116	-49	-13
-23	-74	1
-129	-92	20
-181	-105	46
-180	-122	52
-158	-130	87
-144	-122	103
-150	-88	78
-152	-37	82
-121	13	120
-40	52	76
74	77	-30
174	95	-151
212	119	-279
169	152	-319
77	183	-315
6	187	-247
19	150	-85
128	69	43
283	-31	72
389	-123	41
368	-172	12
207	-170	-28
-23	-126	-1
-223	-65	70
-310	-15	144
-263	19	204
-137	36	201
-7	49	164
68	61	24
81	65	0
61	51	-31
46	11	-153
44	-43	-192
25	-96	-150
-42	-127	-17
-157	-126	87
-274	-104	59
-336	-72	-113
-298	-56	-193
-178	-54	-171
-37	-61	-184
54	-56	-55
65	-31	116
17	11	118
-33	58	58
-36	85	-22
15	88	-110
83	68	-104
115	39	-96
84	17	-186
7	7	-215
-70	2	-127
-108	-9	-58
-95	-29	20
-49	-57	91
-10	-79	87
9	-77	-11
18	-49	-70
45	-1	-56
113	47	-9
208	78	18
297	82	-6
326	63	13
273	40	57
145	25	100
-13	29	65
-147	44	-1
-227	60	-7
-236	59	-3
-199	38	2
-142	4	-6
-89	-33	-45
-48	-53	-41
-20	-49	-23
6	-23	-45
33	15	-70
62	47	-59
90	64	-8
110	59	20
114	41	38
102	16	67
67	-11	41
17	-37	1
-44	-70	-21
-103	-104	-42
-145	-136	-61
-167	-151	-89
-162	-136	-63
-137	-94	-18
-105	-32	21
-76	28	84
-55	72	119
-41	89	97
-29	81	25
-5	59	-82
33	30	-185
86	0	-134
139	-30	-34
180	-56	-103
191	-69	-112
162	-58	-43
97	-26	2
8	13	12
-79	39	-144
-144	30	-214
-170	-13	-120
-156	-68	-75
-107	-102	-100
-32	-88	-85
52	-27	60
140	57	158
216	122	101
268	147	70
270	122	9
212	79	-19
99	41	5
-48	28	12
-189	32	-24
-281	24	-61
-307	-18	-35
-269	-103	-133
-202	-200	-172
-136	-268	-207
-86	-263	-267
-37	-173	-113
27	-14	47
120	163	53
228	301	48
306	354	48
324	316	77
256	197	169
127	52	166
-18	-74	155
-128	-144	129
-178	-157	79
-180	-122	69
-158	-79	31
-141	-47	-76
-133	-37	-176
-121	-44	-157
-83	-45	-122
-12	-30	-92
76	-1	-71
144	28	-54
167	41	-40
136	30	-81
67	0	-160
-3	-31	-145
-56	-47	-32
-86	-45	8
-100	-29	64
-123	-16	125
-158	-16	196
-199	-30	230
-224	-49	158
-206	-63	46
-139	-65	-76
-30	-57	-169
91	-49	-226
195	-42	-185
263	-34	-155
290	-14	-138
278	31	-40
237	97	48
175	170	59
100	215	59
16	210	-5
-60	139	-97
-109	24	-104
-111	-96	-109
-70	-178	-102
-6	-187	-18
50	-127	64
69	-32	33
44	48	32
0	80	52
-31	50	36
-23	-14	118
24	-66	137
78	-74	90
100	-24	31
65	58	-34
-17	131	-87
-115	151	-134
-195	106	-202
-247	15	-173
-281	-87	-16
-319	-157	-39
-370	-176	-125
-392	-150	-19
-350	-98	94
-195	-48	72
55	-2	-40
326	39	-178
517	89	-190
539	150	-211
389	205	-238
132	233	-149
-107	202	-76
-219	105	29
-170	-40	93
-3	-189	137
179	-292	172
288	-318	126
286	-258	87
197	-139	105
91	-11	161
18	88	75
2	137	-15
18	147	-28
33	138	-131
28	140	-132
5	157	-61
-10	171	-154
-8	160	-215
2	106	-151
-7	14	-77
-56	-90	-20
-140	-170	41
-234	-205	52
-288	-191	49
-281	-153	10
-216	-113	-7
-123	-89	45
-36	-78	36
18	-58	3
38	-15	-25
42	56	-5
44	130	-2
56	174	-61
72	165	-89
86	94	-44
85	-8	-7
61	-101	-43
16	-152	-58
-56	-152	-48
-142	-117	-1
-226	-78	8
-275	-56	6
-256	-51	4
-154	-51	20
22	-26	90
216	31	138
361	110	127
402	189	30
321	233	-66
162	224	-74
-6	161	-47
-104	66	-50
-107	-36	-53
-41	-120	-102
26	-171	-138
28	-188	-105
-59	-177	-120
-206	-159	-74
-336	-148	-15
-383	-152	-101
-304	-167	-79
-123	-165	-30
101	-123	12
300	-19	12
411	137	-86
428	305	-40
357	428	44
240	449	147
111	354	121
1	170	-18
-71	-35	-55
-111	-195	-102
-130	-257	-168
-145	-224	-150
-169	-135	-125
-195	-42	-103
-208	12	-51
-182	19	-26
-108	-1	45
4	-21	108
119	-15	128
209	16	130
245	60	43
234	97	-60
191	110	-124
137	98	-113
85	65	-39
22	21	-2
-53	-30	19
-139	-80	69
-210	-122	52
-237	-143	-21
-204	-137	-18
-124	-102	-40
-34	-46	-83
24	14	-34
34	68	-19
6	102	-44
-32	114	-105
-57	98	-111
-63	49	-4
-71	-26	65
-93	-120	77
-124	-205	57
-138	-254	-1
-101	-238	-81
0	-162	-66
138	-49	-23
258	56	39
308	120	87
268	131	37
171	110	17
72	89	69
26	93	75
39	119	-13
79	150	-87
93	149	-170
52	104	-230
-38	22	-152
-133	-64	-179
-191	-126	-186
-197	-150	-78
-170	-142	-65
-143	-127	38
-135	-117	3
-133	-109	-86
-108	-84	-86
-30	-27	-79
91	60	8
204	154	28
257	215	52
216	221	106
97	169	90
-47	88	1
-162	11	-37
-206	-37	-42
-186	-53	51
-128	-61	87
-64	-79	-13
-15	-118	13
23	-159	28
42	-171	53
44	-139	170
18	-64	161
-28	21	81
-65	78	42
-54	84	10
28	45	-55
165	-2	-93
302	-28	-189
363	-12	-299
302	26	-368
140	55	-331
-55	47	-89
-197	-1	29
-234	-63	13
-169	-103	55
-67	-92	65
1	-37	41
-3	32	38
-68	80	-21
-143	84	-48
-181	53	-24
-159	19	-88
-107	9	-87
-63	32	29
-58	77	131
-80	110	141
-86	102	95
-32	45	-15
87	-42	-105
236	-128	-149
339	-181	-218
340	-179	-162
224	-128	-22
36	-54	39
-139	14	39
-235	53	0
-215	62	-40
-108	48	-35
32	37	-46
137	41	-43
175	61	70
143	83	243
63	83	325
-31	51	172
-114	-7	-68
-163	-69	-157
-166	-106	-166
-118	-106	-243
-32	-71	-317
64	-29	-241
130	-2	-60
137	4	11
85	-2	14
4	3	39
-57	29	21
-66	72	5
-23	103	47
40	92	1
79	33	-69
72	-46	-36
31	-106	30
-7	-107	109
-17	-46	126
4	36	74
24	93	39
12	84	-18
-43	8	-102
-116	-92	-168
-162	-161	-186
-152	-159	-96
-86	-86	-15
-2	21	53
59	112	83
71	149	48
39	127	4
-9	68	-26
-45	4	-42
-54	-53	-69
-42	-95	-35
-15	-126	30
22	-148	112
67	-145	183
107	-113	116
118	-47	-7
76	35	-139
-32	110	-222
-172	149	-154
-281	140	-108
-300	102	-91
-195	53	-202
-3	21	-221
214	11	-48
358	15	3
381	19	13
280	9	-98
119	-17	-97
-36	-51	-40
-138	-80	-7
-168	-94	86
-152	-89	115
-117	-66	152
-90	-33	91
-71	5	-21
-50	41	-115
-11	68	-206
50	81	-137
119	72	51
175	50	66
187	21	-27
135	1	-83
27	-7	-42
-110	-2	79
-232	7	87
-295	6	7
-269	-13	0
-168	-48	13
-22	-86	9
117	-111	1
210	-109	24
242	-78	106
221	-33	152
171	12	57
111	41	-12
56	52	-35
2	49	-172
-55	45	-211
-115	46	-218
-170	44	-121
-212	31	12
-230	-11	-13
-216	-76	15
-172	-148	13
-97	-191	-1
-3	-178	-33
93	-103	-35
172	13	65
215	124	120
211	190	130
171	190	90
117	141	53
75	85	2
51	55	-238
41	66	-511
18	93	-419
-39	97	-190
-129	41	-67
-221	-64	16
-262	-182	18
-222	-254	16
-96	-238	48
74	-138	93
213	1	77
269	118	30
223	166	13
113	143	64
2	77	140
-54	15	178
-42	-17	152
6	-14	126
41	-1	96
18	1	1
-60	-16	-6
-161	-46	-128
-228	-71	-315
-233	-87	-372
-181	-92	-358
-108	-102	-254
-53	-117	-187
-30	-122	-40
-27	-97	20
-13	-27	74
28	75	166
87	168	105
132	208	2
125	170	-118
57	72	-47
-41	-38	47
-115	-109	164
-117	-113	217
-28	-60	137
113	7	60
242	45	-67
287	41	-109
216	4	-116
68	-30	-159
-81	-34	-135
-156	-6	21
-111	35	61
28	62	66
183	60	21
275	31	-105
255	-8	-92
139	-44	-63
-15	-69	-31
-134	-86	-20
-185	-89	34
-180	-72	70
-162	-33	90
-172	30	102
-210	93	49
-248	129	-5
-237	119	-40
-158	62	21
-25	-2	30
107	-40	-5
193	-25	7
205	26	-43
154	76	-157
71	79	-176
-10	20	-170
-69	-75	-151
-108	-160	-59
-127	-186	-40
-124	-148	-1
-97	-70	-28
-49	1	-39
-1	30	-14
22	18	-71
6	-8	-90
-32	-14	-62
-54	16	76
-14	64	90
104	98	0
261	88	-137
391	34	-292
412	-36	-266
302	-80	-151
99	-81	-28
-110	-47	2
-235	-11	-23
-236	-4	79
-136	-34	130
-20	-85	109
43	-116	134
20	-102	100
-55	-39	85
-116	50	22
-110	130	-112
-32	171	-82
65	163	17
122	121	16
98	64	-62
1	10	-153
-113	-35	-31
-189	-72	65
-200	-105	19
-158	-133	-30
-99	-151	-141
-52	-153	-115
-20	-137	0
16	-100	31
66	-44	48
130	27	87
175	106	90
178	174	72
134	222	45
70	228	-50
26	193	-82
20	125	-17
43	53	-31
56	-4	0
26	-39	53
-54	-53	38
-151	-68	26
-221	-93	22
-227	-125	-6
-170	-145	-59
-88	-130	-97
-22	-72	-155
6	14	-80
-1	96	19
-11	138	42
-5	120	24
22	53	-42
52	-28	-70
66	-85	-84
55	-90	-64
32	-50	-47
19	8	-41
29	45	-57
61	41	-88
91	-3	-121
96	-64	-190
64	-109	-122
6	-116	11
-51	-84	-18
-85	-31	-7
-76	20	3
-32	55	-36
25	69	32
78	79	95
105	86	133
104	93	97
71	89	97
22	59	-36
-36	1	-324
-93	-76	-348
-133	-141	-182
-152	-176	-98
-143	-162	-43
-109	-104	-3
-56	-25	11
-1	48	70
42	96	90
62	106	106
55	88	124
27	45	101
-9	-2	51
-38	-44	-50
-54	-66	-111
-51	-67	-14
-33	-50	30
-7	-29	-48
32	-12	-79
80	-13	-137
130	-29	-176
164	-46	-111
158	-50	-31
95	-30	27
-14	4	24
-136	38	22
-217	53	20
-210	41	31
-102	16	41
71	-1	72
242	12	121
338	53	78
318	106	72
189	141	38
2	129	-60
-176	68	-129
-285	-14	-186
-305	-82	-113
-245	-103	3
-137	-69	-75
-21	-1	-132
78	68	2
136	106	38
150	105	59
117	74	103
59	32	75
-2	1	84
-47	-14	40
-53	-26	47
-35	-44	24
-3	-78	0
11	-117	44
-7	-144	25
-54	-140	-34
-111	-97	-177
-145	-28	-176
-143	40	-20
-99	84	-18
-30	84	-142
36	46	-254
81	-5	-303
96	-41	-291
91	-50	-127
77	-35	68
66	-14	-17
60	-7	-121
49	-28	-49
26	-70	25
-16	-113	4
-69	-133	-28
-124	-119	-16
-159	-76	69
-161	-18	104
-125	35	133
-55	70	136
27	91	74
101	99	100
143	104	62
147	103	45
114	89	22
61	61	-60
11	19	-201
-24	-25	-250
-42	-62	-189
-52	-84	-117
-63	-90	20
-79	-92	-43
-87	-95	-75
-66	-102	-58
-12	-102	-37
76	-77	13
163	-18	-15
219	71	23
224	166	19
175	237	-23
101	250	-30
27	198	-9
-28	93	53
-69	-34	183
-109	-145	297
-154	-212	345
-191	-219	254
-203	-179	-54
-173	-107	-345
-102	-29	-358
-24	41	-353
33	98	-297
49	134	-116
35	154	-66
26	154	-7
39	135	49
76	102	79
102	57	52
86	13	3
17	-24	47
-71	-54	76
-122	-78	58
-93	-96	64
14	-109	88
134	-113	128
196	-103	66
151	-81	-75
17	-47	-100
-125	-16	-115
-194	8	-149
-138	21	-130
5	31	-65
156	45	42
226	65	47
172	85	2
30	91	18
-125	74	-70
-215	29	-247
-221	-30	-256
-166	-87	-145
-106	-123	-40
-83	-130	30
-94	-113	66
-107	-81	94
-81	-46	93
-3	-17	-4
94	4	-88
165	16	41
169	23	216
104	22	164
9	17	-33
-63	9	-176
-72	3	-106
-13	6	-56
78	15	-61
144	32	14
147	42	-60
74	41	-128
-36	19	-97
-132	-16	-76
-162	-51	-64
-109	-70	-45
-5	-60	-149
100	-20	-183
151	38	29
128	91	135
52	112	147
-26	92	70
-54	30	39
-19	-47	-9
56	-112	-155
113	-136	-211
104	-115	-143
20	-66	-43
-103	-20	-7
-205	3	44
-237	-2	24
-191	-18	-28
-110	-11	-10
-46	33	84
-42	102	142
-85	166	111
-116	183	54
-75	140	65
69	53	8
279	-32	-94
459	-71	-117
506	-45	-185
387	23	-182
127	82	-155
-161	82	-91
-360	7	-47
-392	-109	1
-268	-208	39
-69	-238	38
95	-180	66
159	-66	22
126	48	4
57	114	-13
15	116	6
33	72	-7
83	22	-22
107	-4	-12
64	-3	24
-45	8	105
-173	3	120
-259	-30	155
-273	-79	208
-229	-118	222
-163	-121	115
-118	-85	-21
-103	-23	-81
-87	34	-148
-43	63	-246
37	65	-408
128	50	-488
195	39	-296
207	42	-43
171	60	31
120	74	24
83	66	53
63	30	-21
41	-31	-109
-10	-94	-81
-84	-138	-67
-150	-147	-81
-162	-117	13
-102	-59	178
9	9	224
110	71	172
143	116	54
105	136	-16
29	139	-52
-14	128	-40
12	106	40
93	71	80
162	20	14
153	-46	-137
46	-119	-197
-108	-179	-203
-234	-205	-136
-262	-189	-68
-191	-133	39
-75	-60	14
14	1	-115
27	32	-124
-22	35	-121
-78	27	-84
-80	31	-157
-10	63	-135
105	115	-51
198	156	0
225	158	33
175	106	49
84	16	68
-11	-83	50
-79	-155	62
-117	-187	22
-139	-179	71
-156	-149	65
-162	-101	101
-134	-38	147
-67	44	49
32	143	19
129	233	-32
192	268	-90
198	227	-140
151	106	-109
77	-44	-31
-3	-166	49
-67	-205	63
-119	-158	24
-155	-64	16
-170	11	65
-158	23	81
-102	-24	27
-14	-92	63
83	-119	32
156	-78	-15
178	19	-74
148	120	-172
86	173	-227
33	161	-211
16	98	-46
34	31	63
63	-12	133
69	-24	245
28	-31	121
-61	-57	-72
-167	-104	-213
-255	-149	-266
-281	-155	-195
-242	-109	-129
-148	-25	-28
-30	57	26
69	99	60
129	92	-6
136	57	-152
104	34	-215
54	45	-183
16	83	-129
8	112	-10
29	97	18
68	32	17
97	-57	61
94	-124	-8
45	-135	68
-32	-92	67
-118	-26	42
-183	15	69
-201	7	55
-172	-44	69
-99	-99	-45
-4	-120	-81
97	-93	-74
191	-31	-192
254	29	-252
276	57	-244
245	45	-175
166	12	-34
50	-15	101
-68	-19	177
-161	-6	127
-207	6	30
-209	1	-63
-182	-19	-177
-137	-37	-170
-84	-32	-100
-18	1	-46
58	53	72
132	98	121
175	117	118
166	105	133
100	77	106
4	50	22
-74	27	-55
-101	-3	32
-78	-54	71
-34	-123	30
-20	-183	24
-52	-191	-5
-117	-121	-22
-163	12	44
-143	161	104
-50	252	90
82	244	30
194	143	-116
232	9	-243
192	-82	-289
112	-87	-154
44	-12	-49
17	83	-31
26	131	32
37	100	25
24	8	72
-21	-90	65
-78	-148	49
-120	-143	58
-135	-108	-24
-126	-81	-70
-117	-86	-2
-107	-113	34
-93	-121	-37
-61	-83	-120
-6	1	-182
54	90	-224
92	136	-125
87	116	-23
48	41	-14
6	-36	54
-6	-78	53
24	-62	50
69	-19	-26
86	15	-65
37	8	94
-68	-37	134
-188	-84	-8
-262	-95	-242
-245	-55	-312
-144	13	-172
1	76	39
133	96	158
216	68	176
245	24	144
230	-11	32
195	-16	-52
143	0	-104
75	13	-209
-18	-1	-295
-121	-46	-166
-211	-102	-18
-258	-136	25
-252	-124	28
-199	-67	31
-121	16	5
-35	95	-61
48	141	-117
129	145	-97
202	112	-32
251	56	26
250	-1	103
188	-44	191
74	-62	129
-56	-54	-96
-166	-21	-214
-226	19	-90
-231	48	33
-200	51	-12
-150	23	0
-86	-24	42
1	-66	138
115	-78	138
234	-49	91
321	12	87
332	77	53
252	109	16
115	96	-137
-19	39	-163
-93	-32	-100
-89	-86	-107
-38	-96	-93
-4	-61	-111
-32	-8	-181
-133	32	-161
-257	30	-67
-338	-18	20
-329	-91	39
-225	-149	26
-62	-154	37
99	-98	24
216	12	16
265	130	-46
256	218	-87
206	240	-20
133	194	91
45	106	119
-43	11	112
-119	-58	151
-167	-92	99
-178	-97	49
-153	-95	-36
-108	-99	-162
-57	-110	-123
-13	-116	-176
20	-98	-160
49	-51	-111
76	16	-154
94	82	-50
100	128	4
85	144	-25
54	134	8
18	110	56
-12	83	22
-26	55	8
-22	21	46
-5	-25	21
12	-81	-132
18	-132	-229
5	-164	-270
-26	-167	-231
-67	-144	-134
-101	-111	-20
-105	-80	85
-69	-52	130
4	-24	173
86	17	124
147	67	25
160	118	-116
118	143	-181
41	126	-144
-39	70	11
-95	-7	134
-118	-74	108
-118	-110	48
-118	-113	4
-133	-95	-38
-156	-76	-78
-162	-62	-51
-125	-50	-47
-31	-20	-60
106	31	-90
245	98	-74
342	156	-40
359	174	20
291	153	72
162	90	53
13	22	74
-109	-31	72
-183	-54	47
-203	-56	63
-182	-57	49
-142	-69	5
-96	-96	-18
-52	-120	-38
-12	-128	-51
25	-107	-61
53	-59	-51
75	-1	-43
82	53	-63
81	92	-108
66	113	-128
45	113	-109
14	97	-75
-25	62	11
-65	14	74
-97	-36	145
-106	-74	185
-93	-82	152
-63	-53	94
-34	0	-22
-20	58	-128
-20	99	-190
-22	109	-175
-8	86	-72
28	47	-1
79	5	-34
121	-27	-39
124	-42	-80
84	-44	-101
3	-31	-32
-85	-11	15
-150	14	92
-170	31	150
-145	27	86
-94	-4	-62
-32	-57	-269
16	-109	-400
42	-134	-336
43	-118	-215
24	-66	-173
-7	-4	-167
-38	39	-27
-51	45	112
-36	21	161
11	-9	135
75	-18	40
136	6	33
175	48	5
175	85	-35
138	88	74
74	55	152
0	1	158
-64	-43	137
-100	-54	47
-97	-31	-63
-57	11	-137
5	41	-158
61	45	-137
91	21	-2
80	-13	36
38	-38	-52
-5	-43	-68
-23	-33	-121
-11	-24	-126
9	-32	-123
2	-60	-61
-59	-98	48
-161	-130	85
-252	-143	118
-271	-127	82
-185	-96	60
-19	-54	24
159	-13	53
261	25	34
245	64	-59
139	106	-54
13	150	-50
-54	182	-25
-35	192	-61
42	168	-140
106	112	-133
100	38	-28
11	-36	24
-113	-90	65
-204	-115	105
-223	-110	30
-167	-86	3
-88	-55	-16
-36	-32	-87
-32	-23	-116
-56	-21	-71
-61	-17	-11
-18	-3	67
72	27	138
166	65	112
208	101	68
170	118	-10
62	106	-159
-62	63	-197
-148	2	-202
-150	-62	-219
-74	-114	-74
42	-137	32
148	-137	91
191	-112	167
162	-69	104
79	-22	8
-5	26	-66
-51	61	-95
-36	83	-88
20	79	-76
74	56	-24
84	23	-13
23	-5	-55
-84	-21	-67
-199	-23	-33
-271	-14	-26
-270	-11	-83
-208	-21	-171
-113	-42	-309
-26	-66	-205
37	-76	43
82	-64	19
119	-31	-12
156	12	-1
184	49	39
188	69	58
152	69	47
87	57	56
22	41	12
-10	33	13
0	28	43
34	22	69
57	7	23
35	-21	67
-36	-52	31
-129	-82	-27
-199	-94	-7
-206	-81	-8
-147	-40	23
-45	19	-56
45	79	-74
96	125	-74
97	138	-38
74	118	-67
54	63	-140
54	-5	3
63	-69	55
55	-113	-24
11	-125	-40
-74	-113	-2
-160	-85	56
-210	-53	75
-199	-26	-14
-132	-6	-106
-46	7	-86
18	15	-43
31	11	-44
3	-6	-34
-33	-38	10
-36	-76	65
16	-101	49
114	-102	-36
214	-64	-100
266	2	-45
241	77	-56
133	135	-75
-24	154	-14
-185	127	-75
-295	63	-96
-314	-4	-117
-248	-48	-79
-115	-47	-5
35	-4	-23
164	60	-42
245	114	-82
269	128	-57
255	98	85
214	32	257
156	-37	330
81	-85	324
-15	-98	196
-122	-85	8
-223	-64	-182
-285	-57	-395
-287	-70	-412
-222	-90	-311
-111	-94	-225
8	-66	-52
98	-8	-90
136	60	-104
124	117	87
80	140	60
30	127	82
-1	89	20
-5	41	-78
16	1	-55
46	-31	-5
75	-57	25
80	-86	-3
54	-109	26
0	-127	7
-77	-130	9
-152	-116	51
-208	-91	66
-225	-58	40
-188	-24	15
-102	8	-1
18	48	-14
142	89	-22
242	125	-10
288	143	-36
266	128	-97
183	79	-57
55	4	-32
-86	-74	-90
-208	-137	-106
-281	-167	10
-295	-163	55
-239	-130	68
-130	-79	112
6	-17	91
132	48	10
219	110	-101
249	161	-140
218	185	-159
151	179	-111
70	139	-65
6	80	29
-36	17	63
-60	-35	-59
-78	-71	-87
-95	-98	-109
-113	-123	-79
-123	-151	6
-120	-173	78
-102	-171	103
-75	-131	34
-40	-57	-26
1	36	-91
48	117	-137
98	161	-128
136	158	-98
150	124	-46
128	79	12
77	47	5
16	30	34
-26	22	103
-42	7	143
-35	-24	133
-28	-57	69
-40	-79	5
-69	-67	-58
-101	-29	-78
-103	24	-156
-61	62	-236
10	68	-139
82	43	-51
121	6	-36
107	-15	-89
52	-8	-164
-12	22	-85
-55	54	22
-63	61	60
-45	32	93
-23	-29	104
-10	-97	95
-12	-145	58
-19	-160	8
-18	-139	-33
-6	-99	-84
2	-52	-65
-5	-12	-60
-30	24	-63
-63	53	-32
-80	76	-3
-60	85	22
-5	79	-2
65	56	2
118	23	7
127	-6	-15
87	-28	-21
19	-37	14
-43	-33	53
-70	-24	40
-54	-11	4
-8	-4	-19
42	-2	-41
74	-9	-100
79	-27	-189
60	-45	-154
37	-55	-45
18	-44	42
12	-11	87
11	39	69
7	86	52
-3	106	23
-25	90	-13
-51	39	-108
-81	-23	-131
-110	-77	-139
-131	-103	-90
-141	-102	-25
-128	-87	24
-92	-65	56
-34	-46	-2
34	-23	45
97	9	-43
132	47	-71
129	83	13
89	98	-27
25	85	-30
-37	50	-40
-79	11	-82
-88	-13	-163
-64	-11	-197
-25	8	-93
15	23	-51
35	16	-24
33	-21	-15
13	-67	-40
-10	-101	-20
-16	-97	-18
3	-50	28
46	19	59
98	83	71
139	110	16
147	95	-14
117	47	38
61	-8	3
-5	-46	-57
-59	-63	-21
-100	-64	12
-120	-68	12
-129	-84	29
-132	-107	42
-130	-118	65
-126	-97	66
-115	-33	49
-101	54	9
-84	135	-19
-63	170	-21
-32	142	-92
14	59	-69
74	-36	53
131	-97	14
163	-92	-57
157	-27	-93
111	59	-161
52	113	-197
5	98	-189
-10	20	-98
4	-84	-62
20	-152	-56
18	-147	-7
-6	-68	-21
-35	41	-28
-36	130	-18
9	159	2
86	125	38
160	58	49
184	2	50
143	-20	24
54	-11	15
-36	0	31
-95	-9	22
-110	-48	12
-103	-98	24
-100	-135	30
-119	-135	34
-150	-100	47
-160	-47	42
-128	2	38
-58	32	-14
16	43	-118
62	50	-185
58	55	-183
18	61	-150
-20	56	-65
-24	37	41
15	0	102
74	-37	126
110	-59	130
94	-58	91
24	-38	-12
-68	-16	-144
-140	-10	-190
-162	-26	-103
-132	-52	-30
-78	-68	10
-28	-54	-47
-3	1	-254
7	82	-341
24	163	-219
71	208	-63
143	197	22
216	126	76
251	16	36
219	-97	3
127	-175	39
0	-194	18
-109	-158	36
-170	-88	42
-174	-16	37
-135	24	35
-87	30	-19
-45	10	-27
-17	-11	2
11	-13	-4
46	8	20
87	38	31
115	56	10
107	52	6
52	24	21
-36	-11	60
-132	-39	62
-199	-48	9
-212	-41	-76
-166	-27	-133
-79	-13	-134
21	-2	-133
102	14	-135
144	36	-86
144	62	10
113	81	113
72	77	78
42	53	29
37	18	65
51	-11	47
68	-24	43
62	-20	-3
18	-15	-74
-60	-25	-107
-157	-57	-105
-237	-104	-126
-272	-138	-177
-248	-143	-149
-170	-114	-70
-54	-60	16
69	-13	74
184	13	34
261	12	-113
283	4	-214
248	7	-187
162	29	-34
51	62	110
-50	84	74
-109	77	3
-114	38	16
-83	-11	26
-42	-48	40
-30	-54	35
-53	-32	14
-98	-2	12
-131	20	38
-126	24	87
-78	23	-2
0	33	-151
77	65	-186
128	108	-58
147	140	53
133	137	26
101	86	25
48	7	-8
-18	-70	-55
-101	-118	-12
-180	-125	22
-232	-107	12
-240	-83	-2
-191	-74	-53
-102	-81	-80
12	-84	-76
122	-71	-87
214	-36	-40
280	14	11
306	61	-16
292	91	-60
226	98	-50
118	90	-12
-5	75	21
-111	55	15
-166	26	15
-164	-14	16
-122	-65	-25
-77	-116	-35
-53	-144	-23
-61	-142	-32
-87	-104	-25
-102	-49	36
-93	5	112
-60	43	151
-24	61	133
1	66	85
4	66	21
-4	67	-70
-6	62	-204
8	48	-365
36	20	-382
68	-19	-174
86	-54	-40
81	-76	37
52	-74	72
13	-54	9
-27	-27	-27
-48	-4	-63
-49	8	-44
-26	15	-58
12	26	-30
54	48	40
90	85	68
105	125	76
100	151	42
80	144	34
54	99	28
25	22	49
-7	-59	68
-48	-122	55
-99	-145	-4
-145	-131	-97
-177	-93	-151
-172	-53	-179
-128	-32	-161
-58	-27	-80
14	-28	37
66	-18	113
95	14	147
101	58	54
93	96	-67
78	106	-103
54	79	-138
18	20	-227
-32	-49	-254
-86	-104	-81
-129	-131	24
-147	-129	84
-142	-108	119
-126	-78	91
-107	-50	82
-87	-24	0
-49	3	-43
15	33	-87
104	64	-127
191	88	-112
234	104	-66
206	106	-2
104	90	5
-31	61	11
-141	17	46
-178	-38	93
-130	-99	119
-34	-141	91
58	-147	46
101	-102	54
86	-10	15
40	97	-56
14	174	-161
32	190	-273
90	126	-167
154	11	-95
172	-105	-91
134	-167	-70
44	-152	-71
-52	-74	-18
-123	16	29
-144	59	56
-125	33	47
-93	-49	39
-77	-136	8
-88	-178	-3
-118	-142	6
-148	-45	-9
-152	68	-42
-117	153	-77
-41	178	-42
65	155	5
180	109	8
278	77	-6
329	70	-2
314	78	-8
237	78	-12
111	51	-4
-21	1	20
-128	-58	49
-185	-105	37
-191	-126	10
-168	-122	-1
-138	-103	-5
-117	-81	-69
-100	-55	-132
-77	-25	-121
-36	16	-86
17	62	-42
68	97	16
101	106	26
100	80	39
69	27	40
18	-32	-54
-39	-72	-106
-92	-87	-60
-126	-79	9
-137	-62	68
-123	-58	69
-78	-66	14
-15	-84	-51
51	-89	-49
96	-67	-87
109	-24	-261
90	34	-292
55	84	-138
30	113	-20
25	117	13
36	102	47
42	77	93
21	48	82
-36	19	37
-111	-18	4
-173	-60	-31
-191	-104	-46
-154	-135	-8
-75	-138	16
20	-109	43
95	-51	19
137	14	-34
140	66	-64
114	91	2
72	85	110
24	64	65
-18	45	-5
-41	41	-50
-39	47	-125
-6	49	-114
42	29	-16
83	-18	-50
86	-80	-136
44	-131	-144
-29	-151	-110
-103	-128	-75
-139	-82	-47
-117	-32	-8
-42	-3	59
53	10	78
136	23	81
175	64	74
172	141	26
139	232	-9
93	290	-91
50	279	-136
8	189	-147
-35	41	-132
-83	-103	-20
-130	-196	47
-167	-212	40
-184	-170	57
-179	-115	4
-151	-83	-44
-107	-82	-82
-49	-88	-42
17	-72	5
83	-18	0
136	61	16
164	127	-22
158	147	-19
122	106	-26
72	29	-23
20	-48	-13
-23	-93	18
-61	-96	22
-99	-79	0
-138	-64	7
-173	-68	-19
-189	-85	-6
-180	-95	-21
-143	-82	-32
-92	-41	-35
-34	10	-3
25	52	47
86	79	68
155	92	94
222	100	82
260	112	60
242	121	39
156	114	-4
14	84	-107
-139	33	-185
-250	-16	-157
-271	-47	-165
-201	-56	-211
-66	-50	-198
75	-52	-172
172	-71	-106
203	-106	-19
172	-126	13
113	-109	39
63	-49	49
40	34	26
50	99	25
69	119	39
68	83	62
26	19	66
-64	-39	108
-181	-66	141
-285	-60	103
-339	-45	81
-312	-40	7
-209	-54	-60
-54	-71	-150
104	-64	-290
224	-15	-335
288	69	-215
301	156	-46
279	204	25
239	191	59
187	126	69
118	38	46
28	-37	87
-79	-79	142
-172	-89	169
-232	-84	70
-240	-84	-132
-202	-92	-211
-144	-102	-222
-92	-99	-198
-62	-75	-120
-48	-35	-128
-36	8	-167
-10	40	-142
28	54	-52
60	56	15
71	51	16
52	45	28
17	35	85
-12	17	93
-21	-12	103
-10	-49	155
-1	-84	121
-9	-102	81
-46	-99	45
-93	-82	22
-120	-55	10
-105	-33	15
-42	-17	-49
44	-1	-149
122	25	-64
164	65	-97
164	116	-139
133	166	-100
98	192	-154
65	181	-57
36	131	16
0	51	-54
-50	-35	-62
-101	-109	5
-139	-149	4
-148	-149	-9
-120	-116	-21
-69	-66	-47
-15	-17	-2
24	22	26
41	48	11
46	63	3
50	68	13
62	62	-2
78	35	-18
87	-19	-19
76	-89	-14
41	-155	-2
-15	-190	0
-78	-174	6
-132	-109	-1
-167	-19	-3
-174	62	-21
-153	106	-49
-107	109	-54
-47	85	-27
14	59	-13
61	51	-18
90	66	1
105	88	-2
118	95	1
147	78	-13
188	36	-9
226	-13	22
230	-61	27
172	-94	30
61	-119	-20
-79	-134	-51
-189	-139	-70
-226	-127	-64
-182	-90	-35
-85	-27	-25
4	51	-15
40	123	-17
14	171	24
-43	180	31
-87	154	-21
-81	104	-100
-30	39	-118
22	-27	-77
38	-94	-65
0	-151	-22
-66	-184	8
-118	-186	90
-113	-148	142
-48	-80	56
43	-4	-52
117	51	-122
140	72	-155
119	61	-175
82	40	-174
64	34	-142
76	57	-102
102	100	-62
111	134	-61
80	129	-41
9	77	18
-82	-11	41
-172	-98	26
-242	-154	-60
-289	-163	-48
-312	-137	22
-299	-104	51
-230	-83	24
-92	-75	-14
97	-58	19
290	-19	67
422	51	113
446	132	38
346	186	-49
183	190	-144
21	140	-198
-70	68	-138
-82	8	-54
-45	-18	-23
-18	-14	-47
-44	-5	17
-119	-18	33
-199	-61	-10
-235	-114	-8
-200	-145	17
-107	-127	1
2	-66	-16
89	10	21
132	68	22
138	87	25
123	69	19
100	34	20
64	8	15
10	-2	0
-61	-7	-10
-129	-21	-21
-172	-53	-21
-172	-93	-12
-133	-124	39
-78	-126	66
-27	-98	101
10	-50	130
41	4	72
81	46	-29
130	82	-144
176	110	-206
196	137	-207
166	153	-199
93	142	-167
-2	98	-112
-84	22	8
-136	-58	81
-164	-119	79
-185	-135	32
-213	-111	-41
-245	-67	-55
-250	-29	-83
-203	-23	-70
-92	-43	3
66	-77	26
225	-93	22
341	-71	39
381	-13	39
350	68	59
273	142	80
182	187	36
97	187	-26
12	139	-74
-69	64	-39
-156	-21	-1
-229	-95	-85
-259	-139	-147
-231	-144	-67
-139	-114	-70
-21	-61	-190
83	-7	-214
136	30	-155
129	41	-56
83	28	6
32	14	62
6	13	99
10	38	43
23	81	-21
16	116	-76
-21	119	-97
-81	76	-66
-138	-7	-30
-159	-99	29
-139	-165	46
-88	-176	37
-36	-135	0
-6	-60	-3
-4	11	53
-10	53	58
0	58	32
41	37	-75
110	12	-80
175	-1	-66
206	5	-120
176	19	-2
95	26	39
-16	14	39
-115	-20	76
-170	-57	35
-178	-90	22
-148	-100	8
-104	-85	7
-71	-53	-19
-56	-9	-14
-54	36	4
-47	84	-18
-29	127	-70
8	162	-149
57	171	-120
107	145	-93
155	76	-78
184	-27	-13
192	-135	-1
164	-217	16
93	-243	24
-20	-211	57
-151	-137	59
-267	-50	37
-333	17	91
-318	51	87
-218	54	26
-63	43	-79
99	34	-133
223	35	-142
284	48	-273
278	68	-315
229	92	-173
156	110	-41
87	120	-1
24	111	61
-40	72	129
-104	6	87
-159	-83	39
-182	-162	43
-153	-206	36
-65	-196	13
60	-131	-10
178	-36	-36
241	59	19
221	130	67
129	168	28
8	171	-93
-91	154	-123
-130	114	-79
-112	49	-99
-65	-38	-139
-34	-141	-155
-36	-230	-72
-70	-268	-13
-106	-237	39
-117	-137	21
-94	-3	24
-45	119	87
0	189	36
26	191	-64
30	143	-144
30	81	-89
36	35	-32
52	21	26
66	32	67
55	43	52
15	39	84
-47	10	85
-98	-37	59
-116	-86	-27
-97	-121	-88
-53	-134	-81
-22	-129	-95
-21	-109	-90
-52	-77	-26
-93	-40	-35
-108	0	-63
-74	34	-43
11	56	-63
113	58	-62
196	43	-17
234	19	16
212	1	-8
150	0	-42
69	11	-20
-3	25	28
-55	26	23
-83	8	29
-95	-28	71
-93	-66	69
-81	-87	9
-57	-77	-45
-24	-40	-64
11	12	-88
44	58	-128
67	86	-148
78	93	-93
74	82	-90
58	64	-45
33	43	13
-4	16	-36
-48	-18	-39
-99	-60	-57
-143	-102	-31
-178	-127	36
-195	-130	47
-182	-109	68
-139	-69	113
-64	-29	127
34	5	99
138	25	40
221	40	-20
257	57	-48
234	85	-106
161	114	-140
65	132	-147
-12	127	-117
-47	84	-43
-47	12	-16
-35	-69	12
-44	-134	30
-92	-157	-17
-157	-135	-14
-202	-72	8
-184	2	-24
-91	66	-48
49	99	-106
186	95	-116
257	61	-34
241	15	-43
154	-22	-76
46	-44	-42
-31	-49	8
-58	-44	55
-49	-43	66
-42	-51	84
-64	-66	87
-123	-78	74
-190	-76	26
-227	-52	-41
-208	-16	-61
-136	22	-58
-36	50	-91
62	61	-116
135	60	-60
179	58	-42
202	68	-75
206	88	-92
192	106	-106
153	109	-65
88	84	-9
6	32	-16
-74	-29	-79
-128	-78	-81
-150	-101	-33
-141	-90	38
-117	-61	65
-87	-32	-25
-57	-10	-96
-27	-3	-59
3	1	5
22	8	28
23	20	20
2	36	10
-30	40	31
-50	29	-2
-36	0	-20
16	-41	22
83	-79	79
123	-108	140
99	-118	152
7	-114	120
-121	-96	89
-221	-64	38
-232	-23	-57
-136	28	-172
35	77	-268
216	114	-268
334	126	-236
350	113	-230
269	78	-139
145	38	-71
27	7	-24
-43	-11	4
-69	-16	-50
-78	-27	-34
-99	-53	0
-153	-102	9
-226	-162	38
-285	-209	66
-288	-222	61
-223	-179	76
-89	-92	80
69	20	25
205	122	-25
279	192	-68
269	218	-95
199	205	-42
99	171	7
16	134	26
-23	102	78
-20	67	60
7	28	54
19	-18	39
-2	-65	-24
-59	-95	-32
-123	-98	-55
-166	-72	-63
-158	-31	-67
-103	11	-45
-23	38	-22
44	45	-13
75	37	-13
65	23	-28
29	8	10
-4	-8	6
-19	-32	-5
-7	-58	18
15	-81	-10
29	-86	-67
15	-68	-77
-33	-34	-64
-106	2	-67
-181	20	-90
-221	19	-75
-195	-1	-21
-92	-17	-28
72	-16	-68
251	5	-63
386	34	-24
417	53	30
333	57	52
159	45	48
-37	35	64
-181	32	24
-239	35	3
-210	24	1
-148	-18	-70
-101	-90	-85
-101	-169	-14
-132	-211	-51
-153	-190	-93
-122	-104	-4
-34	11	53
84	105	44
175	142	9
211	119	21
182	66	-17
121	26	-123
64	15	-156
31	25	-112
9	19	-8
-28	-24	120
-95	-106	130
-178	-188	3
-228	-227	-147
-209	-192	-295
-108	-95	-369
39	26	-244
167	123	-86
228	168	-53
199	160	19
120	126	7
40	95	-38
6	77	-20
17	66	0
42	48	32
41	14	62
-6	-29	91
-87	-70	132
-161	-95	151
-190	-100	109
-168	-91	49
-111	-77	11
-51	-61	-26
-11	-40	-62
12	-8	-10
30	34	-15
59	78	-32
102	105	-13
133	112	-25
137	93	-39
98	61	-61
26	30	-42
-60	1	-19
-136	-22	2
-187	-48	-13
-209	-78	-19
-199	-108	-30
-156	-126	-47
-75	-126	-15
35	-110	-3
145	-84	-13
221	-55	-36
226	-30	-2
162	-6	11
56	28	-26
-37	76	-40
-77	131	-24
-50	183	9
15	207	10
66	194	-3
74	135	9
31	46	33
-25	-53	22
-58	-140	26
-50	-189	-6
-17	-191	-93
5	-143	-131
-10	-64	-150
-54	18	-205
-85	81	-203
-62	104	-115
30	91	-53
159	59	4
259	35	54
270	31	74
180	45	119
18	62	98
-147	56	26
-256	19	-34
-291	-39	-78
-271	-95	-78
-224	-122	-58
-168	-111	-40
-95	-68	8
8	-20	54
148	15	58
291	27	78
386	27	35
391	27	-24
291	34	-93
132	47	-105
-31	48	1
-143	29	1
-182	-9	-43
-172	-55	-23
-149	-92	-84
-144	-106	-116
-161	-96	-46
-184	-72	33
-186	-45	51
-152	-22	-24
-84	0	-88
4	24	-125
95	48	-144
178	65	-145
233	65	-83
245	41	49
204	-2	127
105	-51	100
-29	-92	5
-166	-109	-9
-251	-99	5
-267	-69	-60
-217	-28	-51
-139	11	-24
-76	40	-84
-42	57	-75
-34	58	47
-12	50	51
54	38	-34
164	37	-109
280	49	-157
346	74	-128
328	98	-129
210	103	-124
37	72	-59
-128	8	0
-229	-69	-20
-245	-131	5
-197	-157	40
-123	-135	26
-64	-90	26
-36	-43	22
-28	-24	34
-16	-29	59
13	-41	90
57	-35	32
99	4	21
116	67	34
96	127	-31
43	149	-86
-27	122	-122
-98	64	-84
-155	3	-30
-184	-27	-12
-184	-24	16
-148	-3	27
-77	1	26
15	-27	38
104	-80	51
171	-124	46
202	-121	22
201	-59	-10
187	40	8
178	130	45
178	165	47
172	124	19
136	32	-1
63	-60	46
-38	-110	13
-136	-99	-104
-200	-47	-177
-216	5	-181
-195	22	-209
-166	0	-238
-141	-37	-112
-120	-58	-27
-76	-41	7
8	10	37
123	67	2
233	103	-2
280	101	-26
241	68	-53
119	26	-11
-29	-5	16
-142	-23	-4
-181	-35	-16
-154	-53	-11
-105	-83	0
-86	-112	16
-115	-129	2
-182	-119	22
-243	-85	70
-259	-40	89
-221	-1	84
-130	20	50
-17	27	-6
109	26	-90
232	28	-142
339	41	-88
410	58	-6
415	74	-32
336	77	-122
182	62	-150
-3	31	-118
-154	-10	-103
-230	-52	-123
-214	-83	-144
-139	-88	-112
-55	-65	-15
-3	-21	56
7	31	49
-1	71	62
0	87	61
22	74	57
55	45	69
71	14	26
54	-5	4
3	-14	-9
-61	-20	-13
-113	-33	-39
-139	-58	-86
-140	-81	-89
-129	-92	-149
-112	-77	-199
-87	-42	-88
-47	-4	-14
7	22	3
63	26	46
101	16	51
96	3	43
52	4	32
-10	21	46
-57	44	32
-67	60	49
-36	56	19
16	31	-21
62	-5	-45
79	-39	-87
62	-58	-41
29	-62	-20
1	-54	3
-11	-42	4
-6	-29	14
-5	-21	38
-20	-15	16
-55	-16	24
-87	-24	3
-87	-33	-16
-31	-37	-46
82	-22	-99
216	17	-124
326	75	-120
352	132	-63
273	164	12
110	153	118
-81	93	163
-221	11	124
-263	-61	54
-209	-93	-71
-95	-70	-219
18	-14	-266
80	48	-202
80	84	-92
40	83	-19
-3	50	-19
-24	15	-60
-30	-1	-116
-40	4	-76
-70	17	5
-121	14	97
-166	-20	120
-175	-80	106
-139	-138	90
-72	-163	45
-12	-137	-49
18	-65	-163
13	16	-170
-3	72	-124
0	79	-65
39	35	-49
102	-27	-22
155	-70	-12
162	-69	47
112	-31	110
28	20	60
-59	44	19
-119	16	-26
-150	-59	-103
-165	-156	-132
-188	-227	-109
-221	-241	-65
-236	-188	18
-205	-87	28
-106	26	77
46	123	51
211	182	-13
326	207	-7
357	208	3
302	195	46
200	170	44
103	129	99
49	68	49
51	-6	-96
85	-79	-194
107	-124	-228
87	-132	-181
13	-103	-114
-91	-53	-32
-183	-3	35
-221	27	13
-181	35	-36
-77	32	-17
55	30	31
166	36	59
211	48	12
175	57	-8
82	47	-24
-33	18	-28
-126	-25	-12
-173	-66	5
-175	-95	43
-152	-108	45
-128	-104	41
-117	-94	35
-112	-79	3
-99	-59	-18
-61	-32	-36
-7	3	-61
54	40	-79
100	68	-124
116	77	-122
105	65	-70
77	41	-52
46	17	-9
16	1	30
-15	-5	27
-55	-4	13
-107	-9	-6
-163	-21	31
-201	-37	57
-202	-49	37
-158	-48	37
-75	-33	-8
25	-7	-117
115	14	-155
172	29	-62
192	32	6
184	26	4
162	22	-60
144	23	-131
131	30	-131
111	34	-96
61	24	-67
-33	-4	-37
-156	-52	-15
-267	-104	-34
-312	-137	9
-249	-132	32
-86	-80	4
128	13	41
301	116	97
366	195	89
309	230	69
175	207	22
48	144	-69
-13	65	-108
3	-3	-94
46	-49	-82
48	-77	-32
-34	-97	-18
-178	-119	-84
-320	-144	-41
-375	-164	22
-308	-159	11
-156	-124	-33
13	-64	-87
122	5	-97
149	61	-56
120	95	-4
87	102	-66
90	89	-58
121	67	22
143	41	32
120	17	43
40	-9	44
-65	-34	45
-151	-56	-40
-187	-72	-122
-174	-78	-141
-136	-75	-96
-108	-67	-12
-95	-58	-12
-86	-47	-78
-57	-28	-43
-1	-1	39
68	35	24
125	70	87
145	95	123
130	101	87
98	89	68
76	66	4
67	41	-44
60	21	-40
35	2	-64
-22	-19	-140
-95	-49	-154
-151	-83	-128
-165	-111	-95
-126	-123	-31
-61	-109	7
-2	-67	6
28	-5	-1
33	65	0
37	132	10
65	180	48
123	188	40
182	153	9
206	72	-20
164	-30	-81
59	-127	-69
-74	-187	-43
-183	-191	-30
-229	-149	23
-205	-80	9
-130	-19	-11
-48	12	-39
11	18	-56
40	17	-17
50	33	-19
57	68	-24
71	115	-34
88	137	-20
91	120	1
69	57	-8
18	-28	10
-52	-105	-5
-130	-147	-22
-201	-148	-24
-249	-125	-55
-267	-97	-66
-237	-77	-56
-150	-62	-31
-6	-42	-30
167	-10	-51
318	38	-33
402	90	-40
383	132	-43
275	157	12
122	158	1
-5	141	21
-65	106	50
-57	59	11
-22	-4	-21
-11	-72	-27
-47	-132	-3
-121	-167	-8
-184	-164	8
-195	-131	4
-143	-84	5
-57	-39	16
20	-6	45
58	18	46
61	45	10
59	86	-3
80	131	-76
115	164	-121
139	158	-132
106	105	-155
1	15	-147
-156	-87	-98
-307	-166	-79
-389	-203	-106
-378	-198	-97
-277	-162	-95
-125	-105	-57
38	-38	-34
192	32	-5
309	103	37
380	158	47
390	182	81
331	158	58
215	93	62
78	13	80
-36	-48	82
-97	-66	68
-110	-43	51
-107	-4	112
-124	13	144
-175	-9	80
-226	-61	-33
-228	-109	-164
-144	-118	-186
8	-77	-192
172	0	-282
280	76	-213
280	119	-92
194	122	-89
71	99	-70
-22	76	-65
-52	64	-51
-42	58	22
-34	40	49
-65	-6	53
-138	-74	-8
-217	-144	-27
-251	-187	16
-221	-192	-17
-140	-171	-18
-50	-135	-27
10	-106	-71
34	-74	-22
46	-27	69
83	48	36
156	142	28
241	228	56
290	261	78
262	229	83
154	138	37
-1	26	44
-143	-58	28
-215	-96	16
-210	-87	5
-154	-63	-28
-95	-56	-36
-63	-72	-70
-61	-99	-163
-57	-102	-170
-22	-67	-145
49	3	-159
133	80	-151
184	126	-117
181	123	5
121	79	42
38	20	81
-30	-21	102
-62	-34	106
-63	-30	123
-62	-29	-2
-77	-48	-88
-107	-87	-94
-132	-123	-62
-128	-131	-25
-90	-100	11
-28	-33	-45
26	39	-145
52	89	-132
46	99	-93
28	71	-10
21	24	49
35	-20	53
60	-44	37
72	-50	24
56	-39	12
8	-24	-76
-47	-9	-119
-88	1	-81
-104	4	-38
-97	-2	-35
-85	-21	-20
-75	-45	21
-64	-67	65
-35	-69	81
26	-37	53
110	25	29
189	106	22
219	178	-12
175	210	-67
68	186	-72
-61	111	-76
-153	7	-27
-168	-95	14
-100	-162	-45
10	-180	-113
105	-152	-138
145	-96	-103
123	-33	-75
71	23	-18
32	62	9
37	88	2
81	100	13
132	102	4
150	90	59
113	63	84
28	29	63
-72	-11	89
-150	-44	67
-187	-66	-14
-189	-76	-78
-182	-76	-117
-183	-72	-149
-199	-69	-194
-213	-68	-190
-194	-62	-112
-126	-52	5
-15	-31	94
110	-5	102
219	24	107
273	50	68
263	72	14
204	86	-30
120	87	-71
41	74	-86
-22	48	-68
-64	13	9
-101	-24	23
-148	-55	-30
-199	-72	-54
-249	-79	-50
-263	-74	-32
-221	-61	-3
-105	-43	4
68	-16	55
249	25	67
380	74	-5
411	118	6
329	140	1
163	124	-74
-24	63	-151
-165	-27	-203
-224	-122	-218
-203	-187	-133
-148	-201	-33
-104	-162	-8
-93	-86	-20
-104	-8	-18
-101	39	0
-53	41	-39
42	11	-27
155	-27	-20
239	-35	24
254	7	95
205	86	101
119	171	116
32	219	45
-26	194	-6
-60	103	-24
-91	-21	-49
-131	-127	-26
-177	-182	-40
-204	-171	-55
-186	-121	-52
-112	-70	-54
-6	-44	-102
92	-52	-168
143	-64	-79
133	-58	46
83	-15	45
24	59	52
-6	142	-4
-4	200	-40
17	210	-61
26	169	-151
2	85	-80
-51	-17	22
-116	-119	34
-157	-195	0
-156	-229	-33
-111	-209	-24
-42	-138	-23
28	-41	-25
86	53	-46
128	114	-72
155	123	-54
166	92	-35
154	38	12
114	-3	84
46	-21	113
-30	-19	105
-98	-11	58
-135	-10	12
-144	-20	-36
-136	-32	-70
-129	-33	-70
-128	-23	-47
-116	-3	-29
-71	8	-29
19	10	-25
140	9	20
253	17	24
306	44	-31
276	85	-39
172	120	-71
41	125	-109
-61	91	-51
-113	30	-10
-115	-36	-21
-107	-84	-46
-119	-106	-79
-162	-113	-101
-213	-119	-81
-232	-134	-85
-194	-145	-93
-100	-131	-40
21	-76	18
135	18	55
213	122	57
249	195	102
252	206	116
228	158	85
183	70	28
113	-11	-101
26	-57	-154
-63	-63	-115
-136	-45	-83
-174	-36	-58
-176	-50	-56
-156	-84	-32
-132	-112	16
-114	-111	41
-94	-70	24
-57	-2	15
3	61	-20
78	97	-83
141	93	-57
166	64	0
142	31	41
81	15	45
9	17	35
-44	22	52
-74	13	27
-83	-22	7
-87	-72	-17
-97	-116	-96
-108	-132	-172
-107	-112	-176
-81	-64	-130
-30	-11	-54
33	28	14
87	46	5
118	45	10
123	42	50
110	47	56
90	59	15
65	74	-15
36	80	13
-1	68	87
-46	43	103
-90	4	39
-119	-38	-87
-126	-80	-263
-111	-106	-309
-81	-114	-141
-44	-95	-52
-10	-52	-48
27	4	-32
62	60	-58
98	98	-70
121	109	-88
127	95	-62
107	66	-19
61	35	39
6	7	47
-47	-19	56
-89	-48	56
-114	-80	44
-127	-113	87
-137	-131	67
-142	-127	63
-137	-98	34
-118	-45	-34
-75	12	-93
-13	62	-108
56	89	-63
107	89	-39
126	68	0
105	34	39
54	2	58
6	-20	31
-12	-21	-27
21	-3	-17
90	32	-32
159	70	-48
183	98	-88
137	104	-85
34	79	19
-80	27	9
-142	-39	20
-124	-100	-7
-39	-137	-59
64	-141	-72
126	-111	-157
120	-59	-173
64	-9	-101
10	23	-1
3	27	33
44	9	46
97	-18	49
100	-34	35
27	-35	13
-105	-22	-25
-229	-9	-43
-277	-8	-68
-224	-19	-103
-94	-32	-79
39	-30	-6
116	-6	14
118	36	41
68	78	70
14	94	90
-12	72	68
-9	18	12
-10	-40	8
-35	-80	-7
-91	-81	-35
-143	-51	-71
-158	-13	-100
-116	14	-104
-41	17	-92
27	9	-38
52	8	-18
30	35	-38
-5	84	-30
-12	131	-38
31	150	-85
107	120	-95
169	52	-75
165	-27	-39
80	-82	-14
-56	-94	6
-181	-68	34
-242	-32	58
-215	-18	112
-123	-38	81
-7	-81	57
87	-112	39
141	-106	-16
159	-57	-25
154	15	-42
134	76	-36
104	104	-9
57	92	-55
4	57	-167
-42	26	-201
-56	12	-127
-33	14	-76
14	13	-52
56	-5	-36
63	-45	11
23	-94	3
-46	-129	-47
-109	-132	-13
-134	-101	-70
-111	-48	-79
-55	10	-42
6	56	9
46	85	60
58	98	48
52	97	107
46	85	87
49	58	92
56	20	78
56	-22	-22
33	-61	-92
-12	-89	-119
-70	-103	-121
-127	-107	-115
-166	-109	-86
-183	-107	-93
-177	-97	-70
-156	-70	-53
-118	-23	-43
-69	36	22
-10	96	81
60	137	49
135	149	16
198	132	29
234	99	52
234	59	31
192	21	-34
121	-15	-86
41	-50	-114
-28	-85	-99
-69	-106	-66
-87	-105	-13
-86	-75	26
-80	-22	52
-74	36	37
-62	79	-15
-41	92	-35
-3	76	-60
40	42	-82
71	14	-69
76	-1	-64
44	-2	-66
-6	-1	-7
-53	-9	65
-77	-28	96
-72	-52	97
-53	-66	65
-44	-64	30
-54	-46	-26
-79	-21	-88
-98	0	-94
-89	13	-89
-47	20	-58
16	31	-13
80	51	12
122	78	-13
139	99	-20
131	101	-50
107	82	-44
70	40	-12
23	-12	-79
-35	-63	-98
-98	-107	-83
-144	-139	-3
-161	-159	-36
-136	-157	-81
-83	-130	-58
-16	-81	-80
44	-20	-34
85	35	-24
101	63	11
96	56	51
71	22	69
30	-18	116
-22	-41	123
-68	-33	100
-96	5	86
-85	56	16
-46	96	-100
0	106	-149
22	77	-167
8	20	-195
-31	-46	-166
-57	-98	-124
-28	-116	-136
63	-92	-91
192	-29	-42
292	51	-24
314	119	46
236	147	56
94	123	36
-48	63	79
-136	-8	90
-150	-57	41
-115	-77	-62
-83	-67	-149
-91	-55	-93
-144	-61	-18
-214	-84	42
-253	-103	43
-233	-93	-1
-152	-41	9
-32	37	-36
93	106	-97
199	131	-67
269	101	20
290	27	51
258	-43	58
169	-78	80
44	-55	71
-87	-2	70
-181	49	36
-211	67	-28
-177	38	-98
-110	-11	-134
-53	-51	-131
-35	-57	-108
-52	-24	-35
-80	26	-7
-79	66	-28
-36	77	-55
40	59	-96
117	27	-99
171	1	-41
182	-11	-3
154	-13	2
97	-13	1
24	-21	-11
-57	-38	1
-144	-61	10
-212	-79	17
-239	-85	9
-207	-75	13
-117	-48	13
1	-9	2
111	34	-18
174	72	-68
180	93	-56
142	88	-18
94	55	-8
58	11	-32
42	-33	-29
33	-57	-3
16	-59	0
-18	-48	10
-55	-38	22
-81	-40	80
-76	-53	114
-43	-65	39
0	-63	-24
29	-47	-2
33	-22	40
18	0	-10
3	11	-122
12	19	-92
49	34	-5
102	66	-4
135	105	-144
126	129	-255
65	119	-202
-28	68	-194
-111	-6	-91
-157	-68	40
-150	-93	56
-111	-71	56
-70	-34	51
-53	-6	29
-61	-13	-33
-74	-41	-27
-64	-65	-50
-20	-54	-72
46	0	-134
105	74	-226
121	126	-147
87	123	8
20	64	62
-45	-27	37
-80	-104	51
-78	-138	29
-55	-125	22
-42	-85	-16
-59	-45	-16
-98	-25	34
-132	-21	22
-124	-13	-6
-56	14	-18
59	60	-13
190	112	-61
274	145	-103
279	149	-81
198	115	11
72	58	21
-43	-1	-30
-101	-52	-55
-85	-87	-48
-23	-108	-11
32	-117	39
35	-118	63
-20	-112	32
-105	-97	54
-166	-75	65
-161	-45	56
-89	-11	-13
12	25	-94
83	57	-109
87	76	-85
20	72	-46
-78	45	-38
-154	-4	-24
-174	-63	-17
-130	-111	10
-54	-127	16
23	-109	5
75	-50	8
105	28	-5
128	106	20
155	166	42
184	193	46
198	185	41
175	145	18
118	91	-12
44	32	-63
-16	-15	-81
-41	-47	-83
-31	-60	-86
-10	-60	-91
-11	-55	-94
-56	-47	-127
-140	-41	-128
-231	-35	-72
-288	-26	-49
-276	-11	-14
-190	8	11
-42	26	38
122	37	57
258	32	41
330	11	63
320	-25	86
237	-62	41
111	-86	-36
-5	-82	-117
-82	-43	-162
-104	15	-137
-86	68	-119
-62	92	-126
-64	64	-72
-108	-7	8
-169	-94	21
-212	-158	22
-204	-174	24
-137	-135	46
-37	-62	77
57	12	53
113	65	29
119	91	18
94	100	4
66	97	-25
50	95	-67
38	82	-82
17	45	-43
-29	-10	-92
-92	-78	-181
-143	-131	-169
-156	-154	-138
-117	-136	-50
-44	-93	35
27	-44	21
67	-2	-43
68	28	-72
46	61	-33
39	99	11
68	135	22
130	149	6
196	118	-6
223	45	14
188	-45	42
91	-113	42
-30	-127	53
-136	-81	82
-198	1	52
-209	71	40
-185	97	68
-142	67	53
-96	9	44
-45	-38	10
12	-41	-28
75	1	-70
125	63	-169
144	106	-263
123	106	-271
69	62	-144
12	-4	13
-21	-64	78
-17	-96	87
4	-101	76
4	-90	80
-45	-83	52
-144	-86	-15
-250	-95	-88
-298	-99	-147
-240	-82	-127
-71	-43	-105
151	10	-30
346	60	26
446	98	-2
411	116	-1
278	110	-20
105	93	-53
-35	62	-94
-111	23	-19
-129	-25	69
-120	-76	68
-120	-121	56
-139	-150	-8
-166	-148	-24
-174	-116	-16
-150	-57	-16
-91	6	-22
-20	60	-29
41	95	-6
74	106	1
77	104	-4
60	95	-1
41	81	-69
29	56	-108
25	14	-74
21	-50	-49
9	-126	-12
-21	-190	26
-65	-222	44
-113	-198	30
-142	-127	16
-138	-22	-12
-92	89	10
-11	178	5
82	231	-84
151	239	-147
172	211	-136
141	158	-127
76	95	-127
6	30	-76
-33	-29	-63
-29	-72	-9
11	-98	20
52	-101	-18
65	-86	36
25	-57	63
-55	-30	55
-143	-18	59
-194	-21	32
-170	-41	-16
-74	-58	-46
65	-59	-17
195	-32	28
255	24	48
225	96	29
110	162	-3
-37	201	-5
-162	195	-79
-217	141	-189
-190	43	-165
-105	-80	-98
-4	-204	-30
66	-301	6
85	-345	-12
55	-315	-1
8	-218	-53
-23	-87	-94
-19	41	-36
27	125	26
89	150	10
142	124	19
159	82	42
135	51	69
77	48	61
4	61	-18
-63	65	-71
-125	44	-132
-175	-11	-116
-223	-80	-71
-256	-136	-2
-261	-163	26
-216	-152	-32
-113	-114	-22
33	-64	-13
180	-10	-45
278	48	-32
296	109	-21
231	164	-42
120	198	-21
16	195	-21
-43	157	-26
-48	91	-38
-22	25	7
0	-19	97
-6	-36	71
-46	-37	30
-97	-42	28
-133	-58	32
-141	-83	11
-130	-97	-28
-111	-84	-20
-98	-47	-14
-91	2	-3
-67	39	23
-11	55	4
81	48	40
184	33	81
265	26	-5
279	28	-135
211	26	-235
74	6	-238
-85	-38	-210
-207	-95	-150
-255	-141	-107
-209	-153	-86
-96	-126	-10
40	-64	-4
151	4	15
203	65	104
193	112	150
132	144	93
55	166	29
-10	170	-64
-47	147	-158
-51	85	-112
-32	-4	2
-6	-99	9
7	-169	-2
-4	-192	-36
-44	-169	-44
-104	-121	12
-159	-80	-36
-189	-61	-111
-173	-69	-61
-116	-82	36
-35	-74	-11
42	-33	-34
93	38	-40
112	116	-40
109	171	19
103	189	18
105	157	10
113	88	8
110	4	3
75	-71	-4
7	-120	-2
-83	-130	51
-165	-102	93
-206	-52	64
-191	2	36
-128	39	16
-41	53	-31
44	49	-135
107	39	-252
142	37	-226
153	48	-100
144	68	-14
120	82	43
78	77	65
19	48	85
-53	1	83
-126	-48	31
-193	-88	-22
-232	-107	-46
-234	-105	-17
-186	-83	-16
-86	-41	-51
52	7	-65
200	55	-40
312	90	1
342	105	2
275	94	-30
128	64	-80
-38	27	-50
-166	-11	-55
-210	-44	-108
-176	-82	-104
-98	-124	-102
-27	-170	-56
4	-196	-4
2	-187	19
-10	-135	13
-5	-47	17
21	43	18
52	106	9
60	125	13
42	106	70
8	74	104
-16	55	46
-11	60	45
11	74	-2
25	76	-54
7	43	-93
-47	-15	-171
-105	-83	-155
-130	-134	-92
-101	-151	-46
-30	-137	-69
41	-104	-79
72	-64	-44
44	-20	-31
-16	32	-44
-68	92	-13
-72	150	39
-26	187	23
54	182	51
123	127	112
152	41	81
137	-45	-83
95	-110	-218
48	-138	-134
5	-138	24
-37	-122	79
-83	-102	69
-126	-78	2
-153	-38	-43
-141	18	-63
-83	84	-77
7	134	-27
94	150	10
145	123	55
143	68	56
102	15	1
42	-12	-32
-8	-11	-57
-44	4	-86
-72	10	-66
-106	-9	-39
-144	-53	-18
-172	-100	47
-169	-127	4
-118	-119	-21
-31	-82	51
64	-31	39
128	15	-11
135	50	-61
85	76	-120
0	96	-129
-80	108	-88
-122	106	20
-104	78	79
-37	23	45
55	-48	20
135	-114	-42
169	-153	-109
148	-151	-151
82	-117	-149
10	-65	-102
-33	-16	-40
-28	23	23
20	55	18
77	84	-60
105	110	-58
83	127	12
24	126	36
-36	103	110
-63	55	123
-43	1	65
2	-46	-3
31	-78	-66
6	-94	-85
-72	-103	-154
-166	-107	-163
-222	-109	-95
-195	-99	-17
-96	-72	13
34	-29	-5
135	20	34
162	62	23
117	89	-35
37	99	-40
-18	104	-18
-17	104	9
37	93	29
99	58	46
114	-11	89
50	-101	82
-79	-182	-4
-215	-213	-20
-300	-174	-60
-281	-75	-121
-169	37	-60
0	112	-15
152	118	-25
234	64	-28
231	-1	-37
165	-35	-35
83	-14	5
22	40	-32
3	85	-104
8	85	-64
11	34	-71
-14	-33	-145
-71	-83	-85
-148	-89	-13
-210	-66	-35
-225	-49	-71
-180	-61	-71
-79	-101	40
53	-127	77
175	-105	28
254	-16	-18
266	110	-21
216	215	-5
130	256	-16
44	209	-45
-8	106	-71
-24	-1	-11
-18	-67	38
-20	-80	91
-54	-61	122
-123	-42	45
-202	-48	-55
-255	-70	-113
-248	-88	-125
-176	-78	-51
-59	-36	54
62	17	132
155	61	151
198	77	129
195	64	65
158	41	-44
107	22	-186
56	13	-289
10	3	-254
-33	-16	-130
-78	-50	-72
-124	-90	-84
-173	-119	-58
-206	-125	-56
-212	-106	-53
-172	-71	-37
-84	-35	16
33	-1	32
148	29	-39
212	62	-32
207	98	-12
135	128	42
42	134	84
-20	108	76
-20	52	52
42	-12	2
119	-60	7
155	-78	35
116	-64	26
15	-42	-21
-103	-33	-27
-182	-51	-39
-188	-84	-44
-134	-106	-36
-59	-98	-26
-10	-49	-13
4	21	-41
-3	89	-83
1	128	-91
38	130	-11
102	103	33
158	63	43
167	28	34
113	-2	-4
8	-25	-17
-111	-47	5
-200	-66	34
-232	-74	-22
-201	-62	-46
-129	-31	-52
-42	9	-77
33	45	-67
88	60	-44
111	50	6
109	19	7
85	-21	-50
46	-55	-88
9	-71	-108
-21	-63	-80
-37	-33	-98
-41	6	-90
-40	37	16
-35	47	-25
-30	30	-102
-16	-11	-96
12	-56	-92
52	-85	-40
101	-77	14
139	-29	2
159	39	37
149	103	40
113	142	24
60	142	18
6	108	20
-44	54	57
-86	1	64
-117	-44	-102
-136	-75	-260
-138	-96	-174
-119	-108	-140
-81	-115	-78
-32	-112	82
11	-95	115
34	-64	138
27	-21	142
0	30	79
-33	82	2
-54	126	-57
-53	151	-61
-38	153	-38
-20	121	-21
-11	65	-31
-14	-5	-6
-21	-77	-2
-22	-125	-27
-10	-145	-23
8	-137	-50
23	-115	-55
28	-92	-5
25	-75	-10
25	-61	-38
34	-41	-39
53	-6	6
69	45	10
68	96	-3
42	126	65
1	123	98
-38	90	119
-55	45	99
-39	13	35
0	6	-76
43	12	-186
64	16	-168
44	-5	-173
-15	-55	-196
-101	-111	-111
-181	-139	-55
-225	-114	2
-206	-37	57
-123	63	41
4	145	8
136	177	-36
238	150	-45
280	87	-20
262	24	66
208	-17	90
136	-30	32
70	-33	13
10	-48	-88
-55	-85	-144
-124	-133	-67
-187	-171	-77
-222	-178	-209
-207	-143	-244
-144	-79	-129
-52	-4	-72
33	61	38
89	103	86
105	117	37
94	108	53
75	85	13
55	53	6
32	20	18
-4	-8	-5
-55	-31	-31
-112	-49	-39
-150	-64	-30
-154	-79	14
-125	-87	65
-77	-88	79
-31	-70	36
3	-43	-32
25	-9	-5
46	20	32
74	35	18
98	41	-11
106	45	-63
81	59	-106
29	81	-88
-32	104	-47
-77	103	-44
-89	68	-32
-75	7	2
-51	-63	9
-36	-109	-7
-28	-112	12
-13	-74	4
27	-11	-10
91	45	-3
154	84	-52
183	97	-55
156	93	-74
85	75	-149
1	43	-103
-50	-1	4
-54	-59	31
-24	-114	53
1	-147	32
-15	-143	-37
-77	-113	-112
-154	-69	-100
-203	-41	13
-190	-38	84
-120	-45	113
-27	-44	115
40	-13	61
54	41	-59
24	97	-142
-4	124	-137
11	114	-138
87	86	-92
206	66	-30
309	77	-14
339	104	24
261	112	-2
95	70	24
-103	-29	55
-252	-152	45
-298	-237	74
-233	-230	10
-99	-125	-72
29	31	-101
99	170	-51
89	228	-38
27	190	-80
-31	85	-33
-39	-22	6
9	-86	-82
81	-87	-107
121	-47	-40
90	-7	-7
-13	2	-37
-148	-27	-95
-253	-80	-54
-285	-126	-44
-239	-148	-34
-132	-129	-65
-10	-88	-111
98	-32	-84
171	19	20
210	57	112
221	77	91
201	85	89
157	85	17
89	79	-64
11	68	-70
-59	49	-36
-115	21	-25
-145	-19	4
-165	-65	37
-177	-106	41
-183	-127	24
-176	-120	-28
-142	-82	9
-85	-24	-38
-17	34	-107
39	70	-112
66	76	-151
69	52	-152
68	18	-111
89	-9	-46
135	-14	18
190	3	45
216	28	34
186	45	38
96	40	28
-28	14	32
-134	-27	46
-191	-62	60
-185	-77	57
-134	-64	31
-66	-27	-23
-3	23	-58
49	75	-46
99	118	-66
147	142	-54
179	139	-31
171	106	-53
109	44	-54
7	-35	-57
-105	-110	-49
-187	-157	-19
-212	-166	-36
-189	-138	0
-145	-99	30
-109	-67	29
-87	-58	57
-60	-61	58
-2	-53	46
92	-17	34
206	52	49
285	131	107
287	185	109
195	185	49
42	130	14
-109	45	-77
-208	-35	-161
-221	-82	-242
-163	-88	-320
-77	-66	-223
-11	-45	-178
13	-38	-192
1	-44	-110
-24	-52	-58
-27	-45	46
1	-21	82
57	16	32
122	50	-10
169	72	-38
178	79	-14
145	70	-28
80	55	27
-1	33	50
-75	7	-29
-124	-28	-4
-143	-64	42
-141	-100	8
-131	-121	-16
-123	-124	-11
-118	-106	-12
-108	-70	-59
-82	-27	-45
-39	14	-86
10	49	-124
48	71	-84
65	84	-79
59	81	21
52	67	59
59	47	26
82	23	19
105	-3	14
96	-33	5
37	-61	-6
-64	-90	5
-168	-106	28
-221	-104	24
-186	-78	-16
-71	-27	-30
70	34	-39
184	90	26
216	122	19
169	124	-25
78	105	-28
2	75	-74
-23	49	-74
4	31	-95
52	13	-58
82	-19	7
63	-69	28
1	-127	45
-79	-168	43
-139	-163	66
-154	-108	86
-113	-16	42
-32	74	-14
62	123	-49
139	119	-89
172	71	-67
159	18	-21
98	-6	5
17	12	-23
-59	53	-57
-105	81	-52
-120	66	-23
-117	5	-3
-117	-76	-141
-137	-140	-259
-170	-157	-194
-191	-125	-120
-174	-69	-49
-102	-20	81
9	6	142
126	15	150
211	23	159
239	49	108
209	92	30
150	131	-27
91	147	-59
44	125	-74
10	76	-109
-35	13	-132
-99	-44	-125
-180	-88	-76
-240	-120	9
-243	-138	3
-173	-143	-76
-42	-121	-140
99	-72	-95
206	-3	-45
237	62	-8
203	98	118
141	98	183
101	63	130
105	28	20
136	7	-62
154	7	-125
111	13	-215
6	-2	-254
-134	-45	-176
-256	-110	-56
-316	-162	22
-308	-173	-3
-259	-134	-66
-208	-64	10
-172	1	57
-136	37	-5
-70	38	-3
46	25	6
196	23	16
327	50	26
383	95	40
336	131	29
209	130	-24
55	82	-52
-60	7	-64
-116	-68	-28
-124	-111	15
-119	-115	17
-128	-98	32
-147	-80	38
-150	-81	0
-111	-92	1
-28	-92	56
77	-55	64
159	30	15
189	142	-32
159	244	-42
86	286	-24
-2	250	-65
-80	140	-65
-133	-3	-36
-159	-127	-10
-152	-195	101
-111	-182	71
-48	-108	-17
18	-2	-57
64	91	-38
77	143	-38
57	145	-138
31	105	-155
21	46	-163
38	-8	-157
68	-40	-140
88	-45	-76
78	-35	18
41	-24	51
-5	-27	39
-36	-45	-31
-49	-81	-24
-58	-111	18
-83	-126	2
-120	-116	22
-151	-85	59
-138	-44	98
-61	-8	104
60	18	46
181	39	-22
237	62	-119
203	85	-202
94	103	-235
-31	101	-168
-120	70	-47
-150	13	53
-131	-52	94
-103	-103	64
-89	-121	44
-82	-105	37
-57	-70	65
7	-37	25
99	-23	-37
179	-25	-60
200	-27	-124
147	-15	-147
46	21	-205
-42	66	-209
-66	103	-115
-21	110	4
57	85	107
101	43	119
68	0	108
-35	-24	42
-155	-29	-2
-228	-24	34
-228	-24	87
-165	-41	87
-91	-66	16
-43	-90	-90
-32	-92	-97
-30	-66	11
6	-19	71
90	38	57
195	90	-47
271	127	-96
269	140	-105
182	124	-103
38	74	-127
-103	-7	-257
-199	-106	-245
-239	-194	-114
-239	-238	20
-222	-219	124
-195	-136	67
-147	-23	-35
-61	77	-54
53	127	3
171	114	8
239	67	-6
234	29	-13
169	34	20
89	84	11
46	149	-32
57	181	-22
98	147	-42
114	56	28
69	-56	97
-28	-148	124
-125	-188	87
-164	-178	22
-118	-140	-48
-17	-100	-99
74	-65	-133
95	-31	-129
42	17	-39
-37	78	33
-76	132	66
-40	160	52
47	140	24
119	86	-41
115	24	-108
24	-16	-152
-103	-23	-157
-186	-12	-164
-182	-6	-104
-101	-27	30
-10	-67	38
31	-108	44
-8	-119	42
-91	-94	45
-145	-45	57
-127	4	14
-40	33	-2
66	43	-26
128	45	-14
118	52	31
59	63	34
9	62	104
8	36	107
58	-18	6
115	-81	-60
129	-122	-120
75	-120	-92
-24	-79	-95
-115	-26	-151
-156	7	-202
-136	3	-206
-82	-26	-85
-36	-51	52
-29	-41	120
-52	11	167
-72	82	168
-61	139	69
-4	155	-33
81	123	-109
162	63	-147
204	8	-102
194	-32	-156
140	-54	-270
59	-70	-208
-25	-95	-68
-106	-119	40
-159	-127	45
-178	-101	29
-157	-36	56
-92	48	96
-1	122	52
95	154	-10
166	135	-36
192	77	-75
164	0	-98
86	-71	-33
-19	-129	55
-128	-163	7
-208	-171	-1
-233	-144	-12
-190	-81	-40
-89	11	-7
34	106	12
138	169	51
182	171	48
155	117	-32
80	35	-56
4	-22	-70
-32	-24	-86
-16	27	-48
30	89	6
58	108	70
33	53	109
-52	-54	120
-158	-161	36
-229	-202	-41
-217	-155	-54
-119	-46	-110
26	59	-129
158	97	-102
219	49	-71
199	-44	-18
120	-119	-44
32	-117	-55
-18	-35	-9
-21	85	-38
8	174	-79
30	193	-98
18	132	-30
-29	38	53
-93	-40	108
-140	-78	158
-145	-72	138
-107	-57	49
-50	-61	-59
-3	-86	-76
11	-113	-128
-10	-110	-201
-41	-64	-201
-60	9	-185
-44	79	-100
1	110	-16
59	92	33
107	36	95
124	-21	112
110	-51	85
72	-42	91
34	-3	22
8	40	-84
-4	68	-75
-7	66	6
-12	43	6
-22	8	-57
-32	-21	-93
-30	-33	-167
-8	-27	-145
30	-4	33
69	24	97
90	45	28
77	46	19
33	27	11
-20	-11	-10
-64	-56	-65
-84	-94	-144
-83	-123	-104
-85	-140	-40
-105	-153	13
-148	-162	17
-182	-156	-42
-172	-128	-32
-86	-71	4
67	10	39
234	100	112
346	171	87
352	213	3
245	217	-99
77	195	-166
-84	166	-100
-172	131	-56
-181	93	21
-148	43	31
-127	-21	-9
-145	-90	-52
-187	-142	-159
-195	-162	-105
-129	-143	-7
13	-96	33
172	-42	24
269	-3	12
258	16	-10
145	21	-38
-3	26	-27
-112	36	-34
-139	48	-39
-100	48	-40
-50	31	-15
-37	-5	-32
-62	-52	-34
-88	-93	-12
-65	-118	-12
15	-130	-2
116	-132	-8
171	-124	1
139	-100	-7
36	-49	22
-70	34	59
-108	135	68
-54	230	48
54	282	18
138	272	-4
140	200	-39
56	94	-51
-56	-5	-37
-127	-71	1
-119	-91	-49
-45	-82	-76
33	-74	-84
69	-88	-30
50	-129	55
5	-171	11
-25	-185	-39
-23	-149	-106
-5	-63	-127
-6	39	-198
-37	122	-190
-80	155	-110
-88	137	-8
-28	86	81
82	32	-9
195	-1	1
237	-14	49
175	-19	28
30	-37	-7
-127	-75	5
-232	-122	34
-251	-151	27
-191	-140	81
-102	-87	85
-18	4	51
45	95	59
99	164	24
155	190	-31
206	174	-104
226	128	-170
187	65	-205
81	3	-181
-61	-53	-50
-191	-94	78
-267	-113	159
-273	-110	113
-228	-85	-23
-161	-51	-82
-96	-19	-136
-30	-3	-178
50	-3	-133
145	-12	-96
236	-16	-101
280	-3	-93
250	22	-71
142	47	-76
2	52	-48
-110	32	31
-148	-11	39
-106	-60	78
-25	-89	147
36	-86	127
38	-55	80
-20	-15	-23
-100	14	-121
-151	21	-121
-143	8	-106
-81	-8	-97
2	-13	-41
65	5	27
89	38	16
76	77	-10
46	103	-7
17	106	-18
-3	89	-25
-18	51	-8
-30	3	16
-42	-53	5
-48	-106	5
-46	-144	28
-41	-155	57
-39	-126	-13
-47	-66	-96
-56	8	-39
-51	70	-48
-12	98	-102
62	85	-65
155	43	37
229	6	107
254	-6	81
216	14	40
131	48	-9
24	68	-50
-68	54	-93
-130	0	-137
-161	-69	-80
-172	-122	-9
-170	-130	12
-165	-92	24
-149	-28	26
-116	31	19
-67	59	-16
-8	54	-107
44	28	-157
82	5	-106
100	1	-38
103	16	32
97	39	64
89	47	74
77	33	85
49	-3	49
8	-41	0
-45	-62	-42
-100	-56	-92
-135	-21	-123
-142	24	-103
-121	61	-43
-83	71	5
-39	49	40
0	9	39
39	-37	-26
86	-64	-52
141	-68	-86
196	-52	-81
221	-35	-76
196	-36	-71
113	-61	-45
0	-109	-58
-104	-151	-41
-162	-163	0
-153	-125	72
-99	-44	59
-32	60	60
7	157	205
10	219	262
1	241	141
7	224	-74
54	183	-312
130	132	-353
196	80	-290
206	26	-233
136	-28	-132
7	-75	-98
-135	-110	-82
-239	-127	-60
-269	-127	5
-232	-117	87
-158	-101	168
-86	-84	169
-34	-62	150
-7	-35	109
10	2	-13
22	43	-127
34	81	-208
41	104	-155
38	105	-2
40	85	83
54	47	22
85	0	-38
114	-54	-21
117	-107	-54
69	-151	-42
-20	-178	-8
-122	-174	-36
-189	-136	-59
-187	-65	-49
-116	19	-9
-10	92	46
79	134	37
119	137	-15
107	112	16
71	74	22
42	45	16
36	34	1
44	34	-82
43	31	-108
11	9	-71
-49	-30	-56
-118	-77	-52
-161	-104	-68
-162	-101	-96
-120	-65	-57
-55	-17	-1
12	16	82
68	18	72
103	-13	41
118	-51	74
113	-67	71
93	-39	45
60	27	6
24	102	-49
-3	141	-66
-21	122	-46
-31	45	-75
-42	-53	-57
-60	-131	-20
-84	-156	5
-100	-124	15
-94	-58	8
-64	2	39
-20	38	43
23	51	21
50	57	7
61	77	-23
65	110	-63
69	143	-55
72	150	-21
55	117	-52
3	55	-108
-87	-17	-139
-186	-68	-96
-252	-89	-74
-245	-89	-94
-151	-82	-99
0	-84	-65
155	-93	-4
258	-95	20
280	-71	6
234	-25	-1
159	31	137
99	77	184
72	90	169
74	75	122
77	43	16
54	17	-117
-2	3	-233
-72	-5	-172
-138	-19	-193
-173	-50	-235
-174	-95	-208
-148	-136	-129
-111	-152	-32
-81	-134	-11
-52	-87	-13
-31	-28	-109
-12	20	-135
-4	50	-50
-10	56	41
-31	48	102
-55	30	93
-60	10	102
-32	-4	62
31	-2	10
106	24	-16
151	67	-46
136	110	-36
57	126	27
-47	93	98
-125	15	119
-124	-84	44
-34	-151	-83
101	-154	-158
211	-83	-169
228	27	-69
140	123	-7
-3	165	-15
-115	136	4
-128	71	3
-31	8	78
111	-20	98
199	-14	44
160	-1	-3
-14	-12	-55
-240	-61	-57
-415	-126	-70
-437	-177	-78
-296	-178	-58
-47	-130	-13
204	-58	4
366	10	-8
413	51	-13
357	77	-21
251	93	7
136	113	49
37	130	79
-44	124	89
-113	85	26
-165	15	-54
-191	-51	-103
-191	-89	-124
-174	-80	-125
-159	-38	-149
-154	0	-88
-163	7	49
-168	-23	120
-153	-62	143
-111	-80	96
-44	-48	-13
38	22	-55
125	97	-53
210	137	-89
284	125	-113
327	71	-113
312	3	-89
221	-51	-50
60	-79	-59
-120	-92	-82
-259	-100	-103
-303	-112	-86
-240	-114	-13
-106	-88	39
32	-28	70
113	53	54
118	121	69
69	153	86
18	130	14
-5	72	-26
3	4	-76
16	-48	-142
0	-77	-99
-51	-91	-84
-118	-102	-151
-161	-114	-142
-157	-114	-104
-111	-93	-21
-54	-43	53
-20	19	133
-17	69	202
-30	90	164
-25	72	58
22	39	-83
107	13	-42
203	11	-48
261	30	-294
254	50	-437
179	49	-327
62	19	-30
-57	-30	43
-152	-77	-11
-204	-99	46
-209	-91	45
-174	-64	60
-107	-33	41
-21	-9	34
66	8	56
137	25	82
170	46	98
158	72	71
111	90	43
47	91	-11
-11	67	-76
-59	29	-106
-102	-15	-59
-152	-60	-20
-217	-101	-9
-282	-139	5
-317	-170	9
-279	-181	-5
-152	-157	-19
47	-87	-21
276	18	-15
454	134	-16
527	222	-5
474	259	51
326	233	37
147	166	22
-6	86	9
-93	20	-8
-125	-16	-16
-137	-35	4
-173	-46	86
-232	-63	98
-288	-83	-5
-290	-92	-86
-206	-82	-49
-46	-49	-108
133	-5	-211
258	38	-209
283	67	-134
209	80	-76
97	79	-25
9	65	33
-11	46	22
29	17	-6
70	-21	-51
61	-61	-88
-20	-94	-93
-143	-103	-92
-250	-88	-97
-287	-53	-28
-237	-18	69
-135	4	39
-36	-1	-6
24	-30	-3
39	-68	-17
33	-104	-21
36	-113	-21
65	-90	33
104	-33	70
128	38	59
117	101	19
70	126	14
13	97	10
-35	20	-80
-58	-79	-125
-65	-159	-165
-71	-186	-93
-88	-152	14
-114	-70	82
-131	16	53
-124	75	-33
-79	89	-140
2	75	-257
93	54	-218
166	50	-151
192	66	-17
154	87	62
57	93	63
-67	72	59
-180	32	51
-235	-11	82
-215	-45	90
-128	-66	95
-12	-90	81
93	-115	13
155	-139	-86
171	-141	-122
160	-97	-108
148	-2	-52
148	121	77
156	232	151
155	282	126
131	256	82
90	165	11
40	50	-68
0	-48	-67
-30	-101	-64
-58	-117	-100
-101	-113	19
-161	-114	132
-231	-128	45
-274	-141	-122
-272	-137	-197
-208	-102	-172
-93	-34	-265
39	47	-273
160	118	-194
233	159	-63
245	166	107
204	138	121
128	93	130
43	38	46
-30	-16	-42
-77	-61	-113
-100	-95	-107
-117	-112	13
-142	-119	80
-180	-116	72
-213	-110	24
-215	-98	-16
-164	-76	-98
-64	-40	-90
52	16	-25
145	82	-2
184	137	3
167	161	91
126	139	170
104	77	144
119	-3	138
161	-68	101
187	-97	48
161	-78	-100
69	-27	-247
-58	24	-323
-172	54	-300
-225	49	-155
-198	20	-48
-111	-17	24
-5	-35	17
85	-29	29
139	-2	61
159	32	-25
148	53	-138
110	57	-141
48	39	-84
-42	8	-36
-147	-26	-40
-240	-60	-33
-291	-87	37
-280	-107	111
-200	-114	95
-76	-107	65
60	-83	49
166	-44	5
212	-3	36
200	35	49
139	61	24
68	75	-8
16	76	-69
-1	72	-125
13	67	-154
34	62	-132
33	54	1
-7	38	145
-76	14	150
-141	-19	149
-174	-57	131
-160	-94	57
-110	-120	-30
-50	-124	-145
-10	-103	-142
2	-58	-109
-3	-6	-180
-3	39	-231
19	58	-147
52	43	-38
80	6	-15
77	-42	-18
38	-78	-55
-19	-84	-86
-68	-59	-80
-87	-13	-77
-71	39	7
-38	81	129
-6	105	81
13	110	22
20	97	-10
30	69	-94
54	37	-111
87	0	-137
114	-35	-79
115	-61	22
89	-71	77
51	-57	97
33	-21	42
53	31	-17
104	78	-19
148	101	-13
142	84	-12
66	29	43
-58	-46	41
-182	-111	10
-231	-133	14
-178	-104	-68
-39	-29	-77
111	58	29
201	122	120
190	141	103
91	115	17
-27	67	-74
-112	16	-198
-126	-16	-234
-96	-33	-164
-63	-49	-99
-74	-76	-74
-126	-116	-71
-188	-153	-97
-213	-173	-32
-175	-160	2
-91	-113	1
3	-50	68
68	11	96
93	56	112
95	85	114
96	100	124
107	109	119
121	112	107
111	103	58
67	78	-26
-6	33	-50
-83	-17	-44
-136	-64	-140
-156	-94	-214
-156	-100	-196
-153	-89	-241
-156	-65	-243
-151	-40	-254
-112	-14	-217
-22	14	-43
105	47	13
234	82	74
317	109	110
322	125	113
251	115	124
131	78	109
6	13	87
-95	-62	-6
-165	-131	-5
-199	-171	26
-204	-163	54
-176	-115	84
-108	-42	4
-10	17	-75
100	39	-37
180	12	-140
202	-43	-222
166	-89	-126
90	-89	-102
19	-28	-79
-18	70	-57
-10	158	-45
16	190	-11
28	147	68
1	48	126
-58	-57	129
-121	-121	77
-152	-120	7
-126	-64	7
-56	7	3
23	52	-50
72	60	-166
71	36	-179
24	15	-54
-35	16	18
-70	47	28
-60	85	4
-12	104	-16
48	85	-25
85	27	-29
78	-44	-5
36	-105	-23
-14	-134	-38
-43	-131	11
-37	-112	30
-10	-85	-8
14	-61	-45
10	-37	-63
-24	-13	-52
-68	13	-46
-93	38	-33
-77	54	23
-23	58	38
44	50	74
99	39	115
117	25	101
104	8	70
68	-13	14
26	-46	-60
-20	-82	-87
-70	-112	-140
-121	-120	-230
-161	-100	-188
-166	-51	-111
-125	15	-16
-47	83	0
44	143	-3
113	183	20
138	202	-71
123	194	-68
84	162	-37
41	110	-30
4	45	-47
-28	-16	-48
-57	-65	-62
-77	-95	-116
-71	-108	-27
-32	-114	4
29	-119	-43
80	-127	-34
86	-135	30
36	-133	120
-42	-115	155
-101	-81	143
-90	-38	95
-7	9	42
107	49	3
192	85	-130
192	109	-296
106	114	-287
-24	96	-179
-134	52	-50
-181	-7	53
-162	-71	29
-109	-117	-30
-64	-131	-13
-48	-114	-10
-52	-71	28
-55	-23	68
-34	24	34
12	60	36
70	92	6
121	118	36
154	134	51
164	135	-25
156	113	-33
127	71	2
78	19	31
6	-28	71
-82	-62	77
-159	-87	11
-207	-108	-111
-210	-134	-236
-171	-160	-180
-106	-168	-56
-33	-137	40
24	-61	89
64	36	26
81	121	4
70	154	-16
37	120	-62
-17	34	-82
-77	-59	-81
-121	-114	-68
-124	-111	-39
-72	-55	-4
21	13	-37
124	59	-79
194	64	-84
198	38	-147
138	10	-153
49	7	-99
-18	38	-91
-29	88	-22
17	130	106
89	141	170
137	119	206
124	75	196
48	27	138
-60	-8	68
-158	-39	-48
-210	-69	-176
-214	-108	-136
-185	-152	-44
-150	-182	-99
-116	-183	-139
-86	-142	-165
-46	-75	-139
0	-1	-26
46	48	36
82	63	38
98	48	56
109	24	37
126	19	-51
156	36	-65
181	72	-54
172	99	-81
107	95	4
-12	52	61
-144	-16	5
-240	-84	62
-256	-126	32
-190	-125	-104
-81	-88	-109
26	-31	-112
86	26	-77
99	64	-5
87	76	58
85	62	100
107	36	107
143	15	90
162	9	39
137	24	0
66	48	-65
-28	67	-147
-111	56	-184
-161	11	-115
-170	-59	-33
-153	-131	11
-130	-168	12
-110	-154	-1
-95	-94	-8
-77	-12	24
-54	59	82
-33	102	58
-17	109	-16
-6	98	-92
12	81	-112
46	65	-101
104	43	-63
167	6	-30
208	-50	-11
195	-110	-7
117	-152	-25
-4	-159	-68
-130	-127	-43
-203	-78	8
-199	-33	-25
-123	-7	9
-11	7	103
91	30	102
152	76	26
159	140	-1
129	198	-106
79	211	-254
26	160	-306
-25	51	-235
-81	-77	-97
-139	-171	-19
-195	-201	85
-231	-163	110
-229	-87	75
-184	-15	46
-108	22	12
-20	24	11
60	12	-2
124	19	1
175	62	-21
216	132	-29
248	200	-6
262	224	-8
242	181	1
183	72	-8
92	-69	-131
-7	-201	-139
-93	-282	-24
-148	-292	-32
-172	-242	-35
-183	-152	20
-191	-61	63
-197	2	61
-183	33	5
-132	33	-43
-40	25	-33
75	23	-36
172	34	-30
219	58	8
195	83	6
116	100	-9
21	96	8
-56	72	57
-97	31	54
-107	-17	61
-104	-64	22
-104	-95	-48
-104	-99	-43
-88	-79	-19
-44	-36	-19
26	13	9
98	59	56
148	90	26
151	101	-67
118	97	-150
71	79	-155
32	51	-136
14	18	-154
1	-19	-168
-26	-55	-192
-77	-87	-171
-137	-103	-48
-177	-108	77
-170	-101	91
-110	-92	87
-24	-78	93
50	-60	70
84	-33	15
74	7	-99
46	56	-95
30	103	-30
41	131	-90
66	128	-104
77	93	14
46	38	100
-20	-14	85
-100	-45	-1
-147	-45	-5
-136	-26	79
-75	-1	155
8	13	151
71	5	12
89	-16	-24
63	-34	-23
13	-35	-147
-33	-18	-222
-53	13	-298
-36	38	-289
10	45	-84
78	34	107
151	10	152
201	-12	126
205	-24	121
142	-29	20
17	-33	-89
-145	-47	-138
-287	-68	-121
-357	-92	-60
-320	-97	-63
-181	-78	-67
17	-31	-54
209	26	-8
331	77	30
351	108	86
277	114	72
147	104	-8
9	83	-45
-96	54	-38
-143	20	-45
-141	-27	-100
-114	-81	-94
-89	-132	-36
-85	-163	24
-100	-164	65
-120	-135	24
-123	-89	-66
-97	-47	-115
-42	-17	-122
23	2	-59
75	23	33
93	58	61
71	103	54
24	139	15
-26	145	-25
-55	106	-30
-54	29	-8
-26	-53	5
16	-107	-35
52	-111	-22
71	-69	-5
64	-13	-15
39	26	11
2	31	16
-36	12	-5
-58	-2	-81
-55	10	-84
-19	57	-19
50	115	15
138	153	-28
215	138	-52
245	75	-12
204	-17	-98
89	-98	-169
-68	-139	-104
-221	-133	-19
-308	-92	86
-313	-38	145
-248	6	75
-152	31	22
-79	36	-26
-50	29	-50
-65	14	16
-88	-6	-23
-83	-24	-87
-28	-35	-76
71	-31	-55
190	-16	-34
288	4	-111
342	11	-100
337	3	20
272	-21	36
161	-47	16
25	-58	18
-102	-47	31
-189	-17	-9
-223	12	-30
-199	25	-16
-141	18	-20
-82	2	-74
-37	-4	-116
-12	7	-91
14	33	-41
55	57	13
116	62	-12
175	43	-76
200	9	-69
166	-20	-28
68	-33	-28
-55	-31	33
-168	-25	126
-231	-29	178
-227	-45	188
-174	-60	107
-98	-52	-41
-27	-7	-176
25	70	-190
58	147	-211
81	183	-230
94	153	-113
99	55	-16
86	-71	22
53	-177	33
5	-216	17
-52	-181	-4
-102	-103	-54
-135	-28	-61
-151	-3	-21
-151	-32	-37
-143	-92	-35
-126	-127	1
-99	-109	-45
-48	-32	-46
28	71	-62
118	149	-40
200	168	42
242	127	37
226	57	37
151	-4	79
46	-30	132
-49	-28	134
-108	-22	119
-115	-29	52
-94	-49	-66
-71	-59	-223
-80	-35	-317
-116	30	-181
-156	116	-38
-158	181	-43
-91	190	-31
42	137	3
216	56	-15
366	-11	-15
439	-33	16
409	-6	22
278	31	19
98	39	3
-83	-8	-23
-206	-98	-10
-262	-183	-18
-267	-218	-27
-252	-177	-40
-246	-77	-56
-249	38	-28
-239	109	-33
-180	108	-91
-52	39	-86
125	-54	-80
306	-122	-51
428	-127	24
439	-61	21
350	39	75
193	131	137
31	171	135
-83	137	116
-139	48	57
-157	-56	-5
-167	-131	-49
-191	-152	-81
-216	-115	-118
-221	-48	-51
-174	11	21
-81	40	-20
29	37	-77
117	21	-136
150	13	-109
126	23	-6
72	46	102
24	63	97
5	55	20
7	20	-76
8	-26	-151
-24	-66	-153
-91	-82	-261
-174	-68	-303
-235	-47	-164
-247	-29	-11
-201	-28	62
-117	-37	80
-26	-42	18
57	-30	-71
128	2	-55
195	43	-48
260	83	-14
302	102	85
292	100	105
204	88	47
50	80	10
-123	83	38
-253	89	20
-281	84	22
-207	45	41
-66	-30	29
66	-129	39
132	-223	-13
115	-263	-13
40	-236	28
-36	-137	24
-75	-8	32
-54	105	50
3	162	75
69	149	-52
121	88	-251
148	13	-325
149	-40	-235
120	-64	-119
63	-66	22
-28	-66	102
-139	-75	59
-237	-79	44
-289	-65	-21
-269	-20	-6
-182	43	4
-58	100	-17
59	117	-20
144	87	-25
190	30	14
206	-17	-3
209	-21	11
194	19	-3
150	76	-58
59	109	-126
-64	86	-133
-195	13	-110
-281	-86	-113
-291	-166	-47
-217	-195	15
-91	-167	76
37	-97	53
125	-17	-43
154	52	-103
132	93	-62
89	103	-11
42	85	6
7	50	69
-21	14	91
-42	-11	100
-50	-12	151
-37	10	149
2	45	79
52	72	8
96	72	-59
102	43	-36
74	0	-52
26	-32	-165
-8	-40	-265
-4	-16	-284
33	21	-172
71	48	-93
77	53	-40
28	33	69
-57	4	133
-142	-19	167
-183	-31	135
-160	-40	20
-88	-59	-104
-10	-89	-248
37	-124	-233
35	-140	-142
-7	-126	-104
-56	-78	12
-89	-11	48
-86	43	-7
-60	75	-101
-26	72	-86
2	50	-19
19	19	1
24	-9	53
19	-35	83
5	-60	112
-18	-78	104
-36	-82	126
-36	-59	98
-6	-12	2
57	44	-111
129	86	-136
172	88	-85
159	51	-109
85	-7	-52
-19	-53	-14
-99	-62	-2
-109	-30	5
-42	27	-4
64	77	0
149	92	-9
156	67	51
83	17	67
-35	-28	15
-127	-49	-37
-151	-37	-43
-105	-7	-30
-42	19	-30
-19	20	-48
-68	-7	-66
-166	-49	-28
-242	-84	-42
-237	-86	-70
-126	-54	-44
51	-5	-34
234	31	-96
344	32	-135
357	-12	-100
289	-81	-68
175	-136	6
58	-143	76
-55	-85	85
-159	24	79
-242	138	87
-288	215	72
-263	222	-19
-170	163	-112
-28	72	-183
107	-3	-155
180	-35	-46
172	-17	-20
107	28	-12
36	67	-11
7	79	22
29	53	49
71	12	-8
89	-27	6
51	-48	-7
-34	-51	-92
-124	-48	-97
-181	-50	-47
-178	-63	36
-130	-77	79
-74	-76	17
-39	-48	-92
-40	0	-59
-62	51	45
-79	83	1
-65	75	-34
-20	30	-108
53	-34	-173
135	-93	-157
204	-123	-95
238	-121	-10
221	-93	45
154	-56	100
56	-29	78
-36	-20	87
-91	-27	16
-83	-36	-94
-23	-37	-28
48	-22	24
86	10	51
70	53	15
16	95	-95
-35	118	-150
-46	117	-91
-12	85	-8
33	34	18
44	-20	51
-3	-61	15
-98	-84	-85
-191	-89	-86
-240	-82	-40
-217	-79	-60
-151	-83	-70
-85	-92	-2
-54	-94	9
-56	-78	22
-63	-39	61
-42	19	32
16	82	8
83	140	-51
116	185	-94
98	211	-36
44	215	59
4	190	37
14	129	-57
84	34	-155
169	-81	-192
210	-186	-122
169	-251	-89
56	-249	-37
-70	-184	8
-150	-85	-16
-136	8	-13
-50	63	46
62	72	74
144	53	86
165	40	125
132	48	118
72	80	65
18	104	22
-29	96	8
-77	45	-35
-133	-32	-65
-190	-103	-130
-231	-135	-116
-232	-122	-32
-191	-83	-45
-126	-43	-54
-61	-25	-58
-12	-23	-56
29	-12	-55
74	26	-18
129	90	19
187	158	-32
210	191	-56
172	165	26
75	80	29
-48	-34	-20
-138	-138	-19
-153	-196	-14
-83	-200	-43
36	-158	-107
147	-93	-67
191	-25	-15
160	34	-7
77	78	-27
-12	103	46
-63	103	105
-66	80	13
-38	43	-67
-12	4	-69
-8	-15	26
-35	-12	75
-83	8	59
-132	22	6
-170	14	-54
-184	-22	-18
-168	-76	70
-112	-121	49
-17	-138	-142
104	-116	-283
219	-64	-282
284	-6	-161
274	41	-137
184	71	-224
56	85	-106
-60	93	-56
-126	104	-85
-126	116	-19
-95	115	-23
-65	90	-27
-68	31	6
-97	-57	97
-117	-156	205
-104	-230	260
-48	-249	239
24	-200	161
75	-87	34
84	55	-87
57	181	-145
29	248	-141
29	235	-61
65	155	-11
113	47	7
137	-38	21
114	-80	16
44	-70	-16
-40	-44	-72
-116	-32	-96
-161	-56	-109
-180	-110	-54
-186	-160	0
-180	-173	-22
-152	-133	-39
-85	-49	-10
18	45	41
137	119	30
234	150	-26
269	145	-67
236	121	-83
150	98	-35
51	76	40
-27	48	49
-70	3	40
-91	-60	45
-97	-123	-16
-98	-166	-76
-89	-169	-64
-65	-132	-49
-38	-80	-12
-26	-32	-44
-48	-8	-127
-102	4	-130
-159	19	-91
-168	59	-48
-94	126	-19
58	197	45
234	244	57
357	238	14
365	174	4
249	75	32
57	-36	103
-126	-127	152
-231	-183	140
-227	-200	16
-143	-184	-17
-39	-137	-63
37	-66	-193
64	21	-202
54	103	-221
36	148	-173
34	135	-58
42	66	-7
47	-32	23
31	-119	-8
-12	-152	-134
-70	-121	-219
-122	-57	-161
-148	-7	45
-141	-12	176
-107	-69	175
-58	-142	77
-7	-173	-19
41	-123	-13
80	-9	-56
106	120	-71
118	197	13
117	186	74
107	103	32
98	7	-76
87	-40	-211
71	-15	-156
42	60	-29
-12	121	-58
-85	113	-69
-168	21	-66
-234	-116	10
-259	-233	32
-235	-274	26
-169	-229	6
-85	-126	-34
-4	-21	17
52	51	54
85	82	66
107	93	21
132	105	16
163	131	16
188	155	37
184	150	78
139	104	96
56	26	87
-37	-48	42
-110	-89	-9
-137	-76	-119
-119	-24	-149
-72	32	-84
-27	60	-77
0	49	-101
10	14	-68
14	-19	-15
28	-21	-18
46	11	-23
58	59	-48
50	92	-56
22	83	-14
-7	35	19
-16	-34	-11
6	-94	-49
41	-119	-76
61	-106	-81
39	-68	-77
-25	-34	-57
-105	-19	13
-156	-27	11
-145	-43	30
-80	-49	34
15	-32	-30
96	7	28
137	50	135
139	85	160
119	92	28
96	71	-182
68	32	-311
28	-14	-291
-43	-54	-178
-141	-85	-91
-236	-96	-5
-299	-93	16
-300	-74	-12
-243	-46	-10
-156	-18	28
-65	7	29
9	25	18
84	40	60
171	57	-1
271	77	-51
369	94	-48
409	95	-4
358	75	49
209	30	4
10	-25	-9
-173	-79	8
-285	-116	52
-304	-135	89
-256	-140	105
-186	-131	91
-135	-102	13
-106	-39	-103
-80	61	-233
-29	179	-171
51	269	-70
143	283	-75
212	195	-151
226	30	-170
179	-145	-54
83	-254	77
-24	-246	174
-119	-139	137
-170	-5	97
-169	79	-24
-117	68	-137
-30	-8	-93
58	-90	-144
117	-108	-202
119	-41	-132
67	65	-33
-5	147	22
-57	149	59
-51	76	69
9	-22	51
94	-77	51
149	-57	2
141	13	-53
70	76	-72
-30	74	-45
-119	-2	1
-172	-113	39
-181	-196	85
-167	-204	97
-142	-137	95
-111	-31	69
-60	56	11
19	96	-32
113	89	-110
194	66	-184
230	57	-151
204	66	-60
126	81	15
26	77	24
-60	41	10
-117	-14	9
-149	-68	-19
-166	-98	-76
-174	-102	-100
-167	-87	-55
-133	-74	14
-67	-71	28
18	-74	31
98	-64	-6
144	-33	-47
156	23	-77
144	88	-123
131	138	-82
130	165	-103
127	162	-71
103	134	35
38	93	20
-52	42	10
-134	-11	1
-174	-61	45
-153	-97	87
-95	-103	20
-42	-80	32
-32	-31	80
-63	19	-51
-95	48	-196
-78	38	-114
15	1	-11
156	-40	-29
280	-59	-77
319	-43	-44
245	-6	-42
96	31	-86
-66	38	-133
-176	9	-181
-206	-41	-101
-180	-92	-66
-143	-118	-21
-134	-114	31
-150	-94	56
-161	-67	103
-130	-44	91
-52	-19	61
52	12	47
142	55	28
183	93	-7
166	113	-42
111	103	-78
50	67	-60
0	31	-79
-34	11	-96
-62	17	-3
-89	32	5
-108	32	-16
-106	1	-9
-71	-55	-3
-11	-110	33
57	-129	13
107	-95	3
127	-19	-34
111	67	-43
68	127	-12
14	140	-23
-44	113	-8
-98	63	-15
-138	14	-24
-149	-27	6
-110	-59	48
-19	-89	40
104	-116	22
205	-136	66
236	-147	41
163	-140	-31
15	-126	-36
-142	-104	-42
-217	-69	-19
-163	-15	-12
8	67	-65
206	162	-106
326	243	-128
300	270	-35
135	228	26
-78	127	-38
-232	6	-80
-253	-83	-85
-152	-112	-12
-7	-86	32
82	-38	-13
64	-10	-110
-42	-19	-145
-160	-54	-57
-212	-85	-99
-166	-82	-177
-52	-40	-198
58	17	-159
115	56	-8
101	60	102
52	35	221
15	9	216
13	4	90
36	27	-40
53	54	-120
34	55	-89
-19	11	-59
-78	-67	-30
-113	-139	-1
-108	-167	1
-72	-125	-19
-31	-33	-10
1	64	1
24	124	-67
52	118	-138
94	56	-45
139	-25	45
162	-89	-20
135	-112	-56
60	-98	-67
-46	-67	-54
-141	-41	16
-197	-26	34
-204	-21	55
-170	-16	63
-117	-5	32
-55	6	29
11	17	6
81	27	-15
147	39	-31
195	63	-11
204	97	22
165	131	30
91	147	34
4	128	37
-74	74	39
-133	1	-19
-182	-74	-85
-225	-127	-75
-266	-160	-54
-285	-174	-27
-260	-177	-14
-169	-171	-89
-15	-140	-116
172	-81	-97
346	15	-63
457	126	-42
476	222	-98
399	269	-105
245	257	-43
62	193	16
-101	104	15
-204	19	-32
-223	-34	-57
-165	-55	-59
-70	-53	-59
14	-49	-63
50	-53	-60
30	-70	7
-24	-92	95
-77	-100	112
-92	-90	168
-64	-54	201
-8	-5	115
41	45	-17
72	87	-67
84	106	-40
84	109	-65
86	86	-63
81	43	-70
52	-19	-62
-16	-94	-62
-118	-170	-90
-222	-229	-131
-285	-249	-214
-286	-226	-186
-232	-160	-84
-151	-76	-53
-79	5	-30
-27	64	61
12	100	77
62	122	81
130	139	77
192	154	40
212	152	8
161	119	-91
46	45	-139
-92	-57	-92
-185	-162	-33
-188	-229	-21
-102	-230	-26
29	-164	-21
143	-50	-42
198	71	-44
183	162	-55
129	200	-32
75	183	-13
44	134	-24
37	79	-21
31	41	1
7	29	87
-31	34	111
-72	40	81
-89	26	74
-70	-12	17
-28	-68	-59
14	-120	-137
28	-148	-112
7	-139	-65
-40	-99	-36
-84	-41	22
-98	13	14
-65	48	19
1	64	53
80	68	69
141	68	18
157	64	-154
122	53	-290
42	26	-186
-51	-20	-46
-137	-80	-13
-193	-137	-6
-204	-173	-36
-182	-173	16
-135	-138	75
-90	-84	69
-55	-26	55
-34	17	-25
-16	41	-56
13	52	-27
60	70	9
120	105	91
171	165	119
192	233	43
166	283	-42
104	287	-106
25	224	-96
-41	97	-113
-77	-65	-142
-94	-216	-56
-105	-314	-92
-130	-334	-85
-162	-281	-2
-173	-190	22
-127	-100	36
-5	-39	17
169	-5	5
333	20	-19
423	60	32
396	123	81
263	188	57
87	215	26
-54	181	-70
-119	78	-130
-112	-54	-98
-85	-167	-65
-88	-211	-21
-143	-180	24
-226	-95	43
-271	-4	23
-237	53	-28
-116	68	-51
36	56	-94
151	44	-76
180	52	-51
114	74	-67
2	89	-44
-96	80	-30
-127	46	-7
-94	2	9
-22	-30	34
40	-43	101
58	-42	170
30	-48	52
-24	-69	-211
-64	-105	-236
-71	-131	-133
-39	-127	-101
19	-86	13
78	-20	12
117	42	79
126	75	131
111	71	87
83	43	53
59	14	-100
40	-2	-181
20	-2	-208
-12	3	-170
-66	1	-154
-139	-11	-86
-215	-26	13
-276	-32	-13
-299	-28	-32
-271	-13	-23
-191	0	6
-72	4	16
72	5	49
224	9	140
346	26	202
414	50	121
404	70	-93
316	72	-290
172	50	-297
22	17	-139
-95	-18	-2
-148	-37	87
-139	-45	46
-101	-55	-23
-67	-77	-24
-62	-106	-36
-83	-118	-38
-108	-89	0
-107	-6	56
-65	109	77
4	210	87
82	252	56
133	208	42
143	97	39
108	-33	35
42	-125	13
-34	-148	-58
-108	-110	-56
-162	-47	-35
-191	-4	-54
-187	0	-74
-150	-30	-46
-84	-63	-30
-4	-75	-39
66	-53	-36
107	-13	-43
111	26	3
84	45	43
46	41	29
23	27	37
24	19	70
38	21	82
44	30	57
18	32	-22
-42	17	-94
-117	-17	-131
-169	-53	-166
-160	-80	-189
-89	-81	-170
22	-58	-87
120	-26	-30
169	5	-13
153	23	20
99	28	91
46	25	85
27	24	34
38	29	-9
49	39	-105
29	49	-156
-37	49	-133
-126	35	-30
-199	7	26
-215	-36	-25
-174	-85	-19
-103	-131	7
-47	-160	-4
-30	-163	-70
-35	-130	-148
-22	-66	-156
43	13	-133
170	88	-110
306	135	-80
391	143	52
380	116	150
269	66	169
111	14	175
-38	-28	93
-126	-53	8
-158	-70	22
-162	-82	11
-174	-92	-40
-205	-98	-19
-232	-94	-16
-221	-71	-66
-145	-29	-135
-30	28	-156
84	90	-71
147	142	-48
136	169	-114
78	169	-166
10	134	-228
-32	80	-179
-44	15	-30
-46	-46	56
-68	-93	92
-121	-121	100
-180	-127	69
-206	-119	82
-163	-96	104
-54	-59	81
85	-11	21
206	44	-13
268	96	8
263	131	16
211	141	55
144	125	49
87	93	12
45	60	-60
8	37	-101
-37	18	-80
-92	-5	-95
-147	-49	-44
-185	-109	-10
-198	-168	-30
-177	-196	-67
-125	-181	-82
-50	-120	-47
40	-40	-21
129	25	-2
201	53	-6
238	43	15
228	22	34
175	17	23
99	39	14
24	77	34
-37	99	36
-83	81	11
-126	18	35
-185	-65	54
-259	-131	21
-325	-161	-89
-346	-145	-198
-285	-106	-219
-140	-59	-126
60	-16	-43
258	32	-47
389	99	-36
420	178	-37
357	250	40
238	274	61
114	229	18
18	119	-60
-40	-18	-87
-78	-130	-9
-119	-181	-11
-169	-168	-7
-216	-123	-83
-237	-81	-143
-215	-55	-104
-150	-45	-8
-56	-24	28
35	19	-11
110	80	25
156	120	27
175	111	4
170	48	-36
133	-42	-42
66	-119	-20
-23	-148	-43
-112	-125	-12
-170	-85	5
-173	-60	-12
-124	-67	-9
-51	-90	-66
4	-89	-123
15	-40	-115
-19	49	-87
-63	140	-56
-78	186	5
-32	162	51
63	93	45
169	21	13
222	-7	-24
183	19	-5
48	66	80
-131	90	70
-281	58	13
-331	-22	25
-240	-111	34
-33	-165	49
216	-161	31
406	-114	-11
451	-62	-51
331	-36	-58
96	-37	-82
-148	-41	-103
-299	-22	-40
-296	28	-53
-159	87	-55
34	122	-63
190	115	-98
244	77	-124
192	40	-106
80	32	-68
-31	52	-34
-107	66	32
-142	31	76
-159	-62	83
-166	-190	-10
-162	-281	-61
-135	-275	-44
-72	-157	-34
11	27	18
87	191	20
122	259	-8
110	211	21
64	92	18
16	-23	16
-11	-70	29
-14	-39	39
-12	29	67
-22	75	55
-53	53	39
-96	-25	16
-128	-118	-17
-129	-164	-97
-97	-134	-279
-32	-42	-320
42	70	-131
115	150	-82
171	170	-82
195	127	-4
182	50	31
129	-23	107
52	-71	86
-33	-84	70
-111	-66	45
-165	-32	-20
-200	0	-56
-222	17	-40
-231	13	-2
-214	-16	-31
-156	-57	24
-43	-98	59
106	-116	59
257	-105	-6
354	-71	-149
360	-29	-177
283	5	-145
157	26	-159
42	35	-182
-24	43	-115
-37	53	-15
-30	58	26
-43	47	74
-96	7	98
-176	-50	102
-245	-107	101
-262	-127	66
-222	-93	16
-134	-11	-37
-35	93	-135
50	174	-229
121	205	-197
188	177	-121
253	110	-16
302	34	57
302	-25	57
222	-58	62
64	-78	33
-134	-95	27
-300	-123	9
-378	-153	-13
-354	-166	16
-253	-151	47
-129	-107	16
-22	-48	-66
50	4	-102
107	38	-132
170	57	-62
237	77	32
280	110	43
270	162	29
188	210	1
50	233	-18
-93	200	-25
-190	117	-51
-218	8	-24
-190	-89	5
-142	-141	25
-105	-142	61
-83	-110	32
-61	-74	18
-17	-57	-5
49	-64	0
116	-76	-11
150	-66	-68
135	-31	-111
82	21	-99
25	64	-23
-3	77	65
7	53	144
33	4	120
42	-46	29
10	-81	-63
-59	-91	-98
-136	-84	-202
-181	-72	-331
-178	-56	-375
-137	-38	-320
-88	-10	-145
-56	25	-23
-52	58	19
-56	75	35
-41	71	68
10	51	126
93	33	176
175	28	192
222	37	181
203	53	142
121	55	69
3	29	-54
-107	-18	-187
-162	-72	-145
-148	-110	-13
-72	-115	63
22	-88	138
96	-43	126
121	-5	75
99	11	-51
56	4	-290
27	-8	-406
33	-4	-276
69	27	-123
107	80	-59
117	124	-60
81	131	-72
10	79	-4
-71	-23	28
-135	-136	101
-174	-207	147
-191	-192	86
-197	-102	1
-195	31	-34
-168	139	-17
-98	174	-3
25	124	22
174	25	90
302	-60	113
359	-85	48
306	-37	-13
163	40	-50
-35	93	-114
-211	79	-182
-317	-2	-158
-332	-105	-82
-267	-180	1
-159	-187	59
-35	-131	126
75	-43	169
162	37	94
228	85	-17
261	105	-170
262	110	-248
226	120	-219
160	130	-122
75	126	-80
-16	94	-59
-99	33	4
-164	-36	2
-209	-93	59
-233	-117	72
-231	-116	53
-205	-103	46
-162	-95	10
-113	-96	-34
-67	-93	-66
-29	-76	-55
-3	-34	-11
15	16	4
20	56	-34
18	70	10
7	55	34
-3	29	34
6	9	14
48	13	-37
124	37	-56
207	64	-76
261	77	-72
245	60	-33
156	26	15
19	-14	60
-117	-39	86
-189	-39	59
-177	-14	-6
-91	25	-77
22	62	-149
113	87	-149
155	88	-94
140	66	-57
96	25	-44
34	-28	-69
-26	-78	-95
-85	-120	-62
-142	-144	11
-181	-158	85
-183	-162	164
-137	-157	164
-54	-138	87
34	-94	-34
94	-19	-190
101	72	-270
67	160	-219
22	210	-100
4	205	23
23	149	129
68	70	115
101	0	49
89	-32	19
28	-32	42
-60	-18	-24
-136	-14	-215
-180	-36	-219
-180	-75	-94
-155	-109	12
-119	-122	51
-79	-111	34
-32	-87	19
29	-64	-7
95	-55	53
143	-46	85
151	-24	15
104	24	-44
31	88	-107
-36	140	-137
-52	163	-140
-12	140	-165
56	88	-127
107	24	-68
97	-24	9
18	-52	140
-94	-64	162
-178	-71	46
-194	-77	-30
-130	-66	-75
-20	-36	-95
85	20	-42
144	88	30
143	138	87
102	150	155
52	115	121
20	56	9
6	-3	-71
-5	-40	-170
-28	-54	-185
-70	-61	-164
-114	-75	-116
-134	-103	-27
-111	-129	53
-42	-136	80
48	-105	9
131	-41	-47
178	31	-91
172	86	-88
122	104	-88
42	88	-39
-40	53	45
-116	21	41
-170	0	53
-195	-13	37
-181	-24	20
-120	-42	48
-16	-60	65
110	-71	43
222	-68	-21
270	-51	-55
234	-31	-65
118	-12	-59
-22	-2	-63
-125	9	-92
-147	26	-72
-86	52	-10
12	81	-23
81	92	-32
72	80	0
-15	37	15
-140	-21	64
-241	-83	22
-276	-129	-58
-236	-157	-89
-145	-163	-116
-43	-145	-128
45	-104	-117
113	-31	-41
163	66	-4
200	169	-6
216	251	10
208	286	48
169	267	75
109	203	39
50	120	34
7	42	34
-18	-17	41
-32	-63	18
-51	-106	-71
-83	-150	-151
-119	-187	-186
-143	-196	-109
-143	-174	-32
-118	-121	59
-72	-57	106
-26	-15	10
9	1	-85
30	-6	-119
39	-13	-107
42	0	-114
40	33	-66
35	71	-63
24	90	-76
16	75	-4
10	32	52
7	-17	70
3	-51	95
-15	-61	85
-48	-54	-11
-95	-43	-36
-139	-35	-40
-159	-26	-96
-139	-5	-136
-79	33	-128
1	79	-71
75	111	13
119	110	35
126	72	14
108	14	4
83	-35	-38
64	-56	-15
52	-51	1
36	-38	-24
3	-42	-28
-48	-72	5
-106	-115	17
-138	-139	-20
-128	-118	-27
-70	-50	-3
17	39	41
105	110	46
169	136	81
192	112	140
181	61	135
151	19	139
111	5	90
63	20	20
0	42	-71
-79	50	-222
-162	32	-316
-232	-2	-309
-259	-32	-139
-236	-49	19
-173	-48	68
-101	-41	84
-46	-37	1
-15	-36	-128
9	-31	-141
57	-11	-86
147	17	-68
262	40	-54
354	35	-68
373	-1	-82
281	-55	-67
107	-98	16
-93	-99	62
-241	-53	45
-281	17	39
-226	78	60
-121	99	57
-38	77	-6
-22	33	-85
-62	2	-99
-116	3	-7
-125	34	27
-65	70	38
44	84	55
158	61	77
222	13	-5
212	-37	-156
145	-69	-181
57	-81	-180
-16	-81	-141
-58	-86	-67
-82	-97	-35
-100	-107	-21
-119	-99	45
-135	-68	84
-130	-17	56
-94	33	22
-32	64	-19
34	72	-43
85	64	-78
107	54	-78
101	51	-61
74	52	-7
33	45	38
-15	18	44
-66	-28	40
-116	-80	8
-143	-114	-31
-139	-119	-36
-96	-90	5
-32	-43	42
28	4	51
61	40	24
61	59	49
48	70	32
45	78	-46
72	81	-101
116	74	-121
143	48	-53
118	8	-21
26	-41	-47
-110	-81	-119
-240	-99	-113
-308	-86	-25
-285	-50	-7
-175	-5	37
-27	34	100
111	56	94
196	59	78
210	47	16
172	31	-83
114	18	-144
69	14	-192
58	22	-144
78	35	-25
115	48	11
138	49	18
130	32	6
78	-9	-15
-4	-69	-23
-86	-139	-45
-131	-199	-82
-124	-230	-86
-67	-212	-11
5	-144	32
58	-39	53
67	74	81
33	164	58
-22	201	47
-59	179	-4
-61	113	-49
-29	31	-57
11	-29	-21
24	-51	39
-4	-36	51
-76	-11	34
-161	7	-3
-235	-2	-70
-272	-33	-154
-262	-63	-184
-213	-70	-130
-126	-41	-95
-18	14	-123
104	75	-103
216	116	-12
299	123	100
331	103	155
301	64	189
223	28	200
117	-2	53
14	-22	-163
-61	-40	-278
-102	-63	-307
-120	-90	-327
-125	-118	-228
-130	-139	-28
-133	-151	96
-125	-142	151
-99	-115	201
-51	-64	176
4	7	41
55	88	-40
91	161	-48
104	205	-26
98	204	-45
74	161	-149
36	84	-249
-10	3	-180
-60	-64	-30
-105	-107	16
-131	-129	32
-133	-139	29
-115	-140	31
-88	-126	71
-68	-86	65
-59	-19	-5
-55	64	-55
-38	132	-60
8	158	-20
85	129	11
175	57	6
248	-17	14
270	-60	11
230	-53	3
132	-11	4
9	34	24
-109	46	3
-186	11	-23
-210	-48	-72
-179	-102	-55
-112	-113	14
-36	-78	-17
29	-16	-49
66	43	-80
72	71	-67
65	71	-64
64	56	-86
82	48	-59
120	53	13
159	62	60
163	57	53
111	19	57
1	-45	32
-133	-117	27
-248	-166	33
-295	-175	23
-253	-145	5
-145	-90	3
-10	-30	-25
106	23	-80
170	64	-78
184	97	-46
163	120	-6
132	124	-8
107	106	3
85	62	21
50	5	-13
0	-47	-43
-67	-67	-44
-134	-53	-72
-186	-16	-90
-205	19	-110
-186	23	-121
-139	-8	-76
-79	-60	-49
-17	-98	-22
34	-91	3
72	-32	78
91	56	112
93	130	124
74	159	141
42	129	64
4	60	-17
-28	-9	-119
-41	-50	-267
-38	-54	-374
-22	-43	-382
-10	-44	-292
-8	-74	-13
-23	-122	163
-47	-158	179
-64	-153	122
-59	-92	-10
-27	0	-25
24	85	-39
76	124	-85
104	110	-111
96	61	-56
55	9	61
-4	-21	155
-58	-25	188
-87	-16	138
-83	-14	58
-53	-34	-38
-26	-61	-130
-16	-78	-169
-30	-56	-199
-49	-1	-236
-43	77	-190
16	142	-115
123	168	-7
238	142	47
301	81	45
262	14	79
122	-31	83
-64	-38	51
-212	-19	13
-247	-1	61
-159	-8	83
3	-48	26
139	-103	10
178	-143	8
102	-141	22
-33	-95	16
-147	-23	-36
-178	37	-88
-118	57	-70
-18	36	-43
66	-2	-61
93	-26	-46
70	-16	-35
33	21	-8
11	53	14
6	50	8
-8	0	31
-54	-79	78
-132	-147	70
-209	-164	24
-235	-125	4
-191	-45	-26
-87	36	-101
30	90	-190
110	106	-211
132	99	-186
112	92	-130
87	99	-117
81	118	-93
97	129	-34
107	118	12
88	74	78
24	7	116
-60	-61	101
-134	-112	19
-165	-134	-5
-143	-135	8
-96	-124	-15
-46	-113	-17
-17	-105	29
-6	-92	77
5	-65	81
32	-18	75
78	46	9
122	114	-86
140	162	-161
113	171	-186
44	139	-164
-36	72	-111
-99	-7	-51
-118	-77	-24
-89	-112	6
-34	-113	24
18	-93	52
39	-66	51
32	-50	-14
10	-39	9
4	-21	80
28	20	110
83	90	120
140	169	102
171	229	57
154	240	-49
86	191	-231
-7	98	-318
-102	-8	-297
-165	-95	-283
-189	-148	-112
-178	-165	-39
-144	-165	-56
-102	-158	31
-58	-148	23
-20	-123	21
12	-74	-16
33	-3	9
40	68	86
38	113	98
32	108	130
35	61	103
52	-3	46
85	-46	-15
117	-50	-39
131	-16	-89
107	21	-142
37	27	-92
-66	-18	-45
-184	-100	14
-266	-174	8
-281	-200	-52
-211	-154	-89
-64	-52	-124
110	59	-90
262	138	-5
334	157	36
309	122	49
203	70	58
62	33	24
