File Name: not saved
Channel 2: 'Channel 2', 31440 values, raw ADC, no filters.
Channel 3: 'Channel 3', 31440 values, raw ADC, no filters.
Channel 4: 'Channel 4', 31440 values, raw ADC, no filters.

140	100	-16
280	160	-23
385	195	-46
407	202	-50
334	183	-38
187	150	-32
4	102	-35
-148	37	-37
-237	-45	-36
-256	-135	-47
-227	-207	-49
-178	-238	-48
-125	-222	-42
-65	-171	-22
10	-114	-4
97	-80	0
169	-71	-2
188	-69	-9
132	-48	-27
21	8	-48
-103	88	-69
-174	150	-61
-161	160	-40
-82	93	-17
8	-25	3
49	-149	11
17	-223	2
-64	-211	4
-133	-125	-1
-135	-2	-13
-52	110	-9
86	174	-23
223	191	-35
301	174	-29
292	150	-21
209	134	-24
77	122	-21
-63	96	-8
-178	43	-9
-237	-35	-18
-223	-121	-24
-132	-186	-19
2	-209	-24
124	-181	-27
171	-119	-18
105	-46	-17
-65	8	-23
-264	35	-22
-412	36	-23
-428	26	-10
-305	22	3
-102	30	-25
95	45	-57
212	51	-64
225	28	-56
159	-30	-54
74	-117	-51
8	-199	-48
-27	-245	-30
-40	-223	-12
-53	-131	-2
-63	1	9
-57	133	14
-20	221	18
43	240	-2
107	195	-27
136	119	-47
121	41	-70
80	-11	-76
56	-33	-67
82	-41	-43
164	-45	-18
257	-51	1
300	-49	21
245	-29	19
98	12	0
-104	63	-5
-276	103	3
-360	113	5
-336	91	16
-232	52	34
-99	23	37
6	23	18
64	53	-20
87	96	-64
102	122	-95
130	113	-110
170	68	-97
201	4	-57
186	-56	-29
110	-93	-16
-21	-108	-18
-175	-111	-25
-312	-122	-26
-388	-147	-27
-383	-181	-21
-295	-204	-16
-148	-199	-26
21	-158	-35
163	-84	-31
234	2	-15
212	79	-1
111	130	-6
-23	150	-13
-128	145	-19
-155	122	-12
-87	87	-1
38	43	5
151	1	2
198	-37	-7
156	-63	-16
57	-67	-12
-43	-57	-9
-96	-40	-17
-88	-31	-27
-46	-35	-26
-6	-46	-17
7	-48	-22
4	-23	-36
10	32	-46
46	106	-37
106	171	-27
145	192	-17
136	147	-21
62	40	-26
-45	-92	-27
-138	-211	-45
-177	-278	-55
-157	-276	-76
-106	-213	-81
-58	-119	-68
-38	-24	-47
-33	50	-26
-16	95	-12
32	115	-2
109	121	-5
175	119	-7
202	105	-5
169	79	-2
87	45	-4
-3	14	1
-71	0	11
-100	15	24
-98	58	49
-82	110	37
-66	139	-1
-53	125	-30
-34	57	-63
-7	-41	-85
28	-132	-81
55	-174	-56
67	-144	-38
59	-58	-21
41	43	-6
24	110	0
16	112	20
14	51	29
15	-32	31
12	-93	30
7	-101	13
1	-60	-30
-5	-6	-89
-21	23	-135
-52	8	-176
-98	-38	-160
-137	-79	-88
-141	-76	-5
-85	-19	54
33	67	74
170	135	61
269	140	21
262	64	-22
132	-70	-36
-83	-216	-35
-299	-314	-39
-428	-330	-34
-423	-257	-27
-300	-121	-18
-136	30	-7
-4	153	2
46	215	8
29	215	3
-1	168	-9
9	103	-37
83	50	-70
191	28	-97
278	41	-95
299	75	-76
244	108	-57
148	126	-31
59	124	-3
13	99	10
10	60	2
18	15	15
2	-34	29
-50	-83	39
-124	-127	38
-178	-162	14
-178	-173	-18
-113	-160	-48
-8	-120	-61
94	-63	-55
148	-1	-28
136	53	8
77	86	5
-1	89	-30
-57	55	-47
-69	-5	-90
-40	-85	-122
8	-155	-92
56	-196	-55
85	-190	-24
90	-137	13
74	-56	20
34	26	6
-23	88	-8
-96	116	-28
-169	114	-26
-219	99	-6
-233	82	15
-203	65	30
-145	41	37
-81	2	32
-32	-55	20
-6	-121	1
0	-169	-25
-2	-182	-46
-8	-148	-62
-20	-76	-54
-35	8	-24
-52	74	-9
-60	100	-2
-40	84	-4
12	43	5
90	17	32
172	32	33
238	96	9
269	194	-31
266	279	-76
234	299	-108
175	228	-121
104	77	-109
27	-97	-90
-37	-229	-69
-76	-263	-43
-82	-198	-15
-56	-80	8
-15	32	8
26	80	6
56	58	7
74	-1	-3
81	-46	-21
72	-50	-23
43	-20	-24
-14	15	-33
-84	14	-28
-141	-26	-12
-159	-84	9
-134	-120	26
-99	-117	54
-105	-83	63
-188	-54	22
-325	-57	-31
-445	-94	-85
-446	-129	-129
-274	-119	-140
40	-45	-86
371	74	-25
579	189	-15
569	244	-35
368	225	-44
85	143	-37
-124	45	-31
-173	-30	15
-65	-67	39
99	-74	18
202	-65	-8
188	-51	-45
74	-33	-68
-63	-7	-39
-161	15	40
-189	14	112
-182	-20	118
-183	-78	44
-195	-120	-76
-198	-111	-147
-143	-33	-182
-25	81	-194
115	170	-123
209	186	-36
209	112	21
129	0	28
30	-82	-8
-14	-82	-20
10	-11	-12
58	71	8
49	95	48
-57	28	82
-225	-97	79
-351	-207	37
-330	-230	-15
-135	-148	-70
150	-8	-122
393	113	-129
474	156	-107
375	115	-61
180	33	-10
14	-35	-3
-57	-60	0
-42	-54	13
-26	-42	11
-94	-42	2
-246	-38	-15
-408	-1	-2
-454	83	1
-321	189	7
-53	264	24
237	261	24
407	171	8
396	49	-21
238	-43	-47
55	-56	-97
-55	-1	-117
-58	59	-92
-5	57	-33
15	-35	16
-45	-179	2
-174	-304	-17
-286	-341	-30
-311	-278	-18
-221	-163	-12
-58	-63	-16
97	-22	-7
184	-27	-16
198	-28	10
167	23	48
137	136	65
127	261	84
124	330	70
107	287	32
75	143	-41
47	-50	-117
52	-216	-164
88	-301	-141
106	-298	-74
58	-233	-36
-76	-149	-36
-237	-69	-53
-340	-5	-64
-303	50	-105
-121	99	-122
97	131	-71
222	139	-24
162	126	-16
-52	106	-28
-296	99	-44
-407	106	-20
-312	113	16
-76	88	28
158	20	28
245	-78	3
150	-161	-33
-44	-182	-42
-184	-120	-21
-173	-4	-15
-22	105	-9
163	148	-6
261	98	-9
222	-7	-12
97	-103	-16
-6	-127	-16
-7	-58	-12
83	57	-3
193	154	-1
239	169	20
190	92	19
87	-43	4
-4	-174	-2
-44	-246	-13
-56	-248	-28
-95	-194	-49
-186	-122	-41
-300	-52	-34
-358	15	-19
-300	84	-13
-123	151	0
89	190	29
231	169	9
245	72	-29
151	-71	-49
33	-206	-48
-30	-268	-48
-23	-225	-53
2	-102	-36
-26	37	-13
-123	117	-7
-237	106	-17
-270	27	-24
-167	-58	-27
44	-82	-33
248	-13	-39
322	124	-34
230	268	0
42	353	34
-100	345	65
-86	251	71
86	112	28
301	-24	-35
399	-120	-82
288	-160	-122
16	-152	-179
-274	-109	-153
-405	-56	-81
-296	-8	-47
-7	23	-48
296	35	-90
446	41	-88
355	51	-38
81	80	17
-226	115	60
-412	140	59
-392	126	41
-199	60	25
55	-47	-3
225	-161	-40
226	-233	-77
49	-234	-88
-226	-169	-56
-480	-82	-32
-605	-23	-9
-555	-36	5
-348	-117	-8
-56	-224	-6
225	-296	3
422	-279	-1
498	-169	-1
462	0	11
339	162	27
166	252	48
-25	241	56
-194	144	42
-304	15	37
-316	-95	11
-219	-144	-25
-41	-137	-33
138	-98	-24
234	-58	-25
184	-42	-53
16	-38	-91
-181	-29	-100
-282	9	-93
-212	79	-90
11	156	-69
280	219	-52
439	244	-24
407	231	0
186	190	12
-103	142	22
-325	97	26
-378	54	49
-271	12	63
-94	-25	42
48	-43	-4
101	-28	-45
78	21	-99
37	87	-163
31	133	-202
58	130	-169
86	62	-63
85	-53	16
57	-183	26
42	-282	0
72	-326	-11
138	-304	-30
183	-228	-35
145	-119	-30
16	-7	-29
-132	76	16
-191	103	51
-97	67	49
106	-17	38
284	-110	20
277	-162	-30
25	-137	-75
-378	-36	-77
-720	97	-43
-816	203	-30
-601	228	-35
-177	169	-2
225	63	7
414	-20	7
333	-39	-2
97	3	-16
-117	60	-24
-154	71	-55
-1	4	-76
237	-127	-83
413	-252	-52
439	-296	4
330	-218	76
158	-37	129
20	174	169
-53	327	178
-83	357	100
-108	252	-13
-151	57	-163
-185	-155	-279
-183	-305	-299
-128	-352	-229
-46	-285	-145
15	-145	-64
31	12	11
6	132	34
-21	181	39
-16	161	51
29	98	74
91	47	53
137	44	13
152	103	-28
145	196	-90
139	268	-115
136	273	-90
126	183	-61
85	30	-24
3	-137	15
-97	-247	22
-184	-263	7
-228	-191	13
-228	-80	39
-195	8	32
-150	29	19
-93	-20	14
-20	-96	3
66	-136	-25
136	-93	-57
159	41	-63
121	215	-50
57	356	-19
32	370	-20
96	228	-35
226	-41	-42
314	-346	-44
242	-566	-35
-36	-611	-32
-434	-457	-10
-743	-169	17
-759	138	22
-425	353	4
107	412	-38
562	327	-54
653	159	-59
312	-8	-46
-291	-127	-8
-814	-192	42
-983	-222	101
-708	-238	79
-153	-246	10
363	-229	-63
597	-174	-144
484	-85	-183
191	11	-149
-45	87	-60
-59	129	13
124	153	87
331	180	107
382	230	52
212	289	-8
-67	319	-49
-278	284	-103
-272	183	-123
-50	57	-54
245	-37	-12
446	-59	-27
452	-14	-63
296	41	-58
93	45	-60
-26	-41	-81
-19	-192	-62
59	-334	-44
114	-384	-10
78	-305	8
-30	-126	24
-132	70	15
-134	197	-18
-4	215	-30
198	153	-23
357	72	-25
352	38	-43
137	57	-46
-249	93	-58
-668	82	-28
-976	-13	19
-1058	-175	58
-902	-331	82
-565	-406	54
-181	-358	10
151	-204	-21
345	-9	-28
414	154	-40
397	240	-42
352	249	-36
311	212	-49
272	161	-69
222	115	-33
151	77	47
78	43	126
36	15	196
40	6	186
77	20	84
94	48	-64
42	72	-197
-97	64	-257
-287	14	-252
-437	-68	-224
-458	-153	-221
-304	-208	-200
-28	-222	-120
263	-191	-43
436	-130	60
421	-52	121
238	30	115
-2	104	91
-167	154	40
-177	151	-14
-32	85	-51
171	-42	-16
333	-189	15
366	-300	20
273	-321	28
100	-232	-4
-77	-60	-54
-195	135	-54
-209	291	-10
-107	365	74
96	354	142
341	283	142
534	181	109
553	60	17
337	-69	-111
-84	-208	-236
-576	-326	-291
-934	-393	-231
-1016	-361	-78
-814	-222	75
-465	-13	117
-158	194	86
-28	317	18
-56	310	-96
-91	186	-166
16	13	-142
306	-118	-67
642	-149	36
825	-66	72
689	79	48
254	211	21
-271	274	-43
-636	238	-74
-668	131	-68
-392	-1	-25
18	-118	17
328	-204	6
411	-254	-31
280	-277	-29
60	-268	-3
-111	-210	-18
-154	-97	2
-77	57	24
66	204	20
215	279	-3
328	249	-36
373	116	-84
321	-48	-106
155	-167	-52
-111	-181	-3
-383	-95	42
-562	24	36
-558	96	5
-385	68	22
-136	-36	38
41	-145	26
68	-175	-32
-37	-93	-103
-170	64	-113
-197	208	-56
-62	254	-8
197	183	34
465	35	68
636	-98	5
665	-144	-86
558	-87	-143
363	33	-151
116	134	-85
-173	162	-11
-459	100	40
-711	-13	49
-827	-123	-19
-764	-190	-129
-539	-209	-189
-248	-196	-140
-5	-168	-32
107	-130	22
97	-68	34
46	24	35
36	136	36
94	237	12
172	282	-18
200	252	-19
139	157	4
21	32	22
-74	-79	20
-86	-148	-3
-10	-174	-18
98	-178	1
166	-173	-32
165	-166	-42
132	-144	16
135	-96	21
214	-15	-15
343	90	-54
446	197	-103
444	279	-122
318	321	-72
120	311	-21
-41	250	8
-89	135	11
-12	-15	20
120	-182	39
198	-333	11
130	-435	-3
-101	-464	-39
-415	-420	-55
-692	-321	-46
-810	-196	-54
-707	-71	-39
-407	41	-18
-18	141	5
357	230	10
623	298	8
754	321	-33
766	294	-45
679	222	-25
483	134	-23
165	63	11
-281	34	57
-765	43	72
-1134	60	51
-1227	57	30
-994	14	-19
-473	-54	-70
100	-118	-80
506	-148	-54
599	-133	-12
418	-90	16
155	-34	-15
29	19	-60
130	75	-92
373	141	-158
566	210	-192
529	250	-156
240	218	-70
-175	97	-43
-486	-97	-53
-554	-295	-19
-369	-420	16
-61	-423	116
186	-316	238
275	-159	225
216	-25	122
117	39	5
68	48	-153
98	43	-261
155	70	-205
153	131	-44
49	192	53
-129	197	50
-296	118	4
-377	-16	-61
-333	-142	-81
-190	-196	-77
-11	-151	-69
136	-41	-63
216	68	-77
216	112	-55
148	76	-25
38	-8	-29
-75	-79	-47
-150	-87	-60
-144	-25	-31
-49	72	-2
107	153	6
278	177	14
382	141	42
374	70	83
269	-1	97
111	-54	69
-32	-89	32
-114	-116	11
-138	-147	-30
-159	-161	-48
-228	-133	-34
-375	-37	-11
-550	125	3
-665	313	-70
-610	461	-168
-336	495	-166
89	384	-53
520	138	84
769	-170	127
709	-455	66
346	-628	-10
-163	-655	-70
-626	-550	-150
-842	-363	-255
-770	-173	-264
-486	-30	-93
-157	39	64
90	62	104
198	79	103
229	124	52
260	208	-81
336	301	-209
417	360	-208
411	350	-130
261	270	-11
-14	153	94
-310	49	145
-485	-6	160
-459	-14	118
-256	-8	77
30	-38	28
299	-125	-44
476	-249	-102
575	-351	-93
635	-362	-33
671	-254	63
681	-40	143
606	201	127
430	380	59
171	427	-15
-109	325	-41
-333	118	-56
-470	-120	-68
-525	-312	-63
-545	-402	-110
-556	-372	-168
-569	-240	-182
-552	-46	-142
-480	153	-80
-357	296	-26
-224	339	9
-123	261	29
-71	85	10
-48	-131	-16
-1	-300	-16
101	-345	-13
245	-246	1
373	-33	20
406	191	16
306	332	-1
107	328	-12
-103	190	-18
-214	-1	-22
-170	-144	-43
6	-171	-41
222	-77	-7
372	76	67
391	197	164
297	233	239
167	183	250
78	97	115
64	35	-77
89	17	-223
86	21	-384
10	-8	-442
-130	-107	-328
-262	-257	-155
-325	-393	-54
-287	-437	-36
-189	-353	36
-94	-171	70
-39	19	49
2	127	53
94	116	110
287	20	102
551	-69	13
769	-70	-40
800	46	-109
569	236	-236
116	403	-318
-394	458	-207
-787	370	-14
-937	174	104
-853	-49	108
-645	-226	91
-463	-322	96
-383	-352	70
-383	-346	36
-370	-337	14
-253	-316	25
-18	-263	51
284	-157	33
533	-3	-24
636	160	-77
569	279	-100
374	316	-31
152	268	61
-19	168	170
-105	58	268
-115	-21	229
-106	-66	40
-126	-87	-168
-199	-105	-302
-302	-125	-386
-375	-137	-387
-363	-118	-245
-236	-54	-39
-4	45	100
268	158	216
506	241	320
639	262	273
642	221	98
529	129	-94
346	20	-246
151	-77	-371
-8	-138	-365
-108	-166	-147
-145	-163	47
-126	-149	133
-75	-126	149
-18	-86	161
24	-21	110
42	68	78
46	165	112
54	228	45
77	227	-37
94	150	-123
72	31	-186
-24	-67	-261
-186	-87	-270
-362	-12	-242
-474	117	-223
-459	213	-108
-330	194	48
-173	39	121
-86	-195	124
-123	-394	133
-240	-460	99
-321	-346	79
-252	-108	16
-2	137	-56
331	282	-91
604	276	-101
681	151	-47
549	-13	-3
297	-131	-14
66	-168	-30
-61	-137	-2
-89	-79	5
-99	-29	-2
-159	7	26
-267	36	38
-345	68	13
-300	92	5
-100	80	36
172	28	58
398	-48	56
450	-107	49
320	-106	58
95	-32	46
-83	81	0
-130	177	-109
-50	208	-203
65	159	-215
104	59	-145
8	-51	-74
-191	-138	-56
-393	-199	-67
-509	-251	-72
-468	-297	-49
-271	-325	-14
23	-296	86
337	-187	170
592	-6	147
707	195	21
636	345	-89
363	408	-188
-55	364	-181
-509	256	-15
-844	123	118
-962	4	174
-825	-101	142
-497	-192	63
-130	-249	-75
155	-232	-175
288	-110	-159
300	105	-170
278	338	-237
301	469	-231
394	413	-164
498	165	-106
539	-174	-51
455	-437	26
263	-496	143
41	-326	235
-115	-32	273
-159	221	200
-119	311	56
-83	218	-32
-137	43	-118
-308	-81	-163
-526	-79	-84
-664	20	5
-610	108	50
-333	81	37
94	-80	-47
527	-280	-158
811	-383	-170
876	-297	-99
723	-42	-49
421	248	-30
53	420	-38
-304	377	-6
-594	154	4
-765	-130	-8
-775	-329	-31
-617	-365	-38
-318	-261	1
18	-103	76
278	13	150
373	52	110
300	43	-20
129	44	-182
-18	91	-291
-61	165	-279
15	218	-139
159	197	32
301	93	108
374	-53	155
375	-174	183
317	-208	127
213	-155	30
82	-57	-74
-72	7	-118
-226	-10	-110
-339	-114	-21
-378	-254	90
-331	-343	100
-215	-312	104
-85	-145	43
23	101	-96
94	335	-202
130	465	-199
148	457	-147
138	341	-122
91	199	-77
1	103	-27
-106	74	15
-184	78	62
-195	43	76
-137	-70	85
-53	-246	85
-4	-411	44
-15	-467	-11
-68	-378	-155
-102	-173	-238
-65	58	-177
43	221	-99
171	264	-54
253	213	-26
262	132	-3
222	76	8
190	57	39
198	48	34
221	16	18
186	-39	60
36	-89	112
-215	-90	119
-481	-41	62
-632	16	-23
-589	18	-135
-386	-68	-194
-129	-200	-175
56	-281	-114
106	-218	-43
59	2	-15
14	284	3
44	480	5
151	465	14
261	233	12
296	-91	36
242	-321	99
165	-329	103
157	-114	58
251	181	-22
373	365	-105
373	316	-172
145	43	-168
-281	-301	-109
-736	-546	29
-969	-569	159
-842	-389	150
-400	-121	130
128	95	69
484	174	-17
519	131	-115
290	37	-144
13	-34	-88
-103	-47	-75
-5	-22	-67
184	7	-81
271	16	-90
139	15	-89
-154	27	-90
-417	60	-120
-456	104	-139
-229	134	-63
126	141	97
401	142	264
439	161	330
280	213	288
71	268	112
-5	279	-144
104	206	-341
292	59	-410
391	-101	-341
277	-195	-188
-15	-182	-30
-331	-89	64
-481	8	87
-392	25	75
-122	-57	100
171	-195	134
328	-292	126
283	-279	60
66	-154	-54
-218	16	-141
-480	138	-227
-623	159	-259
-616	88	-155
-446	-17	-62
-145	-99	-28
210	-144	74
498	-186	171
625	-261	200
534	-370	218
276	-459	171
-7	-453	17
-182	-314	-170
-181	-74	-210
-49	177	-169
91	345	-130
124	382	-114
24	320	-66
-136	230	-24
-237	178	-42
-205	174	-15
-68	183	-11
65	158	6
79	90	-5
-52	17	-33
-249	-5	-37
-366	48	-37
-307	141	3
-91	204	35
158	179	52
263	69	58
151	-55	55
-118	-110	29
-370	-52	-24
-426	74	-67
-226	179	-60
147	171	-43
476	39	-51
592	-153	-41
430	-297	-9
102	-317	3
-206	-224	-2
-321	-91	-4
-205	-14	8
51	-29	0
302	-97	-31
425	-135	-27
389	-76	23
255	76	94
121	249	103
42	345	29
22	321	-49
22	192	-127
6	40	-189
-23	-48	-142
-41	-42	-25
-28	28	57
10	89	54
39	74	-24
35	-39	-140
-5	-217	-225
-48	-395	-133
-63	-521	21
-53	-553	85
-58	-497	80
-124	-364	34
-252	-189	-43
-380	-1	-77
-408	170	-120
-272	299	-197
-15	362	-145
254	354	24
366	287	276
253	183	495
-32	61	455
-330	-48	177
-477	-134	-143
-407	-174	-446
-191	-158	-680
6	-85	-631
66	22	-302
-25	118	3
-166	161	107
-217	129	107
-112	48	51
100	-30	0
280	-46	-31
322	21	-48
204	129	-23
16	204	32
-111	171	100
-107	27	207
11	-172	302
139	-318	216
194	-322	87
150	-177	-15
64	52	-173
26	250	-267
78	324	-200
202	260	-1
324	119	85
373	0	53
326	-32	49
212	21	18
79	93	-57
-32	105	-147
-112	16	-154
-161	-148	-120
-190	-311	-95
-195	-395	-56
-181	-375	-13
-147	-259	31
-104	-107	103
-58	36	190
-4	149	191
67	243	68
143	330	-82
190	408	-190
165	445	-210
51	405	-83
-120	265	119
-264	41	168
-325	-215	87
-285	-449	5
-217	-612	-157
-211	-698	-300
-312	-700	-256
-468	-628	-112
-529	-482	-34
-369	-254	-13
34	40	-23
549	358	-61
950	635	-52
1043	806	-1
773	824	34
280	700	52
-214	483	77
-489	230	85
-473	4	79
-245	-166	46
25	-270	-42
184	-316	-107
162	-312	-137
-5	-264	-107
-215	-189	-16
-374	-98	45
-418	-11	78
-336	53	82
-151	86	82
84	88	97
310	66	56
458	27	-41
476	-19	-126
352	-69	-177
131	-112	-238
-126	-141	-248
-325	-152	-164
-417	-142	-59
-377	-124	-3
-224	-105	22
3	-84	48
237	-53	48
423	-2	33
486	71	-1
392	158	4
158	233	39
-127	273	79
-344	268	173
-381	227	257
-229	161	209
11	85	80
184	11	-90
167	-67	-270
-43	-147	-341
-329	-222	-257
-501	-273	-63
-446	-291	29
-179	-273	27
150	-224	5
351	-163	-89
336	-105	-127
149	-53	-169
-36	-7	-163
-68	40	-60
100	91	22
360	138	42
521	171	7
439	188	-2
130	177	-3
-234	137	36
-448	71	44
-366	-12	7
-43	-95	-10
323	-157	-13
503	-170	-2
383	-129	-1
34	-51	20
-348	31	77
-540	80	155
-468	80	152
-215	43	62
32	3	-44
123	-6	-188
36	25	-353
-123	88	-409
-204	150	-252
-134	182	-75
32	182	62
159	158	201
132	121	237
-43	70	184
-262	1	84
-354	-96	-17
-228	-200	-154
82	-275	-201
423	-274	-140
632	-182	-92
590	-24	-48
302	131	-16
-112	214	7
-511	187	8
-762	58	-23
-796	-101	-95
-621	-218	-117
-312	-247	-58
39	-187	22
312	-86	60
439	9	65
406	67	42
268	91	20
111	104	53
7	117	69
-31	122	70
-36	88	55
-51	-9	68
-89	-162	31
-105	-313	-75
-46	-399	-96
96	-368	-109
276	-228	-198
385	-35	-221
346	126	-97
157	192	10
-87	157	29
-263	67	28
-291	-4	11
-178	-5	-12
-13	66	-17
127	171	-16
211	256	-20
279	279	-18
381	249	-4
498	188	1
558	127	-6
429	80	-12
83	36	-2
-388	-14	5
-779	-70	-7
-903	-118	-25
-700	-134	-44
-290	-109	-47
71	-63	-49
183	-24	-40
1	-15	-34
-325	-22	-29
-554	-11	4
-505	50	51
-177	163	101
245	275	119
547	313	103
581	210	21
383	-24	-54
113	-313	-115
-52	-537	-190
-41	-590	-181
90	-451	-90
214	-183	-52
230	95	-48
125	276	49
-21	327	145
-113	279	171
-109	227	62
-40	215	-117
18	253	-252
16	278	-333
-50	218	-284
-136	47	-181
-195	-196	-84
-209	-421	-31
-188	-540	-30
-145	-519	-17
-72	-401	-11
55	-262	7
245	-179	6
439	-176	7
548	-207	29
462	-212	26
166	-140	16
-237	2	2
-568	165	-4
-644	286	32
-408	323	101
40	279	191
461	195	281
636	117	225
474	68	61
53	47	-51
-402	36	-157
-667	22	-177
-639	12	5
-382	23	142
-57	64	87
157	128	-21
195	182	-225
111	196	-438
30	155	-389
42	79	-172
162	-4	-30
314	-54	2
397	-63	16
354	-47	28
203	-35	34
18	-50	36
-134	-93	14
-211	-145	9
-230	-178	-15
-211	-172	-13
-173	-125	11
-98	-49	33
25	39	95
196	129	159
366	211	179
478	272	134
493	289	112
403	250	53
253	154	-87
107	29	-176
-2	-72	-153
-69	-114	-89
-132	-80	-85
-221	-4	-111
-347	53	-135
-502	41	-147
-635	-54	-145
-700	-191	-113
-658	-304	-54
-487	-329	-42
-204	-251	-59
150	-110	-80
502	40	-96
754	143	-93
837	173	-68
709	132	-19
401	43	26
-12	-74	40
-412	-205	23
-708	-319	5
-821	-387	19
-756	-368	39
-547	-253	61
-279	-80	96
-31	88	134
129	179	158
181	163	130
148	67	90
86	-29	42
69	-57	-52
135	9	-95
260	131	-74
381	230	-91
413	236	-147
314	138	-227
111	-7	-269
-106	-118	-267
-237	-135	-170
-232	-54	-16
-110	68	47
42	165	48
126	191	42
101	162	35
0	122	32
-89	121	30
-91	163	34
18	211	53
184	213	91
308	135	126
320	-1	111
203	-139	76
18	-215	32
-143	-201	52
-208	-126	121
-165	-49	103
-52	-24	37
71	-66	-84
158	-144	-257
205	-200	-457
229	-190	-425
242	-119	-178
234	-25	-36
169	39	-6
33	53	-29
-148	35	-50
-306	40	-52
-353	109	-47
-233	240	7
46	379	102
383	435	186
653	353	245
709	123	199
495	-179	75
28	-435	-96
-554	-535	-251
-1079	-425	-268
-1307	-148	-184
-1197	190	-50
-962	456	-8
-402	557	-39
159	461	-65
531	219	-95
625	-90	-58
459	-387	-2
160	-612	56
-112	-744	77
-255	-782	53
-247	-719	32
-144	-562	-19
-17	-326	-60
88	-62	-56
175	165	-31
254	292	5
332	296	16
373	204	24
346	93	29
245	47	16
107	103	77
-1	236	127
-25	372	116
34	420	74
121	345	28
151	178	-56
78	-6	-195
-91	-121	-224
-282	-121	-199
-407	-19	-187
-412	114	-134
-299	211	-34
-120	224	44
57	162	49
178	72	30
231	6	8
222	-11	-30
178	17	-55
123	56	-34
76	70	-3
46	40	13
37	-25	29
39	-103	32
36	-156	12
14	-161	19
-28	-116	35
-69	-40	59
-75	34	76
-20	70	41
93	51	16
215	-13	37
291	-88	22
276	-115	-54
172	-59	-109
40	79	-147
-42	250	-202
-20	370	-225
96	369	-167
221	224	-66
232	-19	-3
41	-268	10
-343	-425	-12
-786	-447	-23
-1107	-356	24
-1124	-227	60
-794	-139	14
-205	-127	1
430	-165	-40
899	-184	-187
1046	-135	-276
901	-22	-238
590	100	-101
276	149	1
71	78	79
-35	-90	164
-129	-263	158
-288	-348	137
-529	-279	101
-751	-80	68
-850	162	28
-753	339	-47
-484	382	-61
-157	287	-43
101	119	-67
229	-46	-178
242	-145	-205
222	-167	-97
241	-122	-27
318	-45	18
404	38	40
432	114	49
365	166	89
219	183	110
44	150	80
-108	80	27
-218	-3	1
-291	-53	-37
-331	-40	-38
-325	32	18
-245	131	49
-89	204	-1
99	215	-64
242	163	-82
270	85	-80
174	24	-60
4	1	-67
-134	8	-78
-173	11	-101
-104	-10	-118
9	-59	-67
91	-113	60
115	-135	207
117	-117	249
159	-64	196
280	-3	107
432	52	-64
516	98	-292
431	135	-382
166	164	-320
-212	163	-279
-540	105	-221
-702	-20	-96
-654	-183	24
-452	-322	46
-202	-366	72
-12	-271	106
83	-66	56
96	166	6
76	313	5
58	301	68
68	124	155
106	-153	175
164	-411	92
234	-546	21
280	-492	-20
267	-280	-70
155	14	-94
-55	282	-81
-321	430	-75
-548	412	-144
-659	237	-215
-627	-32	-173
-489	-315	-70
-324	-530	-16
-187	-620	13
-86	-567	42
20	-393	34
170	-143	18
340	115	2
469	321	16
472	431	87
332	438	136
111	362	152
-50	257	129
-51	179	22
124	169	-136
383	227	-254
551	313	-236
506	365	-137
226	327	-46
-174	183	13
-538	-35	16
-708	-253	5
-637	-393	-16
-378	-416	-63
-44	-322	-120
249	-171	-127
428	-33	-57
483	39	32
435	41	111
326	3	137
197	-25	91
83	-11	13
12	42	-51
-4	106	-137
28	137	-181
70	114	-92
87	39	33
42	-53	83
-63	-127	36
-194	-161	19
-296	-151	32
-325	-113	17
-277	-64	10
-175	-19	-17
-69	27	-60
5	81	-94
46	140	-115
78	207	-100
129	268	-1
208	321	105
288	352	95
311	350	2
229	299	-134
36	181	-261
-213	-4	-294
-424	-237	-167
-501	-460	0
-402	-617	13
-161	-645	-7
120	-538	62
340	-334	116
430	-112	204
409	47	276
336	106	228
262	84	115
190	28	-4
64	11	-169
-167	51	-311
-491	130	-301
-810	178	-243
-954	142	-181
-836	13	-97
-470	-163	-18
-16	-298	22
322	-322	-5
417	-219	-44
311	-33	-34
169	156	-12
151	275	30
302	295	65
493	237	89
515	147	103
250	64	91
-237	3	74
-692	-49	6
-878	-104	-34
-684	-150	-21
-234	-159	-34
207	-108	-79
409	1	-83
330	130	-50
125	228	-43
17	257	-10
132	210	54
401	123	120
614	39	100
591	-11	8
295	-23	-77
-107	-21	-135
-403	-27	-168
-438	-54	-169
-250	-93	-87
-8	-125	40
111	-138	135
48	-136	151
-111	-125	77
-224	-110	-54
-177	-85	-206
11	-36	-368
230	39	-351
358	132	-162
346	218	16
234	264	91
95	251	65
-5	174	55
-71	63	15
-140	-58	-3
-230	-159	26
-325	-218	34
-363	-229	32
-314	-189	25
-182	-114	24
-28	-22	12
81	53	-3
125	87	-7
142	63	14
196	-6	36
318	-83	37
468	-121	32
548	-85	20
466	27	-14
191	180	-82
-205	315	-169
-555	372	-225
-724	321	-167
-627	168	-35
-312	-41	58
82	-248	68
389	-383	52
505	-408	36
401	-318	7
133	-149	-3
-185	31	-22
-459	149	-35
-626	162	-43
-636	77	-51
-505	-52	-71
-278	-151	-104
-26	-166	-65
144	-103	19
172	-19	143
44	15	245
-156	-37	211
-303	-143	79
-280	-224	-70
-60	-196	-257
258	-45	-380
531	169	-312
612	335	-170
476	362	-35
212	240	17
-20	37	14
-110	-118	11
-42	-150	6
100	-50	-34
194	98	-55
169	191	-37
42	168	-17
-93	43	40
-157	-99	66
-117	-178	64
-13	-155	124
89	-61	204
144	29	218
156	64	176
154	33	38
155	-16	-134
147	-27	-265
96	27	-408
-12	123	-441
-144	206	-235
-240	225	16
-236	162	83
-120	57	41
40	-39	-6
158	-74	-67
154	-37	-120
26	46	-100
-152	130	-18
-278	168	4
-286	131	-8
-182	28	9
-31	-117	41
78	-260	68
103	-362	92
74	-391	110
69	-349	92
167	-259	64
363	-161	34
569	-92	-9
645	-63	-40
458	-63	-51
-10	-60	-53
-617	-38	-38
-1151	3	-28
-1235	30	11
-1135	22	53
-757	-15	57
-191	-48	30
232	-25	-32
360	74	-81
245	228	-112
81	357	-107
58	399	-74
262	324	-24
592	168	-2
839	17	-17
831	-59	-17
536	-45	29
107	9	42
-251	30	49
-389	-28	108
-325	-143	98
-197	-236	11
-150	-231	-80
-214	-108	-192
-290	70	-331
-237	203	-341
9	208	-218
359	87	-77
620	-81	1
612	-186	2
306	-159	-5
-135	-19	51
-491	139	103
-581	213	116
-400	153	91
-99	-2	37
127	-151	-32
167	-194	-128
52	-102	-192
-84	71	-193
-108	230	-106
10	279	14
203	205	141
346	50	194
371	-93	187
284	-161	176
171	-138	149
110	-64	97
122	-6	-47
163	-1	-111
160	-52	-140
68	-127	-239
-84	-189	-303
-241	-214	-278
-333	-207	-128
-338	-180	-9
-271	-131	-7
-169	-56	-24
-62	51	-21
25	174	-3
86	264	63
104	265	135
63	149	151
-33	-58	93
-151	-278	20
-239	-402	-38
-244	-363	-64
-162	-174	-36
-46	85	9
20	290	20
-18	353	-46
-150	256	-81
-314	61	-74
-402	-126	-63
-361	-227	-40
-201	-207	-40
8	-110	-38
184	2	-52
281	70	-48
316	79	-23
331	50	5
366	22	45
405	25	94
396	56	136
273	93	112
31	106	59
-287	81	-11
-556	28	-127
-684	-24	-181
-610	-45	-123
-357	-17	-57
-30	52	-60
252	135	-81
409	191	-43
415	194	-37
314	139	-44
179	54	-44
76	-27	-53
25	-72	-83
21	-77	-119
32	-57	-106
40	-50	-59
53	-77	7
91	-124	34
176	-163	16
300	-149	-6
411	-67	0
451	61	-4
358	190	2
123	265	22
-201	265	14
-516	200	65
-708	112	142
-695	35	160
-477	-19	127
-139	-69	80
196	-136	-25
394	-213	-141
403	-263	-165
245	-251	-159
29	-153	-176
-143	-6	-169
-198	116	-129
-137	138	-58
-29	41	39
53	-131	94
61	-286	100
2	-334	64
-79	-252	-31
-126	-85	-178
-113	72	-238
-49	137	-132
31	85	9
84	-38	124
68	-159	138
-27	-215	60
-195	-191	-41
-405	-117	-170
-581	-29	-182
-647	48	-29
-549	121	130
-275	197	191
115	269	124
501	315	-18
778	298	-167
864	207	-231
765	74	-158
545	-42	-43
287	-96	22
55	-74	40
-122	-7	22
-245	50	-38
-310	68	-110
-307	43	-101
-233	11	-28
-116	2	94
-12	23	235
11	51	259
-79	49	149
-250	3	-30
-412	-71	-230
-459	-131	-389
-347	-138	-360
-101	-87	-157
172	-3	54
371	58	175
422	70	143
341	27	64
199	-35	-24
67	-77	-121
-12	-72	-166
-47	-26	-118
-67	33	7
-88	75	57
-98	77	34
-65	43	4
23	-13	-4
160	-71	21
299	-116	51
404	-137	87
454	-124	87
458	-71	47
422	16	1
336	122	-20
176	214	-56
-68	260	-90
-386	235	-58
-679	147	-3
-850	23	-23
-819	-94	-128
-589	-174	-176
-253	-211	-155
57	-222	-80
245	-224	42
290	-227	126
245	-224	119
210	-187	57
245	-95	-14
354	50	-136
469	224	-223
506	374	-157
407	461	-37
156	438	0
-197	313	5
-572	101	-5
-869	-150	-18
-968	-381	-12
-812	-541	-18
-400	-589	7
178	-517	24
723	-348	27
1046	-131	-5
1014	75	-17
652	222	3
104	288	26
-380	287	26
-637	241	16
-610	171	16
-405	93	28
-186	1	89
-80	-95	112
-102	-175	60
-168	-205	-1
-170	-153	-38
-48	-17	-123
166	165	-210
381	325	-198
498	404	-149
470	372	-153
306	248	-165
54	93	-132
-217	-31	-83
-452	-90	-11
-589	-92	55
-589	-66	131
-434	-57	208
-168	-76	183
131	-109	107
346	-129	-14
425	-113	-211
363	-62	-327
245	0	-255
169	37	-133
183	26	-90
262	-39	-27
313	-135	56
251	-218	72
51	-252	44
-214	-206	38
-445	-83	69
-534	93	76
-459	274	58
-269	410	21
-57	469	-12
91	430	-44
138	312	-80
106	139	-90
40	-45	-49
-10	-212	-9
-18	-338	8
12	-401	26
49	-395	17
60	-331	45
25	-229	69
-46	-126	78
-120	-63	65
-149	-62	11
-107	-105	-93
-17	-142	-203
61	-118	-219
63	-5	-164
-24	174	-77
-142	354	-21
-181	453	-11
-52	421	5
234	269	46
548	59	134
706	-131	176
561	-252	130
121	-289	36
-426	-270	-72
-840	-224	-194
-917	-167	-273
-654	-95	-198
-217	1	-78
137	109	-50
242	199	5
86	235	66
-162	197	60
-288	103	77
-167	2	93
178	-60	16
575	-65	-88
861	-27	-158
916	15	-228
754	27	-237
459	2	-132
107	-41	20
-253	-74	69
-589	-84	30
-869	-77	68
-985	-70	109
-864	-72	126
-494	-76	160
16	-54	123
476	4	16
688	93	-133
583	181	-269
262	232	-287
-86	228	-128
-263	182	91
-208	130	207
9	104	176
222	106	96
310	123	-11
245	117	-138
102	72	-211
-11	4	-149
-38	-49	-36
-1	-53	16
26	-5	20
-8	64	-43
-100	95	-63
-201	41	-38
-250	-100	-2
-228	-279	56
-156	-425	82
-71	-473	54
9	-407	-13
97	-270	-68
212	-133	-115
346	-61	-151
454	-72	-138
476	-126	-81
395	-157	-21
242	-106	9
104	27	24
33	193	13
21	317	-12
-11	336	-33
-142	244	-17
-383	88	20
-654	-61	39
-794	-149	83
-692	-157	101
-357	-115	65
69	-64	38
385	-30	-4
439	-5	-83
245	41	-104
-59	126	-52
-299	233	-78
-342	316	-136
-199	312	-109
29	199	-90
229	0	-107
342	-208	-82
373	-336	-21
337	-322	15
234	-169	13
28	48	-10
-288	233	-42
-631	291	-51
-865	201	-31
-840	-2	-2
-529	-218	22
-53	-352	55
371	-351	80
541	-223	61
417	-41	5
116	105	-56
-136	159	-92
-191	119	-109
-40	35	-71
184	-22	64
322	-8	196
301	76	191
180	183	87
92	255	-40
121	250	-182
244	173	-282
351	60	-233
328	-33	-75
155	-79	21
-84	-75	24
-245	-47	18
-253	-23	-31
-124	-16	-108
42	-21	-69
138	-17	24
128	9	48
55	60	36
3	122	22
20	181	-8
96	215	-44
169	221	-92
175	181	-104
107	89	-105
-7	-46	-47
-124	-207	102
-214	-348	222
-271	-426	190
-300	-419	72
-291	-332	-40
-225	-210	-215
-80	-99	-292
117	-26	-197
318	27	-51
439	94	1
446	203	-34
346	338	-98
204	438	-98
62	444	-24
-53	313	13
-165	84	-5
-291	-170	-44
-420	-370	4
-487	-474	8
-423	-498	-7
-215	-485	-14
48	-460	-11
230	-406	31
196	-278	68
-68	-57	91
-432	218	78
-691	453	49
-676	531	-16
-383	404	-64
62	121	-92
425	-188	-78
563	-384	-18
472	-387	14
290	-227	-19
175	-11	-57
195	143	-44
269	174	-25
242	106	2
21	4	29
-331	-53	49
-626	-40	39
-654	25	32
-362	97	1
117	138	-43
516	149	-80
614	147	-95
373	153	-56
-46	168	-62
-379	179	-65
-443	166	10
-244	121	111
44	66	135
216	17	55
171	-6	-63
-36	-7	-171
-233	-2	-239
-277	-5	-283
-140	-21	-159
74	-29	-2
234	-17	9
262	28	5
194	95	28
127	157	68
136	188	35
216	171	17
292	115	-26
284	25	-176
175	-79	-268
18	-192	-182
-106	-306	-43
-157	-408	0
-153	-474	-6
-141	-471	1
-150	-384	18
-141	-218	29
-54	-16	54
147	164	61
405	275	74
595	300	77
579	261	65
313	211	55
-104	191	49
-497	208	46
-686	243	17
-614	255	10
-352	211	4
-69	109	4
102	-26	4
120	-157	-22
51	-250	-30
6	-291	-49
40	-286	-60
122	-251	-69
158	-199	-77
65	-157	-45
-150	-135	-42
-392	-143	-55
-529	-168	-71
-468	-179	-55
-231	-140	-15
63	-33	6
279	113	5
314	244	-38
179	291	-54
-41	235	-56
-234	110	-45
-321	2	-7
-290	-14	-14
-172	68	-31
-19	183	-19
139	210	-21
280	75	-25
397	-199	7
461	-487	65
436	-620	119
302	-515	104
89	-196	66
-148	181	-22
-317	431	-172
-357	453	-259
-263	270	-279
-101	25	-202
56	-134	-34
148	-133	111
183	-11	124
221	120	53
320	168	-16
486	114	-116
636	28	-145
645	-3	-72
409	63	-34
-71	181	-54
-647	257	-64
-1095	221	-63
-1230	66	-50
-986	-121	-22
-468	-245	12
78	-238	30
431	-121	68
462	29	72
231	138	24
-85	174	-42
-278	169	-164
-242	168	-235
-7	192	-168
306	215	-32
545	181	49
619	49	82
523	-154	101
331	-348	90
120	-444	68
-38	-393	49
-120	-230	58
-132	-50	65
-101	56	78
-67	51	104
-71	-23	77
-136	-95	24
-245	-103	-61
-347	-50	-150
-361	9	-176
-247	12	-102
-14	-58	9
242	-151	18
407	-189	-38
397	-125	-67
221	11	-62
-27	125	-43
-232	126	14
-321	-19	51
-311	-227	38
-277	-368	-10
-282	-326	-85
-321	-108	-150
-306	182	-190
-140	386	-157
190	395	-71
583	227	-11
853	9	3
839	-105	9
506	-44	1
16	137	-5
-408	300	-14
-547	309	-35
-355	132	-24
24	-127	4
337	-320	39
389	-322	69
132	-137	93
-285	132	91
-616	337	53
-680	382	4
-442	274	-34
-46	102	-32
301	-29	9
432	-72	64
328	-50	59
96	-27	-1
-108	-47	-42
-178	-108	-103
-117	-161	-182
1	-159	-213
81	-100	-198
85	-20	-164
51	29	-111
42	29	-36
99	3	4
200	-1	13
275	48	28
252	131	-30
111	193	-104
-96	171	-69
-280	56	-3
-358	-95	11
-299	-192	-3
-122	-167	20
96	-28	72
285	141	134
381	230	132
351	169	51
198	-21	-32
-39	-240	-153
-305	-364	-262
-488	-330	-289
-513	-163	-172
-340	39	-9
-22	170	72
301	175	94
470	80	76
381	-46	52
68	-144	38
-325	-195	9
-581	-238	-47
-568	-306	-65
-290	-391	-47
91	-434	-37
380	-354	-14
423	-127	11
233	200	-1
-53	505	-9
-271	660	12
-324	601	26
-245	359	13
-148	55	-5
-133	-187	-7
-212	-289	-14
-297	-263	-20
-274	-171	-14
-104	-86	-9
151	-46	-14
363	-44	-7
417	-47	-23
299	-28	-27
100	12	-24
-48	57	-38
-55	89	-38
66	104	-40
230	119	-19
332	141	-6
328	171	-7
245	191	3
159	180	8
121	135	6
137	78	-15
163	34	-49
151	22	-81
84	37	-100
-19	56	-63
-111	49	5
-162	10	91
-167	-49	161
-150	-102	126
-134	-127	33
-126	-116	-30
-111	-86	-86
-62	-56	-125
25	-35	-97
139	-19	-52
242	11	-90
280	62	-142
230	134	-150
85	205	-154
-114	247	-144
-298	243	-62
-390	178	55
-350	60	43
-195	-97	-20
14	-264	-55
182	-406	-115
245	-470	-197
198	-421	-197
87	-263	-67
-10	-38	25
-42	164	60
-12	255	75
23	188	90
4	-18	78
-97	-265	62
-253	-453	64
-391	-488	68
-450	-370	36
-410	-159	-21
-313	56	-82
-221	208	-135
-183	276	-136
-199	282	-81
-218	257	0
-178	207	9
-41	120	-11
163	-16	-3
365	-183	78
470	-318	186
428	-356	183
260	-264	113
49	-81	37
-96	114	-76
-101	236	-196
32	237	-196
226	153	-101
373	58	-45
399	31	-25
302	84	-8
157	174	2
62	236	9
72	215	11
161	132	15
238	41	-4
204	6	-21
21	50	-28
-249	137	-17
-480	202	7
-561	183	-26
-438	78	-58
-182	-71	-82
74	-191	-103
214	-235	-82
191	-204	-38
57	-136	25
-92	-84	60
-159	-66	63
-125	-64	55
-26	-30	13
72	78	-39
124	252	-76
135	438	-70
130	552	-12
131	522	36
122	330	18
72	28	15
-43	-283	22
-200	-509	27
-329	-582	93
-357	-510	102
-253	-352	-13
-51	-179	-124
151	-40	-176
270	53	-288
275	123	-356
195	183	-254
98	219	-99
34	194	59
2	67	134
-35	-152	127
-112	-405	77
-214	-596	-45
-279	-642	-201
-249	-530	-291
-113	-311	-290
68	-96	-210
178	27	-54
144	30	105
-28	-34	189
-232	-77	169
-336	-25	87
-249	130	17
9	327	0
311	483	15
518	536	84
536	475	129
380	342	106
135	193	69
-83	62	-17
-222	-40	-144
-274	-126	-221
-282	-200	-142
-279	-249	-18
-264	-242	44
-227	-170	65
-153	-42	57
-60	94	68
11	192	79
42	223	36
43	194	-31
59	140	-76
120	98	-108
216	81	-120
302	76	-97
302	62	-48
188	27	3
-4	-25	14
-183	-70	2
-262	-90	-14
-207	-70	-5
-64	-29	22
69	20	54
123	61	67
88	93	50
23	123	25
12	151	-20
87	170	-98
223	158	-133
327	104	-108
327	10	-88
208	-100	-67
36	-191	-36
-99	-246	-4
-133	-258	8
-79	-246	35
-12	-233	53
-7	-223	40
-92	-206	16
-225	-161	-39
-319	-76	-71
-319	40	-97
-223	154	-128
-95	225	-97
-4	229	-32
16	170	4
-10	78	-16
-20	-19	-62
20	-96	-72
97	-151	-65
151	-189	-30
121	-208	-19
-14	-200	-18
-214	-152	-11
-392	-61	-17
-470	42	53
-407	122	51
-217	132	-36
42	65	-71
287	-50	-82
452	-160	-186
488	-207	-268
387	-169	-147
184	-68	8
-37	41	108
-193	119	170
-208	137	129
-79	113	62
137	76	2
336	55	-113
429	64	-158
381	93	-84
224	124	9
31	138	48
-133	127	47
-237	81	34
-296	6	-2
-330	-87	-25
-344	-170	-30
-321	-202	-20
-240	-159	-1
-99	-39	-4
59	109	5
175	221	22
200	236	29
133	140	39
14	-13	37
-81	-143	34
-108	-174	20
-62	-90	19
18	66	16
78	211	-65
88	274	-99
52	236	-68
12	122	-126
0	4	-213
27	-79	-164
76	-108	-42
111	-103	3
121	-89	14
123	-76	10
155	-59	15
234	-25	34
326	23	12
363	68	-31
258	91	-37
-8	83	-14
-389	57	15
-723	39	36
-871	45	64
-740	59	119
-358	48	94
128	-16	32
523	-134	-16
689	-263	-100
590	-337	-205
306	-312	-300
2	-190	-260
-191	-29	-165
-223	92	-89
-127	114	-34
-12	39	-26
30	-80	-12
-35	-170	-25
-162	-184	-13
-261	-135	-2
-258	-74	23
-133	-61	85
57	-113	98
211	-191	61
248	-225	-3
140	-160	-49
-61	-2	-83
-262	188	-70
-371	317	-7
-356	332	47
-258	239	59
-148	103	47
-102	-1	60
-134	-27	75
-206	12	53
-242	64	10
-186	85	-40
-34	63	-86
170	38	-139
345	45	-144
436	93	-52
428	147	9
342	150	-7
236	74	-46
151	-60	-75
105	-185	-88
91	-233	-71
95	-178	-17
105	-60	84
113	40	173
121	67	150
120	18	59
104	-54	-19
67	-76	-118
24	-9	-215
-11	122	-163
-28	244	-40
-32	286	19
-44	224	36
-89	96	-2
-161	-25	6
-234	-86	99
-255	-75	152
-194	-36	143
-55	-23	89
115	-57	-61
265	-119	-249
343	-157	-301
346	-128	-231
299	-33	-178
216	91	-96
121	187	5
11	222	3
-114	195	-48
-235	145	-74
-325	94	-72
-366	49	-82
-357	-16	-58
-325	-127	7
-300	-289	11
-291	-457	-39
-271	-562	-60
-199	-547	-1
-49	-393	83
162	-140	225
373	140	324
508	380	249
522	527	129
390	568	-72
155	523	-320
-96	394	-460
-298	193	-379
-382	-59	-183
-336	-326	-82
-195	-549	-32
-42	-653	35
37	-606	47
-19	-424	53
-202	-183	54
-418	19	60
-539	118	59
-459	108	71
-174	51	87
239	26	52
614	82	24
822	198	-12
806	310	-18
611	340	-5
325	261	12
36	113	38
-226	-25	20
-443	-78	-28
-617	-35	-50
-699	51	-53
-632	100	-62
-402	57	-49
-69	-67	-30
252	-208	-4
419	-273	-4
383	-222	-27
195	-64	-56
-2	123	-72
-83	262	-66
-5	316	-52
156	279	-29
261	204	-32
216	130	-23
32	82	-6
-183	47	-14
-289	10	-17
-199	-40	-23
68	-100	-31
388	-148	-26
633	-173	-16
699	-175	-16
579	-159	-20
326	-133	-36
27	-89	-59
-253	-20	-80
-450	74	-68
-529	168	-23
-470	221	85
-288	201	239
-39	100	260
188	-40	155
310	-165	41
274	-218	-119
102	-189	-295
-119	-108	-327
-292	-40	-134
-352	-33	-13
-282	-89	-36
-139	-167	-55
6	-202	-125
103	-156	-194
122	-36	-193
85	103	-93
24	193	12
-12	195	72
5	121	74
80	29	13
188	-21	-26
258	-1	-16
214	61	1
9	99	24
-332	51	65
-699	-101	55
-927	-308	25
-895	-474	13
-581	-509	-12
-79	-368	-45
423	-89	-46
755	229	-51
837	461	-66
709	526	-60
476	397	-33
241	136	-4
40	-141	-20
-142	-326	-25
-333	-351	-14
-518	-222	4
-630	-6	94
-598	188	170
-402	274	150
-102	225	24
193	68	-98
392	-105	-192
466	-221	-267
446	-223	-190
381	-120	-54
288	32	5
150	171	0
-45	250	-6
-263	257	-20
-416	213	-15
-400	149	8
-183	80	5
147	11	16
435	-57	8
523	-123	-4
366	-159	-32
59	-143	-32
-221	-65	7
-325	57	86
-217	182	142
21	260	106
242	260	40
333	183	-49
276	62	-149
136	-52	-217
-2	-128	-153
-87	-151	-21
-129	-127	65
-169	-92	74
-229	-66	43
-281	-69	-19
-279	-95	-113
-173	-124	-148
25	-135	-141
261	-106	-96
431	-34	-86
456	63	-39
312	157	8
36	211	3
-279	214	51
-523	158	62
-626	68	21
-551	-29	-3
-341	-111	-1
-79	-166	-45
133	-189	-70
223	-179	-11
167	-135	20
9	-56	-49
-157	39	-154
-245	121	-168
-193	145	-101
-12	77	-25
232	-71	26
430	-257	87
498	-401	127
401	-435	108
159	-338	64
-129	-140	16
-358	80	-9
-458	247	-43
-403	313	-34
-242	279	12
-56	188	-13
100	89	-92
203	14	-185
273	-32	-209
332	-61	-197
366	-89	-88
332	-109	112
183	-107	189
-80	-67	126
-363	8	23
-540	97	-46
-494	161	-92
-223	169	0
161	121	106
451	35	53
498	-43	-23
279	-86	-101
-89	-82	-225
-402	-46	-303
-494	-7	-218
-336	19	-114
-35	32	-32
253	48	14
394	88	42
373	145	56
274	198	16
203	211	11
222	171	64
302	88	186
373	-8	260
343	-76	217
179	-98	76
-95	-87	-130
-406	-77	-296
-675	-93	-341
-814	-142	-263
-794	-198	-117
-610	-223	2
-299	-191	48
34	-105	45
284	4	32
378	101	29
300	159	26
121	171	16
-36	156	9
-84	119	19
-4	72	30
136	18	20
244	-38	16
248	-84	24
163	-100	29
60	-72	32
12	-13	27
36	59	60
89	110	130
102	122	155
45	93	123
-49	36	-7
-113	-26	-170
-103	-79	-302
-40	-107	-414
-1	-104	-398
-59	-63	-219
-215	-1	2
-387	50	94
-442	45	90
-310	-56	36
-30	-244	-10
265	-445	-19
429	-548	-72
391	-460	-92
208	-186	-82
18	188	-42
-63	495	-34
-14	604	-32
91	473	-11
141	195	22
81	-69	46
-42	-196	34
-125	-160	41
-93	-49	49
32	14	95
128	-35	116
75	-158	94
-156	-241	53
-459	-187	15
-644	7	-1
-574	244	-31
-250	385	-48
188	345	-53
527	170	-63
628	-28	-158
505	-124	-226
279	-75	-141
89	49	-27
7	130	35
-14	83	25
-58	-74	1
-166	-242	-40
-287	-305	-100
-318	-217	-137
-195	-34	-116
33	136	-36
236	208	62
275	171	125
127	91	144
-104	45	121
-236	67	10
-162	115	-122
85	116	-151
337	28	-103
399	-119	-49
202	-238	-21
-157	-249	-32
-458	-133	-32
-533	40	-48
-336	169	-129
2	187	-184
273	96	-160
343	-25	-100
219	-95	-7
29	-75	45
-94	-2	45
-87	54	29
-1	38	52
50	-49	68
12	-155	46
-83	-223	49
-126	-225	29
-35	-194	3
179	-174	-7
423	-188	-8
558	-212	-12
501	-192	-6
280	-103	9
-1	43	20
-261	179	40
-437	235	37
-554	185	10
-626	74	-25
-644	-11	-89
-569	-1	-126
-371	105	-121
-78	247	-90
195	329	-29
342	294	-2
300	150	19
129	-23	20
-36	-142	13
-64	-153	16
84	-83	32
324	7	47
524	48	30
560	17	24
421	-51	-32
176	-102	-105
-57	-84	-128
-221	-3	-94
-303	89	-62
-347	135	-54
-378	99	-39
-383	-2	-35
-332	-112	-16
-210	-163	-7
-53	-127	15
67	-26	44
98	79	37
34	120	13
-61	70	-24
-108	-52	-92
-61	-176	-120
58	-237	-74
183	-196	-30
258	-66	-18
262	88	-49
234	207	-24
224	250	56
253	224	87
302	163	90
320	117	52
268	100	-62
144	88	-248
-20	43	-262
-185	-60	-83
-332	-211	53
-448	-354	79
-518	-419	1
-508	-359	-116
-360	-192	-226
-53	25	-132
354	208	37
732	295	79
918	279	45
800	205	-20
386	137	-95
-170	110	-120
-665	125	5
-896	131	149
-829	86	245
-551	-24	172
-241	-167	20
-45	-281	-112
-7	-316	-292
-54	-263	-372
-54	-171	-289
72	-98	-110
302	-88	-2
522	-129	76
583	-165	127
422	-137	138
80	-29	152
-278	116	116
-503	215	67
-496	193	-13
-288	40	-81
-10	-169	-96
193	-318	-46
245	-312	24
164	-136	97
44	129	129
-10	357	85
31	435	17
122	343	-68
167	142	-154
99	-45	-198
-70	-126	-125
-259	-76	-47
-347	53	-30
-276	169	-42
-78	203	-61
135	136	-59
248	20	-37
198	-87	35
20	-139	66
-174	-138	87
-281	-117	110
-269	-101	72
-169	-94	-10
-54	-66	-90
17	9	-154
54	131	-215
98	257	-187
189	316	-75
312	255	8
407	82	21
409	-136	45
292	-298	55
97	-321	26
-88	-196	12
-183	4	9
-161	174	44
-54	228	91
74	144	104
158	-19	63
175	-158	28
125	-195	-15
27	-115	-94
-99	35	-69
-223	163	56
-312	205	65
-329	143	-84
-253	26	-215
-102	-86	-302
74	-140	-359
209	-129	-282
269	-81	-105
262	-30	-4
219	-1	81
164	8	225
86	13	260
-39	21	205
-225	29	84
-419	18	-124
-537	-19	-291
-496	-84	-280
-290	-153	-160
-15	-201	-118
198	-216	-108
253	-200	-63
161	-168	-18
31	-126	16
-7	-80	7
89	-22	-18
242	55	7
325	142	71
245	227	164
31	282	264
-185	287	294
-267	238	199
-178	134	14
-8	0	-168
105	-140	-331
80	-246	-424
-41	-289	-284
-131	-262	-64
-92	-179	74
59	-89	187
172	-42	196
107	-71	107
-168	-163	12
-511	-259	-84
-700	-282	-161
-581	-196	-117
-188	-17	16
262	185	65
535	325	38
496	356	-3
238	296	-40
-29	215	-62
-112	184	-43
30	228	-1
268	305	25
422	341	60
380	279	76
172	125	102
-57	-57	106
-191	-187	20
-202	-215	-78
-152	-154	-144
-124	-66	-169
-144	-14	-142
-163	-21	-106
-106	-53	-78
41	-53	-33
215	10	14
314	121	94
288	215	130
178	233	60
87	139	-15
102	-19	-108
198	-170	-194
260	-249	-201
156	-233	-82
-152	-155	33
-535	-70	68
-787	-23	64
-726	-8	34
-350	11	31
186	76	3
608	189	-55
740	308	-96
558	362	-65
218	296	-61
-49	113	-138
-120	-126	-168
-29	-336	-105
58	-435	-23
-10	-401	57
-260	-263	78
-576	-103	28
-756	5	4
-676	21	-47
-375	-57	-59
-25	-186	20
192	-308	112
188	-376	91
39	-371	-13
-87	-297	-122
-62	-185	-248
107	-63	-205
291	40	-48
335	116	11
186	165	39
-59	193	30
-204	203	8
-111	202	5
202	187	-32
541	171	-67
681	156	-76
478	153	-69
5	160	-12
-487	162	45
-727	149	80
-574	105	84
-110	36	45
432	-42	21
762	-106	13
740	-133	19
411	-122	59
-43	-81	170
-431	-24	174
-632	25	34
-676	58	-92
-645	72	-249
-605	61	-320
-554	28	-148
-434	-18	86
-206	-59	155
97	-65	53
373	-22	-121
506	71	-271
445	181	-345
252	253	-290
62	247	-111
-6	153	24
72	15	39
221	-107	14
310	-157	-12
263	-130	1
105	-71	31
-63	-45	46
-123	-92	57
-35	-190	69
139	-274	86
277	-264	119
288	-137	122
162	70	70
-8	261	20
-107	342	-8
-68	279	14
77	122	38
216	-23	9
248	-63	-14
119	29	-35
-120	197	-139
-354	323	-239
-473	300	-198
-425	96	-78
-243	-228	-18
-6	-540	-32
181	-705	-39
258	-644	-31
207	-379	-31
60	-18	6
-121	295	68
-260	435	65
-289	365	44
-172	135	-6
84	-133	-143
383	-330	-243
599	-376	-162
596	-286	-30
310	-127	13
-202	25	-3
-756	126	-14
-1135	183	-2
-1168	224	15
-856	264	19
-315	282	3
219	227	-31
554	74	-40
608	-147	-30
462	-338	-21
283	-400	4
209	-285	16
254	-39	5
317	208	-20
261	331	-30
41	271	-7
-268	84	61
-470	-113	121
-413	-201	158
-84	-148	161
358	-11	78
671	103	-36
660	116	-150
310	29	-250
-195	-87	-254
-617	-141	-136
-750	-96	-32
-577	18	-15
-237	128	-74
68	171	-97
211	137	-71
183	69	5
79	23	150
17	22	205
41	41	174
119	38	111
175	-19	-31
167	-107	-232
113	-175	-287
71	-163	-211
85	-59	-108
143	97	23
181	233	84
141	285	54
9	241	-34
-153	132	-134
-267	20	-177
-273	-53	-126
-184	-78	-59
-65	-76	-66
6	-85	-71
1	-119	-34
-52	-176	-13
-98	-226	12
-91	-236	48
-27	-196	87
57	-115	81
125	-14	37
167	77	4
209	138	-16
280	165	-16
385	168	-24
476	158	-17
482	150	46
342	130	151
42	83	196
-337	-22	185
-698	-188	119
-904	-384	-37
-887	-549	-210
-639	-604	-275
-253	-510	-202
161	-276	-88
462	19	17
591	269	21
535	403	-54
365	400	-111
175	324	-160
41	256	-111
-23	254	22
-47	308	94
-87	341	99
-177	278	91
-307	92	38
-426	-159	-44
-478	-371	-129
-422	-439	-170
-280	-344	-117
-97	-153	-55
61	23	12
159	94	47
197	50	14
205	-32	-31
221	-57	-45
253	24	-40
290	174	-4
291	295	85
229	279	109
102	118	72
-51	-120	-8
-167	-301	-155
-195	-326	-268
-128	-189	-204
-14	22	-8
75	170	141
69	171	185
-41	40	141
-197	-109	55
-308	-151	-44
-288	-24	-174
-126	221	-261
121	438	-230
340	492	-121
438	316	-28
373	-21	-17
189	-368	1
-36	-566	57
-211	-534	123
-290	-315	124
-263	-32	80
-168	178	47
-34	244	-32
113	182	-99
260	72	-102
388	3	-72
466	8	-106
454	68	-126
321	127	-14
76	140	85
-232	103	152
-509	43	260
-664	0	287
-644	-15	161
-459	-14	-35
-192	-34	-230
42	-100	-446
159	-202	-515
135	-311	-309
31	-372	-106
-59	-359	-19
-41	-275	46
107	-155	91
330	-46	72
526	14	13
598	14	-5
506	-31	5
269	-85	32
-26	-109	81
-308	-83	115
-504	-17	96
-602	65	32
-602	121	-93
-526	131	-167
-402	99	-116
-259	55	-81
-121	41	-80
-7	81	-67
81	161	-21
161	233	9
249	252	19
346	192	21
421	82	6
418	-23	17
301	-65	16
78	-31	12
-186	38	15
-389	81	23
-458	45	35
-366	-62	26
-169	-181	14
36	-229	1
172	-153	8
207	26	30
175	241	61
135	398	83
133	449	39
178	396	-40
229	294	-84
251	203	-136
223	153	-186
162	122	-135
105	68	-57
80	-36	-107
82	-190	-190
72	-355	-141
14	-476	-43
-117	-519	15
-296	-478	44
-459	-376	71
-537	-243	51
-463	-103	0
-247	24	-51
65	126	-111
366	185	-107
558	191	-68
578	139	-52
423	63	-54
150	-6	-34
-140	-40	4
-361	-35	43
-456	-25	96
-415	-50	139
-268	-131	160
-69	-240	149
137	-312	82
301	-287	-66
398	-144	-193
407	75	-235
335	278	-192
200	379	-84
35	341	21
-134	199	105
-288	32	85
-428	-78	15
-550	-108	-71
-637	-80	-174
-652	-52	-215
-561	-65	-140
-353	-112	-41
-78	-145	-4
194	-113	31
363	-4	40
387	149	35
280	275	36
118	320	41
-10	268	38
-50	161	-11
4	58	20
110	6	91
221	16	53
299	56	45
333	77	86
328	48	8
280	-37	-129
182	-153	-129
39	-260	-93
-129	-322	-129
-260	-314	-115
-305	-236	-176
-236	-99	-268
-80	57	-184
105	193	-14
241	265	56
288	252	49
250	168	41
162	48	7
71	-55	-16
7	-116	-16
-23	-131	15
-16	-128	47
26	-135	46
94	-155	63
162	-164	92
175	-119	96
82	0	52
-142	171	16
-436	338	-21
-696	418	-38
-775	365	-47
-617	193	-78
-257	-24	-85
162	-194	-78
472	-242	-57
558	-163	-45
429	-12	-42
191	120	-22
-20	155	-18
-114	68	-26
-95	-108	-24
-31	-294	-12
-10	-420	6
-66	-444	-9
-182	-378	-8
-304	-264	4
-379	-160	14
-383	-95	16
-321	-71	-22
-212	-69	-52
-76	-53	-74
63	-1	-66
188	84	-52
269	180	-68
302	252	-71
299	272	-54
280	233	3
269	150	77
260	63	127
225	11	152
137	23	120
7	97	32
-118	199	-53
-164	282	-122
-93	305	-192
66	265	-208
234	174	-166
300	80	-126
216	6	-106
14	-38	-62
-212	-70	-3
-366	-116	10
-383	-178	-18
-280	-241	-7
-132	-268	21
-12	-233	21
38	-138	31
26	-19	41
-10	79	31
-27	123	29
4	111	33
85	72	-36
206	40	-118
332	31	-116
411	41	-137
397	48	-137
257	40	44
3	21	151
-291	16	79
-524	40	-20
-599	92	-134
-489	131	-194
-253	114	-107
-4	15	91
159	-150	162
192	-314	108
137	-407	68
82	-373	-32
93	-226	-179
180	-25	-222
269	138	-138
285	197	-50
174	135	-45
-40	0	-12
-269	-128	30
-411	-184	31
-393	-145	-2
-223	-45	-19
61	51	-2
346	90	-32
532	55	-19
525	-16	-2
285	-64	11
-148	-44	12
-639	44	16
-1017	150	52
-1095	200	46
-832	147	-13
-300	2	-66
276	-166	-80
665	-270	-63
705	-249	-23
430	-112	19
33	62	32
-263	170	-3
-315	132	-4
-137	-44	-4
130	-286	-13
327	-469	14
373	-492	52
306	-330	82
214	-26	33
175	301	-64
200	544	-140
234	625	-159
214	540	-176
124	345	-166
0	120	-77
-116	-61	-5
-186	-160	10
-217	-167	5
-223	-113	28
-206	-33	16
-152	37	14
-50	85	24
87	109	13
208	120	15
258	134	-11
215	153	-18
111	162	-14
11	136	-16
-28	63	13
-8	-51	23
23	-174	3
7	-257	-9
-71	-265	-25
-162	-200	-60
-187	-94	-89
-91	1	-91
116	41	-88
344	21	-104
493	-23	-95
496	-41	-40
373	6	9
172	106	102
-18	215	204
-186	268	247
-339	224	204
-515	98	74
-702	-50	-106
-842	-134	-269
-856	-108	-291
-676	19	-261
-325	174	-180
66	252	-108
366	177	-81
455	-60	-23
338	-384	-13
110	-673	-10
-65	-798	-7
-81	-706	1
71	-419	-32
285	-46	-53
407	277	-31
331	437	30
69	390	194
-227	185	330
-385	-77	307
-287	-279	179
34	-338	-16
396	-249	-322
581	-64	-515
459	120	-438
70	223	-261
-392	208	-168
-675	103	-122
-626	-20	-11
-287	-86	70
141	-48	150
425	79	222
416	233	250
150	338	211
-194	331	108
-419	209	9
-407	13	-125
-189	-177	-260
104	-296	-263
325	-305	-143
404	-218	-45
342	-81	22
201	51	53
33	138	77
-121	174	46
-241	171	-9
-291	162	-51
-239	164	-76
-75	174	-50
152	174	-40
332	145	-28
365	81	-18
216	-9	-3
-38	-96	9
-262	-144	34
-329	-143	63
-206	-97	81
14	-30	74
195	27	51
232	51	54
131	39	63
-7	11	105
-67	-9	116
-4	3	66
136	51	1
249	119	-92
253	174	-230
151	174	-268
16	103	-171
-65	-36	-109
-61	-200	-125
-14	-332	-168
6	-376	-194
-43	-312	-151
-133	-165	-60
-181	12	-4
-126	150	16
27	209	11
190	186	38
259	114	69
182	32	55
-6	-36	32
-198	-94	16
-298	-154	36
-281	-215	35
-212	-263	5
-193	-251	-8
-275	-159	4
-426	0	32
-529	162	87
-470	241	155
-212	189	150
164	21	53
508	-170	-72
678	-270	-207
600	-204	-309
342	13	-259
48	274	-65
-156	429	95
-191	372	127
-100	100	64
20	-279	-51
66	-602	-188
-5	-715	-238
-160	-590	-124
-313	-282	45
-372	61	116
-291	299	62
-95	364	-8
152	282	-53
357	152	-8
455	65	111
423	76	183
288	162	164
103	256	85
-53	301	-77
-133	269	-295
-113	188	-402
-20	98	-376
77	35	-232
107	2	-74
24	-31	52
-149	-88	152
-329	-169	114
-405	-238	54
-300	-249	-21
-34	-168	-106
277	-7	-117
501	180	-92
526	324	-23
352	370	2
85	309	-7
-149	174	-3
-267	27	20
-273	-93	74
-244	-166	100
-243	-196	99
-276	-206	74
-287	-206	40
-210	-198	23
-38	-168	24
163	-108	3
294	-26	-43
295	64	-58
198	142	-51
109	198	-64
130	241	-70
287	273	-26
503	301	16
648	305	-7
614	261	-45
373	139	-17
3	-55	13
-393	-296	-16
-718	-513	-29
-904	-646	-21
-934	-648	-40
-797	-525	-56
-513	-311	-46
-132	-80	-36
273	100	-54
583	177	-11
716	147	59
656	38	99
462	-84	137
226	-159	96
28	-144	-8
-115	-44	-56
-225	96	-66
-330	213	-95
-412	252	-131
-411	201	-102
-277	91	-58
-23	-8	-161
272	-40	-323
481	14	-365
523	122	-265
407	215	-116
222	241	40
60	180	150
-35	64	237
-111	-51	238
-243	-128	137
-473	-160	48
-735	-166	-45
-900	-175	-135
-856	-196	-135
-581	-208	-17
-174	-185	41
183	-117	48
355	-22	37
314	59	34
155	101	77
27	101	65
38	97	4
184	124	-84
373	191	-174
484	272	-282
454	316	-252
301	286	-65
111	183	61
-34	62	72
-97	-23	59
-97	-43	58
-75	-11	38
-57	24	42
-42	20	32
-6	-36	46
67	-108	86
169	-142	104
262	-110	93
313	-22	52
302	70	-25
242	115	-102
163	86	-134
99	13	-150
63	-56	-140
53	-78	-89
41	-44	13
-8	2	46
-121	14	17
-299	-48	-32
-491	-175	-85
-631	-316	-86
-632	-410	-66
-459	-406	-60
-168	-303	-70
140	-130	-53
332	54	-50
328	201	-37
150	273	-6
-76	265	19
-208	197	67
-151	104	151
68	24	171
311	-15	71
406	-7	-80
245	19	-217
-127	27	-282
-574	-13	-235
-869	-107	-3
-861	-210	225
-539	-263	217
-29	-214	78
462	-65	-92
732	121	-279
715	253	-337
478	254	-175
184	113	74
1	-108	194
-8	-301	93
99	-372	-77
194	-292	-196
161	-111	-282
-18	76	-259
-253	182	-83
-397	183	70
-360	115	103
-151	52	70
111	52	37
297	122	24
322	217	5
228	279	22
115	269	41
81	190	63
139	83	95
212	-4	125
201	-39	150
48	-27	110
-195	2	52
-407	11	-28
-470	-21	-106
-347	-91	-128
-108	-181	-97
125	-256	-13
239	-287	-3
211	-257	-34
92	-164	-76
-34	-35	-74
-113	93	11
-141	174	42
-149	185	5
-166	123	-94
-184	27	-161
-173	-51	-211
-110	-78	-218
-14	-35	-109
65	45	4
85	122	71
36	154	149
-30	139	249
-45	106	241
29	94	141
172	138	6
306	229	-166
357	326	-302
284	365	-294
122	299	-149
-52	116	-37
-180	-145	-5
-229	-413	-13
-225	-615	-22
-199	-687	-19
-172	-628	-15
-126	-470	-5
-47	-273	14
63	-101	-1
167	13	-30
212	65	-60
172	83	-66
75	93	-13
-23	113	47
-52	135	55
0	143	12
96	127	-32
161	93	-90
140	66	-147
30	65	-95
-124	88	14
-250	104	78
-300	74	91
-262	-18	135
-163	-149	152
-37	-248	94
84	-249	78
175	-118	33
216	110	-105
191	341	-209
83	471	-140
-85	434	-75
-253	248	-89
-354	0	-51
-344	-198	-52
-232	-263	-131
-77	-188	-190
37	-36	-192
71	91	-152
40	117	-41
4	19	34
22	-156	76
106	-322	101
216	-406	76
297	-362	80
318	-217	77
292	-30	56
271	121	57
275	191	57
269	179	22
179	121	-96
-41	79	-173
-373	83	-144
-676	132	-56
-798	182	24
-645	178	45
-251	93	27
225	-50	-22
554	-186	-49
626	-243	-66
451	-183	-77
172	-31	-53
-32	135	-38
-65	237	-21
36	230	10
151	133	26
175	16	24
75	-51	37
-77	-42	60
-174	13	42
-155	53	-16
-44	31	-76
66	-54	-95
104	-157	-71
49	-203	-24
-42	-161	48
-95	-43	80
-69	91	46
0	183	-22
42	209	-104
13	186	-185
-84	157	-199
-184	147	-124
-223	133	-38
-182	74	-12
-107	-72	11
-68	-288	42
-104	-501	36
-183	-611	12
-230	-553	0
-172	-348	1
-6	-86	-12
208	113	-24
373	171	-21
438	102	2
394	-8	24
280	-51	51
148	31	56
-2	211	10
-174	397	-51
-361	485	-113
-509	430	-170
-526	261	-184
-352	65	-115
-35	-77	-17
289	-130	10
439	-129	-35
314	-130	-62
-45	-179	-41
-436	-273	-27
-635	-363	-3
-496	-393	12
-69	-322	3
425	-177	8
736	-5	43
707	130	77
365	193	87
-109	191	102
-459	159	24
-545	132	-27
-345	126	-55
-2	129	-160
294	113	-218
394	58	-168
265	-31	-74
-4	-123	7
-277	-174	134
-412	-153	182
-353	-58	106
-130	72	41
154	188	-38
387	236	-206
472	200	-267
389	106	-179
182	2	-128
-67	-57	-79
-263	-53	-24
-344	-6	34
-291	41	59
-143	45	36
38	-2	36
175	-76	47
229	-123	70
186	-109	57
89	-31	-2
-8	77	-69
-39	157	-83
26	174	-40
170	132	17
340	70	41
446	37	21
422	53	-3
238	108	-51
-57	147	-78
-386	125	-56
-614	25	-16
-669	-122	11
-535	-259	3
-269	-326	-16
16	-301	-34
216	-195	-28
290	-59	-14
255	55	13
186	120	48
149	127	31
163	84	-2
191	4	-34
166	-101	-58
52	-216	-71
-117	-320	-108
-267	-378	-100
-307	-362	-56
-208	-260	-13
-27	-90	22
128	93	7
159	229	-47
42	272	-89
-158	213	-90
-325	86	-105
-378	-54	-109
-308	-154	-84
-190	-182	-40
-115	-131	10
-129	-27	16
-194	111	15
-217	255	13
-130	372	12
59	428	26
266	390	54
383	244	93
350	15	91
211	-230	51
77	-401	2
41	-425	-55
120	-283	-101
234	-41	-75
266	195	-36
160	316	-59
-44	273	-104
-218	106	-86
-245	-84	-5
-99	-182	99
131	-142	155
292	1	129
276	154	38
85	210	-113
-161	137	-275
-321	-30	-315
-304	-192	-169
-137	-263	9
71	-206	116
216	-56	130
262	99	100
262	193	31
290	190	-77
380	123	-162
470	42	-192
450	-7	-120
223	-22	-40
-191	-28	-1
-654	-56	9
-997	-122	-39
-1060	-196	-70
-844	-243	-43
-480	-224	40
-130	-134	164
70	-11	297
111	101	325
94	161	224
151	168	68
352	152	-128
644	157	-352
883	205	-414
902	283	-252
639	351	-32
140	350	162
-400	248	246
-805	56	194
-921	-169	39
-757	-362	-147
-424	-481	-327
-94	-500	-460
106	-453	-348
134	-372	-131
56	-286	15
-15	-199	40
14	-100	3
153	15	-5
339	133	-14
470	227	26
476	261	45
355	227	38
181	135	17
39	27	-15
-16	-66	-19
-8	-121	-7
-11	-145	41
-95	-151	66
-273	-152	66
-472	-144	70
-584	-120	76
-526	-69	69
-287	2	47
49	76	22
360	132	-18
563	165	-75
608	174	-116
527	178	-114
354	180	-102
132	177	-43
-122	155	68
-371	103	127
-565	25	108
-626	-54	45
-509	-101	-56
-261	-94	-159
16	-35	-183
190	50	-130
178	131	-71
22	186	-67
-142	207	-59
-173	208	-18
-10	194	56
278	168	120
532	117	77
600	33	-3
446	-71	-96
151	-177	-197
-141	-244	-215
-306	-253	-98
-328	-208	45
-271	-135	120
-224	-70	155
-214	-38	130
-202	-37	48
-114	-45	-54
74	-47	-74
319	-31	-77
518	-15	-48
580	-12	60
494	-32	107
301	-64	0
82	-76	-137
-104	-54	-226
-258	-7	-307
-386	24	-276
-496	-1	-133
-547	-105	7
-503	-262	87
-350	-395	130
-134	-437	117
68	-337	99
184	-119	75
207	132	-20
180	325	-123
158	395	-181
166	345	-171
183	247	-112
166	166	-53
105	145	0
26	162	44
-19	160	86
-17	80	168
-13	-76	207
-77	-249	168
-251	-353	104
-477	-325	26
-635	-167	-86
-589	55	-151
-316	249	-109
91	345	-55
444	338	-63
596	261	-31
506	173	26
273	102	-5
68	43	-47
-1	-21	-95
59	-105	-193
154	-190	-296
172	-240	-254
82	-228	-109
-62	-160	1
-156	-75	29
-139	-23	22
-44	-18	34
45	-44	21
54	-52	18
-12	-8	31
-95	81	61
-103	171	68
-14	205	67
117	161	85
195	61	100
154	-33	151
12	-72	164
-150	-49	96
-226	-2	8
-174	8	-104
-39	-47	-221
94	-145	-241
151	-211	-179
115	-174	-80
32	-13	-22
-22	225	-17
2	437	-17
111	525	-28
279	445	-14
451	228	20
578	-44	26
619	-278	2
530	-408	-43
296	-426	-86
-63	-362	-80
-480	-270	-65
-853	-198	-64
-1073	-176	-86
-1095	-214	-125
-938	-289	-117
-667	-362	-18
-370	-383	68
-106	-304	70
102	-117	8
262	132	-41
393	366	-13
470	503	52
484	497	225
415	379	359
269	214	319
93	104	176
-69	92	-23
-181	161	-301
-222	240	-486
-191	241	-376
-101	131	-207
32	-62	-115
182	-254	-44
302	-353	-44
360	-316	-75
311	-164	-95
164	22	-162
-23	157	-172
-183	187	-81
-245	118	24
-191	2	74
-63	-97	48
72	-136	37
153	-120	40
147	-78	61
66	-49	66
-41	-49	56
-134	-68	54
-178	-78	34
-169	-49	21
-109	15	-10
-22	95	-8
70	154	-5
144	168	-3
184	134	9
183	74	3
154	15	0
110	-19	-2
69	-24	11
25	-13	21
-29	0	10
-105	7	-11
-184	10	-32
-226	23	-48
-191	51	-51
-68	92	-59
102	128	-58
241	142	-36
280	135	4
203	111	61
53	96	74
-91	95	41
-159	109	-27
-149	106	-90
-104	53	-119
-88	-68	-139
-119	-248	-131
-156	-427	-89
-125	-549	-44
12	-557	-23
219	-449	-24
373	-272	-30
352	-97	-39
102	18	-23
-300	56	-8
-689	45	-21
-869	36	-19
-757	57	-19
-405	95	-22
37	106	-11
373	49	-7
498	-72	-16
410	-208	-15
206	-268	-15
-10	-196	-25
-155	-3	-48
-221	227	-53
-226	372	-30
-184	352	8
-97	169	61
42	-80	87
216	-257	85
366	-262	51
420	-84	48
337	187	75
148	415	94
-64	492	122
-197	395	105
-203	195	-26
-102	0	-223
30	-105	-327
107	-106	-344
98	-49	-324
36	-5	-312
-12	-12	-185
6	-49	-15
84	-63	102
176	-6	184
222	116	144
191	241	42
102	279	-103
4	188	-211
-63	-17	-261
-93	-248	-211
-104	-393	-161
-134	-394	-70
-190	-264	48
-249	-86	83
-263	38	118
-195	48	141
-39	-43	177
175	-159	164
380	-216	106
525	-166	47
575	-21	-13
547	149	-36
466	272	45
363	308	138
252	262	129
127	182	31
-17	117	-54
-160	90	-85
-262	90	-112
-279	82	-111
-213	30	-106
-116	-71	-67
-91	-209	-33
-207	-338	-38
-455	-416	-43
-720	-413	-38
-850	-322	-35
-740	-175	-33
-410	-8	-27
-40	121	-32
187	177	-33
155	150	-35
-83	62	-18
-336	-35	5
-416	-94	26
-255	-82	29
44	-3	29
295	104	52
337	193	74
170	233	48
-61	215	-9
-182	168	-69
-97	106	-144
133	48	-160
366	-7	-133
458	-67	-89
388	-129	-39
249	-165	-20
165	-152	-8
196	-77	-3
299	32	6
366	120	5
314	136	13
140	53	15
-77	-90	11
-245	-224	-2
-306	-268	-42
-267	-191	-47
-163	-22	-27
-30	160	-4
118	261	22
260	239	14
346	110	-36
314	-44	-74
125	-141	-60
-177	-127	-48
-455	-14	-100
-572	131	-110
-446	227	-55
-126	219	-3
225	119	55
439	-19	97
456	-114	95
310	-118	30
119	-36	-48
-11	72	-119
-74	132	-176
-128	92	-168
-236	-50	-90
-383	-232	-3
-473	-368	39
-409	-393	41
-173	-304	39
145	-140	37
381	13	28
419	95	-16
266	88	-64
59	36	-98
-44	3	-112
40	42	-114
260	154	-88
439	290	-30
432	374	16
169	362	48
-255	253	76
-676	100	74
-909	-24	-24
-869	-80	-135
-598	-66	-167
-200	-38	-115
170	-49	24
397	-125	152
445	-248	183
336	-355	131
156	-403	3
5	-363	-157
-47	-265	-279
4	-162	-238
99	-91	-71
150	-66	78
93	-64	144
-55	-52	106
-205	-9	68
-247	57	2
-129	122	-43
89	158	28
280	156	119
312	137	87
139	123	-11
-144	134	-123
-387	168	-254
-443	203	-259
-285	224	-149
-5	224	-39
239	211	-16
333	192	-51
254	165	-42
81	118	-13
-72	35	4
-136	-74	7
-109	-187	-9
-46	-263	-4
5	-281	38
24	-237	71
35	-161	122
69	-93	175
129	-51	166
190	-29	87
210	3	-5
167	64	-88
68	150	-177
-53	222	-166
-155	228	-81
-206	152	-45
-191	15	-55
-113	-119	-37
15	-182	-2
159	-136	-2
278	-2	-58
328	153	-105
288	251	-78
176	236	-42
44	106	11
-57	-96	48
-102	-298	44
-111	-427	10
-125	-448	-39
-177	-351	-87
-242	-171	-150
-263	30	-171
-180	195	-140
25	275	-69
302	263	-7
536	178	16
626	66	30
520	-27	47
240	-74	53
-132	-77	34
-484	-62	-8
-748	-57	-48
-856	-79	-64
-812	-114	-54
-632	-143	-26
-375	-149	10
-115	-125	52
69	-96	96
132	-77	152
88	-75	155
-2	-77	76
-49	-54	-3
2	13	-51
139	122	-100
295	236	-123
385	305	-92
358	296	-105
234	201	-150
77	62	-83
-42	-58	41
-84	-104	119
-53	-57	76
18	58	-17
105	185	-139
198	267	-301
285	268	-345
346	194	-225
346	74	-65
248	-51	38
54	-153	55
-174	-227	9
-362	-279	-17
-436	-320	-20
-380	-346	24
-248	-343	87
-118	-301	151
-48	-222	167
-46	-124	100
-67	-32	9
-56	33	-99
15	74	-158
123	104	-89
225	142	19
272	200	51
253	264	40
183	310	3
98	305	-33
24	239	-28
-24	113	-19
-46	-39	5
-42	-174	-11
-14	-251	-42
41	-248	-49
105	-174	-65
158	-53	-70
172	72	-63
143	166	-45
86	210	-8
37	205	38
38	171	55
101	131	44
208	108	-8
285	103	-92
252	103	-154
47	95	-140
-320	65	-69
-753	19	-18
-1079	-36	-24
-1165	-92	-12
-934	-143	10
-459	-203	65
78	-275	141
462	-362	130
569	-432	84
429	-449	22
189	-376	-65
49	-200	-133
102	45	-76
299	301	19
476	485	56
478	543	-2
267	455	-154
-66	255	-282
-338	10	-314
-421	-213	-242
-298	-358	-99
-80	-416	38
91	-390	52
127	-316	46
46	-222	69
-47	-123	72
-65	-31	91
22	53	87
171	126	39
294	180	-27
331	205	-74
273	194	-102
162	154	-116
31	98	-92
-86	52	-15
-190	32	43
-273	40	40
-316	60	15
-296	67	8
-209	44	34
-87	-3	38
10	-44	18
34	-41	5
-16	30	-4
-89	150	-21
-111	269	-32
-39	323	-27
107	270	-31
249	134	-2
299	-25	26
212	-126	15
25	-120	26
-178	-24	52
-298	98	32
-291	161	-10
-174	119	-34
-4	-12	-113
142	-168	-190
228	-278	-166
248	-309	-147
226	-270	-230
184	-215	-260
137	-183	-108
82	-189	10
14	-202	43
-63	-190	45
-145	-131	21
-215	-43	26
-258	37	48
-259	79	111
-212	77	184
-126	57	176
-24	51	69
59	67	-70
95	86	-166
78	76	-164
35	17	-64
24	-61	81
85	-111	133
216	-76	49
360	54	-61
428	237	-156
357	390	-218
157	438	-193
-104	353	-100
-316	166	-15
-412	-53	61
-405	-241	72
-357	-356	21
-338	-408	-17
-350	-411	-54
-331	-373	-89
-206	-290	-101
46	-154	-62
341	23	-26
531	198	-7
496	308	3
234	309	5
-126	203	19
-387	43	8
-415	-93	4
-214	-153	-15
64	-120	-21
234	-37	3
188	41	39
-29	81	32
-260	77	-6
-347	60	-5
-224	55	-8
39	68	-16
300	79	-23
435	65	-4
422	24	8
325	-21	2
234	-34	-10
200	-2	-17
195	57	-8
155	97	-24
37	81	-32
-136	0	-44
-288	-111	-53
-357	-191	-50
-308	-196	-54
-187	-124	-57
-66	-20	-77
-4	64	-87
-1	90	-54
-15	66	0
2	34	65
67	32	127
154	79	134
214	144	74
214	189	-13
151	177	-125
63	109	-217
-10	18	-208
-42	-56	-120
-43	-87	5
-39	-83	90
-55	-71	83
-97	-82	26
-144	-119	-36
-173	-155	-112
-152	-159	-161
-83	-104	-125
31	-1	-57
166	110	-6
291	183	6
381	183	16
410	110	2
363	1	-32
234	-99	-45
46	-154	-38
-173	-157	32
-385	-126	131
-550	-97	141
-647	-88	26
-664	-104	-39
-589	-128	-55
-448	-144	-125
-239	-144	-122
-11	-129	-8
193	-114	21
325	-100	-90
357	-84	-176
308	-46	-186
231	19	-135
189	100	-52
214	171	29
284	207	70
322	191	81
239	130	66
-6	53	37
-351	-11	-40
-675	-45	-89
-809	-50	-48
-681	-41	-27
-319	-24	-32
123	-4	-11
473	23	30
589	60	49
466	96	87
211	116	104
-20	108	76
-118	78	11
-75	39	-60
36	12	-116
107	6	-153
88	6	-103
2	1	-14
-75	-24	44
-72	-53	12
12	-66	-26
130	-40	-22
200	26	-14
190	101	-12
111	149	-23
26	137	-15
-10	72	-27
11	-12	-28
52	-79	-19
74	-99	-30
66	-76	-46
58	-32	-55
86	9	-54
148	38	-54
189	61	-10
128	89	70
-70	116	121
-357	128	159
-581	108	163
-603	53	40
-352	-9	-114
82	-50	-235
495	-45	-309
671	-12	-214
527	8	-55
136	-29	46
-296	-141	82
-530	-286	28
-473	-401	-58
-185	-420	-120
148	-329	-149
350	-175	-126
344	-28	-59
192	57	-30
36	72	-14
-17	62	2
49	81	2
143	150	-10
147	241	-41
-3	292	-40
-274	252	-2
-537	125	10
-669	-31	10
-598	-140	32
-355	-160	26
-52	-114	12
184	-66	20
277	-83	7
216	-171	-12
62	-272	0
-88	-301	24
-161	-200	33
-130	11	30
-29	247	40
78	397	36
121	393	5
74	250	-25
-34	50	-69
-141	-108	-110
-180	-167	-98
-118	-130	-65
20	-52	-43
170	16	-18
275	43	-19
301	47	1
270	55	-10
222	84	-19
183	123	-30
151	143	-92
107	121	-158
31	55	-192
-64	-32	-98
-139	-109	28
-153	-156	160
-100	-167	228
-20	-153	208
26	-120	135
-1	-66	0
-88	5	-179
-172	91	-340
-182	166	-278
-97	205	-127
51	190	-3
184	130	84
244	52	89
211	-8	43
132	-33	-36
72	-32	-92
70	-26	-104
110	-40	-56
139	-70	-7
111	-99	38
18	-101	38
-101	-59	-16
-191	17	-76
-217	102	-101
-187	165	-86
-142	189	-42
-117	170	15
-115	115	32
-108	32	68
-64	-78	47
22	-200	16
119	-320	34
175	-407	17
157	-435	-21
69	-402	-55
-37	-319	-67
-101	-215	-62
-85	-111	-27
9	-14	9
136	80	31
244	177	45
283	264	48
236	310	32
115	283	2
-52	188	-45
-217	60	-97
-336	-32	-119
-366	-37	-119
-300	45	-84
-158	161	-52
4	221	-38
114	165	-41
120	-5	-52
10	-215	-24
-172	-359	18
-352	-368	52
-459	-232	86
-455	-34	94
-341	118	45
-159	150	-48
45	58	-133
229	-80	-192
380	-170	-208
494	-140	-117
569	2	-6
592	192	54
529	341	42
358	390	6
91	335	-4
-225	225	-58
-503	121	-76
-647	54	-54
-626	18	8
-453	-20	115
-214	-91	171
-14	-182	144
86	-259	107
87	-270	39
52	-192	-119
52	-53	-236
123	89	-213
237	170	-179
327	161	-167
340	80	-97
263	-20	-17
141	-85	7
25	-89	28
-43	-48	15
-68	-3	-24
-77	14	-21
-85	-4	1
-80	-27	19
-19	-19	16
124	41	32
328	145	40
523	244	36
598	292	28
478	248	13
165	112	14
-250	-84	14
-631	-281	12
-829	-426	-26
-783	-481	-80
-529	-437	-100
-173	-314	-46
121	-151	69
251	3	163
181	100	170
-15	125	57
-227	81	-98
-329	-1	-265
-272	-80	-337
-84	-118	-224
155	-106	-99
350	-58	-53
439	1	-39
434	41	-15
351	55	16
231	47	3
89	40	-28
-70	49	-32
-232	80	-7
-363	122	62
-417	157	111
-360	162	86
-204	131	32
-12	72	-42
143	4	-106
210	-46	-117
186	-52	-93
123	-11	-27
79	68	3
85	149	-6
122	189	18
141	164	22
101	72	-11
-6	-47	-32
-142	-152	2
-241	-200	7
-249	-185	1
-157	-127	23
0	-64	29
155	-22	11
241	7	-16
224	41	-43
116	109	-67
-28	202	-10
-141	281	79
-173	296	103
-119	206	67
-24	30	-32
42	-171	-204
34	-313	-297
-50	-341	-225
-159	-253	-137
-226	-107	-63
-204	8	26
-106	35	43
11	-38	12
86	-159	2
101	-251	-24
96	-248	-49
139	-133	-36
273	57	-10
475	256	42
636	401	70
645	457	44
428	428	-11
31	342	-62
-431	236	-71
-770	119	-52
-886	-8	-17
-751	-163	53
-470	-340	103
-175	-516	78
12	-634	32
64	-645	-19
32	-524	-97
8	-282	-130
65	5	-76
211	257	-12
384	403	3
493	410	-15
476	313	-13
340	168	-1
145	38	-12
-8	-38	-69
-54	-62	-153
14	-61	-173
136	-64	-111
226	-84	-8
195	-111	51
22	-127	46
-250	-120	12
-533	-86	-16
-720	-32	-25
-742	27	-1
-581	87	32
-302	135	64
10	174	85
236	193	56
318	174	-4
248	117	-81
92	28	-159
-67	-63	-217
-149	-130	-183
-132	-144	-89
-52	-115	-16
33	-53	-2
66	5	1
41	40	38
-5	56	74
-19	64	99
41	89	91
160	135	64
288	198	19
352	244	-17
319	250	-54
196	197	-82
38	99	-51
-89	-11	-19
-148	-95	-16
-142	-129	-51
-107	-112	-96
-75	-69	-127
-55	-40	-121
-33	-52	-70
21	-111	14
105	-196	104
194	-263	122
238	-279	78
205	-223	-1
106	-107	-85
-8	28	-157
-81	143	-99
-80	203	51
-22	199	113
29	138	74
21	43	-23
-48	-65	-130
-123	-170	-192
-111	-243	-113
42	-261	-19
322	-201	-9
592	-65	-21
697	112	-32
506	277	-22
25	359	49
-589	321	92
-1079	170	46
-1243	-33	7
-995	-215	-92
-450	-314	-218
133	-314	-242
493	-248	-134
484	-160	-21
169	-87	24
-246	-30	18
-491	27	-2
-442	99	-6
-133	174	-13
252	215	-21
506	198	-19
527	108	1
340	-15	13
94	-114	27
-68	-141	28
-69	-89	24
52	5	26
202	82	27
285	97	34
262	47	22
154	-32	-4
-2	-95	-19
-151	-112	-14
-269	-88	-4
-340	-47	7
-345	-13	32
-281	7	26
-158	29	8
-2	64	16
130	110	22
198	143	17
191	137	9
135	84	-2
75	6	-29
44	-50	-90
42	-49	-167
46	12	-193
25	95	-153
-26	145	-85
-84	126	-11
-111	43	18
-84	-56	-2
-7	-119	-25
83	-108	-66
151	-36	-104
176	55	-69
169	114	7
147	113	60
132	68	35
122	10	-42
97	-28	-102
33	-39	-140
-66	-34	-108
-185	-35	-44
-282	-50	-18
-325	-64	-9
-291	-60	12
-188	-19	47
-29	48	29
144	117	6
302	158	-14
401	152	-24
405	105	-14
302	37	4
121	-29	49
-91	-94	48
-259	-159	18
-345	-238	-34
-353	-334	-72
-329	-432	-58
-324	-503	-46
-354	-510	-21
-380	-439	-10
-329	-282	16
-159	-64	57
106	171	57
368	379	-3
518	505	-78
490	525	-114
321	437	-153
116	279	-147
-27	110	-102
-70	-20	-28
-68	-83	26
-103	-92	16
-210	-88	6
-342	-111	-1
-380	-171	16
-242	-241	53
50	-265	103
363	-210	85
518	-77	3
414	83	-65
105	201	-111
-214	228	-80
-352	166	-12
-210	71	14
119	9	-3
416	11	-51
478	66	-135
249	122	-167
-138	127	-117
-468	66	-42
-545	-26	5
-345	-94	12
-22	-92	43
216	-20	83
244	80	109
83	152	84
-115	161	3
-172	110	-70
-32	40	-150
209	-11	-201
378	-21	-170
342	0	-48
105	23	63
-201	28	80
-388	8	74
-362	-20	61
-162	-42	16
77	-48	-4
208	-41	-7
187	-29	0
77	-14	-13
-5	11	-47
17	54	-66
124	116	-75
228	183	-30
234	236	-8
123	249	-48
-50	213	-56
-188	127	-35
-248	-2	-19
-239	-168	-25
-227	-353	-23
-256	-531	5
-311	-660	16
-321	-697	-7
-208	-606	-40
33	-393	-69
318	-121	-94
526	132	-92
553	291	-81
398	319	-56
137	243	-15
-96	127	6
-219	43	26
-210	24	64
-118	49	91
-18	75	89
53	55	59
90	-11	-12
116	-93	-100
136	-139	-141
125	-120	-124
48	-45	-92
-106	48	-49
-305	112	3
-459	129	30
-489	106	29
-352	84	-20
-99	84	-63
175	110	-116
334	150	-189
322	166	-158
155	145	-45
-63	89	47
-210	23	68
-210	-32	52
-71	-66	60
107	-83	51
225	-92	34
203	-95	9
58	-92	-19
-113	-68	-41
-212	-24	-62
-175	32	-39
-30	88	5
144	123	97
252	140	192
251	139	176
164	131	96
54	116	5
-15	88	-128
-36	48	-284
-35	-1	-302
-51	-47	-172
-101	-78	-79
-156	-85	-38
-174	-80	-49
-118	-80	-61
-4	-86	-26
127	-89	9
223	-61	31
253	7	12
226	103	-8
170	179	-15
115	174	-25
74	67	-42
34	-118	-36
-5	-298	-11
-34	-390	32
-21	-344	120
53	-185	178
182	-4	147
302	106	32
330	93	-92
196	-19	-211
-119	-153	-311
-531	-221	-284
-916	-182	-109
-1115	-69	68
-1043	51	117
-700	109	128
-195	79	82
343	-14	3
736	-108	-21
902	-148	-44
819	-118	-45
549	-33	-23
197	66	-19
-120	150	1
-333	208	20
-392	240	-5
-310	250	-4
-134	233	20
60	183	-2
199	99	-62
234	2	-127
154	-77	-170
13	-106	-192
-118	-74	-140
-167	1	-29
-111	82	27
9	126	26
121	113	21
148	47	21
75	-40	-16
-55	-113	-42
-148	-143	-37
-125	-120	-11
13	-54	16
198	33	24
306	112	7
248	154	-17
28	144	-16
-243	76	-20
-425	-31	-11
-415	-144	2
-217	-224	14
46	-242	15
216	-196	6
208	-116	16
37	-39	13
-173	4	24
-272	4	50
-190	-13	76
31	-13	56
263	29	16
389	110	-46
346	199	-141
183	251	-182
2	233	-165
-107	147	-137
-112	15	-71
-49	-114	-36
25	-203	-35
65	-235	0
67	-201	-6
44	-118	-27
14	-5	-21
-25	115	3
-69	209	11
-111	244	-30
-123	200	-54
-86	72	-48
-15	-97	-22
40	-244	40
18	-304	55
-114	-244	8
-318	-82	-11
-502	112	-44
-565	255	-66
-456	287	-83
-209	206	-81
66	51	-26
259	-103	21
306	-195	14
232	-204	-34
115	-147	-52
48	-70	-54
67	-19	-54
155	-13	-59
252	-44	-40
310	-82	-28
314	-99	-27
283	-83	-7
236	-44	8
167	-11	24
65	-13	32
-89	-64	22
-268	-149	-8
-415	-223	-21
-451	-237	4
-342	-163	55
-112	-12	109
151	163	123
366	295	80
462	332	-9
446	269	-119
344	154	-215
200	48	-233
26	6	-149
-164	31	-26
-362	91	26
-511	134	16
-547	123	4
-435	66	-30
-203	-6	-49
58	-57	-61
234	-70	-52
258	-59	-30
150	-53	-25
-6	-71	-22
-110	-101	-43
-117	-113	-44
-53	-79	-28
15	7	-6
39	115	17
24	199	42
18	218	78
61	168	79
155	67	36
244	-41	-38
269	-122	-109
219	-165	-137
124	-171	-90
46	-160	19
19	-139	112
18	-115	107
-22	-84	38
-137	-43	-8
-308	-4	-64
-434	27	-127
-422	42	-137
-247	52	-78
18	70	-60
229	110	-92
270	177	-82
144	251	-71
-40	305	-79
-125	305	-96
-20	240	-66
237	109	-5
478	-53	0
528	-201	10
301	-296	19
-125	-313	32
-569	-269	21
-814	-202	9
-769	-159	10
-475	-174	5
-90	-240	11
223	-320	5
368	-355	10
363	-311	-4
292	-183	-8
239	-12	-3
245	139	11
291	225	11
321	219	-8
284	155	-4
167	72	-9
-17	10	-22
-235	-11	-53
-422	-2	-60
-533	22	-47
-520	49	-38
-383	84	-33
-162	127	-39
58	182	-30
201	230	-32
216	243	-25
130	208	-16
20	126	-18
-34	25	6
-7	-63	22
65	-117	8
105	-130	-30
64	-121	-43
-42	-98	-53
-130	-64	-61
-119	-8	-10
14	77	77
209	181	130
363	276	95
391	321	-15
291	287	-135
144	177	-223
37	24	-242
10	-119	-167
23	-208	-52
-8	-224	31
-133	-187	54
-333	-133	32
-503	-106	-8
-549	-120	-30
-443	-168	-37
-244	-211	-60
-62	-215	-52
16	-157	-16
2	-43	1
-25	87	1
25	191	-3
175	236	-13
363	213	-7
478	150	39
455	75	96
309	19	102
133	-11	49
27	-32	-28
22	-65	-114
63	-122	-196
50	-183	-200
-80	-227	-101
-303	-226	-35
-506	-183	-34
-571	-121	-46
-436	-72	-52
-145	-58	-52
175	-62	-11
397	-59	37
446	-19	78
331	62	119
120	152	81
-92	202	0
-248	180	-18
-325	95	-2
-339	-17	-21
-300	-97	12
-224	-114	60
-109	-70	14
27	-3	-77
172	51	-135
300	80	-140
391	87	-94
439	104	-62
466	131	-65
476	161	-44
467	157	-40
402	99	-41
238	3	-38
-54	-91	-30
-435	-130	-29
-804	-97	-29
-1015	-12	-34
-969	69	-27
-658	95	0
-197	52	13
237	-27	20
476	-83	11
462	-77	3
283	-4	-5
99	94	-2
49	161	-20
163	163	-37
338	103	-21
409	18	-11
260	-56	-8
-85	-102	-2
-474	-127	-1
-726	-153	-8
-702	-182	-16
-422	-207	-8
-30	-203	-4
300	-163	-28
439	-100	-54
398	-41	-52
254	-12	-20
138	-9	26
111	-10	95
170	18	130
244	82	110
259	161	49
199	214	-28
88	214	-113
-10	162	-173
-54	92	-134
-36	41	-32
8	35	16
30	50	-22
-1	56	-63
-93	23	-64
-208	-43	-75
-315	-110	-70
-366	-134	-60
-350	-102	-89
-270	-36	-116
-151	14	-110
-32	8	-76
52	-53	-60
85	-137	-70
65	-191	-70
19	-181	-38
-20	-115	-14
-20	-29	18
26	35	38
99	63	55
167	68	67
188	79	51
151	106	35
63	139	-6
-38	149	-44
-115	104	-76
-136	15	-62
-103	-88	-23
-45	-161	14
7	-182	48
22	-164	20
1	-135	-14
-38	-131	-28
-58	-150	-34
-34	-158	-23
37	-110	15
152	18	54
268	205	87
363	388	102
411	490	68
393	460	-9
302	299	-123
139	68	-201
-89	-151	-198
-346	-282	-117
-581	-289	-23
-726	-192	-4
-735	-48	-63
-588	65	-112
-333	95	-107
-48	30	-72
169	-95	5
269	-210	36
245	-256	38
149	-202	24
48	-70	3
3	77	5
32	177	-14
109	185	-6
198	113	2
257	3	11
279	-81	16
273	-102	15
254	-56	7
228	28	-12
184	110	-25
105	157	-38
-10	161	-40
-148	131	-32
-271	88	-12
-351	43	24
-366	10	78
-318	-16	126
-229	-37	150
-124	-61	126
-19	-90	41
83	-124	-97
186	-158	-246
279	-171	-327
337	-154	-307
321	-95	-210
199	-11	-91
-29	67	-19
-307	104	-18
-550	78	-13
-659	0	-25
-589	-96	-23
-360	-159	-7
-60	-165	-2
206	-115	13
351	-41	14
366	18	23
306	51	29
253	62	30
257	80	26
317	115	14
373	168	-2
358	204	-27
230	196	-70
8	135	-89
-239	35	-53
-431	-58	4
-502	-117	87
-439	-126	128
-270	-101	89
-47	-67	13
158	-46	-71
297	-38	-151
336	-32	-203
278	-16	-145
150	9	-35
0	29	45
-125	30	72
-190	11	107
-189	-16	115
-145	-19	39
-86	19	-12
-36	103	-87
-5	209	-150
21	301	-131
56	345	-85
113	318	-32
178	218	11
230	68	-15
244	-96	-82
201	-237	-86
106	-320	-51
-17	-330	-7
-140	-288	14
-234	-228	3
-278	-190	-17
-258	-190	-19
-180	-215	-14
-50	-223	-39
94	-172	-41
216	-50	-19
277	113	0
242	260	1
116	333	-39
-62	301	-43
-234	179	-17
-339	12	20
-353	-153	79
-294	-274	99
-206	-340	60
-139	-345	5
-121	-296	-45
-141	-200	-111
-167	-80	-154
-164	36	-138
-115	116	-79
-34	136	-21
58	106	1
135	58	2
184	32	-36
203	49	-53
193	105	-28
165	169	0
123	213	59
81	224	81
42	215	32
18	202	-24
5	190	-69
-3	160	-114
-3	90	-119
3	-22	-69
24	-151	-3
54	-243	29
80	-258	24
75	-187	26
28	-70	21
-47	31	29
-114	71	24
-120	50	28
-47	12	-6
86	7	-80
222	60	-142
296	147	-184
269	206	-128
159	185	-37
23	76	26
-85	-74	16
-129	-196	0
-118	-229	11
-84	-170	-12
-51	-61	-25
-27	31	-32
5	68	-30
57	57	-40
117	36	-40
160	51	1
156	120	54
104	215	91
23	291	106
-39	296	69
-59	215	-1
-35	72	-56
2	-93	-113
10	-242	-125
-36	-348	-85
-133	-409	-12
-241	-427	31
-321	-400	31
-338	-322	44
-274	-191	5
-142	-23	-31
28	143	-71
204	256	-145
342	262	-151
421	154	-149
405	-46	-121
288	-259	-68
87	-402	-48
-151	-410	-26
-351	-273	9
-434	-56	43
-360	143	53
-156	239	45
83	198	26
203	60	-20
109	-77	-57
-189	-122	-86
-545	-43	-93
-735	124	-64
-585	284	-15
-85	352	22
561	301	45
1048	178	82
1117	68	127
705	36	159
-4	89	97
-668	160	-13
-1004	171	-97
-900	82	-151
-496	-85	-135
-65	-238	-64
158	-297	-14
124	-226	-11
-34	-74	-21
-118	63	-27
-7	105	-60
253	33	-97
488	-93	-103
537	-186	-94
365	-176	-70
85	-68	-62
-123	68	-60
-132	149	-39
36	118	-17
245	0	-1
346	-131	4
259	-192	24
40	-147	68
-180	-18	129
-277	118	169
-214	189	172
-44	168	94
131	83	-42
231	0	-169
225	-30	-260
135	12	-248
12	91	-158
-111	153	-30
-201	151	45
-253	81	42
-250	-24	28
-198	-108	23
-112	-127	35
-18	-65	63
58	56	66
104	198	-12
124	309	-74
127	349	-106
118	299	-103
81	160	-90
10	-35	-98
-86	-244	-72
-165	-411	-31
-187	-490	5
-135	-460	22
-37	-339	42
42	-169	37
61	-15	30
15	71	15
-36	67	-18
-26	-13	-32
77	-119	-48
236	-196	-51
350	-205	-40
333	-134	-33
159	-16	-9
-100	98	17
-333	151	-18
-422	120	-43
-325	14	-62
-93	-117	-117
194	-204	-142
431	-198	-90
549	-83	0
518	99	44
330	269	38
4	351	22
-392	301	16
-773	150	28
-1010	-41	21
-1020	-182	-18
-769	-209	-51
-340	-123	-90
133	25	-100
474	158	-67
595	219	4
501	196	65
295	122	76
107	45	78
28	6	32
61	5	-32
145	20	-82
203	26	-119
184	11	-128
99	-11	-94
-3	-16	-45
-69	11	-30
-72	60	-8
-25	109	-2
44	131	0
104	118	1
135	81	1
137	41	44
115	18	74
74	10	42
7	1	-18
-84	-24	-70
-182	-79	-144
-273	-150	-164
-324	-216	-92
-310	-254	0
-218	-246	68
-65	-190	87
121	-98	68
292	6	12
410	99	-16
438	157	-63
373	166	-114
234	131	-107
58	64	-75
-124	-6	-57
-274	-60	-68
-389	-85	-64
-459	-88	-42
-477	-85	26
-435	-87	108
-325	-99	210
-159	-113	241
31	-122	149
208	-124	8
330	-122	-139
391	-119	-282
404	-110	-360
390	-78	-256
354	-2	-67
280	114	74
144	248	91
-54	349	38
-281	362	-15
-465	265	-46
-547	79	-43
-511	-135	-42
-400	-304	-9
-276	-372	24
-194	-332	6
-147	-219	-30
-94	-88	-35
6	13	-44
149	70	-74
280	95	-93
333	119	-48
269	162	12
130	218	27
5	273	42
-19	290	19
86	255	20
259	161	34
394	29	24
389	-112	57
216	-232	67
-62	-299	49
-344	-305	14
-508	-247	-43
-502	-141	-108
-336	-21	-153
-86	83	-149
164	138	-121
328	139	-80
373	103	-40
313	55	-4
189	21	18
65	14	14
-16	24	11
-47	31	-7
-49	26	-40
-52	6	-56
-75	-8	-50
-106	2	-25
-110	43	-20
-62	101	-41
33	144	-19
136	149	17
194	105	72
169	31	133
70	-50	140
-47	-108	103
-132	-137	62
-152	-148	-6
-121	-148	-108
-83	-147	-158
-67	-140	-163
-79	-119	-187
-71	-68	-204
-13	6	-136
106	96	-44
238	178	-20
302	231	-38
244	244	-51
59	212	-41
-158	143	-21
-288	53	11
-233	-33	12
8	-100	-4
322	-144	-9
520	-174	12
447	-215	51
75	-282	39
-486	-373	34
-976	-456	16
-1168	-473	-24
-954	-384	-65
-419	-187	-82
229	74	-68
689	311	-31
800	445	3
569	438	-17
186	333	-26
-108	183	-14
-158	76	25
22	36	43
260	53	24
373	77	15
253	65	-11
-37	26	-60
-331	-9	-102
-452	0	-98
-339	56	-84
-68	114	-61
214	116	-43
357	24	-9
323	-127	8
165	-259	-10
-5	-289	11
-114	-199	53
-143	-43	109
-132	71	128
-126	59	76
-141	-76	-9
-158	-251	-79
-142	-339	-155
-88	-263	-157
-14	-56	-48
46	178	48
69	301	84
65	258	11
61	85	-70
82	-93	-144
127	-157	-196
172	-71	-183
200	110	-144
196	274	-70
178	334	-4
162	276	37
150	163	40
120	72	44
42	44	40
-99	51	26
-278	28	17
-448	-66	7
-545	-216	4
-526	-343	-2
-394	-362	-8
-202	-243	-9
4	-24	-25
164	201	-43
258	350	-28
284	382	-21
268	318	-22
241	210	-16
223	99	-15
216	-4	-14
205	-111	-23
150	-219	-28
28	-308	-17
-158	-326	-22
-352	-252	-55
-484	-103	-74
-486	51	-57
-341	128	-11
-98	83	61
140	-65	102
280	-238	87
270	-337	50
139	-312	-13
-22	-173	-89
-117	15	-171
-81	168	-202
83	244	-152
322	251	-85
551	223	-54
695	183	-47
692	139	-51
518	61	-45
188	-68	-16
-229	-237	6
-630	-381	40
-865	-421	60
-865	-317	78
-632	-85	68
-285	185	20
6	382	-8
111	427	-38
24	313	-51
-144	116	-22
-245	-66	32
-175	-159	43
29	-144	-24
229	-65	-80
278	10	-120
135	41	-138
-104	25	-74
-282	-4	24
-273	-11	64
-74	16	18
184	60	-35
352	90	-53
345	81	-43
207	45	-20
58	9	-23
5	4	-36
60	39	-41
139	97	-42
141	136	-40
31	120	-22
-129	37	12
-228	-98	65
-181	-242	87
-2	-342	65
200	-354	40
321	-263	-15
306	-100	-74
202	85	-114
95	222	-124
45	268	-84
42	218	-30
25	115	10
-60	26	16
-201	0	-12
-316	44	-30
-313	110	-11
-178	130	21
22	57	74
153	-95	132
126	-263	118
-45	-359	16
-250	-331	-100
-338	-191	-196
-231	-9	-259
42	133	-197
341	187	-113
534	163	-45
529	110	-31
355	82	-68
105	89	-84
-123	100	-113
-267	70	-84
-315	-24	-36
-274	-151	29
-162	-254	52
12	-271	44
206	-192	61
346	-60	58
346	53	49
167	93	16
-158	54	-16
-492	-28	-27
-695	-92	1
-665	-98	14
-434	-43	9
-132	45	-7
82	123	-30
123	162	-22
22	150	-15
-110	94	-15
-145	5	-26
-47	-98	-16
130	-191	8
269	-241	9
283	-216	-3
170	-111	-13
9	47	-40
-85	201	-67
-51	292	-43
91	290	-12
253	208	-4
340	101	1
312	23	-13
184	3	-43
37	16	-46
-65	22	-46
-90	-15	-26
-50	-95	21
3	-173	48
28	-202	44
6	-158	-4
-47	-57	-68
-98	51	-105
-102	119	-102
-39	119	-62
76	68	-35
194	7	-23
253	-17	-5
204	15	10
44	99	40
-170	195	34
-347	259	-40
-404	254	-102
-311	164	-141
-111	8	-182
93	-167	-170
222	-292	-78
229	-313	15
144	-208	30
41	-22	37
-11	158	46
10	240	7
71	168	-39
118	-31	-40
99	-265	2
11	-429	60
-113	-449	83
-211	-337	37
-237	-170	-6
-182	-38	-55
-63	7	-133
64	-11	-141
161	-35	-48
190	1	44
150	95	38
54	201	-6
-77	250	-15
-217	205	-40
-340	98	-58
-418	-11	-64
-412	-58	-62
-291	-40	-20
-56	0	-3
241	1	6
506	-64	8
620	-158	3
506	-209	12
190	-161	16
-229	-19	30
-568	143	24
-695	244	12
-569	229	-3
-273	129	-35
50	26	-59
260	3	-61
322	76	-46
287	195	-23
253	270	19
280	237	27
346	103	-2
358	-64	-20
240	-175	-41
-25	-182	-28
-330	-105	9
-545	-11	28
-547	40	45
-339	29	19
-22	-13	-72
253	-32	-169
380	-3	-182
335	56	-91
189	100	30
42	88	93
-36	20	64
-44	-64	-23
-22	-122	-112
-15	-136	-121
-30	-125	-105
-47	-129	-58
-31	-174	24
31	-238	43
120	-273	-17
195	-230	-108
225	-94	-125
200	96	-97
136	279	-48
62	403	-32
-9	437	-18
-69	395	24
-122	299	57
-168	161	97
-201	-9	91
-225	-199	51
-235	-377	-25
-235	-481	-96
-226	-473	-147
-198	-353	-171
-142	-182	-113
-58	-48	-31
42	-19	5
128	-94	6
172	-198	20
167	-238	28
130	-153	39
96	34	45
91	236	26
114	352	13
132	333	10
117	215	19
48	87	15
-50	36	-8
-134	86	-37
-167	183	-59
-153	243	-61
-133	194	-55
-150	38	-47
-217	-157	-36
-291	-297	-20
-307	-319	-20
-209	-225	-24
0	-64	-15
245	83	-18
450	171	-11
537	191	2
523	170	13
449	142	33
363	127	33
276	123	29
158	112	17
-36	79	-26
-295	14	-92
-556	-64	-126
-719	-141	-115
-711	-196	-62
-530	-218	-37
-260	-201	-44
0	-152	-43
162	-79	-55
216	2	-37
202	72	-23
171	121	-19
159	143	-2
155	139	8
139	119	6
98	89	-7
43	62	4
7	43	17
8	32	51
46	31	72
97	28	20
118	15	-36
90	-19	-71
9	-74	-130
-92	-141	-190
-181	-198	-150
-214	-227	-18
-178	-213	79
-72	-157	93
59	-71	83
170	24	59
211	117	20
170	195	-21
78	250	-97
-6	261	-129
-33	219	-98
4	112	-46
65	-41	-10
93	-198	-24
49	-308	-31
-36	-326	-83
-108	-256	-130
-105	-137	-100
-22	-34	-62
81	9	-30
121	-15	-32
54	-66	-63
-79	-87	-58
-191	-43	-16
-193	50	12
-68	143	11
115	171	7
244	110	44
242	-20	62
118	-144	46
-46	-192	39
-150	-125	31
-148	31	33
-64	200	37
30	300	37
81	279	0
65	157	-55
9	-8	-89
-72	-128	-145
-186	-153	-162
-347	-84	-82
-539	24	8
-692	94	36
-713	75	8
-533	-33	-22
-191	-171	-40
198	-263	-38
476	-249	-36
560	-129	-33
476	39	-4
346	178	36
279	223	103
300	171	130
328	67	79
252	-15	-24
30	-30	-124
-257	17	-193
-445	78	-202
-415	88	-101
-173	17	42
139	-106	92
319	-218	61
258	-248	21
14	-169	-43
-236	-13	-71
-318	142	-92
-167	228	-93
122	208	-55
363	110	-45
421	0	-23
300	-60	-6
117	-39	23
18	45	34
61	150	16
189	223	15
262	231	7
187	182	7
-24	94	18
-262	-3	34
-392	-90	16
-352	-154	-15
-172	-192	-45
39	-203	-88
187	-183	-109
237	-138	-136
216	-85	-137
187	-42	-93
160	-29	-46
109	-53	-33
-3	-100	-22
-190	-135	14
-394	-126	31
-540	-48	60
-538	78	87
-383	208	87
-140	278	49
81	237	-16
205	89	-102
215	-118	-202
169	-296	-190
150	-362	-84
202	-291	1
288	-117	3
319	70	-7
202	189	13
-67	191	2
-399	98	5
-626	-27	-11
-611	-112	-9
-347	-123	16
24	-76	57
302	1	94
318	62	81
54	100	35
-321	120	-39
-585	132	-91
-571	138	-131
-282	113	-119
123	51	-72
419	-39	-13
478	-119	30
323	-148	16
96	-108	-13
-44	-24	-48
-31	48	-54
79	62	-59
167	7	-60
161	-83	-88
68	-145	-110
-18	-136	-64
-17	-54	9
82	52	92
205	131	174
245	138	188
167	91	117
6	31	13
-134	6	-122
-162	35	-256
-61	91	-292
90	131	-181
191	117	-25
178	48	69
61	-43	100
-80	-115	76
-152	-135	12
-113	-107	-45
12	-57	-87
150	-16	-67
228	9	-16
206	28	-1
101	61	9
-34	122	-20
-139	201	-63
-163	268	-99
-95	290	-111
39	251	-106
175	155	-87
251	28	-30
206	-91	21
36	-178	90
-209	-223	111
-445	-235	68
-589	-233	19
-598	-232	-30
-491	-237	-91
-333	-236	-111
-173	-218	-48
-34	-176	17
104	-121	34
270	-71	24
458	-48	37
611	-54	25
642	-78	-5
496	-92	-33
192	-77	-57
-183	-30	-48
-496	26	-63
-641	71	-85
-599	91	-80
-411	92	-64
-159	93	-41
71	109	-1
240	132	42
332	144	61
338	121	51
253	62	13
86	-7	-24
-128	-51	-55
-307	-49	-71
-374	-13	-72
-279	24	-56
-56	28	-19
198	-10	9
366	-55	20
383	-68	41
254	-21	62
56	70	43
-104	156	-8
-173	182	-71
-145	125	-128
-70	20	-140
3	-75	-89
44	-100	6
56	-44	46
56	58	3
52	148	-56
36	170	-105
6	120	-142
-34	30	-104
-59	-51	-3
-52	-92	46
-14	-89	28
40	-63	-4
72	-46	-45
81	-42	-71
80	-40	-48
115	-24	-25
207	18	-5
334	71	11
428	119	36
404	140	63
221	137	90
-88	115	101
-407	84	49
-623	41	-36
-647	-23	-124
-503	-113	-165
-282	-223	-142
-105	-313	-77
-43	-355	-15
-84	-322	-11
-143	-226	-44
-128	-105	-39
8	-2	3
229	51	34
451	64	38
585	59	9
591	75	-16
474	124	-2
278	200	25
32	274	26
-232	312	16
-497	290	-5
-702	201	-43
-775	57	-89
-654	-120	-117
-352	-301	-114
39	-444	-69
346	-519	-12
452	-497	42
335	-379	111
110	-192	121
-36	12	42
24	187	-46
280	299	-116
565	339	-219
677	323	-241
493	265	-128
63	189	-27
-406	93	26
-697	-16	24
-692	-125	17
-459	-211	-1
-172	-246	-41
-13	-214	-59
-34	-126	-39
-148	-15	4
-206	78	50
-114	124	94
90	118	91
288	83	38
351	48	-28
251	35	-65
77	47	-83
-45	56	-72
-43	41	-35
43	-9	-16
106	-79	-74
51	-133	-118
-116	-140	-82
-281	-84	-47
-318	18	10
-170	127	26
97	202	16
342	215	4
436	174	-4
360	102	3
196	37	9
58	-1	29
16	-7	20
39	4	24
47	17	32
-18	16	15
-147	-1	-2
-241	-31	-21
-221	-69	-65
-61	-106	-99
159	-130	-77
317	-131	-15
317	-100	38
154	-36	32
-83	43	13
-285	113	-27
-363	149	-81
-317	133	-120
-199	79	-126
-79	6	-80
7	-60	-25
54	-105	9
89	-127	-8
115	-133	-44
122	-126	-67
86	-103	-40
9	-53	8
-72	19	3
-97	103	-24
-12	170	-28
172	197	-24
393	171	-18
528	106	12
491	22	29
262	-61	11
-78	-125	-30
-409	-166	-35
-605	-181	-9
-627	-177	-18
-529	-161	-44
-418	-151	-40
-383	-167	-3
-438	-219	51
-506	-297	68
-481	-357	37
-291	-351	-10
27	-246	-69
373	-53	-128
608	165	-160
642	331	-137
496	382	-53
262	324	33
63	206	43
-16	110	0
28	89	-28
141	138	-57
240	213	-64
262	254	-43
191	230	-13
56	149	4
-80	47	8
-162	-36	8
-153	-91	-4
-56	-118	-16
85	-129	-17
205	-119	-6
245	-76	-1
186	4	-6
50	99	-11
-91	160	-21
-178	143	-23
-181	40	-4
-126	-104	31
-72	-225	57
-67	-257	49
-117	-189	6
-178	-64	-42
-199	47	-102
-148	93	-160
-34	71	-155
91	24	-103
179	3	-49
211	35	-26
201	102	-17
182	158	7
171	159	64
166	102	134
141	17	168
89	-54	135
3	-77	35
-91	-56	-95
-179	-20	-233
-253	0	-272
-310	-13	-151
-344	-50	-20
-332	-90	24
-245	-101	13
-75	-68	5
153	0	4
363	77	12
488	130	14
475	126	-30
325	50	-112
75	-80	-228
-206	-231	-260
-463	-344	-162
-639	-379	-3
-692	-318	85
-603	-179	66
-373	-17	61
-55	121	39
245	194	7
451	186	0
492	110	-2
407	3	3
291	-98	4
245	-149	19
302	-113	43
396	19	59
411	215	56
257	409	50
-61	505	37
-423	445	0
-675	215	-57
-704	-102	-122
-535	-393	-119
-275	-546	-70
-71	-522	-36
11	-371	-13
-4	-194	-20
-23	-87	-31
34	-71	-39
169	-105	-41
317	-104	-40
394	-20	-35
373	131	-21
309	273	-5
266	325	12
283	261	19
313	124	16
253	5	3
33	-28	-9
-325	34	-2
-676	137	-2
-857	199	-10
-758	174	-23
-417	79	-40
-6	-17	-16
284	-42	-24
346	21	-48
224	138	-57
36	230	-72
-60	230	-74
-22	123	-58
96	-43	-30
188	-205	-10
184	-304	24
105	-315	63
27	-263	84
32	-174	110
123	-76	100
231	24	21
266	127	-81
179	211	-174
11	257	-270
-152	235	-302
-217	141	-235
-174	8	-126
-75	-109	-25
-3	-155	20
-10	-108	51
-80	8	62
-151	130	39
-155	191	7
-77	149	-2
38	8	4
125	-190	8
135	-380	28
72	-498	38
-17	-515	30
-66	-413	16
-44	-222	-24
50	16	-76
190	236	-84
321	372	-61
397	382	-51
373	261	-28
229	62	-17
-31	-135	3
-336	-251	65
-585	-249	104
-659	-155	94
-497	-40	72
-158	17	13
195	-8	-77
371	-80	-136
249	-111	-155
-122	-42	-107
-530	125	-31
-726	316	42
-562	414	117
-87	350	116
478	139	51
837	-108	-22
825	-261	-97
466	-245	-186
-53	-80	-196
-480	118	-107
-670	221	-25
-617	163	-16
-436	-6	-11
-242	-173	-5
-97	-223	-25
26	-115	-23
165	81	-36
320	248	-46
438	287	-40
446	185	-36
326	15	-15
132	-119	11
-40	-144	13
-116	-68	21
-94	40	20
-36	97	-14
-18	60	-47
-60	-41	-48
-122	-147	-1
-136	-192	63
-61	-170	123
80	-106	122
214	-55	37
280	-48	-75
266	-67	-156
206	-77	-209
150	-35	-192
124	55	-68
104	156	50
60	207	52
-18	171	-11
-96	58	-44
-116	-89	-84
-57	-206	-56
42	-248	-9
113	-201	-15
98	-95	-25
12	37	-28
-58	163	-19
-24	265	-22
127	340	-14
306	381	19
365	379	57
198	323	85
-175	213	81
-580	75	27
-805	-65	-34
-740	-178	-92
-425	-259	-142
-54	-322	-140
147	-393	-70
89	-471	-33
-140	-523	-48
-342	-503	-59
-333	-374	-63
-88	-150	-59
267	103	-59
506	288	-17
502	331	28
260	225	21
-51	26	10
-243	-160	-2
-214	-257	-8
-18	-235	-3
182	-133	2
244	-18	7
117	66	0
-121	115	-13
-325	157	-14
-383	212	-16
-277	279	-19
-76	318	12
131	287	52
260	185	46
317	48	45
334	-49	59
360	-60	28
407	13	-43
439	118	-119
401	180	-179
239	156	-207
-51	55	-156
-412	-64	-51
-736	-143	13
-900	-142	18
-822	-76	7
-503	14	3
-50	92	-19
389	145	-17
642	186	-19
648	229	-13
451	262	19
184	256	29
-11	171	55
-63	0	75
-12	-223	41
46	-422	-23
30	-533	-77
-58	-519	-144
-155	-399	-192
-170	-238	-150
-86	-98	-65
36	-17	-30
89	10	-34
12	10	-5
-151	12	22
-277	29	21
-246	47	24
-40	53	13
234	35	12
397	2	-16
325	-35	-53
38	-67	-80
-311	-92	-97
-507	-113	-60
-428	-124	-17
-111	-113	15
269	-59	39
519	39	40
495	158	19
219	257	-3
-157	295	-18
-465	255	-11
-585	158	2
-491	56	-4
-245	-5	-21
33	-8	-25
253	35	-11
336	80	3
269	85	37
83	35	61
-142	-55	57
-325	-155	29
-375	-233	-25
-271	-268	-85
-57	-257	-127
175	-202	-140
326	-107	-129
352	19	-99
276	165	-59
178	296	-31
116	382	-7
115	390	74
142	323	138
147	206	111
102	91	34
28	13	-35
-31	-26	-145
-53	-56	-222
-56	-127	-168
-91	-256	-84
-191	-413	-42
-339	-524	-48
-455	-510	7
-445	-340	69
-264	-60	74
31	221	49
343	382	-2
541	370	-36
575	215	-58
476	29	-75
338	-82	-62
240	-60	0
193	48	38
150	150	47
42	157	33
-150	53	-11
-362	-93	-49
-496	-177	-54
-472	-129	-48
-303	31	-72
-85	210	-77
50	294	-63
42	218	-64
-60	22	-55
-138	-196	-34
-77	-331	-21
132	-326	-21
373	-219	-27
474	-89	-33
327	-15	-25
-23	-18	-13
-413	-60	12
-639	-80	24
-610	-42	3
-381	38	-15
-126	110	-36
4	116	-26
-27	45	-13
-121	-65	-12
-141	-152	0
-18	-164	15
196	-94	21
366	22	4
388	127	-4
260	182	-16
83	174	-15
-19	131	-4
-12	74	-3
37	26	-3
23	-4	-18
-107	-21	-27
-277	-22	-21
-347	-12	9
-207	13	41
116	39	42
459	57	7
628	57	-50
520	43	-127
199	35	-168
-159	45	-124
-354	68	-64
-325	83	-48
-154	53	-67
9	-28	-14
50	-141	49
-31	-229	66
-149	-235	45
-184	-138	-28
-98	20	-112
58	164	-140
195	211	-54
248	132	51
226	-27	100
182	-179	105
172	-231	87
191	-145	20
184	35	-55
101	221	-131
-62	317	-186
-243	284	-158
-356	154	-97
-348	-1	-26
-234	-107	24
-88	-135	47
17	-110	14
42	-85	-26
16	-96	-63
1	-150	-105
48	-206	-113
169	-224	-76
310	-174	-4
409	-72	32
399	39	28
258	123	2
20	154	-20
-234	132	-17
-402	76	5
-407	3	26
-247	-70	41
-15	-136	53
145	-171	51
107	-162	26
-143	-96	-19
-486	11	-50
-708	117	-68
-645	182	-71
-291	174	-57
194	114	-49
551	39	-40
600	2	-11
346	17	-8
-16	55	-19
-260	60	-35
-250	-19	-47
-51	-169	-40
135	-326	-32
135	-393	-23
-76	-314	-13
-345	-99	-11
-459	164	-10
-299	356	-18
77	398	-46
451	284	-50
624	101	-12
528	-55	66
271	-113	133
41	-77	141
-30	-7	81
38	22	-28
123	-24	-127
93	-117	-223
-76	-194	-250
-288	-199	-150
-405	-118	-31
-343	12	17
-143	129	3
60	185	-13
156	174	7
113	129	29
7	77	55
-52	43	34
-4	29	-21
119	16	-78
225	-6	-121
234	-29	-137
138	-37	-124
2	-23	-64
-91	7	-12
-102	29	24
-62	26	7
-27	-2	12
-34	-27	13
-64	-15	-14
-56	47	-4
34	142	-2
195	221	26
343	231	19
380	147	-6
245	-5	-6
-15	-168	-2
-308	-273	47
-501	-282	96
-523	-207	117
-386	-88	90
-184	18	0
-21	74	-112
34	75	-201
-2	40	-235
-56	3	-190
-40	-18	-109
92	-19	-55
319	-7	-19
548	3	-13
659	3	3
580	-15	16
311	-49	0
-62	-97	-8
-390	-142	4
-556	-167	1
-511	-150	-15
-331	-89	-27
-148	-12	-39
-103	40	-33
-241	28	-22
-473	-53	9
-638	-170	46
-571	-254	76
-237	-251	71
255	-148	32
677	15	-10
839	161	-56
671	223	-81
280	191	-40
-101	106	43
-288	40	91
-217	35	68
-3	96	-41
171	171	-143
155	211	-181
-51	187	-192
-303	109	-126
-426	23	9
-316	-33	112
-14	-44	102
339	-28	11
569	0	-61
608	29	-123
493	66	-154
320	120	-91
176	177	-19
76	210	-11
-35	178	-21
-191	69	-28
-388	-86	-37
-526	-234	9
-525	-313	62
-353	-301	88
-92	-223	77
122	-124	34
175	-51	-23
58	-19	-91
-126	-9	-129
-239	10	-117
-185	50	-45
8	99	12
224	121	-4
326	96	-36
262	30	-49
91	-47	-66
-74	-94	-54
-123	-92	-25
-45	-48	-8
90	4	-9
183	39	-38
175	45	-55
91	37	-44
1	40	-25
-30	61	-3
8	92	24
65	104	32
87	78	19
57	13	-15
10	-69	-34
-2	-138	-2
32	-171	19
72	-161	29
33	-131	35
-127	-109	25
-375	-114	31
-579	-149	41
-605	-184	49
-386	-195	12
26	-149	-54
436	-35	-97
648	129	-132
541	305	-154
156	435	-143
-321	465	-126
-654	364	-113
-686	154	-71
-415	-115	2
12	-351	112
360	-474	191
466	-449	170
299	-286	85
-9	-51	-24
-263	165	-162
-311	292	-294
-130	299	-277
147	205	-155
346	62	-44
344	-64	0
145	-135	13
-117	-135	49
-277	-84	58
-241	-15	74
-43	38	69
184	55	39
299	39	9
234	6	-8
49	-19	0
-128	-19	48
-191	7	102
-113	53	66
39	100	-4
165	131	-75
200	138	-168
156	127	-210
97	103	-168
75	70	-87
99	30	-2
124	-24	36
99	-85	32
6	-139	21
-110	-167	4
-182	-153	-23
-170	-100	-33
-94	-26	-21
-18	34	1
-5	57	12
-67	39	26
-151	4	19
-174	-17	-27
-85	0	-59
94	57	-83
288	127	-49
401	166	-39
386	142	-48
254	53	-46
81	-62	-55
-68	-162	-65
-149	-195	-82
-170	-154	-83
-162	-57	-64
-149	47	-23
-129	124	-15
-90	153	12
-28	138	51
38	106	106
76	76	133
59	48	81
4	11	27
-48	-56	-16
-53	-157	-79
-13	-280	-155
26	-393	-91
-12	-473	26
-169	-492	55
-419	-449	17
-645	-345	-34
-720	-192	-58
-571	-8	-79
-221	181	-60
196	333	-48
503	406	-67
598	372	-83
467	241	-65
211	65	-55
-22	-85	-39
-141	-143	-30
-133	-98	-30
-61	20	-10
-7	141	-2
-18	202	10
-77	174	8
-120	85	3
-100	-15	-4
-1	-75	-9
132	-74	-25
238	-27	-35
258	23	-20
189	55	1
69	60	72
-37	59	167
-71	77	218
-14	120	178
115	178	72
251	215	-66
330	218	-206
300	169	-281
163	93	-270
-23	10	-178
-184	-53	-76
-248	-94	19
-191	-117	74
-59	-131	47
65	-144	-44
111	-145	-124
53	-130	-155
-68	-92	-167
-163	-33	-97
-159	28	10
-26	90	65
180	147	45
373	203	9
451	256	-42
381	291	-100
182	279	-47
-81	189	39
-328	6	70
-496	-245	69
-554	-503	65
-496	-687	15
-345	-736	-17
-151	-620	-25
30	-377	-56
137	-80	-75
141	180	-47
66	337	0
-20	365	16
-42	298	6
38	188	-23
194	93	-11
331	43	6
358	32	11
241	29	-8
32	0	-33
-173	-66	-43
-269	-154	-79
-236	-223	-90
-136	-235	-69
-65	-185	-48
-87	-94	-40
-176	-11	-18
-245	24	-9
-200	2	-3
-12	-55	9
253	-95	1
476	-78	5
560	8	3
478	131	7
294	241	3
98	295	-8
-56	276	-10
-175	209	2
-308	126	16
-481	56	13
-667	2	0
-770	-42	-22
-700	-84	-57
-432	-114	-95
-49	-110	-97
321	-57	-92
535	37	-79
545	140	-42
409	203	-6
241	197	34
138	126	36
125	31	-16
147	-42	-36
114	-60	-35
-23	-35	-33
-234	0	-14
-425	8	4
-497	-29	-1
-405	-90	-46
-180	-137	-90
76	-131	-85
273	-66	-43
355	32	1
346	124	6
300	166	-20
273	139	-45
271	50	-105
262	-69	-145
199	-183	-109
66	-260	-24
-108	-278	49
-252	-240	97
-300	-161	191
-237	-65	201
-92	22	102
75	85	-8
195	118	-117
248	128	-185
245	122	-176
212	108	-92
159	83	-34
85	45	-62
-29	-5	-116
-173	-60	-115
-315	-107	-75
-399	-135	-27
-387	-138	24
-275	-127	51
-102	-111	59
83	-93	79
216	-64	82
280	-6	58
262	90	28
172	222	8
36	354	-39
-103	450	-92
-202	461	-84
-217	369	-57
-151	191	-38
-63	-39	-40
-50	-263	-35
-184	-443	-2
-442	-546	9
-705	-562	-6
-794	-506	-32
-595	-394	-66
-139	-254	-95
411	-103	-83
809	35	-60
886	143	-42
655	210	-23
276	237	-14
-35	237	-17
-137	221	-11
-48	195	8
90	158	11
135	100	20
36	20	16
-129	-70	13
-229	-143	10
-175	-175	-6
15	-144	-18
224	-67	-23
337	24	-10
310	97	-3
191	125	3
80	120	14
42	104	17
69	104	-13
96	130	-57
52	164	-56
-59	180	-38
-189	156	-17
-261	99	1
-241	29	12
-156	-18	-4
-71	-28	-35
-41	-13	-42
-61	5	-81
-89	-6	-135
-65	-46	-131
23	-99	-60
159	-123	15
285	-96	31
365	-16	31
383	87	37
344	169	34
270	200	23
159	169	-22
11	96	-88
-156	7	-104
-317	-75	-82
-432	-137	-71
-496	-185	-50
-524	-226	8
-548	-260	29
-576	-286	-1
-571	-296	-32
-480	-286	-50
-269	-256	-78
26	-203	-106
299	-127	-79
439	-29	-39
406	86	-13
252	202	-1
93	284	-13
44	301	9
119	233	49
228	81	99
245	-110	133
104	-268	90
-147	-330	34
-371	-261	-40
-424	-78	-137
-266	150	-204
18	327	-193
290	373	-102
425	274	-25
417	67	19
343	-152	24
302	-283	1
321	-281	-25
329	-157	-36
234	14	-28
-10	137	-15
-325	153	-17
-561	62	-21
-577	-74	8
-358	-176	42
-27	-177	65
249	-75	65
328	84	40
206	233	-19
-4	313	-90
-158	311	-123
-181	244	-131
-101	158	-108
4	75	-68
57	5	-20
67	-54	5
85	-112	16
150	-153	27
231	-166	20
242	-131	14
106	-63	5
-164	9	-5
-455	54	-34
-603	49	-37
-516	12	-32
-226	-26	-8
118	-26	44
350	30	63
375	117	48
244	190	-9
72	205	-80
-21	143	-155
-4	28	-147
63	-94	-75
97	-175	-25
50	-191	-32
-35	-151	-62
-80	-89	-23
-31	-40	-2
90	-24	-3
201	-31	12
222	-36	32
137	-16	15
16	40	-24
-40	112	-25
14	168	-44
138	168	-90
212	96	-77
126	-35	-35
-142	-192	-2
-496	-325	30
-756	-394	24
-793	-386	28
-577	-300	64
-209	-166	64
141	-21	26
352	99	-31
391	179	-66
320	215	-81
228	227	-87
167	221	-84
116	213	-61
34	195	-41
-98	149	-47
-230	58	-44
-275	-79	-49
-188	-231	-43
-3	-355	4
172	-395	47
216	-336	59
96	-190	26
-101	-17	-15
-209	114	-67
-107	162	-108
203	127	-105
579	62	-85
780	27	-17
664	58	49
230	153	98
-336	257	152
-786	310	152
-917	275	47
-705	168	-117
-296	32	-223
102	-74	-268
302	-124	-209
269	-131	-25
85	-127	117
-94	-145	93
-156	-177	-21
-75	-187	-119
86	-141	-192
221	-24	-176
262	127	-61
211	256	42
115	300	47
36	243	24
5	114	37
15	-23	29
29	-107	20
23	-121	9
-3	-83	-8
-29	-38	-21
-31	-20	-32
-10	-28	-25
16	-39	0
17	-18	47
-15	43	46
-63	126	20
-95	190	-11
-74	195	-36
1	138	-41
105	38	-47
186	-66	-34
207	-145	-1
162	-179	18
70	-178	0
-11	-153	-9
-44	-113	-3
-11	-64	-7
68	-6	-3
154	52	-23
191	99	-63
151	112	-82
36	83	-66
-116	20	-41
-246	-56	-36
-296	-119	-47
-252	-152	-51
-145	-147	-46
-55	-119	-34
-57	-92	-37
-191	-85	-40
-408	-109	-14
-605	-153	9
-676	-200	49
-553	-226	74
-263	-212	79
82	-161	84
387	-84	24
578	0	-69
664	77	-160
679	145	-206
642	215	-159
518	287	-81
252	345	-41
-172	365	-36
-647	313	-34
-1001	187	-33
-1049	5	-34
-740	-174	-2
-177	-294	5
371	-322	4
679	-265	5
632	-167	7
330	-69	7
1	-6	3
-140	28	22
-36	51	22
201	81	4
398	122	-4
407	150	-12
245	150	-27
40	122	-59
-67	91	-77
-28	83	-41
93	103	21
171	132	90
117	132	137
-48	76	129
-221	-34	79
-288	-144	-23
-211	-199	-153
-45	-164	-268
113	-50	-312
184	82	-214
171	174	-53
120	191	37
86	149	46
81	94	32
75	67	36
41	77	4
-24	92	-21
-84	72	-41
-101	6	-24
-75	-84	13
-39	-144	28
-42	-144	46
-86	-90	44
-134	-36	31
-139	-39	-16
-96	-124	-103
-63	-249	-167
-118	-326	-158
-290	-286	-93
-500	-103	12
-599	150	93
-455	362	85
-84	431	15
365	325	-66
642	97	-130
592	-144	-172
242	-301	-127
-205	-337	-39
-484	-281	15
-447	-210	62
-148	-184	155
200	-216	190
390	-277	133
341	-307	62
148	-270	-48
-11	-166	-177
-15	-28	-238
113	99	-160
245	183	-36
265	212	6
163	199	-11
38	162	2
11	120	16
109	93	-1
230	91	-6
218	120	-9
-11	158	-50
-375	187	-82
-682	174	-88
-740	113	-97
-496	23	-90
-91	-53	-74
242	-78	-34
341	-37	15
196	40	45
-41	108	36
-181	124	27
-130	84	24
52	16	8
222	-27	16
250	-25	32
126	8	44
-52	28	51
-156	-5	42
-119	-94	6
15	-190	-23
143	-228	-54
181	-163	-76
116	-11	-79
8	160	-59
-69	264	-18
-82	254	3
-54	140	8
-36	-8	-8
-51	-120	-13
-85	-151	-9
-85	-113	6
-24	-52	24
88	-7	5
199	12	-23
259	34	-51
248	86	-107
187	174	-140
117	260	-138
61	286	-93
14	213	-38
-41	50	-18
-113	-142	0
-173	-292	20
-184	-340	38
-124	-282	17
-24	-167	-14
53	-50	-16
52	25	-27
-38	56	-59
-151	71	-96
-195	90	-114
-117	113	-89
54	99	-14
221	16	22
252	-143	46
89	-333	56
-198	-473	17
-477	-488	-37
-589	-362	-90
-474	-149	-127
-194	58	-149
98	170	-94
285	157	-2
325	51	62
296	-61	59
312	-114	41
432	-90	28
592	-19	2
624	43	-4
380	67	-33
-135	61	-42
-770	67	-17
-1216	115	21
-1183	194	53
-840	261	43
-144	264	7
530	189	-17
858	74	-45
739	-16	-103
306	-31	-118
-152	23	-87
-375	97	0
-276	122	79
20	70	95
277	-29	83
335	-108	43
184	-103	-42
-21	-5	-155
-103	139	-203
16	247	-181
254	253	-128
435	141	-54
435	-39	-18
258	-214	1
34	-320	12
-77	-326	-8
-28	-249	-4
90	-127	9
111	-8	20
-72	77	84
-405	109	136
-708	85	169
-770	21	192
-513	-56	126
-53	-111	-52
373	-111	-207
568	-48	-287
465	53	-317
192	149	-259
-33	193	-157
-66	165	-40
82	88	30
262	4	47
299	-41	52
111	-29	48
-237	17	35
-564	70	4
-713	93	-12
-619	80	-36
-346	41	-43
-20	2	-37
241	-24	-40
399	-48	-37
454	-80	-47
439	-134	-26
366	-201	2
232	-261	8
54	-286	19
-111	-252	35
-187	-161	49
-130	-29	47
22	116	23
151	239	-13
118	305	-25
-132	282	-40
-530	164	-44
-873	-33	-24
-970	-250	-11
-720	-416	13
-198	-456	10
398	-353	11
811	-143	20
911	93	19
716	268	20
391	332	-5
100	287	-38
-49	189	-59
-84	90	-57
-83	24	-69
-124	-15	-83
-202	-58	-92
-253	-122	-96
-223	-197	-70
-107	-238	-54
16	-206	-28
54	-95	10
-26	67	5
-166	215	-34
-253	298	-61
-203	279	-68
-26	182	-63
182	48	-42
292	-77	-15
251	-159	-5
102	-190	37
-32	-170	84
-52	-108	68
50	-19	-1
184	81	-97
228	160	-178
113	201	-185
-109	187	-114
-317	131	13
-386	57	106
-281	-7	72
-79	-46	22
98	-59	-25
161	-55	-72
105	-44	-72
15	-22	-54
-11	13	-3
68	60	38
203	106	31
290	125	0
251	100	-9
85	34	-6
-128	-44	-6
-270	-101	-26
-267	-107	-76
-131	-63	-104
49	3	-84
184	58	-21
216	75	33
175	48	34
121	-4	3
99	-61	-30
107	-104	-47
90	-124	-43
-7	-119	-24
-186	-94	-24
-380	-52	-9
-481	-9	14
-412	21	20
-170	25	12
161	1	-7
459	-35	-24
623	-56	-28
617	-39	-1
476	20	-13
260	96	-36
42	149	-35
-137	138	-54
-257	61	-50
-313	-64	-35
-318	-192	-27
-302	-280	-16
-318	-309	-4
-404	-280	-1
-566	-218	9
-728	-143	-4
-796	-77	-35
-659	-13	-43
-318	46	-60
151	106	-64
569	160	-34
800	194	18
790	197	66
592	162	99
346	92	82
175	3	6
98	-78	-62
74	-117	-117
13	-96	-151
-116	-13	-122
-285	100	-75
-399	194	-48
-383	215	-24
-226	154	-32
6	31	-18
222	-96	5
337	-162	-4
338	-142	6
253	-60	24
135	22	13
14	43	-46
-91	-12	-88
-181	-112	-113
-233	-182	-163
-226	-170	-151
-147	-66	-58
-16	77	40
107	185	60
170	214	28
142	159	47
58	74	61
-19	19	55
-23	31	50
68	97	40
212	163	14
341	186	-52
393	143	-116
342	62	-121
214	-13	-59
53	-48	23
-107	-41	114
-241	-15	150
-333	4	90
-361	-4	-5
-307	-33	-108
-155	-66	-215
59	-89	-240
275	-92	-168
405	-74	-53
417	-35	4
341	27	-44
245	112	-49
191	203	-2
172	268	36
109	273	28
-100	192	-11
-486	37	-16
-937	-167	-19
-1261	-368	-38
-1165	-531	-39
-902	-628	-37
-258	-655	-41
381	-612	-38
775	-492	-18
794	-313	10
537	-99	49
222	101	62
60	237	48
121	279	46
294	244	31
406	171	13
336	118	-7
101	112	-30
-156	142	-51
-295	165	-47
-264	148	-19
-147	83	0
-63	11	13
-98	-16	-28
-223	29	-97
-315	127	-138
-274	215	-139
-92	243	-90
141	183	12
299	78	85
299	-11	89
176	-30	44
42	22	-25
-16	96	-93
18	125	-144
69	76	-127
45	-29	-55
-86	-124	-10
-273	-141	-13
-392	-64	-16
-353	63	5
-148	166	7
133	179	2
371	93	2
474	-36	-15
439	-130	-43
333	-131	-39
210	-45	-23
100	72	-18
-12	145	-13
-149	129	-24
-296	33	-67
-412	-93	-83
-439	-192	-46
-366	-240	-21
-237	-238	10
-129	-224	34
-95	-216	57
-116	-212	57
-126	-177	39
-52	-87	15
131	53	-40
363	197	-92
553	278	-103
619	251	-67
541	116	-43
359	-70	-41
127	-231	-32
-130	-301	0
-407	-258	24
-700	-135	18
-946	10	-4
-1049	121	-40
-917	165	-60
-540	140	-48
-13	70	-16
470	-12	-7
751	-81	-45
750	-113	-80
544	-104	-71
301	-58	-42
154	1	1
137	48	39
175	64	43
163	41	31
48	-1	32
-119	-34	32
-224	-31	22
-191	15	-14
-38	85	-67
121	151	-101
169	187	-117
58	190	-104
-138	174	-91
-266	158	-37
-218	143	47
8	114	85
299	47	99
490	-65	90
478	-195	44
268	-296	-46
-21	-320	-98
-269	-249	-126
-385	-112	-171
-377	26	-139
-299	104	-71
-211	103	-53
-136	48	-97
-70	2	-94
-4	22	-34
54	117	29
86	244	82
85	338	68
74	327	44
89	202	24
147	5	-2
216	-185	-31
245	-298	-18
186	-301	56
52	-216	71
-70	-102	26
-99	-20	-25
7	1	-76
193	-27	-144
328	-69	-160
318	-80	-76
140	-41	-13
-107	36	-8
-303	113	-22
-366	145	-20
-333	106	-17
-312	-4	19
-400	-149	40
-581	-282	21
-740	-358	-14
-718	-353	-71
-448	-274	-92
4	-149	-50
446	-20	45
709	77	85
717	126	65
537	128	39
317	103	-18
162	74	-55
84	59	-84
15	61	-89
-108	74	-62
-268	77	-34
-377	61	-39
-339	27	-112
-152	-16	-184
85	-45	-171
226	-47	-62
194	-16	39
36	34	78
-113	83	84
-119	114	78
29	125	35
229	126	-16
328	131	-57
251	153	-57
50	178	-29
-130	190	12
-160	170	48
-31	114	52
141	37	61
214	-33	51
118	-75	8
-91	-85	-38
-269	-79	-39
-286	-78	-39
-130	-97	-45
99	-125	-42
267	-140	-40
296	-116	-48
209	-47	-85
104	37	-106
67	105	-115
110	123	-91
172	96	-31
180	50	4
103	23	-3
-22	35	-5
-126	71	-1
-166	93	10
-152	57	-1
-126	-48	-32
-117	-203	-59
-116	-356	-78
-89	-459	-65
-20	-482	-56
61	-432	-22
95	-326	9
37	-186	43
-99	-28	85
-237	138	87
-311	289	60
-295	390	34
-241	410	13
-223	340	-30
-262	208	-98
-315	65	-128
-291	-41	-88
-141	-101	-13
82	-140	61
253	-191	90
253	-271	79
70	-346	5
-174	-354	-103
-294	-249	-205
-183	-37	-271
111	204	-215
419	372	-82
541	393	10
410	261	16
120	55	24
-129	-112	14
-187	-164	-17
-42	-95	-31
171	33	-63
278	133	-74
198	154	-59
-4	100	-22
-173	21	10
-180	-23	14
-20	-7	12
199	55	0
331	122	6
302	161	31
156	157	71
4	122	111
-64	79	91
-39	37	24
6	0	-31
-8	-41	-86
-105	-84	-125
-228	-121	-100
-290	-144	-36
-244	-144	0
-110	-125	-16
36	-86	-62
128	-34	-63
150	32	-13
147	110	39
169	182	79
238	236	77
324	252	12
369	228	-71
340	171	-100
245	106	-120
139	44	-126
64	-21	-91
28	-104	-51
-10	-211	-5
-107	-326	9
-285	-413	13
-530	-427	7
-756	-354	-11
-887	-218	-19
-855	-82	-26
-652	-9	-23
-325	-29	-4
34	-118	5
346	-211	-5
523	-238	-9
541	-171	19
420	-26	45
221	132	84
15	241	101
-130	261	32
-194	199	-38
-172	90	-99
-92	-24	-152
4	-111	-151
82	-152	-71
113	-135	22
86	-57	51
15	80	-6
-59	250	-68
-94	405	-100
-51	492	-139
63	461	-134
198	320	-100
283	102	-34
268	-119	22
161	-276	56
18	-334	64
-76	-294	16
-71	-194	-32
15	-75	-98
114	28	-137
150	99	-125
85	128	-68
-55	114	-3
-203	66	29
-295	-2	35
-300	-64	23
-235	-97	17
-139	-84	10
-47	-35	4
28	18	4
80	51	-4
106	45	-8
93	14	-9
35	-23	7
-46	-39	37
-108	-29	51
-99	1	86
-1	38	155
159	71	145
302	103	60
369	131	-30
317	150	-117
172	143	-189
15	94	-182
-90	4	-76
-107	-109	30
-56	-200	51
13	-236	-11
58	-204	-101
63	-122	-199
49	-31	-270
36	34	-222
40	56	-74
42	49	32
17	33	23
-50	28	-35
-162	37	-66
-275	45	-93
-350	38	-78
-338	5	-8
-217	-51	19
3	-124	30
260	-203	52
465	-265	76
498	-297	97
291	-273	80
-134	-181	66
-644	-27	48
-1015	154	14
-1039	313	-33
-654	396	-70
5	372	-72
693	252	-48
1060	72	-37
976	-109	-28
472	-244	0
-168	-305	2
-645	-283	9
-744	-209	-21
-500	-108	-57
-119	-16	-85
155	40	-123
182	46	-93
14	6	-56
-182	-61	-40
-236	-125	-25
-106	-155	-11
117	-137	-3
296	-75	-4
328	17	-2
241	114	1
135	199	9
113	255	14
201	279	19
325	268	3
386	225	-4
314	158	2
133	79	-1
-68	14	-7
-201	-24	-12
-229	-24	-17
-174	-1	-19
-96	28	3
-39	43	8
-6	34	-1
25	13	1
71	-8	5
122	-9	-3
145	7	-34
120	33	-31
49	51	4
-32	47	8
-83	16	-11
-88	-38	-7
-65	-98	1
-51	-145	-36
-70	-166	-110
-111	-150	-166
-139	-103	-184
-108	-35	-194
3	31	-192
171	85	-142
340	120	-55
439	137	32
411	152	30
244	168	-6
-18	175	22
-307	158	54
-518	86	92
-588	-44	79
-502	-217	30
-320	-379	0
-126	-471	-32
1	-452	-20
48	-326	11
61	-144	42
116	20	43
244	105	6
398	92	-35
462	8	-86
334	-86	-105
-27	-138	-102
-494	-125	-99
-887	-65	-106
-1009	-2	-96
-798	28	-63
-351	12	-34
122	-26	3
432	-50	28
470	-29	49
296	41	58
65	136	47
-78	221	9
-80	257	-28
6	244	-54
79	191	-74
79	129	-64
24	82	-53
-8	57	-38
51	49	-22
200	36	0
360	11	39
432	-31	81
359	-70	120
171	-93	127
-35	-91	70
-167	-66	-27
-188	-41	-114
-128	-29	-173
-56	-38	-187
-22	-48	-138
-16	-32	-46
3	23	13
71	118	53
178	210	115
269	253	116
285	210	65
204	82	-13
60	-90	-103
-72	-238	-190
-141	-301	-193
-134	-264	-108
-90	-157	-55
-54	-30	-32
-51	55	-30
-53	78	-30
-21	52	-27
72	22	10
196	21	33
288	60	-5
284	120	-16
170	169	-18
-7	191	-7
-159	185	2
-205	169	10
-126	145	17
27	109	15
153	32	8
158	-100	-9
3	-274	-30
-275	-441	-43
-584	-527	-43
-797	-492	-58
-844	-334	-72
-700	-117	-64
-415	76	-43
-86	171	-2
182	153	17
326	55	29
346	-57	54
297	-127	57
245	-138	56
237	-119	15
253	-100	-69
245	-107	-142
157	-125	-197
-10	-122	-176
-207	-63	-101
-332	55	0
-315	201	99
-145	332	123
113	400	63
368	395	-32
551	327	-113
636	228	-155
641	118	-122
565	11	-31
381	-84	43
48	-160	49
-417	-199	32
-903	-190	16
-1226	-128	18
-1180	-32	-9
-822	53	-48
-186	98	-44
450	88	-23
800	39	24
771	-6	57
449	-14	45
85	27	-18
-98	98	-78
-16	162	-123
228	185	-176
422	158	-163
425	92	-78
239	15	42
-2	-49	87
-144	-99	74
-125	-131	67
-16	-153	36
35	-157	0
-63	-139	-55
-285	-97	-88
-487	-40	-67
-526	7	-76
-351	27	-80
-45	12	-55
216	-25	-23
312	-60	38
212	-70	114
11	-50	147
-153	-13	103
-195	19	54
-123	26	-13
-24	5	-135
29	-31	-194
11	-59	-158
-35	-60	-106
-36	-27	-99
37	35	-89
163	106	-49
271	170	-25
314	206	2
292	201	39
249	153	57
239	64	31
262	-37	-46
265	-134	-121
167	-192	-116
-77	-196	-43
-413	-160	40
-735	-113	105
-879	-104	125
-783	-159	87
-473	-270	13
-87	-376	-71
212	-400	-159
314	-281	-214
222	-22	-174
51	300	-82
-55	565	-8
0	659	24
205	544	13
450	270	11
592	-39	51
553	-270	90
346	-359	78
65	-326	40
-166	-240	-3
-296	-174	-61
-351	-148	-94
-407	-139	-66
-518	-100	-26
-647	-12	4
-707	100	2
-577	182	-25
-236	197	-40
210	153	-39
581	92	-20
723	70	26
589	104	74
280	164	68
-4	189	9
-125	140	-54
-60	28	-99
91	-95	-135
176	-159	-108
123	-130	-31
-34	-27	30
-167	92	14
-160	171	-13
2	191	-2
234	168	10
400	140	26
414	129	-6
291	122	-22
126	87	-42
8	2	-68
-33	-120	-50
-47	-234	-30
-109	-281	-9
-248	-237	-40
-418	-118	-92
-526	12	-110
-496	92	-76
-325	85	-25
-81	12	-1
140	-72	7
283	-111	-15
338	-68	-55
332	38	-80
291	154	-20
216	224	62
92	201	69
-72	87	77
-232	-88	65
-317	-264	-3
-285	-399	-55
-167	-453	-86
-47	-421	-89
-10	-326	-64
-83	-202	-66
-214	-87	-63
-292	0	-80
-243	59	-130
-63	104	-135
158	155	-85
317	218	-13
358	280	11
309	316	-4
248	299	0
242	225	-12
280	111	-8
297	-6	4
214	-103	-6
22	-164	26
-224	-198	62
-409	-214	109
-474	-222	131
-422	-203	84
-327	-150	4
-260	-60	-67
-233	46	-136
-195	132	-183
-87	168	-126
116	143	-8
344	87	79
502	38	59
504	28	-1
363	56	-48
158	90	-92
5	90	-64
-43	41	24
-7	-41	134
38	-107	140
24	-119	26
-61	-61	-102
-176	36	-178
-245	129	-183
-232	174	-135
-144	158	-77
-24	104	-51
76	45	-15
128	8	1
127	-11	0
76	-23	-2
-16	-44	12
-137	-78	32
-260	-101	34
-337	-97	23
-321	-58	2
-197	-10	0
-7	26	-1
180	26	12
285	-2	11
283	-30	-6
198	-27	-40
104	22	-86
74	98	-99
130	163	-78
244	180	-67
333	138	-47
326	58	-18
186	-29	-28
-59	-92	-28
-333	-125	-15
-545	-147	-12
-617	-168	-18
-526	-195	-16
-300	-209	-13
-28	-195	-16
206	-140	-11
328	-61	-4
325	18	26
241	81	63
141	127	100
94	170	116
107	213	87
144	233	21
144	180	-85
66	23	-186
-69	-226	-234
-201	-497	-231
-245	-668	-142
-163	-644	-5
18	-403	74
209	-29	58
326	330	-1
324	539	-40
225	533	-34
92	354	-33
-25	123	-62
-128	-40	-57
-250	-82	-60
-425	-31	-90
-617	34	-99
-744	43	-83
-713	-18	-48
-484	-106	-21
-128	-157	-9
201	-129	-10
371	-40	-18
327	61	-34
150	117	-65
-5	114	-38
-17	71	45
126	37	125
321	42	204
429	85	249
366	136	206
169	158	97
-42	132	-43
-148	71	-207
-113	2	-315
0	-52	-278
84	-80	-167
75	-85	-68
-10	-78	-4
-82	-59	41
-68	-32	53
36	11	23
171	60	-8
241	102	2
202	123	37
84	113	24
-31	82	34
-76	39	2
-39	0	-55
28	-32	-42
62	-51	-12
30	-52	99
-39	-26	217
-95	41	222
-93	140	123
-40	243	-42
30	299	-254
72	257	-403
74	106	-368
51	-125	-245
31	-362	-108
26	-530	-31
24	-573	-4
18	-494	0
3	-349	-48
-10	-206	-53
-11	-117	-41
-18	-93	-51
-55	-108	-31
-135	-124	18
-228	-113	36
-256	-75	45
-167	-25	49
27	16	46
216	43	57
262	58	32
62	67	28
-341	71	35
-743	59	29
-923	34	22
-745	0	21
-270	-17	38
281	6	47
636	75	45
642	171	49
352	257	45
-28	296	27
-257	269	-25
-227	200	-141
-4	119	-221
229	62	-231
318	45	-183
222	58	-82
33	77	10
-99	72	47
-88	37	26
41	-25	-11
189	-94	-50
250	-145	-68
196	-167	-48
78	-149	-2
-11	-98	-12
-20	-29	-67
39	32	-69
113	70	-56
151	76	-1
139	52	94
107	19	149
77	-8	121
49	-15	26
-4	-1	-86
-101	20	-187
-221	38	-195
-299	48	-81
-282	53	35
-169	60	49
-16	74	7
72	81	-8
33	68	-18
-120	33	-33
-291	-28	-34
-366	-93	-39
-288	-141	-41
-80	-157	-30
149	-135	-13
302	-94	6
335	-45	4
283	-7	-40
214	20	-68
172	36	-79
154	45	-105
111	48	-93
28	43	-31
-63	35	42
-88	31	130
10	43	176
203	77	129
375	126	37
383	171	-80
138	181	-201
-298	131	-249
-757	8	-164
-1006	-171	-55
-928	-370	-23
-538	-530	5
-18	-604	17
417	-570	14
584	-434	7
469	-245	-1
183	-60	11
-92	71	22
-204	131	64
-114	141	72
114	138	30
344	159	-9
461	209	-43
405	266	-89
201	287	-122
-52	244	-103
-260	147	-23
-352	28	81
-317	-53	118
-194	-63	100
-46	5	34
72	114	-42
133	209	-117
139	244	-158
107	205	-130
71	100	-93
46	-34	-41
52	-154	-50
81	-229	-63
111	-246	-39
105	-206	-23
22	-131	24
-141	-47	58
-343	19	52
-477	54	10
-454	61	-18
-241	52	-59
94	47	-84
383	52	-32
469	64	26
283	62	37
-77	32	-42
-426	-31	-115
-557	-109	-159
-402	-168	-148
-58	-184	-76
279	-149	-15
428	-78	33
346	4	44
139	72	35
-12	117	21
11	150	27
192	174	21
401	198	-2
478	204	2
354	180	3
71	115	0
-235	15	6
-443	-88	13
-491	-164	-7
-407	-190	-34
-259	-162	-66
-109	-94	-70
19	-12	-79
121	57	-79
196	102	-49
234	105	-45
229	74	-36
193	10	-23
156	-71	-10
151	-147	-8
172	-194	-19
193	-195	-34
164	-152	-38
69	-83	-29
-67	-12	-15
-207	35	-6
-306	56	-11
-370	61	5
-423	61	27
-491	52	41
-553	23	55
-538	-44	29
-378	-148	-9
-67	-248	-54
314	-292	-79
618	-235	-67
707	-76	-78
547	139	-77
212	326	-39
-150	409	37
-377	362	109
-410	218	127
-288	49	61
-114	-74	-44
13	-112	-131
58	-74	-227
49	-2	-211
43	56	-124
68	70	-50
122	33	24
172	-39	70
206	-131	80
234	-222	41
283	-283	-14
360	-300	-58
425	-259	-98
398	-170	-111
214	-59	-45
-118	33	59
-508	81	84
-814	82	22
-904	65	-7
