File Name: not saved
Channel 2: 'Channel 2', 30500 values, raw ADC, no filters.
Channel 3: 'Channel 3', 30500 values, raw ADC, no filters.
Channel 4: 'Channel 4', 30500 values, raw ADC, no filters.

237	-34	32
192	27	79
135	89	101
106	131	62
104	137	-2
94	100	-57
26	29	-122
-121	-56	-176
-315	-131	-160
-465	-190	-108
-486	-224	-59
-335	-235	-38
-50	-228	-45
283	-190	-37
540	-119	-25
639	-12	-10
553	114	-16
323	224	-39
9	274	-16
-288	241	15
-503	123	42
-588	-42	65
-526	-195	70
-350	-283	64
-116	-280	28
100	-187	-18
245	-45	-32
297	99	-19
275	204	0
234	256	-14
210	259	-28
231	228	-32
285	181	-60
344	123	-68
373	63	-69
352	4	-58
262	-37	-13
96	-45	14
-138	-8	-4
-405	66	-44
-631	150	-57
-743	202	-46
-681	194	-74
-448	120	-99
-123	8	-107
171	-100	-116
344	-153	-94
357	-136	-58
260	-67	-26
143	-1	17
86	11	55
96	-62	60
122	-203	57
98	-351	28
-12	-432	11
-165	-395	32
-288	-254	55
-311	-60	52
-218	110	-3
-48	208	-39
113	228	-56
207	209	-56
214	202	-58
147	223	-55
44	243	-31
-57	215	-64
-134	106	-111
-160	-61	-104
-122	-218	-47
-24	-273	1
86	-192	22
138	-12	60
63	171	89
-133	251	44
-378	183	-32
-535	6	-80
-491	-187	-147
-241	-299	-169
101	-286	-93
363	-177	16
417	-49	74
258	32	61
5	48	52
-150	24	32
-97	5	11
139	8	-1
409	26	-19
537	30	-25
425	9	-35
120	-22	-56
-228	-25	-62
-438	18	-63
-420	88	-59
-208	135	-64
66	114	-47
265	19	-42
285	-104	-38
147	-176	5
-77	-151	28
-257	-42	20
-325	83	-24
-257	141	-39
-107	98	-26
42	-16	-40
120	-119	-37
101	-136	-1
18	-49	17
-63	93	11
-79	202	0
-6	212	-25
119	119	-25
234	-19	-15
267	-127	-7
210	-161	7
94	-117	-9
-13	-45	-36
-54	7	-55
-20	21	-70
54	5	-76
104	-7	-58
93	-3	-52
20	17	-60
-69	32	-49
-132	25	-25
-138	1	0
-95	-27	11
-36	-38	8
7	-33	-1
24	-21	-8
21	-19	-7
10	-24	27
-12	-27	72
-43	-11	60
-89	25	-11
-117	64	-21
-93	82	-35
13	67	-89
182	41	-80
350	40	-52
431	93	-11
351	191	-28
115	286	-37
-204	309	-60
-491	209	-117
-647	7	-95
-636	-225	-52
-487	-389	-1
-285	-410	10
-104	-297	-14
21	-121	-57
90	17	-59
138	47	-23
196	-25	-15
276	-132	-28
373	-182	-40
470	-123	-11
536	23	5
527	182	16
407	257	23
150	210	20
-208	58	7
-589	-122	-20
-869	-259	-44
-934	-309	-54
-751	-287	-24
-374	-237	-9
59	-186	-12
411	-144	-20
565	-87	-30
517	2	-13
318	112	-26
71	198	-58
-143	215	-47
-259	150	-10
-248	31	3
-108	-69	17
121	-87	31
371	2	14
522	166	-8
482	330	-22
225	423	-21
-156	406	-1
-508	291	-1
-654	120	-6
-538	-49	10
-221	-180	-12
115	-249	-40
299	-249	-67
252	-189	-82
48	-92	-66
-156	11	-62
-215	81	-38
-94	94	-21
132	56	-45
330	3	-75
414	-21	-80
371	19	-43
269	109	-17
181	199	-30
136	227	1
111	151	70
59	-2	117
-26	-170	105
-124	-278	101
-185	-289	127
-193	-212	84
-178	-101	-27
-183	-13	-123
-234	35	-162
-289	58	-164
-281	97	-147
-155	170	-122
66	253	-106
302	305	-86
439	274	-95
439	155	-87
346	-20	-67
255	-189	-56
234	-309	-14
258	-374	-1
216	-400	2
-4	-417	11
-402	-420	9
-850	-386	-8
-1124	-275	-13
-1065	-88	5
-675	125	42
-125	287	29
334	330	10
517	244	48
419	95	63
198	-13	59
62	1	20
114	139	-31
299	323	-44
446	424	-84
411	352	-117
191	95	-111
-93	-248	-81
-264	-536	-14
-236	-644	21
-63	-533	37
89	-263	28
83	41	3
-96	269	-43
-321	362	-86
-426	337	-63
-321	253	-54
-63	179	-50
201	131	-30
302	93	-9
211	29	7
5	-77	1
-153	-195	0
-153	-275	-10
2	-263	-17
210	-164	-25
346	-15	-31
337	104	-21
205	135	-16
36	72	-19
-87	-35	-23
-133	-110	-11
-115	-99	7
-71	3	31
-25	142	55
22	248	89
69	268	59
103	197	-5
88	79	-51
3	-32	-123
-143	-95	-149
-305	-104	-116
-407	-88	-58
-409	-74	-14
-304	-79	-19
-143	-90	-29
18	-86	-27
136	-49	-25
204	17	-3
238	95	8
255	158	8
266	194	-21
262	197	-71
229	178	-101
162	145	-109
76	103	-125
-15	51	-121
-91	-2	-74
-143	-56	-34
-173	-101	-2
-182	-140	18
-177	-186	31
-161	-244	40
-136	-315	35
-109	-372	21
-65	-378	-5
0	-303	-4
102	-151	19
228	37	16
342	198	15
389	269	48
317	239	39
121	134	-43
-137	24	-54
-366	-34	-47
-473	-19	-58
-426	41	-20
-269	85	19
-102	67	50
-4	-21	35
0	-134	3
-36	-207	-46
-31	-189	-104
63	-81	-114
216	68	-108
340	189	-76
339	223	-28
187	165	8
-39	53	21
-225	-53	18
-269	-108	22
-162	-101	-1
18	-54	-32
162	-6	-56
203	22	-84
162	29	-70
111	33	-90
125	56	-87
211	103	-17
306	161	6
330	210	61
241	236	119
76	233	119
-88	200	67
-173	149	-16
-184	77	-79
-184	-6	-125
-251	-100	-150
-415	-184	-143
-605	-240	-95
-714	-248	-66
-641	-204	-38
-381	-126	-30
-5	-44	-34
344	12	7
565	27	7
620	6	-2
539	-32	-11
385	-56	0
199	-53	34
-2	-19	34
-207	32	27
-377	77	3
-451	96	-21
-377	68	-25
-162	-11	-40
111	-136	-69
311	-282	-81
339	-417	-64
179	-492	-27
-69	-474	-7
-274	-356	-18
-307	-160	-25
-140	67	-8
159	271	37
459	412	47
642	474	39
618	471	35
371	430	-1
-44	372	-50
-513	300	-100
-905	208	-109
-1065	83	-61
-923	-74	-2
-506	-240	13
35	-384	21
501	-460	38
704	-454	5
599	-357	-25
299	-196	-32
18	-15	-25
-64	142	-32
94	233	-83
373	241	-74
581	175	-66
558	69	-75
296	-37	-32
-88	-109	-6
-402	-127	4
-530	-97	12
-452	-36	14
-256	30	16
-47	84	8
104	122	-16
194	141	-48
234	147	-62
231	136	-62
160	117	-65
8	96	-44
-201	86	3
-380	97	-4
-442	126	-60
-340	157	-84
-126	158	-82
92	110	-45
210	18	6
188	-92	14
77	-171	13
-21	-189	11
-30	-137	-6
46	-45	-13
143	47	14
182	94	16
130	81	-4
32	19	-12
-47	-57	-18
-50	-116	-17
11	-133	-16
75	-102	-54
74	-34	-79
-12	43	-83
-139	102	-100
-241	105	-86
-259	33	-74
-191	-107	-18
-78	-265	57
26	-376	77
90	-368	53
120	-222	-6
136	18	-48
159	240	-64
189	325	-99
219	207	-94
258	-79	-53
306	-416	-4
371	-640	41
411	-655	44
371	-460	79
186	-157	87
-137	106	22
-526	221	-32
-834	171	-60
-921	45	-86
-751	-37	-120
-392	4	-90
-24	161	-25
179	345	4
131	469	-13
-123	471	-32
-420	382	-30
-595	273	-2
-547	215	10
-303	223	-25
28	237	-20
314	194	-2
475	54	12
516	-138	14
478	-305	8
419	-356	8
346	-271	-3
244	-103	-15
82	52	-58
-110	109	-79
-263	51	-78
-303	-70	-68
-189	-170	-32
36	-182	-5
257	-102	9
363	16	10
294	103	4
97	112	22
-126	48	47
-253	-39	30
-232	-94	9
-94	-89	-7
69	-30	-51
179	43	-76
201	105	-72
167	147	-80
139	183	-86
156	238	-86
206	301	-65
248	340	-39
236	312	-41
160	190	-49
46	-9	-25
-60	-232	4
-134	-402	25
-173	-475	27
-189	-446	-10
-193	-356	-21
-174	-253	-25
-112	-170	-55
-10	-103	-85
107	-25	-82
199	76	-43
234	186	-25
216	252	8
190	228	39
190	101	63
216	-82	69
215	-228	9
107	-261	-59
-148	-164	-97
-518	-3	-84
-896	108	-56
-1135	74	-51
-1153	-118	-36
-937	-378	-27
-580	-563	-49
-178	-549	-41
158	-312	-23
394	53	-22
537	391	-25
608	549	-11
633	475	14
599	230	10
503	-40	6
358	-203	-13
200	-194	-3
65	-55	41
-14	106	51
-41	189	37
-39	154	45
-27	45	57
-14	-48	14
11	-50	-12
58	55	26
122	215	7
178	343	-113
195	365	-160
155	277	-131
61	123	-98
-56	-18	-36
-164	-89	3
-237	-79	-8
-270	-19	-33
-273	33	-51
-259	40	-88
-240	-6	-109
-209	-81	-67
-161	-143	-24
-96	-165	-30
-13	-134	-9
66	-62	30
127	34	67
154	136	83
143	218	47
107	260	-21
65	238	-86
40	150	-120
39	13	-98
57	-128	-29
77	-226	12
84	-245	10
69	-180	-25
42	-74	-21
24	17	-12
30	43	-28
63	-7	-21
102	-101	-15
120	-183	1
88	-202	-2
-7	-151	-48
-150	-58	-67
-304	11	-51
-422	9	-59
-453	-72	-88
-366	-205	-60
-154	-321	15
128	-368	29
399	-321	22
536	-210	24
450	-82	-51
120	17	-96
-350	67	-111
-779	85	-122
-970	94	-48
-812	118	16
-336	155	37
250	182	26
688	186	22
775	161	24
491	127	24
-2	109	19
-433	114	-8
-589	134	-11
-420	134	-5
-67	92	7
250	4	24
358	-98	33
238	-170	26
17	-178	26
-121	-113	39
-68	2	21
149	131	-24
394	249	-69
531	338	-78
490	389	-86
322	398	-78
127	345	-53
-4	210	-61
-65	-1	-42
-104	-254	-28
-169	-478	-41
-272	-602	-56
-352	-580	-53
-348	-430	-62
-234	-214	-69
-55	-11	-60
102	123	-24
166	181	16
132	195	17
67	210	-6
46	244	-54
120	282	-38
258	277	-20
389	201	-18
438	59	16
375	-96	49
238	-204	84
86	-222	96
-12	-150	89
-37	-30	30
-4	76	-52
41	127	-130
47	117	-188
-14	67	-165
-151	5	-80
-331	-52	34
-509	-103	104
-626	-152	65
-636	-188	7
-540	-192	-104
-370	-153	-241
-189	-68	-236
-51	19	-91
14	59	-17
19	7	-33
3	-131	-20
2	-306	-1
37	-426	7
120	-418	12
248	-257	10
399	9	18
526	283	39
558	461	24
402	482	-16
27	345	-17
-507	115	18
-1004	-119	16
-1150	-278	46
-1054	-326	56
-584	-272	-30
147	-163	-34
749	-49	49
991	33	31
807	71	-16
378	85	-67
-18	92	-111
-144	112	-116
23	147	-105
324	185	-42
523	215	-7
483	218	-15
244	200	-20
-24	165	8
-142	121	-9
-60	79	-17
132	35	22
269	-5	-6
245	-41	-37
81	-61	-20
-112	-59	-19
-217	-31	-15
-199	17	-16
-117	64	-12
-58	98	1
-60	105	3
-71	93	3
-3	79	16
184	81	9
439	111	-27
614	165	-68
583	215	-93
314	230	-92
-94	182	-76
-500	48	-46
-756	-162	-25
-832	-416	0
-787	-655	26
-707	-811	27
-619	-827	5
-493	-681	-23
-272	-402	-47
66	-61	-92
439	253	-130
732	469	-106
811	548	-39
648	495	10
302	345	41
-82	143	60
-378	-85	70
-509	-297	60
-468	-456	40
-291	-508	9
-44	-416	-58
206	-189	-141
381	117	-182
399	391	-134
214	530	-66
-129	481	-42
-516	277	-43
-766	13	-36
-750	-196	-32
-453	-288	-40
-16	-272	-8
346	-207	49
482	-162	63
355	-156	40
110	-162	54
-51	-129	41
2	-28	21
253	113	26
526	233	0
624	273	-16
439	221	-25
48	121	-43
-379	44	-58
-627	42	-74
-605	106	-52
-357	188	-7
-37	218	36
210	171	20
302	77	-18
266	-13	-40
169	-46	-86
85	-20	-97
36	27	-83
17	45	-59
8	13	-25
2	-48	-7
12	-87	-20
41	-56	-26
79	35	-4
99	145	-2
90	205	-16
64	178	-12
59	84	2
107	-14	-22
201	-41	-69
296	35	-55
322	190	-20
250	345	-25
98	420	-74
-46	359	-82
-104	168	-86
-48	-108	-66
67	-394	13
133	-628	6
52	-759	0
-199	-767	1
-540	-655	1
-810	-457	28
-889	-215	36
-740	3	29
-443	137	9
-149	154	4
13	71	2
17	-45	-44
-55	-123	-108
-77	-118	-134
49	-47	-108
297	30	-30
552	43	26
660	-35	55
537	-162	38
215	-250	-6
-170	-213	-16
-459	-35	-40
-565	215	-28
-475	422	19
-275	487	15
-70	390	-27
78	197	-34
159	24	-4
190	-47	-3
198	-7	3
190	81	51
161	128	79
118	88	41
92	-16	-14
104	-105	-62
166	-108	-93
242	-13	-105
283	128	-99
254	230	-81
159	230	-68
48	134	-54
-24	12	-43
-35	-61	-48
-11	-51	-68
-1	19	-51
-47	85	-28
-139	93	-13
-226	30	0
-247	-58	-5
-184	-118	1
-61	-117	-20
58	-64	-84
138	-4	-82
180	29	-17
221	27	-16
288	25	12
369	59	58
401	145	107
325	261	144
136	358	62
-101	400	-20
-263	366	-67
-287	272	-98
-182	138	-131
-60	-22	-158
-53	-203	-139
-214	-401	-83
-470	-582	-15
-654	-703	19
-605	-715	30
-288	-612	28
166	-413	14
527	-184	-44
600	9	-84
332	120	-63
-147	137	-40
-602	68	-35
-810	-61	-20
-704	-228	-2
-370	-387	0
16	-482	-11
287	-459	-15
370	-294	-4
302	-28	-14
188	244	-17
97	416	0
67	418	22
94	272	19
165	87	24
276	-14	52
415	39	64
537	218	53
541	410	48
341	497	26
-77	427	-43
-598	239	-99
-1025	39	-135
-1138	-72	-127
-872	-68	-98
-325	2	-71
245	62	6
598	59	69
591	5	31
312	-38	-46
-23	-20	-63
-180	67	-60
-82	166	-70
186	202	-100
431	134	-67
506	-11	10
383	-157	28
162	-227	7
-5	-192	-42
-47	-95	-90
-1	-3	-123
33	26	-116
-19	-7	-34
-141	-54	75
-239	-56	184
-211	20	216
-36	153	145
204	287	19
388	364	-128
414	353	-247
284	268	-272
90	139	-165
-61	1	-82
-108	-128	-35
-65	-240	28
15	-326	26
75	-378	14
109	-379	-4
135	-336	-12
170	-270	-4
186	-215	-10
125	-194	-23
-46	-206	-23
-321	-224	-2
-605	-210	-4
-793	-147	-11
-805	-43	-41
-654	62	-56
-420	126	-34
-210	125	-13
-96	63	-3
-77	-24	13
-101	-99	8
-99	-130	-13
-31	-112	-21
86	-54	-22
213	18	-25
296	84	-34
314	135	-23
279	169	-13
226	187	8
186	193	17
172	188	22
175	174	19
167	148	-8
109	113	-16
-10	74	-14
-158	32	-20
-281	-6	-21
-318	-37	-11
-224	-55	15
-25	-55	59
190	-31	72
314	11	35
270	59	-15
79	94	-64
-170	95	-117
-333	57	-151
-319	-5	-148
-118	-61	-105
160	-84	-79
383	-51	-56
452	19	-34
354	90	12
170	122	81
4	93	98
-65	10	90
-46	-88	49
16	-157	-2
59	-167	-72
54	-119	-136
23	-39	-157
-3	40	-159
-2	101	-142
13	139	-66
18	170	29
-2	207	48
-30	244	24
-20	261	-2
52	236	-20
188	160	-31
324	45	-47
399	-69	-71
360	-151	-40
214	-181	-11
5	-167	-17
-195	-145	5
-342	-144	16
-393	-174	26
-363	-208	5
-263	-200	-50
-134	-113	-50
-24	53	-51
13	243	-63
-54	362	-48
-221	327	-54
-404	94	-21
-518	-291	16
-497	-721	24
-351	-1048	28
-169	-1162	5
-64	-1018	-11
-89	-671	-19
-198	-241	-20
-267	150	-38
-198	405	-39
17	497	-8
268	468	28
414	391	43
366	330	31
183	305	9
14	305	-26
-2	295	-74
159	252	-79
366	182	-25
455	117	-6
319	89	-32
24	109	-57
-253	157	-47
-325	194	-16
-148	191	-27
160	142	-57
383	68	-62
381	4	-78
160	-26	-72
-113	-18	-34
-259	6	4
-183	20	36
48	9	34
270	-21	23
346	-50	9
260	-60	-25
106	-45	-61
6	-20	-70
15	-3	-10
81	-9	39
92	-34	14
-20	-56	-32
-221	-54	-62
-379	-16	-50
-371	52	-33
-153	127	-7
183	183	-12
475	202	-53
583	188	-54
466	148	-51
191	98	-46
-109	45	-26
-316	-8	5
-392	-63	41
-352	-124	62
-253	-183	65
-148	-235	3
-62	-270	-48
-19	-282	-44
-26	-268	-91
-93	-221	-130
-198	-137	-74
-291	-30	-28
-318	77	-3
-232	145	19
-55	137	21
139	35	33
257	-138	10
244	-326	-18
107	-456	-47
-77	-473	-74
-234	-378	-87
-318	-228	-64
-336	-100	-25
-336	-51	-20
-345	-90	-16
-354	-157	-16
-313	-171	-2
-178	-78	24
49	110	19
302	325	-1
502	471	-6
562	483	-16
484	379	-20
314	215	-19
147	90	-34
39	51	-41
14	88	-30
32	140	-34
42	144	-42
17	84	-25
-39	-7	0
-83	-60	12
-76	-31	0
2	70	-4
121	181	-14
240	229	-34
306	177	-48
297	50	-63
216	-76	-59
100	-134	-19
-16	-104	37
-100	-19	57
-134	47	21
-125	45	-67
-91	-26	-122
-47	-116	-143
-13	-163	-159
9	-133	-97
18	-39	-7
18	58	18
14	114	-16
4	106	-56
-7	57	-83
-24	15	-85
-40	10	-28
-54	46	8
-60	94	8
-52	121	72
-24	113	96
29	83	79
103	47	70
190	18	106
266	-12	186
300	-58	140
270	-122	31
175	-178	-79
40	-183	-186
-99	-113	-249
-199	17	-232
-259	140	-124
-295	181	-54
-350	90	-60
-448	-117	-97
-572	-358	-81
-669	-537	-19
-659	-586	14
-502	-510	24
-224	-370	44
78	-233	42
296	-150	11
346	-105	-10
248	-57	-38
78	26	-52
-49	143	-56
-68	251	-49
12	301	-34
118	272	-4
183	187	5
181	97	-13
167	42	-27
208	31	-30
329	39	0
470	41	23
501	34	41
322	43	65
-71	103	60
-526	210	22
-837	324	-21
-832	369	-86
-505	292	-104
7	99	-82
451	-138	-38
656	-316	-7
584	-356	-7
365	-254	-18
170	-75	-88
116	85	-115
170	153	-106
199	112	-71
83	16	-11
-191	-70	41
-489	-102	101
-623	-77	102
-468	-22	61
-65	29	18
405	65	-47
709	101	-87
709	148	-103
436	203	-93
51	237	-51
-248	214	-69
-350	121	-62
-267	-17	-4
-117	-147	21
-28	-212	26
-48	-189	38
-140	-97	34
-206	15	14
-178	103	-12
-47	145	-55
119	151	-93
240	137	-124
249	117	-91
148	77	5
-16	4	70
-175	-100	66
-285	-203	65
-321	-254	50
-291	-211	2
-214	-65	-47
-118	131	-82
-27	298	-43
28	353	-8
36	261	-30
0	48	-54
-56	-224	-44
-95	-471	-44
-77	-637	-70
4	-698	-67
130	-654	-67
259	-532	-57
358	-351	-47
417	-140	-30
445	59	-31
458	205	-54
454	257	-52
407	213	-37
276	112	-16
48	19	-7
-255	-6	-15
-546	56	-26
-733	168	-50
-754	256	-75
-615	257	-68
-392	157	-40
-202	5	-30
-125	-116	-13
-173	-138	12
-281	-52	25
-351	89	31
-310	209	36
-150	244	22
74	191	22
261	89	24
341	4	21
301	-20	24
186	12	7
60	65	-21
-16	96	-29
-29	80	-23
0	29	-13
44	-23	0
90	-46	10
137	-31	14
197	14	-5
266	64	-41
321	98	-99
332	106	-144
288	90	-131
209	60	-45
137	27	44
111	-3	48
139	-27	13
190	-43	3
206	-51	12
154	-57	3
29	-64	-4
-117	-76	-39
-225	-83	-76
-245	-74	-40
-183	-37	-10
-82	27	22
5	106	32
41	177	5
31	211	-19
5	199	-66
-8	142	-80
-4	66	-87
-8	-3	-70
-52	-50	-33
-151	-68	-69
-279	-76	-133
-380	-94	-118
-393	-147	-62
-287	-241	-28
-70	-356	-2
202	-459	5
439	-492	4
575	-433	-15
558	-280	-31
397	-86	-16
137	67	-3
-133	110	-25
-345	20	-32
-453	-156	-24
-452	-322	-7
-389	-381	21
-315	-278	19
-267	-52	34
-250	201	8
-234	372	-16
-191	393	-14
-107	282	-9
-3	127	3
83	28	-5
122	41	-11
115	155	-54
86	290	-91
64	362	-112
58	318	-95
52	177	-32
21	0	-15
-44	-134	-21
-126	-180	-21
-182	-139	-14
-172	-49	-3
-89	37	20
40	93	52
170	109	76
269	102	80
326	90	45
357	90	4
380	104	-76
394	129	-172
378	158	-200
314	171	-93
198	159	6
44	103	13
-100	3	55
-210	-117	70
-262	-224	75
-264	-278	40
-237	-261	10
-191	-186	-12
-138	-91	-43
-82	-19	-26
-25	12	-14
29	13	-6
72	21	-8
104	66	-37
127	147	-59
142	233	-55
151	279	-81
141	265	-77
111	194	-75
60	100	-49
3	22	-33
-47	-34	-36
-82	-87	-20
-107	-166	-32
-138	-279	0
-177	-400	-51
-194	-466	-88
-140	-429	-63
27	-281	-62
302	-66	-50
600	123	-54
777	209	-30
695	157	-26
301	-3	-18
-329	-199	-13
-973	-355	4
-1324	-421	45
-1213	-403	54
-1104	-334	46
-511	-256	51
116	-191	69
548	-128	26
715	-44	-38
665	78	-100
553	230	-147
495	372	-193
503	468	-194
486	475	-96
337	398	31
28	270	69
-355	143	49
-632	53	51
-669	19	27
-439	30	19
-68	58	-3
254	85	-35
371	93	-52
253	85	-51
4	66	-34
-226	44	-24
-318	26	-2
-253	13	18
-109	15	33
23	37	24
82	76	15
78	116	8
54	133	4
47	109	9
57	35	11
57	-63	-6
23	-157	-44
-35	-210	-70
-83	-217	-85
-88	-192	-45
-43	-173	-8
21	-181	-20
66	-214	-29
77	-244	-43
64	-227	-56
61	-135	-57
82	17	-26
109	189	21
102	319	57
28	365	60
-92	323	27
-199	221	-7
-223	104	-27
-127	5	-45
61	-60	-46
261	-109	16
382	-149	56
375	-182	29
254	-190	-18
69	-153	-70
-111	-67	-110
-237	45	-171
-300	138	-211
-303	170	-155
-262	129	-88
-195	43	-21
-116	-37	0
-60	-71	-71
-59	-51	-84
-131	-16	-108
-255	-11	-121
-361	-66	-67
-387	-170	8
-285	-260	43
-93	-278	16
116	-195	38
238	-45	77
225	97	72
101	161	24
-39	116	-16
-94	6	-17
-5	-103	-21
198	-144	-44
422	-111	-68
552	-43	-69
517	-6	-45
314	-37	2
12	-115	52
-303	-181	68
-532	-170	77
-626	-65	93
-558	93	99
-352	238	74
-52	310	26
250	299	-24
483	237	-72
575	174	-76
526	135	-42
373	114	-18
209	85	-5
99	24	-45
65	-52	-83
68	-113	-83
40	-127	-121
-58	-94	-149
-211	-43	-138
-345	-14	-70
-390	-19	-18
-315	-34	4
-162	-21	9
-16	52	-28
55	168	-19
37	269	-21
-22	305	-12
-59	244	2
-36	124	6
30	2	26
87	-69	24
97	-81	18
62	-66	21
33	-70	12
56	-108	-11
140	-145	-40
245	-129	-46
294	-29	-26
241	115	-34
91	213	-26
-83	183	-6
-204	1	-14
-211	-251	-16
-109	-436	-18
46	-441	-40
180	-242	-35
224	49	-43
149	272	-89
-28	295	-86
-251	100	-65
-444	-203	-60
-526	-452	-19
-452	-527	7
-241	-421	7
38	-233	15
286	-90	18
417	-61	12
409	-121	-15
300	-178	-47
163	-141	-37
37	3	26
-69	191	40
-199	324	-20
-358	339	-64
-502	248	-71
-539	132	-62
-385	78	-39
-59	113	28
302	203	64
508	272	36
436	268	23
89	194	3
-350	98	-34
-639	41	-56
-610	41	-59
-270	68	-45
184	72	-72
517	19	-79
569	-79	-55
369	-169	-56
67	-196	-50
-143	-151	-58
-164	-62	-84
-35	10	-104
107	26	-118
159	-11	-93
94	-59	28
-1	-76	71
-22	-38	46
79	34	71
248	97	54
374	120	32
366	101	-6
209	66	-14
-3	51	-1
-153	72	-31
-164	120	-50
-51	165	-75
98	182	-66
182	169	-40
156	135	1
48	97	32
-63	53	37
-114	-5	24
-90	-103	-35
-39	-235	-72
-26	-381	-53
-93	-495	-30
-221	-533	-2
-350	-469	29
-392	-311	62
-307	-92	13
-98	132	-56
172	311	-79
422	393	-131
562	356	-157
547	201	-103
373	-35	-20
91	-289	19
-221	-482	28
-455	-558	9
-554	-501	-5
-501	-332	11
-348	-111	-16
-181	101	-63
-87	257	-59
-94	335	-3
-168	335	20
-232	257	6
-229	123	-6
-159	-40	-12
-79	-184	-5
-60	-256	-11
-133	-219	-18
-245	-82	-15
-296	97	-6
-201	237	-7
42	275	-18
333	215	-8
540	114	-1
569	53	-13
439	89	-16
253	205	8
137	331	22
145	382	9
234	322	-12
288	175	-42
222	18	-72
28	-82	-125
-202	-108	-147
-352	-93	-130
-350	-92	-132
-212	-132	-105
-34	-192	-37
91	-222	38
136	-169	59
128	-47	40
127	85	17
162	155	-9
209	120	-27
214	2	-51
139	-126	-48
12	-185	-22
-104	-140	-3
-129	-16	31
-49	115	69
90	189	93
198	180	43
202	117	-52
97	57	-105
-67	43	-150
-195	84	-176
-228	145	-115
-154	171	-25
-17	129	31
118	14	46
203	-140	45
216	-283	56
175	-375	41
103	-393	-24
23	-357	-47
-50	-288	-9
-105	-212	-12
-136	-136	-51
-156	-61	-92
-178	11	-70
-237	64	-37
-340	64	-35
-480	-16	-10
-600	-174	14
-638	-351	26
-551	-453	22
-345	-395	24
-83	-164	-13
151	174	-69
288	475	-98
334	599	-80
341	483	-35
385	189	-25
493	-131	-15
599	-311	-16
580	-272	2
328	-56	13
-161	197	-8
-758	345	-8
-1210	328	-5
-1115	194	-9
-1020	58	-10
-469	16	-14
214	86	-12
695	195	21
835	248	2
664	189	-38
370	39	-56
145	-111	-58
100	-185	-42
179	-157	-64
249	-64	-58
202	10	-17
33	18	-20
-149	-38	-23
-215	-106	17
-104	-130	49
128	-89	74
354	-9	63
452	61	21
384	85	5
213	62	-64
48	23	-133
-34	2	-129
-38	12	-92
-22	35	-50
-53	43	-44
-144	26	-68
-245	-6	-89
-281	-29	-102
-209	-19	-89
-41	28	-44
144	93	-16
277	152	7
325	191	36
314	206	78
312	198	111
365	160	86
462	71	22
539	-78	-43
494	-273	-114
262	-469	-154
-141	-601	-136
-611	-611	-76
-1004	-497	17
-1162	-290	41
-1034	-59	27
-659	134	26
-195	261	-5
195	319	2
371	321	41
313	275	53
104	183	36
-111	54	8
-207	-87	-24
-150	-186	-55
-2	-206	-42
117	-143	-25
107	-54	-26
-28	-25	-63
-198	-109	-116
-260	-297	-125
-130	-488	-103
154	-562	-60
439	-434	-8
546	-136	32
350	213	52
-103	469	66
-603	538	69
-902	435	51
-840	261	5
-439	137	-77
99	112	-125
506	145	-121
598	149	-71
368	51	-27
-3	-127	-12
-279	-301	6
-308	-356	-13
-101	-246	-37
192	-20	-25
383	210	-40
387	330	-47
245	305	-39
99	189	-37
65	78	-7
159	45	6
292	94	17
346	164	43
262	174	43
77	100	40
-98	-29	103
-166	-136	83
-107	-159	-47
3	-88	-81
68	30	-130
42	125	-202
-34	162	-174
-69	142	-61
14	115	2
206	123	-6
419	171	1
508	224	-9
409	218	-32
129	124	-66
-214	-53	-86
-497	-263	-76
-619	-434	-66
-588	-521	-52
-470	-509	-32
-351	-418	0
-280	-283	51
-252	-134	76
-214	10	62
-125	147	54
18	266	47
183	356	-19
302	391	-83
339	350	-66
283	218	-31
166	3	16
22	-263	38
-109	-525	25
-217	-700	11
-300	-727	-26
-347	-581	-57
-345	-296	-85
-285	30	-80
-170	274	-54
-21	341	-52
114	227	-16
214	8	-6
273	-167	-8
309	-186	3
344	-23	0
381	240	-10
388	458	-28
331	505	-31
200	372	-30
18	127	-8
-145	-88	9
-243	-171	-3
-262	-109	-15
-248	13	-9
-255	89	-21
-314	58	-37
-394	-52	-41
-419	-154	-51
-305	-159	-38
-38	-47	-22
302	120	0
583	247	8
688	265	10
553	181	-3
245	67	-58
-108	1	-21
-375	23	43
-474	95	53
-407	139	20
-232	97	-44
-28	-36	-77
132	-192	-115
226	-292	-144
242	-274	-164
201	-157	-114
119	-2	-36
26	106	10
-49	126	59
-75	78	74
-23	11	104
103	-11	80
274	35	-36
433	128	-125
520	224	-167
478	272	-128
302	258	-25
27	182	14
-274	72	24
-522	-49	25
-635	-166	-7
-589	-272	-24
-419	-355	-24
-194	-393	-28
8	-363	-62
117	-249	-78
132	-68	-76
91	123	-76
55	252	-35
75	254	-14
148	122	-9
216	-91	8
211	-273	-13
71	-326	-30
-197	-218	-26
-500	-11	1
-714	150	24
-726	128	5
-505	-128	-2
-115	-534	13
306	-893	-2
618	-1005	0
749	-774	21
707	-269	16
575	305	19
422	723	5
262	830	-8
48	625	-16
-255	272	-10
-627	-19	-8
-965	-113	-21
-1095	-7	-11
-937	179	-17
-507	301	-42
28	287	-72
458	165	-89
603	41	-87
470	9	-87
212	92	-66
32	228	-47
44	327	-35
222	323	-38
411	221	-44
456	84	-40
299	-18	-38
12	-48	-18
-237	-29	-28
-329	-3	-32
-243	-5	-22
-74	-36	0
64	-64	27
102	-64	61
62	-31	100
27	10	74
58	19	40
155	-20	-5
259	-98	-88
299	-175	-178
245	-223	-178
140	-222	-87
44	-182	-28
2	-123	5
12	-55	44
34	13	97
30	93	91
-14	174	63
-84	244	28
-151	275	-51
-213	241	-95
-271	149	-91
-329	23	-63
-366	-95	-48
-344	-178	-19
-232	-212	34
-40	-210	58
159	-188	11
296	-160	-59
306	-135	-44
216	-120	-71
97	-119	-124
36	-135	-89
72	-159	-60
157	-171	-32
199	-144	-15
119	-77	-45
-87	18	-34
-337	89	-70
-497	86	-82
-474	-3	-16
-262	-142	15
37	-253	42
285	-260	22
374	-137	2
287	65	14
84	257	19
-121	351	6
-245	313	-11
-269	196	-36
-225	77	-59
-164	27	-42
-115	50	-23
-75	91	3
-20	81	34
47	-11	-43
107	-137	-128
121	-222	-88
72	-189	-45
-15	-43	-41
-77	139	-76
-51	259	-74
80	240	-39
265	98	-39
417	-78	-5
430	-182	24
269	-160	28
-35	-34	15
-364	110	28
-603	185	38
-647	153	41
-489	47	35
-189	-49	4
130	-76	-11
359	-17	-35
432	86	-46
355	164	-51
192	170	-40
27	106	-26
-78	19	-27
-103	-40	-32
-72	-39	-35
-26	12	-30
7	77	-14
22	110	10
35	85	25
60	7	34
113	-90	19
183	-166	9
262	-182	-11
337	-123	-39
382	2	-50
363	156	-55
249	280	-42
26	324	-55
-280	252	-68
-572	76	-53
-756	-160	-46
-740	-379	-59
-533	-519	-86
-212	-553	-104
89	-497	-68
258	-393	-4
270	-292	87
181	-222	175
84	-167	179
49	-112	126
77	-37	43
113	52	-96
91	131	-236
-5	174	-278
-141	168	-185
-239	135	-50
-245	108	3
-149	112	11
3	148	6
140	183	-9
216	175	-51
208	105	-59
137	-19	-35
37	-141	-41
-56	-198	-40
-113	-149	-42
-110	-3	-20
-46	181	-7
52	317	-32
148	339	-45
188	238	-64
151	58	-82
60	-112	-69
-26	-201	-31
-52	-181	12
-2	-80	42
85	38	54
135	106	60
86	101	101
-61	48	116
-233	-7	70
-325	-17	14
-267	19	-38
-59	74	-71
231	102	-81
496	80	-68
648	22	-50
656	-25	-36
528	-23	-43
292	38	-28
-7	121	-24
-325	168	-24
-626	134	14
-822	26	11
-872	-108	8
-757	-192	5
-521	-182	8
-256	-71	0
-61	96	-12
12	252	-28
-1	345	-50
-24	345	-54
24	261	-48
167	109	-15
354	-87	-21
503	-296	-48
526	-477	-70
406	-578	-57
183	-556	-36
-60	-411	-44
-263	-195	-50
-387	-1	-59
-423	87	-63
-381	32	-52
-262	-123	-37
-70	-287	-23
172	-359	-5
419	-298	19
606	-131	53
664	56	79
554	186	104
309	224	105
0	190	51
-288	137	-33
-465	101	-105
-497	84	-150
-402	60	-169
-237	8	-143
-64	-56	-67
58	-90	-11
118	-37	-22
135	112	-28
149	309	-37
195	461	-30
273	481	11
351	344	-1
373	99	-13
299	-145	-10
114	-286	-33
-129	-276	-44
-345	-145	-50
-463	16	-48
-439	119	-43
-296	117	-14
-93	33	48
92	-63	55
216	-102	60
273	-50	27
278	65	-11
253	183	-58
198	247	-89
96	228	-62
-63	147	-3
-253	45	56
-428	-32	51
-516	-74	42
-481	-86	-1
-343	-94	-42
-163	-119	-88
-15	-159	-108
48	-198	-119
42	-215	-144
13	-192	-114
17	-127	-65
77	-29	-23
172	93	-14
258	223	-15
300	341	-15
296	417	-17
271	410	-15
261	287	-27
262	42	-12
242	-283	43
155	-602	64
-30	-805	70
-291	-813	90
-551	-627	80
-719	-326	39
-714	-49	-24
-526	91	-114
-200	64	-177
143	-67	-139
398	-168	-62
474	-134	-11
363	55	-5
118	311	-21
-135	485	-25
-292	471	-27
-285	268	-18
-126	-6	-10
113	-195	19
318	-192	24
407	-9	4
353	229	-14
191	369	-21
-7	323	-34
-162	126	-57
-240	-91	-53
-236	-198	-46
-174	-134	-43
-83	42	-31
21	210	-2
125	257	-3
230	162	-5
306	-4	18
339	-133	22
300	-147	26
190	-54	11
20	66	1
-170	125	-3
-340	80	-23
-453	-33	-48
-480	-134	-58
-410	-151	-58
-261	-70	-58
-68	51	-41
121	143	-31
254	153	-21
302	85	-16
274	-10	11
197	-71	54
119	-76	76
72	-39	31
56	0	-40
52	11	-24
32	0	-54
-16	-5	-127
-72	30	-96
-107	102	-51
-91	181	-42
-24	215	-10
72	177	-22
164	71	-72
232	-53	-52
275	-128	-10
300	-116	5
306	-20	39
268	105	52
159	186	12
-44	170	-41
-295	48	-84
-526	-141	-126
-639	-340	-164
-588	-490	-137
-380	-566	-68
-101	-573	-15
143	-531	-9
279	-453	-24
284	-333	-39
215	-171	-51
148	26	-35
141	219	-24
204	353	-8
273	380	10
269	295	0
119	147	-7
-178	10	17
-565	-44	34
-896	-6	10
-1043	76	9
-927	122	9
-572	71	0
-88	-72	-8
344	-238	-20
595	-322	6
608	-263	24
456	-64	41
251	186	66
115	372	31
87	418	-10
128	312	-15
162	122	9
132	-49	24
59	-136	14
-5	-119	-24
-10	-43	-100
37	33	-153
81	68	-154
52	59	-108
-64	38	-66
-214	31	-53
-297	54	-49
-239	92	-48
-46	119	-48
186	121	-51
346	102	-30
361	81	1
250	67	37
88	65	65
-26	54	49
-60	20	21
-44	-40	-19
-39	-106	-76
-83	-149	-122
-148	-150	-97
-177	-109	-28
-122	-54	26
4	-12	20
129	4	-4
171	-1	9
94	-3	-18
-55	15	-28
-179	63	-10
-195	121	-9
-96	170	9
46	191	18
137	177	-9
116	139	-9
11	88	13
-88	32	13
-90	-23	-32
23	-72	-70
183	-106	-64
283	-121	-42
245	-115	-34
94	-102	-31
-90	-95	-24
-178	-99	-15
-105	-104	1
114	-81	-21
382	-15	-48
592	86	-46
655	174	-51
539	194	-51
253	92	0
-149	-123	28
-615	-388	28
-1036	-606	19
-1294	-690	-7
-1205	-602	-20
-1071	-378	-44
-603	-104	-56
-76	120	-66
326	233	-52
506	219	-36
475	126	-46
354	17	-42
280	-49	-23
323	-46	-21
430	15	-18
482	103	-20
391	174	-34
158	206	-32
-102	192	-40
-267	142	-36
-264	82	-5
-142	30	30
-5	0	14
42	-5	-5
-20	10	-39
-115	36	-71
-147	70	-30
-60	103	-2
100	126	48
238	139	60
262	139	8
156	127	-62
-22	105	-134
-174	72	-138
-227	32	-116
-173	-17	-47
-64	-63	60
44	-99	105
111	-102	81
129	-63	54
107	12	-19
52	100	-106
-26	161	-114
-117	162	-128
-182	92	-112
-184	-28	-46
-102	-156	2
31	-247	-19
151	-274	-66
188	-247	-82
118	-188	-78
-12	-129	-23
-122	-83	41
-145	-41	84
-75	9	90
35	84	64
111	175	19
111	273	-35
52	349	-32
-9	388	-46
-24	372	-66
11	300	-62
45	166	-49
29	-22	-42
-55	-232	-48
-170	-420	-7
-242	-532	19
-209	-536	28
-74	-439	41
104	-286	48
251	-135	49
310	-26	20
277	44	-16
181	105	-35
56	183	-59
-84	278	-82
-245	340	-97
-413	313	-118
-546	178	-103
-569	-23	-105
-431	-205	-62
-135	-282	1
209	-243	30
450	-138	47
456	-65	36
199	-86	47
-221	-182	26
-603	-260	-14
-762	-224	-43
-619	-41	-39
-237	215	-38
222	406	-47
568	413	-42
689	218	-33
591	-77	-18
373	-305	-9
151	-346	-13
4	-181	-12
-52	79	1
-64	286	-15
-66	330	-36
-78	198	-42
-79	-16	-22
-50	-196	-12
8	-264	-35
75	-223	-36
117	-118	-8
119	-16	53
87	52	87
54	98	57
46	139	-16
68	187	-94
107	221	-145
132	211	-137
130	155	-31
94	74	37
42	12	20
-8	-3	4
-48	27	-30
-72	64	-76
-84	68	-86
-79	28	-81
-60	-36	-74
-25	-78	-50
19	-63	-20
61	2	-10
90	80	-19
96	121	-28
87	106	-38
72	46	-24
66	-12	-10
71	-27	-6
84	17	3
89	98	19
74	169	51
32	195	59
-30	162	67
-89	89	76
-113	4	26
-80	-64	-86
26	-111	-164
178	-150	-160
320	-196	-107
374	-268	-92
285	-355	-87
26	-443	-8
-346	-509	16
-699	-538	12
-895	-519	16
-805	-452	-14
-421	-337	-40
139	-171	-91
652	35	-120
886	260	-90
701	461	-74
132	586	-48
-595	590	5
-1155	457	29
-1170	230	64
-1010	-19	117
-357	-201	119
359	-263	101
806	-211	85
831	-104	-10
493	-26	-109
35	-27	-131
-286	-98	-104
-314	-174	-45
-92	-178	-40
198	-78	-44
363	96	-38
326	256	12
151	318	62
-11	253	81
-44	109	64
67	-18	-7
240	-47	-76
355	41	-135
358	183	-150
268	287	-102
161	278	13
82	150	44
24	-31	-24
-70	-178	-40
-239	-229	-51
-442	-185	-54
-580	-98	-62
-553	-28	-61
-338	-4	-56
-12	-9	-28
269	-2	23
389	49	45
324	138	30
159	227	-14
23	265	-20
5	233	-37
97	143	0
222	34	8
283	-48	-36
251	-87	-17
157	-82	-4
69	-51	5
18	-16	13
-18	12	34
-99	31	21
-260	41	-37
-470	39	-81
-654	17	-101
-714	-25	-107
-627	-84	-56
-438	-148	-19
-237	-205	17
-87	-242	42
3	-252	38
86	-230	57
221	-171	-7
399	-90	-52
562	-18	-63
611	2	-79
498	-56	-58
245	-188	-32
-27	-346	6
-203	-451	10
-214	-433	8
-82	-274	21
105	-21	7
225	231	-30
206	395	-59
39	427	-93
-218	353	-103
-500	243	-75
-724	164	-17
-837	135	38
-812	132	24
-645	110	-21
-370	35	-49
-46	-74	-81
237	-175	-123
416	-214	-120
455	-175	-28
395	-77	26
302	38	12
254	127	26
283	177	53
359	192	40
430	183	29
439	154	42
389	98	51
299	19	31
221	-64	-20
183	-115	-58
167	-105	-127
132	-31	-165
39	69	-135
-106	143	-114
-250	149	-79
-330	77	-23
-295	-28	5
-160	-113	14
8	-134	7
111	-91	-10
97	-12	-23
-33	63	-7
-208	100	14
-332	100	7
-336	81	13
-217	64	21
-46	66	-12
86	85	-18
119	119	-7
46	158	-2
-69	190	21
-143	190	7
-117	126	-30
7	-27	-71
166	-263	-112
275	-526	-111
271	-715	-99
158	-744	-41
-25	-575	46
-191	-260	52
-285	83	45
-278	318	51
-195	369	35
-89	248	33
-10	47	7
12	-127	-13
-10	-211	-53
-42	-208	-138
-40	-173	-180
25	-151	-137
139	-152	-56
266	-137	-21
342	-61	-37
335	81	-19
253	244	16
148	350	14
72	349	10
50	244	-3
44	105	-13
-17	3	-6
-185	-23	-10
-443	15	-15
-676	56	-14
-744	54	-2
-556	2	-5
-144	-57	-5
342	-70	-4
697	-16	-12
768	83	-26
541	169	-31
153	195	-23
-213	155	0
-410	85	30
-389	34	44
-221	27	31
-21	57	7
111	86	-31
140	83	-61
81	41	-65
-29	-8	-96
-152	-42	-79
-249	-53	-80
-292	-57	-112
-249	-88	-100
-106	-149	-91
105	-218	-46
311	-251	-19
434	-213	-7
422	-104	22
294	38	57
111	157	46
-30	211	-12
-86	197	-20
-56	142	-16
9	81	-14
62	30	20
68	-6	17
31	-43	1
-30	-77	-6
-95	-92	-23
-147	-63	-27
-170	6	-40
-148	88	-13
-57	126	24
87	85	57
262	-35	44
399	-183	-46
439	-279	-86
366	-261	-159
192	-129	-238
-39	55	-199
-276	194	-75
-477	203	65
-626	59	77
-682	-186	64
-619	-427	68
-405	-563	61
-63	-517	38
336	-312	-39
654	-25	-96
771	233	-107
623	362	-72
260	333	-72
-185	177	-40
-537	-11	24
-668	-142	40
-542	-163	43
-232	-86	22
135	22	1
417	93	-40
506	89	-59
380	33	-67
82	-18	-54
-271	-11	-40
-554	66	-47
-647	171	-31
-536	244	-36
-271	233	-31
13	131	-26
195	-8	-18
209	-121	-14
94	-158	-20
-40	-119	-23
-86	-39	-35
-3	30	-6
155	61	9
285	57	-7
310	43	-14
225	53	-22
106	87	-15
56	131	-1
122	162	1
274	165	-9
417	138	-11
468	106	-9
394	88	-3
233	85	19
47	93	20
-98	93	10
-197	80	-4
-259	55	-16
-288	28	-13
-281	4	-17
-214	-15	16
-88	-33	37
59	-55	-8
163	-77	-25
175	-84	-79
103	-74	-137
-5	-49	-111
-79	-35	-97
-81	-53	-23
-34	-116	76
4	-205	85
-10	-280	54
-76	-300	-26
-145	-234	-117
-168	-102	-185
-123	45	-176
-50	135	-78
-2	117	24
-21	-23	29
-91	-244	-15
-161	-459	-9
-180	-581	-17
-141	-552	-32
-83	-372	-62
-54	-101	-92
-74	171	-67
-101	356	-29
-70	410	-23
61	345	-11
263	225	4
439	114	7
459	62	-1
254	79	-41
-125	132	-74
-534	188	-76
-797	213	-63
-792	210	-38
-535	183	-20
-153	140	-3
162	68	19
294	-41	37
222	-188	27
56	-334	42
-58	-419	37
-26	-390	21
145	-243	55
346	-32	22
454	154	-15
397	233	-46
212	177	-116
4	43	-101
-120	-75	-35
-112	-98	-3
-11	-4	-12
99	155	-11
150	291	4
133	333	-2
96	269	-3
89	150	-30
133	45	-34
199	4	-12
230	17	-1
183	38	-14
66	18	-39
-70	-56	-22
-172	-153	-10
-203	-216	1
-174	-206	11
-115	-122	22
-62	-5	22
-20	95	6
21	144	-5
76	151	-38
145	147	-83
212	164	-124
259	210	-131
276	268	-74
275	295	-9
261	254	13
231	134	36
159	-52	47
7	-263	48
-226	-457	40
-496	-582	-20
-720	-612	-74
-805	-541	-102
-712	-390	-129
-469	-210	-111
-180	-58	-34
56	16	39
175	6	22
206	-53	-16
221	-103	-13
275	-81	-31
363	26	-27
395	182	-72
280	310	-106
-16	336	-56
-390	233	-38
-676	38	-24
-707	-160	-32
-436	-270	-40
16	-242	-39
413	-101	-51
553	77	-58
366	203	-39
-21	224	-2
-390	144	15
-526	18	40
-373	-86	9
-37	-127	-35
258	-104	-30
346	-49	-30
184	-5	6
-118	13	30
-382	13	46
-442	20	49
-267	55	24
54	110	7
363	171	-33
536	202	-67
521	197	-111
374	159	-69
204	110	18
99	71	42
86	45	15
128	31	-28
154	12	-68
103	-15	-125
-24	-48	-98
-183	-74	-31
-291	-89	5
-300	-90	10
-206	-86	9
-60	-80	47
65	-68	61
129	-46	32
135	5	-2
129	90	-25
156	203	-64
229	331	-63
314	438	-18
346	497	12
288	481	37
136	362	31
-55	143	54
-222	-153	38
-308	-471	-32
-315	-736	-84
-277	-862	-114
-239	-811	-131
-217	-582	-113
-200	-240	-37
-152	110	46
-44	372	117
116	483	66
296	435	-76
431	270	-147
470	53	-166
383	-160	-208
182	-334	-229
-96	-452	-181
-370	-502	-112
-561	-474	-52
-605	-358	2
-488	-173	126
-246	40	196
28	215	205
224	291	208
269	249	137
154	130	97
-45	8	54
-214	-48	-18
-248	-12	-103
-125	80	-174
80	153	-233
239	145	-289
237	51	-297
41	-79	-245
-276	-166	-168
-548	-156	-101
-632	-55	-26
-470	67	26
-134	135	50
225	110	74
438	22	87
431	-58	61
245	-56	37
20	47	54
-103	208	96
-42	341	120
166	374	91
425	300	46
603	159	17
626	31	1
495	-29	-5
262	-18	-1
-6	26	16
-248	51	12
-426	30	-13
-526	-21	-15
-529	-61	-17
-424	-56	-36
-229	-1	-91
8	70	-102
216	105	-81
322	71	-57
294	-35	-2
159	-168	30
-8	-280	32
-136	-322	16
-174	-286	-1
-130	-196	-50
-50	-87	-95
11	5	-100
32	68	-81
25	108	-42
27	140	2
75	183	24
172	237	7
296	287	-26
391	316	-60
411	301	-68
342	237	-64
194	128	-64
8	-9	-56
-172	-159	-31
-291	-308	-12
-336	-444	-17
-300	-551	-21
-212	-615	-5
-117	-611	11
-56	-517	11
-52	-334	17
-90	-87	5
-129	170	-4
-128	372	1
-78	461	4
-8	422	21
23	286	38
-20	114	26
-119	-22	7
-198	-85	-3
-166	-75	-69
11	-40	-142
262	-32	-136
449	-80	-108
414	-171	-64
112	-254	-65
-366	-274	-65
-787	-202	-17
-953	-50	33
-758	128	54
-288	275	46
250	345	70
600	342	17
642	287	-32
414	225	-37
91	178	-59
-151	153	-62
-200	126	1
-97	78	108
51	0	74
125	-99	-77
94	-192	-202
7	-252	-197
-43	-268	-156
7	-242	-151
154	-196	-70
339	-150	-33
476	-114	-68
506	-80	-58
415	-31	-43
229	40	-20
-7	130	17
-235	211	18
-392	256	12
-439	238	2
-361	168	9
-195	74	0
-14	0	-6
93	-23	9
79	5	16
-34	58	21
-163	95	20
-215	90	5
-141	41	-20
30	-27	-29
216	-72	-22
332	-71	-11
350	-16	12
305	71	48
253	155	80
226	198	83
196	174	40
103	89	-17
-79	-48	-85
-308	-191	-121
-481	-298	-109
-496	-325	-56
-314	-259	-5
-23	-127	-5
225	11	-16
299	89	-33
163	61	-16
-94	-68	-14
-305	-234	-33
-331	-346	-30
-143	-339	-30
165	-209	-2
439	-31	20
547	89	24
436	71	25
148	-87	7
-206	-301	-12
-533	-443	-47
-764	-413	-92
-869	-200	-108
-837	106	-96
-663	386	-62
-363	529	-15
30	505	6
418	382	1
705	235	34
807	130	61
709	77	31
475	37	-1
213	-19	-22
19	-92	-39
-72	-148	-42
-89	-140	-48
-96	-65	-34
-137	36	4
-213	105	-12
-277	98	-67
-277	33	-64
-195	-37	-68
-67	-42	-113
46	32	-103
100	150	-112
89	243	-89
56	244	-38
61	165	32
122	45	96
226	-40	84
306	-59	57
317	-31	3
244	-4	-70
124	-22	-157
13	-84	-162
-51	-147	-100
-69	-156	-14
-79	-90	-3
-107	26	-65
-155	140	-35
-191	208	11
-173	224	0
-80	224	4
61	244	-5
198	298	-27
270	339	-40
258	305	-20
172	149	10
55	-112	-5
-66	-405	-18
-184	-627	-19
-296	-708	-17
-390	-639	9
-426	-476	22
-351	-304	35
-122	-181	53
222	-118	47
588	-93	30
819	-67	15
800	-30	-12
503	3	-51
19	6	-68
-477	-28	-60
-804	-82	-32
-853	-117	5
-659	-104	-10
-361	-39	-48
-127	47	-71
-75	119	-96
-204	153	-75
-419	147	-13
-555	118	33
-500	89	27
-223	59	-17
192	35	-34
608	14	-32
884	12	-27
930	44	2
767	115	12
470	200	-7
148	253	-20
-109	239	-31
-262	151	-54
-321	32	-55
-325	-51	-22
-318	-49	-7
-317	41	-2
-308	173	-17
-259	272	-9
-148	279	-4
23	187	-52
223	29	-20
385	-126	1
461	-226	-75
416	-249	-98
275	-207	-41
83	-129	34
-85	-51	54
-182	10	33
-183	35	8
-112	27	-84
-12	-12	-165
67	-60	-143
98	-89	-40
78	-71	41
39	2	51
24	114	38
65	227	3
165	298	2
301	305	-33
411	262	-58
446	200	-52
373	149	-66
205	110	-66
-28	66	-103
-255	-11	-87
-433	-129	-75
-539	-271	-70
-569	-389	-46
-545	-446	-40
-470	-432	-40
-348	-376	-51
-172	-326	-76
46	-317	-78
273	-345	-33
446	-378	13
498	-365	76
410	-288	121
194	-152	119
-85	2	110
-331	134	137
-478	218	107
-496	252	43
-400	250	-6
-246	221	-79
-89	174	-159
22	112	-195
75	50	-107
68	19	-27
34	40	-8
6	122	-4
26	230	-8
113	315	-12
253	329	-31
389	259	-21
453	137	3
381	16	4
172	-56	-9
-94	-74	-12
-308	-61	-32
-379	-55	-50
-282	-76	-43
-100	-104	-34
54	-108	-26
83	-60	5
-12	32	47
-138	134	65
-174	201	72
-57	210	33
159	170	-35
346	114	-106
366	76	-123
184	56	-92
-115	34	-24
-360	-21	31
-417	-121	-26
-267	-242	-50
-16	-339	-69
183	-368	-60
226	-320	-24
132	-213	-23
19	-88	-28
11	25	-43
154	122	2
371	215	33
528	326	16
520	438	-14
338	519	-21
72	507	-32
-141	379	-65
-222	135	-85
-169	-160	-74
-60	-413	-72
20	-546	-83
36	-519	-45
1	-378	16
-51	-199	24
-107	-74	15
-180	-59	47
-304	-150	-2
-463	-289	-47
-603	-407	-55
-619	-437	-71
-438	-370	-86
-62	-218	-115
397	-35	-96
786	136	-61
950	264	-78
830	330	-90
433	336	-50
-100	287	-19
-635	201	1
-1016	103	11
-1150	29	38
-1020	8	57
-670	43	45
-201	116	50
268	170	54
605	161	36
754	67	6
715	-70	-5
566	-196	-11
395	-235	-8
263	-159	-28
180	0	-58
97	161	-70
-30	243	-72
-217	201	-40
-417	62	1
-555	-102	32
-562	-208	53
-425	-211	82
-181	-120	57
85	5	-10
299	100	-61
417	130	-116
431	104	-117
371	60	-71
280	37	-1
191	48	65
132	74	58
107	85	16
105	66	-26
98	25	-66
58	-8	-81
-25	-15	-77
-132	18	-62
-221	64	-32
-241	96	-5
-182	96	1
-68	66	5
36	36	5
82	29	-16
52	59	-45
-12	113	-39
-46	158	-28
0	169	-19
120	124	-28
258	36	-52
325	-78	-35
266	-189	-38
89	-278	-32
-145	-334	-14
-365	-340	-2
-497	-295	4
-537	-192	-7
-497	-45	-15
-418	114	-47
-312	239	-43
-184	268	-37
-26	174	-55
162	-38	-48
346	-305	-19
496	-531	-16
553	-624	-25
493	-541	-22
308	-312	-22
27	-29	-2
-305	190	0
-619	264	-20
-839	182	-31
-904	4	-48
-775	-169	-76
-477	-252	-85
-63	-211	-65
346	-81	-65
676	74	-83
831	187	-41
800	229	-4
611	215	31
328	174	86
18	141	118
-242	121	119
-392	113	60
-393	106	-18
-240	100	-93
36	106	-179
334	128	-203
531	163	-120
537	190	-24
328	190	-5
-11	165	-7
-347	124	34
-531	93	34
-507	78	13
-319	72	14
-87	54	3
72	6	-24
97	-70	-33
20	-149	-27
-74	-189	-27
-109	-171	-3
-67	-96	5
15	6	24
81	96	30
102	150	8
94	165	-5
111	150	-18
196	120	-48
341	79	-74
502	21	-65
605	-48	-48
600	-116	-36
478	-150	-40
257	-119	-34
-34	-23	-32
-345	106	-34
-639	206	-60
-861	204	-88
-938	62	-52
-842	-203	-20
-579	-516	-11
-212	-770	-12
141	-870	14
363	-770	40
406	-506	31
294	-162	21
135	153	-1
43	357	-16
94	424	-39
269	388	-45
478	305	-25
595	227	-24
519	166	-32
225	103	-21
-226	5	13
-696	-129	61
-1026	-263	66
-1107	-337	20
-905	-299	-12
-503	-145	-34
-36	66	-103
318	251	-155
469	331	-81
401	286	17
215	158	24
37	18	-23
-24	-63	-56
39	-72	-41
163	-29	-48
254	15	-74
251	32	-83
163	16	-98
50	-9	-81
-11	-11	-45
5	19	-15
75	69	-51
141	118	-96
163	145	-52
136	157	-21
95	158	8
69	160	60
70	150	97
72	112	125
45	32	106
-18	-80	56
-92	-181	5
-134	-228	-82
-113	-192	-165
-39	-83	-165
42	54	-95
91	165	-37
89	207	0
67	178	17
72	104	22
138	30	27
253	-7	22
363	-4	18
392	18	-3
292	28	-31
78	1	-35
-194	-68	-32
-436	-161	-40
-549	-243	-40
-487	-277	-34
-260	-240	-35
46	-128	-30
322	32	-28
425	198	-25
287	317	-13
-82	340	-18
-546	252	-17
-921	71	-4
-1024	-149	-6
-772	-345	-5
-223	-471	-2
405	-498	-24
869	-448	-50
962	-352	-39
634	-247	-21
0	-154	-23
-667	-67	-13
-1121	21	-2
-1115	118	-20
-888	210	-42
-325	268	-10
262	268	23
681	200	40
831	84	64
731	-37	35
496	-112	-4
273	-114	-38
147	-52	-72
136	38	-94
188	110	-97
236	130	-67
226	96	-28
156	43	-60
44	12	-114
-69	27	-104
-168	85	-80
-241	155	-54
-277	195	-53
-259	182	1
-176	120	27
-37	40	44
118	-24	77
231	-53	-7
254	-53	-97
180	-43	-99
49	-45	-4
-75	-66	-2
-136	-92	-1
-127	-102	102
-80	-83	80
-37	-36	-14
-24	25	-107
-25	81	-164
-1	122	-111
87	149	-48
231	162	-5
389	171	-10
491	171	-14
481	164	10
341	143	37
100	114	32
-190	84	-24
-455	52	-76
-627	19	-83
-659	-31	-63
-531	-98	-32
-252	-171	21
101	-227	40
411	-229	30
558	-159	-4
436	-32	-41
59	101	-78
-456	178	-68
-909	145	-60
-1115	-12	-66
-965	-248	-37
-516	-481	-15
67	-611	8
545	-580	4
754	-391	0
648	-114	-3
341	137	-26
-6	260	-25
-232	197	-21
-288	-21	-14
-221	-298	-4
-115	-504	10
-34	-546	24
25	-384	14
123	-84	16
306	240	24
558	466	-1
795	519	-3
892	409	21
753	215	21
363	45	34
-170	-27	12
-699	7	-25
-1036	100	-63
-1073	174	-103
-804	179	-102
-329	115	-86
170	24	-37
508	-27	15
579	-8	70
383	75	99
59	171	76
-204	233	24
-269	233	-57
-117	175	-135
144	106	-170
336	55	-140
336	33	-109
135	26	-133
-137	8	-127
-329	-29	-53
-331	-79	-11
-157	-114	20
84	-114	51
255	-75	79
299	-15	69
238	31	17
155	51	-6
106	41	-16
97	23	-6
74	12	-5
-6	16	-11
-137	26	-44
-262	21	-121
-313	-2	-182
-262	-37	-204
-148	-62	-203
-43	-68	-179
0	-57	-111
-12	-55	-6
-32	-79	69
-12	-125	102
42	-160	122
91	-130	126
81	-6	98
14	197	34
-56	408	12
-57	522	-15
36	460	-40
170	210	-72
239	-150	-137
165	-507	-77
-29	-741	8
-230	-800	40
-300	-714	52
-180	-555	54
58	-403	40
250	-301	-3
251	-233	-16
39	-163	-24
-262	-58	-32
-472	74	-38
-465	205	-27
-269	298	-30
-24	330	-34
99	312	-19
34	265	-36
-153	215	-57
-307	168	-40
-318	120	-22
-180	76	-37
3	49	-33
118	54	-28
115	92	-38
50	137	-45
29	154	-40
113	115	-9
273	30	51
407	-56	116
432	-89	96
337	-39	39
196	74	3
96	183	-27
80	230	-41
106	181	-64
105	67	-99
36	-45	-104
-58	-101	-95
-107	-79	-84
-57	-14	-79
59	40	-52
138	49	-13
93	15	26
-83	-23	81
-277	-24	101
-365	24	82
-260	92	39
-14	131	-25
234	114	-108
340	49	-130
261	-17	-89
88	-37	-32
-35	8	6
0	97	-17
184	174	2
400	195	22
506	149	-5
422	60	33
172	-32	52
-136	-93	-23
-407	-121	-151
-580	-134	-259
-644	-153	-270
-601	-190	-206
-433	-231	-84
-126	-263	-36
299	-282	-30
715	-286	-13
960	-278	-21
862	-250	-9
392	-192	12
-339	-100	19
-1036	4	10
-1307	68	25
-1198	41	13
-1039	-92	-17
-409	-282	7
175	-437	48
506	-444	76
526	-260	79
342	64	60
141	406	28
85	619	22
204	623	26
429	429	16
612	148	-14
648	-97	-65
506	-222	-103
262	-227	-98
0	-170	-56
-181	-121	-26
-247	-105	-20
-221	-98	-23
-151	-50	-8
-80	57	-4
-33	198	-5
1	308	-7
29	330	-20
56	253	-30
66	125	-50
40	15	-77
-32	-28	-68
-143	-9	-21
-251	28	-15
-321	35	-25
-324	-8	-3
-263	-72	3
-162	-111	-4
-53	-84	-6
30	2	-12
83	102	-21
113	168	-14
140	168	-3
172	123	4
201	71	5
207	51	17
169	70	21
85	99	-38
-24	103	-91
-118	58	-99
-168	-14	-97
-152	-81	-80
-83	-95	-121
5	-43	-102
79	49	-32
115	141	-7
111	187	81
75	168	75
25	92	49
-26	-7	34
-80	-94	-44
-130	-149	-57
-177	-153	-63
-208	-118	-46
-217	-56	-12
-202	2	22
-169	24	92
-128	-18	89
-85	-142	16
-38	-318	-16
25	-495	-54
110	-596	-136
208	-573	-181
301	-426	-136
346	-208	-47
324	-8	-1
216	97	29
36	77	34
-205	-27	18
-465	-140	-4
-702	-185	-36
-863	-130	-60
-872	-5	-71
-697	128	-81
-345	205	-71
98	203	-59
508	147	-86
762	84	-70
793	61	-52
648	90	-32
446	147	4
309	194	29
285	208	37
325	195	13
302	180	9
126	183	-9
-194	205	0
-535	221	19
-726	193	19
-670	108	15
-390	-15	-7
-27	-127	-13
237	-171	-12
300	-125	-11
186	-9	-9
30	119	4
-40	199	6
34	199	4
203	131	-12
357	41	-41
401	-23	-79
318	-39	-117
171	-18	-120
42	3	-89
-23	-4	-40
-33	-43	-3
-36	-83	26
-62	-89	49
-101	-38	70
-108	54	91
-53	152	97
40	209	60
121	194	0
118	109	-43
10	-19	-86
-159	-151	-108
-298	-256	-89
-338	-322	-34
-257	-352	19
-105	-359	39
36	-356	-9
107	-349	-36
96	-329	-51
47	-281	-96
19	-186	-128
48	-26	-171
134	192	-131
244	435	-80
320	640	-60
325	731	-37
231	659	-24
39	412	-11
-227	45	-23
-511	-346	-4
-736	-648	54
-830	-797	59
-756	-766	32
-533	-606	9
-250	-394	-55
-24	-209	-118
83	-84	-82
71	-19	-11
21	13	32
27	45	22
147	100	-40
351	171	-31
553	257	-31
662	339	6
644	406	45
537	450	26
407	453	52
291	404	-5
165	300	-63
-39	161	-63
-340	19	-71
-682	-89	-52
-934	-143	-25
-961	-157	-9
-726	-151	-14
-333	-158	-3
30	-178	-14
216	-195	-44
175	-174	-46
26	-93	-21
-64	32	-5
22	157	-21
266	228	-26
517	215	-36
611	132	-27
476	19	-10
195	-71	-11
-79	-109	-2
-191	-91	6
-117	-48	9
58	-11	-2
195	8	-7
214	17	8
134	38	15
45	78	8
32	133	7
115	182	1
234	205	-9
314	191	-22
318	150	-43
276	96	-48
241	36	-39
234	-24	-20
219	-90	-3
119	-152	16
-105	-194	32
-409	-192	2
-659	-138	-24
-736	-49	-39
-572	33	-112
-250	61	-175
58	9	-162
192	-112	-90
90	-251	-63
-166	-348	-67
-418	-361	-30
-511	-289	0
-399	-179	6
-148	-95	8
104	-81	54
240	-138	65
240	-227	51
166	-281	40
117	-252	-17
163	-131	-37
288	40	-54
428	203	-80
475	299	-109
372	316	-101
120	269	-53
-200	211	-38
-500	174	-36
-675	171	-89
-680	180	-108
-537	168	-92
-320	118	-38
-117	36	32
-3	-47	42
18	-100	16
0	-105	-30
25	-72	-49
150	-29	-26
346	6	3
515	23	45
532	35	78
339	54	69
-18	86	44
-371	123	-2
-534	144	-30
-407	138	-43
-49	105	-44
346	56	-35
569	8	-16
496	-32	2
175	-65	14
-195	-101	8
-402	-137	3
-339	-166	11
-69	-167	-17
240	-127	-53
398	-49	-71
339	48	-68
126	135	-79
-69	181	-100
-123	180	-70
-3	144	-14
212	103	24
400	79	26
466	86	24
397	110	48
252	131	54
93	128	-2
-55	88	-31
-200	16	-11
-345	-72	-53
-451	-157	-60
-436	-218	-19
-245	-235	-9
89	-195	-27
422	-97	-47
588	36	-35
446	153	-21
36	195	5
-463	115	13
-797	-81	-2
-814	-330	-16
-530	-516	-39
-128	-539	-94
151	-368	-147
151	-68	-114
-100	215	-63
-421	337	-30
-611	213	-7
-571	-106	-22
-347	-475	-61
-94	-714	-69
52	-698	-43
55	-426	-9
0	-19	21
8	352	60
143	548	82
365	524	36
554	335	-6
611	113	-36
506	-35	-58
312	-51	-65
123	39	-72
9	168	-63
-47	257	-53
-101	261	-17
-188	189	-4
-290	71	-77
-329	-34	-89
-245	-89	-45
-41	-78	-31
205	-9	11
404	78	40
484	149	58
469	170	62
415	131	27
363	56	-2
280	-25	-31
103	-75	-64
-216	-75	-84
-630	-29	-46
-968	35	-27
-1054	89	-17
-787	112	3
-249	106	-11
381	95	7
831	88	7
965	91	-12
800	95	-39
493	85	-68
210	56	-59
51	17	-35
-17	-18	-20
-98	-37	-18
-247	-39	-9
-436	-31	-12
-540	-23	-23
-448	-24	-43
-137	-42	-52
279	-79	-38
625	-137	-42
736	-207	8
560	-270	90
162	-289	131
-295	-235	135
-667	-103	74
-844	60	0
-825	171	-92
-644	162	-168
-388	1	-182
-142	-260	-138
26	-512	-53
77	-645	-12
17	-603	-12
-108	-417	-16
-221	-184	-31
-258	-4	-30
-189	75	-26
-42	82	-38
121	80	-45
244	126	-61
306	215	-66
332	301	-52
352	323	-17
389	259	31
429	150	75
446	64	90
417	51	80
344	104	33
254	166	-32
155	177	-69
36	114	-83
-124	16	-66
-332	-46	-40
-546	-21	-31
-668	84	-3
-616	211	-2
-369	286	-23
-8	266	-5
332	171	13
502	58	-4
451	-12	-14
234	-22	1
-9	-2	34
-162	-1	7
-169	-44	-61
-81	-118	-95
16	-181	-127
49	-185	-142
17	-126	-112
-26	-34	-15
-19	44	26
58	72	-28
165	53	-127
236	20	-190
228	9	-133
144	30	-79
40	70	5
-25	100	98
-37	95	75
-21	64	90
-25	33	95
-72	26	65
-144	48	38
-173	80	-38
-97	86	-69
104	42	-64
391	-51	-42
664	-175	-13
809	-292	-21
753	-376	-15
476	-408	-26
36	-384	-51
-470	-314	-57
-900	-206	-44
-1162	-79	2
-1189	40	21
-999	120	7
-667	132	-8
-319	71	-32
-61	-48	-53
50	-179	-55
42	-263	-65
1	-263	-44
21	-171	-7
149	-25	-9
346	112	-20
521	181	-14
569	157	-4
469	63	0
257	-40	-4
40	-90	-17
-81	-54	-12
-86	45	-5
-29	153	-2
-4	204	-7
-77	170	-20
-224	76	-28
-361	-16	-30
-385	-47	-14
-253	5	-2
-12	110	-10
223	211	-15
346	266	-12
318	264	13
189	239	47
55	221	31
3	218	24
42	195	43
125	112	10
170	-47	-12
129	-246	22
14	-393	31
-110	-419	22
-178	-301	11
-154	-98	-5
-40	90	-90
117	174	-197
274	143	-197
401	56	-187
461	2	-147
439	43	-82
320	165	-67
115	286	-76
-145	323	-128
-389	231	-158
-555	50	-111
-610	-135	-41
-564	-243	13
-474	-246	24
-386	-177	36
-318	-103	37
-242	-72	26
-125	-89	37
39	-118	42
210	-120	49
312	-80	75
297	-14	77
171	60	42
10	129	-19
-89	195	-65
-60	250	-67
83	259	-55
260	168	-27
373	-54	-3
381	-376	-4
280	-687	5
136	-843	0
0	-759	-16
-111	-454	-15
-221	-70	-11
-337	203	-18
-454	256	-32
-508	106	-52
-439	-90	-70
-235	-162	-80
29	-29	-79
232	230	-65
261	437	-51
94	431	-39
-185	191	-38
-415	-151	-20
-458	-388	7
-277	-368	30
36	-107	48
346	233	57
524	450	64
534	427	28
431	213	-2
317	-28	-24
245	-123	-49
203	-15	-23
138	209	20
2	387	43
-174	389	14
-317	207	-77
-344	-45	-107
-232	-224	-112
-52	-237	-157
81	-118	-130
88	29	-84
-16	95	-30
-128	48	9
-137	-57	7
12	-128	13
253	-102	-7
459	6	-40
496	126	-49
346	178	15
99	134	72
-108	33	46
-173	-59	45
-94	-92	57
34	-63	45
103	-11	24
60	23	-21
-52	28	-63
-136	29	-116
-118	56	-140
-1	121	-102
129	193	-26
179	228	27
106	190	28
-37	85	5
-153	-45	-25
-151	-153	-17
-28	-210	-17
133	-224	-39
208	-216	-52
114	-214	-77
-140	-218	-75
-452	-216	-48
-682	-196	-53
-708	-161	-71
-494	-126	-45
-95	-98	-15
363	-64	-11
754	4	-5
930	134	4
854	310	-3
537	468	-35
79	520	-55
-415	404	-44
-796	119	-35
-999	-258	-45
-1010	-611	-42
-883	-823	-12
-682	-851	1
-468	-713	-5
-262	-475	4
-60	-218	-3
139	9	3
323	190	24
439	325	35
456	420	26
363	467	4
208	457	-14
71	385	-30
28	261	-57
102	117	-69
262	-20	-56
421	-123	-59
496	-181	-44
439	-183	-33
267	-134	-39
28	-50	-27
-190	47	-13
-321	122	3
-330	151	7
-222	125	2
-31	72	-5
180	32	-9
351	40	-23
439	108	-23
431	205	-21
333	286	-21
191	301	-5
52	244	-17
-51	120	-32
-112	-29	-19
-148	-163	5
-182	-260	8
-233	-309	1
-297	-308	1
-351	-254	-13
-363	-151	-4
-314	-15	9
-202	126	11
-44	233	-30
123	276	3
263	247	94
360	168	78
392	66	22
363	-29	-57
275	-110	-127
140	-182	-142
-34	-241	-111
-217	-274	-67
-371	-260	-25
-455	-180	-19
-433	-53	-90
-310	79	-160
-115	161	-184
93	166	-141
276	110	-78
401	38	-19
470	6	3
493	31	-21
459	91	-2
341	129	-11
107	103	-19
-227	8	13
-600	-120	10
-869	-216	46
-911	-251	29
-676	-224	10
-240	-169	2
234	-131	-8
523	-125	-14
523	-135	-58
268	-129	-5
-68	-91	36
-296	-30	39
-291	24	21
-105	43	-34
105	31	-66
172	13	-89
46	21	-78
-173	59	-43
-308	105	-2
-228	117	21
52	68	22
373	-24	13
529	-115	-6
396	-144	-27
27	-92	-27
-371	20	-5
-589	128	14
-529	174	-16
-250	147	-27
78	70	-14
273	0	-34
279	-27	-37
159	-7	-42
37	26	-39
-3	28	-43
43	-11	-35
107	-72	-16
117	-107	-24
65	-87	-25
3	-6	-22
5	91	-21
94	161	-19
231	174	-22
326	142	-30
310	97	-10
180	72	17
0	83	63
-147	113	85
-201	130	51
-166	114	-1
-95	66	-86
-39	11	-136
-22	-25	-105
-33	-30	-32
-44	-8	5
-37	16	-3
-15	24	-28
8	8	-60
21	-27	-83
34	-67	-69
56	-103	-59
91	-124	-59
124	-121	-42
131	-84	-13
97	-9	12
34	94	0
-23	192	-15
-50	233	-13
-39	178	-17
-19	16	-28
-28	-210	-35
-88	-420	-22
-187	-522	16
-286	-460	6
-342	-265	-25
-336	-11	-23
-281	200	-23
-211	291	-48
-147	251	-79
-96	139	-90
-41	39	-81
38	7	-43
156	43	-11
314	90	4
486	74	24
634	-40	29
688	-221	32
579	-384	20
256	-444	-25
-242	-354	-47
-793	-157	-54
-1218	45	-52
-1170	137	-27
-1073	64	-7
-562	-142	-6
50	-372	-7
519	-484	1
681	-401	20
562	-133	41
302	206	37
90	477	14
20	568	-21
70	468	-60
139	256	-90
131	58	-104
38	-25	-96
-72	20	-68
-109	132	-21
-32	217	31
118	209	69
254	116	60
313	5	14
284	-50	-18
223	-16	-69
172	75	-127
144	155	-124
102	164	-72
6	97	1
-136	-1	57
-270	-63	41
-310	-60	-12
-224	-9	-17
-40	34	-2
136	22	2
222	-46	29
191	-128	24
94	-159	-35
20	-100	-141
34	28	-215
132	165	-200
255	241	-133
328	224	-56
314	129	-1
232	14	34
127	-71	54
23	-110	48
-80	-113	38
-214	-114	34
-378	-126	17
-530	-142	22
-607	-133	59
-546	-84	82
-360	-3	57
-124	77	-15
56	121	-76
128	113	-76
105	58	-52
71	-19	-70
120	-97	-85
266	-166	-9
446	-223	24
523	-259	-38
401	-259	-88
63	-205	-55
-369	-102	5
-726	20	16
-865	103	32
-726	99	-2
-369	-1	-50
69	-144	-72
450	-250	-100
671	-238	-118
689	-88	-67
527	143	22
237	356	70
-99	438	71
-392	353	41
-552	118	-11
-540	-171	-99
-378	-401	-151
-158	-492	-137
25	-420	-105
97	-230	-115
71	0	-100
26	192	-6
29	289	22
94	287	7
144	221	-1
88	138	-5
-120	90	-11
-400	98	-8
-605	147	22
-582	194	42
-312	199	61
103	139	65
446	29	48
568	-94	39
436	-182	30
180	-209	7
-34	-181	-9
-76	-126	-6
44	-77	-25
216	-47	-60
312	-29	-63
277	4	-63
162	68	-58
67	163	-66
70	259	-54
166	313	-22
279	295	-23
322	201	-21
259	54	-13
115	-96	-17
-40	-212	-35
-154	-261	-43
-209	-243	-50
-215	-174	-37
-191	-86	4
-138	-5	34
-51	51	44
61	77	30
158	81	18
193	71	25
137	64	26
20	61	-30
-87	57	-82
-97	45	-82
16	14	-91
204	-37	-70
354	-103	-8
361	-163	28
175	-202	37
-152	-211	4
-510	-182	-50
-770	-124	-77
-856	-42	-105
-762	46	-112
-547	124	-104
-291	171	-48
-69	166	13
101	101	16
225	-20	4
331	-160	17
445	-275	80
553	-322	103
623	-286	49
586	-192	2
404	-84	-30
65	-11	-126
-347	6	-217
-725	-12	-247
-936	-18	-185
-915	30	-83
-684	135	-33
-353	257	10
-47	333	19
151	320	1
230	224	-17
251	93	-27
279	0	3
338	-18	43
393	31	80
373	87	133
253	89	128
58	11	53
-121	-117	-45
-209	-228	-136
-168	-263	-138
-38	-212	-97
101	-108	-23
183	-9	37
198	36	9
183	30	-23
186	11	-16
222	23	-27
267	87	-49
276	177	-80
226	243	-68
126	233	-48
20	143	-54
-57	5	-37
-103	-125	-21
-142	-196	-3
-201	-199	13
-273	-142	33
-311	-57	38
-256	28	7
-78	116	-13
179	202	-21
432	289	-13
575	362	29
558	390	54
387	354	39
131	248	24
-128	88	20
-333	-102	22
-465	-286	13
-545	-446	11
-572	-555	-2
-552	-596	-23
-468	-557	-40
-318	-441	-87
-130	-263	-140
42	-74	-149
150	76	-124
182	143	-137
171	130	-124
184	67	-90
268	7	-90
407	-15	-72
529	4	-52
506	30	-8
269	24	52
-170	-26	86
-665	-100	109
-1029	-141	129
-1081	-107	126
-787	11	53
-259	168	-9
269	287	-41
592	318	-78
592	247	-76
339	122	-55
15	9	-1
-174	-40	33
-137	-22	-23
77	32	-58
318	75	-72
451	74	-81
411	38	-50
257	-7	-63
95	-32	-85
2	-29	-88
-20	-13	-95
-24	1	-69
-60	1	-55
-126	1	-51
-165	12	-19
-109	43	-16
44	83	-17
232	109	10
354	106	11
338	74	4
196	28	11
21	-12	6
-75	-36	-8
-41	-47	-24
88	-49	-31
212	-38	-13
226	-5	2
94	60	19
-142	147	39
-371	215	29
-494	228	4
-459	153	-30
-299	12	-56
-88	-142	-60
69	-251	-51
110	-291	-23
23	-280	-8
-139	-262	-9
-296	-270	-19
-361	-292	-16
-298	-292	7
-120	-229	20
93	-103	19
260	27	-3
319	95	-42
267	56	-61
148	-52	-57
28	-150	-54
-53	-141	-43
-94	-6	-28
-111	198	-25
-126	358	-38
-123	380	-37
-78	244	8
24	24	61
144	-181	91
206	-285	87
136	-278	69
-75	-202	21
-355	-122	-88
-569	-66	-168
-601	-24	-183
-421	36	-164
-124	124	-92
147	203	-13
253	229	19
175	174	15
-7	71	16
-150	-13	46
-152	-21	51
-12	61	3
180	179	-54
316	252	-51
324	223	-47
223	105	-107
93	-32	-145
19	-112	-114
28	-94	-54
93	-13	-33
154	63	-48
172	74	-25
159	15	-1
141	-63	-14
159	-97	-16
205	-46	3
256	63	7
270	169	-18
239	209	-46
175	169	-59
111	86	12
61	16	29
20	-5	10
-30	17	46
-105	40	30
-189	24	17
-257	-36	5
-281	-104	-25
-256	-133	-62
-197	-90	-64
-126	2	-45
-56	91	-51
11	116	-39
79	51	-24
132	-77	-26
150	-210	-24
102	-294	-9
-1	-311	-2
-115	-278	-4
-175	-249	10
-143	-249	10
-36	-270	-18
82	-274	-31
119	-217	-19
34	-89	-7
-139	78	8
-299	225	10
-336	299	-11
-203	289	-22
57	215	-22
318	127	-35
436	45	-37
337	-27	-40
44	-109	-38
-320	-205	-27
-595	-288	-27
-647	-315	11
-451	-254	31
-86	-121	25
285	24	-13
501	112	-44
458	106	-42
172	45	-69
-201	6	-77
-484	53	-9
-540	192	66
-354	345	59
-47	413	-6
194	325	-92
225	119	-125
34	-108	-113
-241	-230	-94
-415	-194	-53
-347	-45	-4
-55	113	29
321	174	18
575	123	8
590	12	-65
370	-56	-121
69	-25	-95
-144	88	-96
-168	206	-76
-20	244	-25
193	177	16
339	45	43
351	-64	29
251	-98	-9
107	-52	-25
-13	13	-15
-74	30	21
-88	-23	25
-75	-124	19
-48	-200	40
-6	-207	45
53	-140	37
122	-39	22
180	41	-1
198	79	-71
174	77	-116
124	69	-105
75	72	-77
37	74	-57
5	49	-37
-42	-16	2
-118	-93	21
-202	-131	-15
-262	-80	-39
-253	63	3
-156	239	21
9	354	-21
172	332	-45
271	165	-42
257	-82	-62
143	-304	-104
-7	-416	-108
-107	-399	-61
-101	-305	-45
8	-222	-8
145	-209	19
210	-274	32
115	-368	62
-145	-409	80
-500	-355	74
-804	-215	19
-937	-44	-33
-855	92	-97
-595	154	-124
-247	149	-100
81	121	-19
346	116	57
535	160	53
652	235	11
676	301	-21
541	327	-24
206	291	-38
-295	219	-43
-805	140	-72
-1135	89	-80
-1064	70	-61
-695	72	-47
-43	66	-35
575	35	-23
930	-15	22
916	-71	32
619	-105	32
248	-102	22
17	-60	17
4	0	6
143	52	-22
291	77	-40
333	61	-51
244	17	-36
99	-39	-34
-11	-86	-42
-37	-109	-102
-10	-109	-102
6	-90	-51
-28	-69	-31
-100	-52	13
-141	-37	36
-106	-16	27
8	23	5
133	76	10
201	130	-1
167	166	6
57	166	15
-52	128	-20
-91	71	-50
-38	20	-25
66	2	20
151	26	-9
160	85	-33
81	155	-88
-49	206	-178
-174	205	-210
-245	138	-157
-250	-1	-55
-202	-191	9
-133	-391	37
-64	-538	34
-6	-573	33
39	-470	19
77	-249	5
116	17	-12
154	243	-68
179	359	-106
169	345	-71
90	241	-17
-76	91	5
-311	-55	65
-545	-186	112
-696	-301	104
-692	-390	52
-531	-424	1
-279	-357	-65
-58	-182	-138
46	53	-112
26	248	-56
-37	299	-23
-39	170	-18
84	-65	-5
292	-271	19
470	-315	1
488	-160	-12
302	106	-10
0	335	-5
-267	396	-9
-363	273	-26
-252	74	-18
-18	-59	-4
193	-28	5
275	144	22
224	335	39
127	412	49
93	313	31
171	99	-18
323	-102	-75
450	-177	-119
452	-103	-133
306	41	-135
49	140	-118
-229	116	-51
-466	-23	-21
-623	-191	-64
-684	-289	-104
-652	-270	-57
-516	-167	-18
-277	-49	-10
20	13	6
300	9	-31
483	-30	-16
506	-46	6
396	-18	26
222	39	12
86	79	9
34	63	24
58	-5	-5
97	-91	-9
93	-143	-12
34	-138	32
-41	-79	29
-75	6	0
-39	85	-22
50	142	-83
137	179	-47
188	199	46
200	202	86
214	174	81
270	120	111
366	40	118
446	-32	21
431	-74	-127
268	-76	-127
-24	-54	-103
-347	-48	-173
-584	-74	-164
-668	-127	-117
-595	-174	-124
-452	-171	-154
-332	-109	-111
-300	-20	-55
-347	31	-38
-407	-6	-45
-405	-141	-42
-298	-316	-21
-104	-437	-3
125	-426	24
317	-273	48
421	-43	75
422	160	71
326	244	63
153	203	48
-58	86	26
-255	-15	13
-378	-36	5
-366	22	5
-203	100	-2
62	127	-19
329	76	-23
484	-18	-42
458	-78	-104
257	-46	-112
-14	70	-114
-215	208	-116
-262	275	-82
-149	233	-39
36	98	0
175	-40	17
194	-100	52
94	-53	55
-34	53	45
-82	134	26
20	123	-25
255	21	-54
545	-108	-72
763	-175	-55
800	-135	-37
606	-7	-10
198	140	36
-343	237	41
-888	248	19
-1270	197	2
-1254	132	-5
-1149	85	-27
-820	47	-70
-304	-14	-97
129	-124	-81
371	-263	-75
401	-376	-74
306	-387	-56
216	-263	-34
228	-35	19
341	221	52
486	417	49
569	497	39
553	457	21
446	327	-24
306	157	-59
179	-23	-48
65	-190	-43
-66	-330	-29
-235	-423	-3
-412	-451	40
-532	-394	66
-520	-286	1
-361	-157	-42
-113	-48	-68
125	18	-123
277	57	-118
312	96	-74
273	150	-40
224	201	15
200	208	16
183	134	-27
129	-16	-42
4	-188	-15
-172	-312	-5
-328	-331	-28
-399	-256	-35
-350	-145	-39
-223	-80	-7
-87	-96	21
-18	-165	20
-24	-210	-43
-60	-162	-101
-58	-1	-88
29	213	-52
175	382	-6
311	422	-25
350	330	-63
257	161	-30
60	15	-27
-148	-44	-23
-271	-13	-10
-274	47	-33
-189	65	-18
-99	11	29
-79	-92	81
-149	-173	91
-261	-171	49
-315	-77	-25
-237	68	-106
-20	191	-159
263	243	-160
508	218	-128
614	163	-91
544	121	-14
332	115	49
63	123	63
-177	99	70
-331	14	45
-380	-122	15
-333	-253	-8
-222	-313	-21
-69	-263	-11
79	-116	-30
186	68	-19
223	223	9
183	298	45
103	295	64
46	244	62
78	187	65
221	142	40
431	100	-21
614	45	-93
660	-34	-102
488	-123	-76
94	-200	-60
-424	-238	-56
-923	-238	-33
-1250	-218	-48
-1235	-199	-74
-1064	-189	-92
-626	-166	-118
-147	-103	-92
238	1	-54
417	113	4
402	164	32
276	100	21
160	-87	-19
136	-326	-80
213	-508	-129
329	-534	-130
398	-378	-53
363	-109	9
241	142	1
105	257	-22
27	197	6
39	19	29
107	-156	52
151	-218	82
106	-134	78
-28	45	95
-191	227	60
-277	323	1
-221	317	-15
-27	252	-53
202	197	-95
339	189	-123
284	215	-110
38	228	-60
-316	171	-27
-619	48	-27
-759	-102	-50
-686	-213	-21
-448	-243	-6
-141	-188	-24
115	-90	-26
269	-2	-9
314	55	42
284	80	34
229	97	3
175	119	-19
135	139	-80
97	140	-135
59	102	-149
17	32	-97
-19	-43	-40
-48	-89	-26
-67	-95	-55
-76	-69	-49
-67	-43	-11
-37	-36	-9
12	-43	-1
76	-46	-28
129	-17	-34
167	47	16
183	131	16
191	202	34
206	233	77
228	223	98
245	190	46
229	161	-39
156	131	-83
32	80	-143
-113	-34	-160
-232	-225	-81
-290	-456	29
-277	-646	78
-217	-706	45
-152	-575	19
-114	-274	16
-120	105	-1
-153	434	3
-177	605	4
-151	568	-2
-53	382	4
109	118	12
294	-129	16
429	-306	20
446	-408	24
308	-449	0
30	-444	-16
-314	-390	-41
-617	-274	-75
-804	-99	-87
-832	108	-84
-743	295	-62
-602	401	-55
-456	394	-56
-321	279	-34
-166	97	-5
38	-102	9
280	-265	3
496	-368	-17
605	-379	-18
566	-304	-21
414	-159	-23
242	16	-26
156	164	-54
190	240	-67
301	225	-71
390	149	-72
375	66	-95
257	38	-89
96	85	-43
-14	181	-26
-22	267	-13
42	287	15
91	229	55
57	120	97
-67	19	127
-211	-31	127
-281	-26	24
-232	-1	-103
-101	2	-190
21	-38	-294
47	-103	-264
-28	-152	-103
-137	-142	14
-176	-78	57
-87	16	22
105	93	-3
302	125	7
406	119	7
371	99	1
230	103	-21
71	138	-5
-33	194	-7
-65	237	-27
-59	243	6
-65	191	11
-111	84	49
-177	-67	64
-223	-242	41
-214	-403	33
-155	-515	-30
-74	-530	-70
-10	-433	-74
22	-243	-39
27	-21	4
27	157	13
30	233	11
36	197	17
31	96	5
16	-5	-36
0	-64	-47
-8	-85	-51
-11	-102	-67
-37	-149	-88
-108	-227	-77
-222	-288	-61
-329	-278	-43
-353	-178	-19
-239	-22	-6
5	105	7
269	136	-6
417	57	-38
330	-66	-74
19	-138	-89
-392	-93	-72
-676	66	-51
-668	251	-35
-325	352	-21
204	305	-21
689	131	-10
875	-78	-4
676	-222	-6
172	-238	-7
-383	-150	19
-762	-25	65
-805	67	58
-548	98	30
-142	92	26
203	92	13
363	123	-21
333	174	-30
198	209	-24
84	197	-15
59	136	8
118	58	16
191	0	26
205	-18	-7
142	-7	-84
35	5	-143
-50	-3	-152
-67	-32	-133
-7	-55	-81
90	-51	16
172	-12	54
207	40	14
196	77	-20
167	72	-55
144	35	-104
143	-8	-95
148	-30	-18
133	-18	54
93	14	68
21	37	67
-53	30	46
-112	-7	-19
-138	-53	-9
-140	-84	34
-136	-75	24
-136	-33	30
-141	19	-4
-132	63	-32
-92	84	-66
-12	85	-133
96	76	-153
190	75	-193
242	83	-157
230	95	-62
159	98	5
52	81	78
-50	43	59
-136	-16	-9
-207	-83	-48
-267	-153	-76
-325	-225	-80
-375	-296	-43
-392	-364	-6
-360	-418	-8
-273	-436	-4
-145	-392	-10
-4	-275	-9
115	-109	5
198	68	16
228	202	34
209	260	26
144	244	23
41	203	-7
-81	171	-25
-191	169	-21
-244	168	3
-199	109	0
-43	-43	-98
201	-269	-92
450	-482	-40
592	-575	-99
537	-484	-93
255	-232	-48
-197	72	-29
-667	299	4
-961	357	14
-953	268	32
-626	115	29
-99	5	11
414	-6	6
689	49	-11
623	98	-11
269	80	11
-174	0	36
-487	-71	32
-511	-58	1
-245	64	-19
180	244	-39
565	379	-40
778	390	-23
759	268	-9
569	96	-23
302	-36	-71
49	-61	-75
-164	5	-70
-325	88	-86
-431	106	-71
-459	29	-32
-383	-102	-55
-209	-213	-90
11	-237	-86
197	-168	-71
287	-51	-33
262	48	-2
175	92	29
105	85	49
104	62	50
167	63	22
239	93	0
250	130	0
172	145	-15
38	124	-18
-95	82	-28
-173	39	-38
-180	13	-3
-149	-8	21
-117	-51	-7
-97	-133	-48
-74	-243	-51
-10	-332	-25
109	-348	20
248	-260	57
342	-88	30
330	106	-22
196	257	-69
-21	317	-84
-234	287	-62
-372	204	-55
-405	101	-38
-357	-9	-32
-290	-138	-28
-256	-292	-25
-280	-460	-42
-342	-596	-63
-399	-636	-52
-404	-541	-21
-336	-330	-28
-202	-80	-14
-32	129	-33
126	233	-50
242	240	-29
301	195	-16
328	165	6
366	181	44
449	227	68
562	260	31
639	244	-4
568	174	-36
259	80	-88
-269	-8	-69
-861	-74	-40
-1262	-133	-42
-1155	-203	-18
-1057	-279	-22
-393	-326	-36
351	-301	-22
902	-175	7
1060	24	52
853	218	71
446	327	60
83	305	22
-102	171	-77
-107	14	-176
-35	-93	-148
6	-98	-15
-20	-20	46
-55	85	24
-33	153	-8
71	164	-40
209	135	-47
288	106	-47
258	108	-40
139	133	-27
25	158	-33
-10	149	-51
51	96	-32
140	22	-14
171	-40	-35
87	-69	-44
-77	-67	-68
-235	-56	-88
-304	-61	-58
-263	-84	-10
-170	-105	68
-91	-99	96
-68	-52	21
-80	20	1
-60	92	-2
28	131	-38
172	127	-40
300	85	-34
325	29	5
219	-17	12
22	-51	-9
-174	-74	-35
-303	-94	-76
-335	-110	-78
-312	-110	-60
-291	-80	-37
-300	-5	-20
-314	105	-7
-281	229	3
-164	334	4
42	391	-12
282	382	-28
495	301	-9
628	170	-13
662	2	-36
596	-175	-44
428	-345	-56
161	-497	-66
-205	-622	-76
-603	-725	-65
-950	-786	-39
-1131	-788	-25
-1083	-709	-27
-832	-540	3
-474	-296	30
-126	-24	49
120	213	78
269	364	90
396	418	101
560	404	60
753	372	-16
858	369	-83
740	394	-141
324	404	-158
-315	343	-116
-952	180	-65
-1179	-54	-62
-1079	-283	-92
-842	-412	-56
-170	-380	-14
439	-203	-1
772	34	30
756	230	35
534	309	41
306	272	33
238	171	-11
339	90	-36
490	72	-47
547	115	-42
433	166	-38
205	171	-32
-23	112	-20
-135	10	-46
-113	-84	-76
-26	-126	-68
20	-107	-52
-30	-53	-30
-145	-8	-3
-240	6	41
-229	-7	79
-93	-20	67
107	-7	20
283	33	-32
359	82	-107
329	106	-164
229	94	-120
115	44	-70
13	-14	5
-80	-59	82
-187	-82	61
-314	-84	21
-428	-82	-16
-489	-81	-48
-452	-76	-104
-324	-49	-92
-142	7	-1
30	87	55
155	171	82
221	236	22
245	266	-24
262	252	-23
269	205	-51
245	123	-48
151	7	-7
-22	-141	31
-255	-306	-1
-459	-451	-55
-556	-525	-79
-481	-487	-79
-239	-334	-61
96	-113	0
382	95	59
506	201	53
406	159	34
119	-15	-13
-250	-243	-69
-552	-427	-107
-676	-492	-133
-600	-424	-81
-375	-265	21
-114	-97	75
68	19	48
115	66	-6
47	65	-60
-55	63	-65
-105	90	-77
-55	142	-97
71	188	-72
204	194	-78
256	156	-60
189	105	-81
33	83	-71
-121	116	-26
-190	192	-8
-130	264	18
29	282	20
219	228	35
354	120	34
407	17	28
399	-29	8
373	-6	-30
350	65	-18
314	131	2
210	150	-20
8	112	-21
-248	40	-32
-463	-25	-47
-515	-58	-56
-347	-49	-28
-19	-19	-4
310	8	-28
475	17	-44
388	6	-28
100	-15	24
-234	-35	32
-433	-49	12
-412	-60	-33
-213	-64	-46
32	-61	-30
198	-47	-17
223	-18	34
155	19	35
82	52	19
68	71	-13
105	63	-59
128	35	-64
89	-2	-78
-10	-31	-108
-88	-42	-105
-60	-32	-57
95	-9	-25
306	13	-3
439	19	27
385	3	26
114	-29	34
-271	-59	49
-598	-62	8
-719	-23	-51
-581	51	-48
-267	129	-27
85	159	3
301	102	32
309	-54	45
116	-263	39
-169	-453	26
-426	-548	-7
-545	-508	-64
-481	-362	-117
-277	-183	-185
-28	-51	-139
175	-8	-53
273	-33	-26
275	-62	-48
241	-31	-91
241	77	-51
296	218	-16
360	315	0
342	305	-5
167	188	-15
-144	26	6
-488	-90	37
-695	-102	26
-645	-11	-19
-339	115	-53
82	195	-87
415	182	-68
506	92	5
334	-10	43
7	-64	61
-282	-38	83
-389	37	89
-280	109	57
-52	134	-24
162	108	-81
258	66	-116
237	47	-147
161	74	-131
122	124	-79
157	158	-21
231	138	22
276	60	60
236	-42	63
111	-133	26
-44	-176	-8
-162	-171	-56
-200	-137	-112
-165	-98	-129
-95	-72	-66
-34	-50	9
4	-25	12
32	12	-10
69	53	-40
124	91	-52
180	120	-72
214	142	-74
215	168	-30
204	195	-8
219	214	-15
295	203	-4
425	150	14
541	66	-7
547	-20	-26
346	-72	-53
-62	-84	-56
-603	-71	-19
-1091	-86	7
-1340	-162	24
-1243	-301	37
-837	-456	17
-272	-541	-16
229	-498	-18
476	-321	-17
446	-64	-22
262	166	-21
126	286	9
188	257	19
432	117	-10
689	-61	11
722	-209	52
386	-287	43
-268	-304	17
-954	-279	-21
-1280	-230	-67
-1170	-145	-94
-774	-20	-113
20	133	-84
716	268	-32
1043	327	-20
927	270	-57
518	120	-88
63	-42	-101
-208	-130	-69
-240	-95	-30
-112	40	-42
24	188	-23
74	261	0
37	222	26
-7	109	36
10	10	22
92	-1	5
174	90	5
180	222	32
77	305	26
-91	274	12
-229	140	24
-263	-25	-12
-194	-137	-53
-74	-144	-75
18	-66	-144
37	31	-111
-2	82	-70
-53	60	-70
-75	-4	-30
-69	-67	-23
-80	-89	14
-143	-72	45
-262	-49	32
-362	-55	-12
-361	-96	-52
-198	-136	-72
99	-138	-55
431	-77	-12
656	30	3
677	135	19
476	195	-13
135	191	-57
-217	141	-55
-472	74	-47
-561	11	-43
-497	-53	-35
-342	-127	-28
-163	-216	-29
-10	-286	-4
84	-289	23
113	-196	32
94	-23	13
59	166	-5
49	286	30
100	289	50
207	183	40
325	42	34
366	-56	36
262	-77	38
9	-45	10
-318	-31	-55
-581	-92	-103
-645	-225	-109
-465	-368	-131
-121	-437	-157
222	-391	-128
415	-252	-71
372	-99	-27
148	-11	-28
-118	-8	-36
-277	-47	-16
-267	-49	-13
-118	41	-11
81	207	-26
238	357	-14
313	399	36
319	284	56
282	63	29
203	-160	-33
53	-268	-61
-177	-215	-64
-459	-40	-68
-692	158	-35
-764	282	11
-610	295	9
-264	214	-25
126	113	-9
421	47	-3
506	30	-10
406	40	-6
214	35	-6
62	1	1
14	-51	1
55	-93	-15
117	-100	-38
128	-79	-41
84	-49	-51
24	-36	-36
17	-37	10
86	-36	34
203	-11	27
306	48	17
346	116	-12
317	161	-40
253	152	-68
198	93	-109
162	7	-102
111	-62	-67
10	-93	-40
-149	-85	-35
-321	-47	-19
-421	-3	-2
-389	46	2
-218	106	0
12	183	19
205	262	11
269	313	-8
195	300	1
32	206	-33
-117	48	-52
-180	-130	-44
-130	-279	-3
-3	-353	17
132	-342	-13
202	-257	-1
162	-140	5
12	-39	-14
-204	2	1
-426	-47	21
-577	-180	-16
-610	-361	-56
-509	-515	-95
-316	-562	-147
-72	-460	-183
158	-223	-138
346	71	-41
491	316	4
578	427	3
592	379	-13
490	218	-18
248	32	-9
-122	-116	14
-524	-203	19
-829	-246	2
-919	-274	-12
-756	-286	6
-405	-254	28
-20	-140	39
252	57	36
339	287	2
269	472	-26
145	534	-35
72	454	-33
90	279	-32
164	94	-21
219	-33	-15
210	-77	-15
158	-57	-17
131	-21	-14
198	5	0
354	17	6
506	36	8
541	77	-3
351	130	-21
-36	171	-52
-480	180	-76
-783	153	-88
-805	105	-94
-535	60	-78
-99	34	-49
280	11	-22
428	-23	-3
291	-82	26
-24	-153	63
-340	-207	39
-484	-223	-2
-400	-192	-6
-156	-134	1
104	-77	-20
252	-37	-72
253	-9	-105
159	22	-120
70	68	-110
66	126	-95
148	169	-48
259	169	37
319	119	53
288	43	14
187	-16	10
76	-27	21
7	19	2
4	93	0
46	149	28
91	150	10
113	90	-19
103	-11	-28
78	-115	-87
48	-186	-158
21	-210	-159
0	-192	-135
-20	-158	-60
-32	-130	-10
-39	-128	-12
-64	-157	10
-141	-202	15
-296	-245	37
-501	-259	26
-676	-230	-4
-720	-155	0
-568	-47	-9
-247	64	-41
131	161	-40
401	230	21
470	274	82
359	294	79
192	287	20
104	249	-39
151	166	-68
259	45	-74
279	-89	-53
100	-196	6
-261	-248	-7
-632	-238	-70
-812	-189	-71
-686	-142	-39
-319	-122	8
104	-137	17
359	-157	-9
360	-151	-30
187	-105	-44
25	-32	-50
29	38	-48
226	85	-50
484	104	-37
646	120	-20
596	158	-29
365	215	-36
85	268	-40
-111	268	-25
-178	191	-13
-172	45	-14
-183	-113	-12
-267	-222	-2
-382	-235	9
-442	-156	4
-375	-32	8
-195	78	17
18	134	24
161	133	24
196	106	8
172	85	-23
189	84	-51
311	92	-78
521	85	-86
709	49	-59
754	-4	-16
560	-44	24
145	-51	67
-375	-19	77
-842	22	49
-1138	35	-11
-1194	-1	-82
-1016	-77	-112
-682	-144	-169
-285	-163	-186
103	-103	-108
398	13	22
569	144	74
614	241	16
552	267	-27
411	228	-59
241	142	-69
81	41	-61
-36	-55	-2
-83	-142	20
-52	-215	-4
51	-263	-21
200	-267	-52
352	-221	-43
451	-121	-42
454	3	-41
344	121	-3
143	211	66
-109	261	65
-345	284	29
-506	291	1
-552	289	-35
-468	265	-12
-275	205	7
-38	95	12
166	-62	-21
266	-248	-78
216	-438	-110
36	-606	-145
-209	-721	-139
-415	-765	-102
-513	-709	-7
-465	-556	50
-311	-322	2
-119	-70	-19
36	138	-43
117	250	-49
136	244	-30
136	164	6
172	72	32
271	38	28
428	84	52
575	186	60
639	287	59
537	335	59
227	310	53
-245	229	38
-758	131	-32
-1117	49	-97
-1189	-5	-147
-934	-43	-169
-433	-72	-137
114	-86	-64
484	-68	-15
569	-7	-28
418	86	-38
189	178	-32
55	223	-25
104	196	-7
265	117	4
388	24	0
341	-30	16
121	-27	14
-143	21	-3
-282	77	-17
-198	100	-40
61	77	-37
345	19	-43
476	-38	-52
381	-75	-53
124	-86	-56
-130	-82	-33
-249	-81	12
-180	-86	45
9	-84	49
203	-55	36
299	8	65
276	91	84
170	170	37
34	210	-3
-107	195	-27
-246	123	-44
-380	16	-32
-481	-97	-30
-493	-186	-69
-375	-231	-109
-129	-226	-82
164	-176	-69
413	-107	-96
516	-43	-89
439	-13	-66
221	-29	-37
-59	-81	-32
-317	-149	-40
-472	-200	-52
-487	-217	-61
-362	-196	-43
-144	-153	-24
97	-103	9
268	-56	47
309	-11	70
210	43	79
40	109	65
-109	174	17
-163	213	-67
-122	206	-121
-62	155	-99
-79	81	-36
-212	22	6
-417	0	-10
-574	15	-13
-581	35	-45
-399	22	-81
-96	-41	-66
210	-141	-82
409	-232	-78
476	-261	-56
438	-206	-26
346	-78	6
234	77	19
87	205	18
-95	266	5
-273	261	9
-363	210	22
-292	142	8
-57	84	18
254	36	24
493	-5	8
525	-48	-3
333	-90	-25
20	-119	-41
-248	-124	-36
-347	-97	-9
-245	-45	-6
-16	20	-22
212	78	-30
346	114	-55
373	127	-92
333	120	-108
280	103	-84
245	90	-34
216	89	1
161	99	10
58	110	14
-76	103	19
-218	59	28
-325	-19	32
-385	-117	26
-383	-194	7
-319	-215	-33
-193	-159	-65
-19	-32	-47
183	119	-27
370	240	-49
492	283	-56
517	238	-50
432	115	-60
259	-52	-57
19	-233	-30
-249	-401	-14
-515	-539	1
-724	-627	9
-829	-628	-10
-794	-525	-42
-619	-317	-50
-355	-43	-13
-89	211	28
98	372	40
184	393	-7
209	299	-23
251	164	4
373	72	-23
569	70	-55
774	131	-62
869	190	-3
775	177	32
470	76	-14
33	-62	-69
-442	-168	-127
-837	-182	-162
-1071	-118	-151
-1121	-35	-74
-968	-7	-4
-645	-55	26
-210	-141	53
232	-187	79
580	-130	78
732	22	43
664	199	-23
432	309	-78
162	298	-76
-25	179	-75
-65	33	-59
17	-56	-23
140	-53	24
211	16	78
190	89	74
100	108	14
8	66	-37
-32	-1	-79
-8	-38	-108
44	-21	-96
82	44	-78
84	117	-53
67	161	-14
72	163	38
107	130	76
151	88	43
140	43	-4
38	3	-7
-145	-42	-30
-343	-88	-70
-458	-122	-83
-426	-137	-61
-262	-131	-15
-42	-116	-9
132	-101	-9
216	-89	10
231	-65	17
241	-11	17
306	71	-4
414	157	-30
474	192	-46
373	139	-36
69	-9	-38
-385	-215	-57
-805	-406	-53
-1018	-519	-43
-929	-517	-38
-589	-425	-24
-168	-292	-22
137	-171	-13
221	-93	3
120	-46	-1
-20	-6	-18
-52	60	-18
74	159	8
280	267	19
420	344	26
354	353	19
82	278	19
-288	138	45
-567	-18	18
-626	-135	-37
-438	-170	-105
-113	-109	-167
211	17	-182
410	160	-135
478	258	-69
470	283	-36
462	236	-30
474	143	-12
451	53	28
312	-4	20
21	-21	10
-355	-19	5
-692	-18	-23
-830	-39	-42
-705	-87	-68
-366	-140	-91
34	-180	-86
357	-185	-44
504	-154	30
481	-96	82
355	-29	52
198	25	14
29	57	16
-161	68	24
-370	67	16
-556	63	-23
-634	66	-22
-530	79	13
-248	91	-14
104	96	-29
389	76	-35
484	32	-40
386	-27	-51
182	-82	-65
25	-112	-53
3	-105	-47
116	-62	-14
273	0	-34
380	64	-58
374	118	-32
297	154	8
212	174	54
175	187	55
190	189	11
204	180	-40
164	154	-74
42	108	-76
-132	51	-47
-311	-4	-25
-442	-44	-15
-497	-64	-54
-486	-78	-84
-409	-99	-56
-277	-149	-10
-107	-232	8
76	-322	18
227	-390	45
299	-390	49
263	-301	15
154	-142	-43
21	39	-78
-69	171	-117
-71	201	-123
7	110	-91
139	-70	-72
263	-280	-49
344	-437	0
352	-482	49
280	-395	76
132	-200	112
-81	43	147
-330	259	92
-571	372	-2
-731	354	-59
-758	215	-147
-611	17	-197
-319	-150	-176
52	-218	-104
371	-158	-32
526	-4	-15
446	166	-5
165	272	4
-221	273	8
-535	187	6
-659	71	-6
-545	-1	-15
-262	2	-15
52	70	-22
254	158	-34
280	215	-51
175	225	-65
42	190	-40
-1	140	-16
78	100	-15
234	69	-24
381	42	-11
432	6	10
383	-34	10
276	-70	3
179	-85	20
116	-78	49
75	-66	43
13	-66	11
-92	-86	3
-206	-111	0
-271	-116	-30
-227	-82	-47
-72	-7	-66
137	81	-67
313	156	-50
389	190	-41
351	180	-26
244	138	-20
130	88	-8
71	48	5
89	24	3
171	19	-23
273	24	-16
339	25	34
300	5	54
116	-47	25
-213	-135	-43
-605	-235	-67
-936	-299	-41
-1058	-289	-93
-902	-194	-120
-496	-57	-95
-10	37	-114
359	15	-95
459	-151	-65
276	-394	-28
-75	-604	-8
-388	-646	6
-520	-484	51
-428	-169	106
-200	163	124
27	368	56
136	380	-58
109	237	-151
9	54	-176
-63	-49	-164
-35	-26	-86
95	90	-2
269	213	39
423	267	36
491	228	-8
462	136	-35
358	56	-59
216	23	-67
62	35	-74
-85	49	-64
-209	41	-34
-300	11	-2
-328	-8	30
-271	16	41
-122	85	21
95	164	1
334	200	19
517	162	7
583	63	-12
508	-41	-8
328	-95	14
94	-69	5
-98	19	0
-191	120	21
-174	182	7
-93	174	3
-21	110	1
-31	10	16
-142	-103	29
-336	-206	2
-526	-281	-37
-641	-301	-51
-626	-245	-40
-470	-112	-35
-222	58	-32
41	195	-34
242	227	-60
324	122	-90
277	-67	-86
128	-247	-69
-50	-313	-55
-190	-230	-54
-232	-45	-50
-158	133	-48
0	211	-48
183	170	-13
326	75	-10
399	31	-21
394	106	-22
342	261	-44
271	382	-36
195	335	-6
103	81	34
-10	-297	69
-116	-625	41
-169	-727	7
-107	-546	-7
85	-167	-25
340	218	-18
529	427	-9
506	372	-7
216	118	-5
-300	-171	6
-856	-346	-21
-1227	-340	-48
-1197	-213	-56
-969	-87	-76
-433	-60	-80
152	-148	-95
592	-260	-87
800	-279	-64
786	-134	-36
625	143	-9
396	429	11
156	582	31
-68	523	60
-262	282	41
-389	-21	2
-422	-241	-14
-345	-296	-80
-189	-190	-166
-10	-5	-171
131	153	-64
208	215	30
237	186	39
252	110	1
270	46	7
271	26	-2
210	44	-31
62	71	-8
-143	81	-20
-338	64	-11
-424	35	1
-369	2	-27
-195	-32	-64
-6	-67	-56
117	-105	-32
133	-129	-22
78	-124	-24
25	-77	-47
38	5	-16
125	93	-3
237	157	0
300	181	3
275	176	-8
175	163	-1
46	156	-5
-60	143	-10
-122	99	-22
-156	1	-17
-176	-145	-9
-182	-296	-12
-139	-387	4
-5	-376	20
226	-263	31
488	-106	32
670	25	-10
655	88	-23
392	87	-12
-67	76	-15
-573	113	-12
-946	225	-44
-1065	372	-62
-916	475	-100
-589	438	-102
-247	221	-68
-23	-144	-51
40	-550	-34
-14	-857	-42
-76	-962	-29
-43	-817	-39
118	-487	-48
373	-89	-31
626	241	-5
786	401	21
811	383	36
688	252	65
446	120	74
138	77	84
-195	150	72
-522	287	19
-774	386	-77
-903	362	-147
-865	183	-129
-667	-98	-127
-364	-384	-121
-61	-566	-94
133	-585	-47
184	-448	-40
107	-210	-59
-10	39	-36
-78	235	-28
-39	336	12
93	341	22
250	277	-5
359	178	13
380	85	9
318	23	-36
219	0	-54
139	6	-39
107	20	-25
114	15	-30
135	-17	-48
139	-61	-27
120	-92	-6
86	-82	-3
61	-25	21
56	56	41
67	130	49
83	162	34
84	144	14
66	89	12
33	25	7
-10	-26	-31
-59	-55	-70
-115	-65	-76
-166	-65	-60
-190	-54	-51
-160	-22	-49
-50	43	-16
126	134	39
325	232	24
462	301	-28
470	318	-30
312	275	-47
34	178	-62
-267	43	-62
-481	-110	-70
-533	-278	-59
-424	-441	-30
-226	-567	32
-40	-617	84
61	-552	65
59	-375	3
-1	-127	-41
-55	98	-52
-61	222	-62
-23	204	-109
16	78	-98
11	-77	12
-58	-168	36
-155	-151	8
-225	-46	-6
-224	75	-25
-156	138	-49
-67	119	-112
-28	43	-109
-72	-29	-54
-176	-53	25
-267	-31	41
-275	2	23
-165	-1	27
27	-45	-15
222	-94	-33
332	-80	-46
335	32	-39
262	215	-7
190	391	0
172	458	-24
219	370	-60
276	154	-93
265	-92	-89
140	-259	-51
-87	-289	-51
-350	-204	-51
-562	-85	-42
-659	-18	-25
-621	-42	-42
-473	-127	-55
-258	-191	-19
-28	-175	24
178	-60	55
328	96	53
402	215	54
405	243	34
357	177	4
300	79	-20
273	18	-25
285	38	-19
320	119	-49
324	198	-63
263	211	-25
134	135	-12
-25	5	-32
-152	-118	-34
-194	-169	-57
-150	-140	-51
-54	-64	-18
26	-6	9
47	-2	22
1	-47	11
-85	-95	-18
-162	-90	-25
-191	-11	-5
-166	112	7
-100	213	16
-24	230	-6
32	141	-7
49	-18	-7
17	-171	-37
-55	-252	-36
-152	-232	-22
-236	-139	-30
-268	-36	-20
-229	25	-30
-117	30	-71
38	8	-100
194	15	-121
306	80	-70
363	192	-33
368	284	-15
343	284	-14
306	145	-42
262	-106	-30
205	-381	11
124	-563	57
30	-562	91
-70	-368	116
-164	-61	51
-247	225	-11
-332	368	-49
-420	312	-134
-503	89	-171
-551	-186	-129
-523	-389	-42
-386	-429	-9
-142	-304	-3
169	-81	12
486	138	-24
723	265	-46
818	279	-50
715	215	-11
416	154	20
-32	139	-17
-518	182	-35
-919	230	-58
-1101	214	-56
-1017	103	-66
-691	-86	-51
-249	-263	32
165	-351	54
434	-286	26
517	-104	-14
468	104	-53
378	235	-45
324	221	-19
321	78	0
337	-117	10
320	-265	3
251	-313	15
151	-250	2
54	-130	-32
-13	-17	-45
-72	52	-40
-161	77	-1
-300	79	-2
-465	88	-9
-582	106	-9
-579	121	-48
-431	114	-96
-191	80	-100
54	31	-67
206	-6	-26
231	-11	-5
160	15	-4
70	64	-8
28	109	-25
59	135	-35
148	137	-49
256	114	-55
359	81	-23
458	43	8
558	18	22
633	10	18
645	23	9
528	51	-4
253	80	-32
-150	90	-42
-563	70	-57
-863	31	-69
-937	-13	-51
-786	-36	-22
-468	-36	10
-128	-32	47
114	-55	81
205	-132	97
169	-251	62
83	-362	33
36	-404	4
61	-326	-98
133	-149	-154
189	67	-150
171	233	-122
78	282	-103
-44	211	-117
-124	77	-87
-103	-39	-31
11	-84	12
158	-52	28
242	9	-4
195	41	-24
13	15	-25
-229	-54	-4
-416	-123	43
-436	-145	62
-258	-104	51
61	-24	31
395	50	6
602	75	-27
583	30	-29
337	-69	-18
-54	-196	-35
-453	-301	-62
-753	-349	-94
-869	-319	-79
-805	-208	-68
-611	-52	-62
-350	103	-34
-69	201	-31
179	219	-25
368	162	-12
476	81	18
493	35	34
428	62	14
321	158	-19
216	269	-59
161	335	-63
156	313	-32
182	213	10
195	81	33
162	-30	27
76	-81	22
-37	-74	11
-137	-35	3
-191	3	-5
-180	26	-42
-103	38	-38
20	49	-39
170	67	-47
320	83	-24
429	85	-36
462	71	-36
399	43	-32
245	16	-30
27	-6	-21
-191	-22	-6
-377	-36	3
-502	-49	24
-574	-56	33
-611	-51	-5
-611	-42	-24
-568	-50	-70
-465	-95	-134
-320	-182	-137
-158	-278	-130
-25	-332	-104
49	-291	-82
82	-153	-82
114	33	-30
187	182	28
299	223	31
398	140	-11
411	-8	-22
291	-140	-17
69	-190	-9
-161	-154	2
-272	-89	14
-199	-60	38
41	-92	36
340	-148	28
560	-152	10
598	-50	-4
439	137	-23
170	324	-40
-101	403	-25
-277	317	5
-308	101	22
-210	-139	22
-39	-286	0
129	-280	-37
234	-155	-53
218	-2	-52
68	83	-36
-197	70	-23
-491	1	-38
-708	-47	-33
-735	-19	-31
-522	88	-47
-98	215	-37
389	291	-32
782	279	-20
930	199	-5
786	114	-4
398	82	-6
-89	119	-20
-516	190	-29
-757	225	-36
-756	178	-43
-551	40	-45
-258	-143	-43
-6	-313	-24
115	-409	6
77	-420	4
-59	-362	-2
-186	-264	10
-195	-159	-18
-51	-48	-74
195	57	-86
436	157	-69
565	230	-42
529	255	-31
366	224	-41
178	138	-16
63	34	8
64	-54	-9
155	-99	-43
255	-97	-47
280	-72	-22
192	-56	19
-4	-72	85
-244	-122	127
-447	-187	121
-540	-229	48
-481	-212	-57
-279	-127	-127
-1	24	-196
245	207	-219
363	380	-127
299	490	-7
80	495	23
-183	382	-35
-354	163	-63
-366	-112	-57
-242	-376	-42
-93	-562	-24
-41	-633	-21
-126	-586	6
-279	-460	26
-347	-317	55
-228	-182	64
81	-72	22
431	32	-25
641	155	-33
575	298	-16
269	431	-7
-126	505	13
-402	497	28
-448	388	12
-300	211	-5
-106	16	-17
-10	-155	-26
-63	-278	-41
-181	-356	-40
-229	-387	-43
-128	-363	-71
83	-273	-65
262	-115	-31
278	83	-53
105	260	-79
-138	357	-61
-279	341	-30
-195	236	21
82	106	56
399	22	49
549	15	-19
438	63	-60
127	109	-67
-193	98	-95
-351	17	-109
-261	-89	-59
-10	-162	-19
244	-156	-47
346	-72	-35
269	38	-15
94	121	-9
-44	145	20
-55	116	65
54	71	102
206	47	63
299	51	14
280	59	-47
179	43	-99
67	-5	-93
11	-70	-63
27	-111	22
93	-103	56
159	-46	15
178	23	-5
127	63	-49
2	52	-60
-166	5	-39
-340	-40	-22
-451	-53	-12
-429	-26	-60
-247	3	-46
53	-5	-28
355	-65	-46
505	-159	-31
388	-229	-46
2	-230	-55
-511	-153	-55
-946	-44	-36
-1129	31	-32
-1004	21	-9
-654	-74	4
-262	-198	2
22	-279	5
131	-263	0
105	-147	16
49	24	8
47	180	9
114	267	-1
205	264	-20
255	185	-42
234	63	-66
156	-65	-91
63	-170	-74
-14	-229	-43
-59	-233	-43
-79	-183	-24
-59	-101	-19
14	-8	-12
155	71	15
342	131	38
506	179	61
583	223	64
519	261	42
332	275	18
104	236	-17
-64	135	-34
-120	-8	-50
-78	-138	-89
-8	-196	-98
14	-159	-65
-36	-48	-24
-127	68	-32
-191	128	-52
-175	103	-59
-79	20	-74
47	-56	-84
140	-67	-80
162	-2	-71
118	102	-74
49	182	-48
1	189	1
-11	122	42
-1	24	41
6	-49	7
-3	-65	-10
-15	-40	-26
-13	-11	-39
16	-21	-43
51	-72	-6
54	-134	28
-5	-145	26
-119	-68	57
-237	85	82
-279	267	95
-200	400	47
-14	432	-31
201	350	-76
346	181	-122
363	-25	-113
257	-222	-63
94	-376	-32
-32	-476	-19
-91	-515	-25
-112	-482	-42
-176	-378	-53
-342	-224	-70
-572	-70	-75
-762	22	-43
-759	11	-25
-497	-94	-12
-23	-236	-40
474	-322	-64
772	-282	-39
736	-116	-15
383	119	16
-109	319	28
-508	399	32
-644	334	21
-518	174	-8
-264	10	-30
-76	-90	-49
-65	-97	-50
-214	-47	-37
-390	7	-2
-425	26	35
-253	17	24
80	12	14
416	42	21
620	118	11
626	205	-15
491	253	-24
331	233	-5
245	150	3
251	47	-7
287	-30	-46
268	-54	-81
156	-34	-97
-15	2	-109
-159	20	-96
-203	11	-59
-132	-11	-32
7	-21	2
136	-1	24
202	39	10
201	79	15
170	92	54
148	67	76
141	15	60
132	-41	19
86	-80	-42
0	-92	-93
-104	-89	-116
-180	-86	-76
-200	-97	5
-168	-120	13
-109	-138	-42
-58	-130	-64
-26	-84	-66
-8	6	-66
14	119	-82
40	229	-100
58	313	-86
46	344	-76
2	317	-62
-44	231	-31
-55	100	-3
-4	-51	33
96	-192	47
190	-286	-8
216	-312	-55
145	-259	-43
-12	-157	7
-204	-57	44
-356	-16	33
-419	-69	15
-383	-200	13
-264	-346	9
-114	-418	-26
25	-344	-81
101	-125	-99
83	168	-66
-38	408	-74
-239	483	-97
-455	345	-38
-610	45	14
-632	-289	45
-509	-519	71
-285	-557	66
-24	-416	32
182	-166	13
302	68	-10
341	209	-12
350	233	12
383	185	-25
468	133	-38
596	125	12
707	168	38
723	227	22
575	264	0
233	255	-13
-262	201	-39
-793	127	-86
-1170	56	-98
-1182	4	-75
-1012	-36	-46
-491	-65	-46
130	-89	-75
614	-99	-84
822	-86	-108
740	-48	-98
496	7	-54
262	57	-8
159	88	23
187	89	50
257	67	110
258	45	106
153	31	52
-12	35	-15
-134	52	-76
-152	64	-130
-71	61	-137
16	35	-81
24	-14	-30
-71	-77	-14
-213	-136	-29
-281	-179	-31
-203	-189	-20
20	-154	-8
280	-76	4
454	33	-6
454	149	-64
294	237	-74
63	265	-13
-122	212	1
-202	84	5
-191	-98	7
-158	-278	9
-161	-401	7
-214	-419	-24
-269	-322	-41
-263	-143	-51
-170	54	-48
-25	194	-19
83	224	4
76	137	32
-70	-14	81
-281	-156	74
-446	-218	-5
-456	-173	-34
-286	-46	-40
8	96	-78
302	182	-113
493	173	-141
535	80	-127
454	-50	-67
317	-157	-35
175	-200	-25
43	-171	-13
-104	-92	-5
-280	3	15
-459	84	17
-589	132	16
-589	150	-4
-445	139	-32
-186	108	-42
96	61	-52
302	9	-37
380	-33	-4
338	-58	28
248	-61	34
186	-45	35
199	-21	37
278	5	-7
360	23	-36
371	39	-36
253	51	-16
8	62	0
-290	59	-1
-542	40	-14
-654	9	-30
-589	-24	-22
-388	-41	-36
-151	-36	-55
23	-9	-54
81	16	-61
41	23	-41
-21	7	-4
-35	-24	-7
28	-41	-3
137	-29	2
226	15	2
250	70	-15
213	114	-80
167	126	-130
163	114	-162
226	99	-182
325	99	-105
399	117	9
397	137	72
306	135	57
165	99	10
14	30	10
-107	-51	-11
-195	-133	-4
-259	-210	29
-310	-283	36
-339	-351	59
-328	-372	84
-264	-308	68
-158	-127	6
-30	142	-43
82	414	-86
163	568	-144
201	507	-151
202	247	-109
163	-127	-64
82	-444	-21
-49	-565	27
-207	-446	14
-350	-173	-27
-420	87	-32
-375	189	-70
-212	77	-92
8	-181	-95
192	-439	-89
266	-554	-15
193	-466	12
16	-228	13
-168	51	55
-253	254	93
-176	321	97
41	265	60
302	157	9
478	62	-15
454	19	-34
202	24	-44
-206	49	-50
-603	75	-37
-842	96	-5
-798	125	2
-496	169	-15
-49	221	-1
346	259	29
554	256	-17
506	203	-71
277	113	-112
15	21	-134
-134	-39	-123
-108	-53	-91
49	-27	-50
221	6	-43
301	11	-33
245	-30	-7
101	-110	11
-40	-191	39
-98	-230	76
-54	-196	76
46	-100	39
151	26	-13
222	130	-54
276	171	-87
346	143	-119
446	67	-121
523	-9	-70
498	-49	-27
306	-31	-22
-57	28	2
-497	94	30
-865	129	46
-1043	112	58
-973	47	48
-718	-45	21
-389	-130	11
-109	-179	-5
77	-179	-49
172	-130	-116
230	-55	-118
297	18	-56
369	60	-8
414	60	36
394	19	34
302	-43	20
167	-97	-17
41	-125	-20
-41	-127	-16
-82	-126	-40
-99	-144	-24
-124	-192	-71
-162	-248	-95
-195	-263	-89
-206	-207	-89
-187	-74	-41
-149	90	-5
-113	211	3
-91	236	21
-69	158	19
-33	41	-30
27	-34	-46
101	-9	-36
151	108	-34
161	239	-50
127	290	-46
82	205	-23
58	3	-7
69	-230	12
101	-390	43
117	-420	64
112	-322	59
110	-162	21
162	-1	-15
301	121	-35
496	204	-68
652	268	-97
648	319	-87
404	335	-48
-61	295	16
-618	187	53
-1077	44	26
-1294	-82	-7
-1210	-139	-83
-878	-124	-150
-411	-71	-154
36	-34	-105
369	-43	-76
545	-84	-72
588	-106	-32
551	-64	7
484	43	42
422	174	55
358	257	58
280	244	65
166	152	59
9	40	9
-168	-16	-45
-325	14	-57
-404	98	-64
-369	162	-32
-215	137	5
18	16	-6
287	-137	-17
521	-230	-6
688	-194	13
762	-39	10
724	150	-12
558	269	-22
252	253	-21
-178	114	-26
-654	-79	-36
-1057	-240	-66
-1262	-330	-63
-1204	-372	-32
-904	-413	-11
-470	-481	-23
-65	-541	-54
197	-533	-51
269	-393	-70
203	-131	-62
92	174	-23
27	405	26
40	477	20
105	388	-13
169	204	-2
184	36	-36
140	-51	-55
56	-60	-27
-32	-44	-4
-94	-56	16
-120	-106	16
-109	-152	17
-65	-133	17
8	-33	-24
101	110	-44
202	224	-74
283	241	-78
318	165	-40
292	48	-30
216	-23	-26
120	-9	-18
40	71	12
11	155	23
28	169	4
68	100	-42
84	-16	-82
36	-108	-118
-80	-126	-130
-248	-74	-64
-419	3	-10
-539	44	-19
-581	29	-63
-524	-22	-54
-380	-62	-41
-174	-63	-14
55	-20	41
280	33	34
459	62	-15
575	57	-47
636	36	-16
656	33	6
649	57	46
604	97	85
475	115	81
210	85	42
-195	16	-24
-676	-55	-66
-1091	-86	-94
-1261	-56	-121
-1115	16	-99
-675	95	-12
-102	140	65
387	144	84
613	122	39
558	98	-24
340	71	-40
135	26	-51
67	-60	-63
149	-190	-62
280	-326	-68
339	-413	-64
262	-407	-52
89	-316	-31
-83	-190	-30
-177	-101	-30
-182	-84	-29
-149	-112	-18
-125	-114	-6
-111	-16	-2
-47	197	13
125	458	17
386	652	30
632	670	36
696	485	17
478	147	22
-1	-217	20
-557	-490	-3
-979	-604	-32
-1091	-564	-66
-872	-436	-78
-434	-286	-86
38	-153	-83
401	-39	-75
590	68	-80
600	171	-77
478	244	-49
253	252	-15
-49	174	-9
-382	30	-12
-632	-121	-5
-697	-210	-7
-509	-190	4
-124	-63	15
318	112	16
614	261	22
646	320	3
409	268	-28
32	134	-57
-325	-21	-66
-530	-136	-54
-546	-183	-24
-417	-163	0
-221	-105	5
-10	-43	-8
172	1	-36
306	27	-52
366	49	-100
334	76	-139
219	106	-103
81	135	-15
-4	140	27
11	122	5
106	82	24
195	35	82
192	-4	72
65	-25	4
-121	-34	-32
-253	-34	-43
-233	-29	-45
-54	-14	-40
190	21	-42
392	77	-1
470	144	32
434	203	29
346	221	-24
258	178	-91
166	72	-80
6	-71	-54
-259	-216	-53
-611	-320	-58
-909	-355	-28
-1015	-322	-4
-844	-239	7
-459	-131	-1
-19	-23	-15
301	79	-17
399	174	-44
319	269	-59
195	362	-43
158	427	2
250	431	54
396	338	87
488	130	77
446	-160	30
301	-469	-26
144	-703	-79
82	-788	-123
130	-698	-138
211	-474	-118
198	-213	-59
-8	-20	3
-381	49	39
-804	12	68
-1088	-52	48
-1108	-49	1
-856	62	-65
-426	244	-124
23	398	-135
358	422	-92
508	282	-28
529	43	-24
492	-175	-28
462	-261	-14
451	-183	-38
405	-9	-39
267	143	-36
29	177	-17
-239	85	57
-426	-53	103
-429	-123	112
-229	-58	104
94	116	55
381	305	-13
506	405	-91
409	362	-165
151	213	-161
-145	58	-82
-344	-22	-24
-392	-14	-42
-321	33	-24
-214	41	30
-139	-23	24
-121	-137	24
-126	-224	4
-95	-208	-13
-4	-88	-2
131	80	0
254	196	-3
318	195	-36
310	85	-35
257	-62	-16
203	-153	-7
165	-134	-14
139	-21	-38
99	113	-22
25	183	4
-65	157	-4
-144	45	-36
-175	-85	-68
-144	-176	-92
-64	-202	-105
36	-177	-89
127	-140	-50
179	-122	-15
159	-124	17
44	-123	40
-177	-94	21
-474	-32	-24
-758	39	-53
-923	78	-62
-880	46	-54
-631	-63	-38
-253	-218	-35
94	-362	-37
295	-424	-31
314	-359	-30
229	-174	-28
166	83	12
214	316	68
368	438	104
529	416	91
566	265	27
423	65	-30
156	-88	-109
-92	-136	-168
-187	-92	-127
-67	-7	-49
200	43	-2
452	30	24
531	-19	22
357	-45	-16
-17	-3	-71
-455	98	-83
-778	192	-42
-863	200	-18
-695	92	-17
-361	-92	-6
-1	-249	2
257	-282	-14
341	-169	-8
269	37	-10
122	215	15
1	278	24
-38	194	-6
7	30	-6
89	-109	-13
138	-151	-17
122	-86	-44
46	25	-109
-31	101	-106
-55	105	-35
7	57	-43
140	26	-10
297	58	50
411	158	49
439	268	44
381	319	-24
249	265	-44
80	119	-90
-76	-59	-95
-182	-214	-42
-213	-307	-23
-168	-349	-9
-76	-362	-30
5	-358	-29
7	-320	-21
-102	-217	-6
-305	-49	-7
-515	148	-24
-630	305	-56
-561	358	-52
-307	291	-19
42	150	-25
346	20	-20
502	-34	-4
466	8	12
302	97	11
121	163	1
8	155	-21
-29	81	-42
-47	-4	-34
-116	-40	-21
-253	-7	14
-387	58	30
-417	82	7
-264	11	3
27	-160	9
340	-368	-13
484	-523	-30
359	-562	-12
-7	-481	-14
-443	-333	-23
-744	-192	-46
-757	-112	-61
-465	-95	-57
-3	-106	-56
423	-99	-21
670	-49	-7
669	32	-7
486	121	20
231	183	28
1	213	-6
-179	212	-60
-317	193	-91
-426	162	-144
-493	123	-168
-456	84	-101
-280	51	-12
10	39	24
306	47	9
482	61	21
439	56	22
206	15	16
-110	-51	41
-333	-113	43
-355	-125	16
-185	-64	-23
72	57	-72
280	197	-92
342	298	-98
277	328	-64
172	294	21
137	227	64
206	162	76
336	115	45
425	77	-25
399	29	-76
241	-34	-124
14	-101	-108
-182	-143	-81
-272	-144	-59
-247	-107	-19
-152	-57	-14
-57	-24	-32
-14	-20	-77
-26	-31	-86
-63	-30	-78
-80	2	-40
-47	65	38
25	138	78
105	191	40
156	205	7
150	183	16
88	148	-1
-10	104	-9
-102	51	-27
-158	-29	-52
-156	-157	-18
-98	-320	17
-5	-486	23
91	-596	5
156	-603	-1
166	-486	1
114	-269	-2
2	-14	-5
-143	203	-42
-292	320	-67
-404	301	-72
-433	166	-45
-366	-49	9
-217	-270	26
-53	-429	1
58	-477	-67
54	-402	-114
-60	-235	-115
-215	-43	-85
-298	101	-50
-225	156	-36
5	120	-8
299	50	15
516	14	26
536	60	20
354	188	2
69	336	-4
-164	430	-6
-244	416	2
-169	308	17
-46	164	5
-10	62	-13
-125	44	-43
-350	88	-68
-539	126	-1
-569	96	53
-387	-8	87
-65	-137	87
271	-203	16
506	-152	-15
611	-3	-59
608	162	-116
544	244	-140
436	196	-90
259	43	-38
-7	-122	-50
-345	-207	-34
-639	-178	-22
-773	-71	-31
-669	24	-52
-363	42	-90
17	-27	-113
318	-127	-79
451	-183	-63
431	-150	-64
351	-41	-40
302	81	-33
314	156	-3
354	166	24
358	134	34
292	108	19
183	110	-1
82	127	-16
22	113	-27
-3	38	-28
-41	-93	-28
-120	-233	-23
-224	-317	-34
-282	-312	-1
-239	-228	24
-88	-110	31
104	-9	50
229	54	34
212	93	4
63	130	-32
-129	171	-56
-253	200	-42
-245	177	-8
-118	82	42
44	-62	101
155	-206	103
163	-282	64
82	-275	-6
-46	-208	-101
-194	-138	-193
-355	-119	-260
-526	-157	-224
-686	-202	-113
-762	-188	-28
-684	-80	-13
-424	99	-15
-46	268	-8
314	345	-12
516	290	3
486	131	-9
290	-45	3
79	-160	37
3	-171	21
118	-107	-3
346	-33	-11
526	3	-19
506	-10	-23
258	-33	-12
-126	-25	1
-458	35	-2
-588	121	-8
-465	183	15
-173	188	6
159	137	-13
396	74	0
486	39	4
458	53	-1
351	91	-18
209	102	-27
31	61	-24
-180	-24	-24
-409	-102	-35
-581	-120	-26
-630	-61	-19
-509	49	-34
-257	151	-58
40	197	-88
268	171	-77
365	113	-26
344	61	-5
275	43	-32
234	48	-41
252	40	-43
302	-4	-52
334	-86	-43
283	-166	-28
143	-209	-13
-44	-204	5
-214	-170	-4
-317	-152	-36
-329	-173	-42
-271	-227	-31
-178	-264	-22
-92	-249	-39
-24	-159	-61
23	-21	-53
83	103	-17
182	164	24
330	148	57
495	84	48
598	30	32
544	27	46
269	87	38
-191	180	29
-720	264	35
-1124	310	1
-1235	312	-32
-1020	286	-51
-542	250	-94
13	205	-110
466	131	-112
681	2	-102
666	-196	-94
494	-432	-78
262	-642	-42
30	-752	-39
-176	-707	-34
-355	-512	-17
-481	-238	9
-500	17	35
-381	164	52
-145	174	37
121	92	-7
310	14	-55
346	27	-95
253	162	-127
116	359	-129
40	505	-38
71	507	37
175	337	21
266	58	-11
269	-196	-16
172	-304	4
24	-230	22
-94	-49	46
-139	104	46
-119	116	-5
-76	-30	-39
-38	-254	-10
-8	-408	20
50	-386	-9
163	-176	-27
306	116	-40
423	345	-78
439	406	-72
334	292	-53
139	104	-38
-46	-33	-32
-153	-44	-27
-161	65	-35
-119	197	-45
-116	253	-32
-200	184	-15
-363	25	-12
-533	-136	0
-611	-223	7
-561	-201	22
-394	-113	34
-205	-25	19
-63	8	10
-18	-13	-15
-43	-48	-37
-77	-50	-43
-57	1	-51
33	82	-62
158	144	-56
262	142	-58
299	70	-36
252	-38	1
162	-134	-14
78	-171	-28
40	-143	-32
53	-66	-9
96	23	14
130	98	-1
133	148	-13
116	174	-21
94	187	-57
95	185	-82
119	163	-63
147	114	-43
145	33	-23
98	-63	-20
15	-167	-19
-72	-258	-26
-119	-338	-28
-94	-403	-11
6	-451	27
148	-466	74
270	-417	101
328	-290	102
269	-92	78
86	134	43
-186	320	15
-463	403	-10
-659	357	-76
-690	215	-138
-524	47	-189
-214	-70	-259
127	-103	-248
393	-62	-157
496	-2	-75
439	17	-11
273	-24	0
90	-104	-7
-57	-160	4
-148	-144	-17
-198	-46	-20
-225	95	-9
-223	213	-23
-173	259	-14
-64	215	14
72	116	19
189	19	14
216	-33	20
135	-22	14
-26	28	-1
-187	82	-5
-270	106	9
-242	88	23
-127	35	21
0	-30	15
60	-91	26
13	-135	24
-129	-156	8
-297	-151	2
-415	-114	-28
-415	-52	-41
-281	26	-43
-54	106	-66
181	166	-56
344	191	-48
380	183	-49
291	156	-32
139	121	-17
15	91	-22
-18	67	-26
46	37	-24
155	-7	-26
238	-72	12
237	-141	36
161	-192	10
65	-202	-3
24	-157	-17
70	-60	-32
175	61	-40
273	174	-34
296	251	-26
228	277	-48
101	252	-60
-19	194	-43
-89	115	-1
-119	27	6
-147	-71	-20
-215	-183	-34
-321	-300	-45
-420	-400	-78
-435	-444	-112
-318	-410	-108
-78	-289	-80
237	-114	-49
537	56	-6
771	166	9
886	178	-4
861	103	-17
665	-19	-2
288	-127	-11
-245	-184	-19
-837	-188	-20
-1294	-168	-43
-1295	-161	-25
-1194	-181	-11
-726	-209	-1
-14	-200	7
581	-118	-10
869	40	-15
786	233	11
462	388	30
106	448	45
-93	395	43
-89	272	22
41	149	4
153	77	2
154	65	-26
42	76	-90
-91	48	-116
-158	-44	-117
-122	-179	-87
-24	-286	-44
53	-299	-22
58	-190	1
-6	-4	9
-85	171	16
-120	262	3
-91	241	-11
-24	147	-14
31	55	-31
38	26	-33
-3	62	-46
-70	121	-38
-126	135	-37
-164	74	-31
-177	-45	-12
-174	-171	-10
-157	-240	-9
-119	-230	-17
-71	-161	-19
-20	-78	-44
18	-17	-19
44	12	34
71	28	24
128	57	10
226	104	-13
342	158	-35
433	193	-47
432	194	-39
313	169	-5
79	138	-30
-195	120	-42
-435	109	-40
-561	86	-27
-535	26	-6
-369	-80	-33
-110	-209	-52
175	-321	-60
415	-371	-48
539	-342	-54
506	-251	-70
323	-137	-60
27	-48	-51
-295	-1	-64
-539	4	-56
-637	-9	20
-574	-20	65
-405	-22	63
-208	-21	35
-75	-29	0
-32	-48	-18
-53	-68	-18
-74	-70	-4
-30	-38	-24
91	22	-55
258	93	-71
405	144	-83
462	158	-72
411	122	-51
266	51	-12
67	-38	30
-155	-125	24
-361	-191	16
-539	-222	-14
-643	-207	-63
-634	-153	-75
-481	-72	-55
-207	8	-27
104	61	-23
340	79	-5
400	64	22
274	50	6
46	67	-10
-129	135	-27
-139	237	-46
44	335	-25
340	388	12
598	380	40
689	319	43
591	239	48
373	171	61
160	123	32
36	75	-36
16	-2	-83
32	-122	-108
2	-262	-132
-109	-376	-125
-263	-417	-52
-375	-361	8
-366	-234	-5
-207	-87	-28
52	24	-27
343	70	-44
562	59	-62
660	19	-62
605	-16	-59
405	-41	-30
85	-59	-12
-285	-88	-21
-616	-121	-45
-805	-142	-18
-783	-130	28
-548	-72	36
-191	7	41
139	76	34
326	98	24
310	72	-9
140	31	-39
-61	14	-62
-195	56	-28
-221	150	46
-176	256	43
-145	324	27
-185	319	21
-289	252	-2
-401	153	-81
-448	54	-154
-400	-41	-132
-278	-160	-82
-135	-333	-61
-12	-551	-101
84	-759	-105
169	-866	-78
266	-788	-52
358	-517	-12
421	-127	19
419	244	51
355	471	46
257	495	30
175	356	26
135	174	1
128	68	-17
124	90	-46
99	204	-66
54	313	-45
20	330	-26
23	230	-3
63	67	22
109	-71	37
121	-111	48
79	-48	57
2	59	43
-60	140	-14
-69	143	-62
-19	79	-113
48	-8	-162
85	-57	-128
52	-53	-15
-35	-11	55
-144	24	29
-223	22	6
-245	-17	32
-219	-61	34
-164	-79	-2
-101	-52	-19
-36	1	-19
29	55	-38
98	82	-62
158	85	-56
194	78	-38
199	79	-25
181	90	-9
159	90	-8
150	64	-30
159	6	-42
182	-65	-74
206	-121	-100
234	-134	-85
253	-105	-60
254	-63	-4
190	-40	75
8	-51	90
-315	-74	40
-726	-78	-2
-1088	-33	-51
-1235	53	-85
-1117	136	-88
-686	158	-60
-112	78	-15
390	-85	-30
656	-268	-52
635	-389	-72
425	-390	-86
207	-282	-88
119	-126	-77
180	-4	-47
300	29	-46
339	-19	-8
226	-89	26
-10	-102	31
-259	-19	32
-401	148	41
-378	312	65
-223	384	52
-31	310	39
107	112	11
149	-117	-23
100	-271	-47
2	-268	-65
-100	-119	-64
-173	93	-58
-199	256	-50
-163	283	-45
-63	171	-30
77	-14	-22
212	-175	-25
292	-245	-28
283	-213	-9
192	-131	14
62	-64	29
-47	-40	32
-101	-44	24
-98	-32	12
-71	21	-2
-52	98	-36
-54	143	-90
-63	106	-108
-62	-12	-109
-39	-161	-49
-1	-254	37
36	-232	87
67	-99	93
93	76	26
117	203	-24
132	230	-81
121	171	-114
64	99	-94
-28	79	-42
-115	135	7
-150	235	-28
-105	299	-96
-1	272	-101
102	151	-12
143	-13	64
105	-153	46
21	-218	-6
-56	-205	-43
-86	-150	-81
-68	-92	-71
-37	-54	-34
-14	-32	-11
-1	-3	-36
32	44	-71
90	106	-53
139	160	-60
112	185	-79
-36	179	-66
-285	151	-30
-523	119	1
-611	81	34
-488	31	59
-200	-37	43
102	-117	26
263	-177	16
225	-178	6
48	-107	11
-110	6	-4
-139	101	-27
-26	110	-51
128	16	-95
205	-144	-85
151	-286	-66
23	-330	-43
-64	-254	-25
-30	-110	-24
115	8	3
266	24	24
313	-70	38
228	-213	47
86	-304	44
14	-276	7
89	-134	-13
278	49	-38
467	183	-88
520	219	-104
393	168	-45
143	96	26
-94	72	17
-234	126	-11
-267	227	-13
-273	301	-24
-347	284	-53
-509	144	-88
-695	-96	-88
-796	-379	-34
-736	-620	-22
-526	-745	-41
-262	-709	-54
-58	-510	-72
44	-196	-70
77	141	-44
122	400	6
234	505	36
389	450	57
506	290	75
506	123	40
373	35	-2
172	53	-17
11	137	-8
-39	213	-23
20	225	-93
108	169	-106
144	91	-62
91	45	-24
-10	58	13
-74	103	1
-39	125	-23
93	87	-34
252	-1	-48
351	-89	-56
341	-116	-75
226	-62	-57
58	35	-13
-98	108	9
-205	100	27
-260	7	16
-275	-119	0
-259	-207	-3
-216	-207	-21
-142	-130	-30
-45	-25	-33
48	53	-22
115	81	-4
141	78	0
139	83	-1
132	123	-17
138	188	-32
158	233	-45
172	210	-43
159	105	-6
107	-53	13
32	-216	19
-42	-326	34
-94	-356	34
-123	-307	8
-142	-196	-28
-166	-60	-46
-178	79	-71
-137	192	-97
-7	258	-105
219	260	-133
473	204	-112
620	115	-45
529	22	9
141	-54	19
-452	-127	5
-1064	-225	0
-1278	-366	4
-1170	-530	19
-969	-648	-8
-305	-655	-25
346	-510	-31
716	-245	-40
716	32	-44
430	207	-74
63	215	-65
-196	98	-5
-258	-39	15
-162	-78	10
-7	28	-3
108	227	-38
169	404	-37
201	458	-31
240	362	0
280	186	48
285	33	65
216	-17	54
85	40	9
-36	133	-33
-69	182	-60
30	150	-89
226	61	-96
419	-12	-56
501	-17	-7
414	50	2
183	141	-3
-101	191	-6
-339	169	-2
-458	88	3
-452	-1	-31
-360	-55	-67
-253	-69	-52
-178	-72	-63
-159	-102	-111
-182	-163	-104
-208	-233	-55
-190	-257	14
-94	-210	21
71	-98	-16
266	31	-35
419	121	-55
459	149	-68
354	121	-55
131	85	-12
-118	82	7
-300	123	32
-332	188	77
-215	240	89
-15	247	48
164	202	21
241	113	17
184	0	11
40	-127	24
-112	-257	21
-192	-376	-30
-162	-452	-111
-32	-452	-122
132	-351	-99
266	-167	-123
306	43	-107
237	203	-56
78	237	-34
-107	131	-35
-261	-71	-50
-343	-278	-61
-358	-401	-77
-362	-399	-53
-410	-292	-46
-526	-163	-42
-665	-79	-17
-724	-76	2
-610	-129	24
-286	-171	47
167	-140	76
600	-13	76
853	177	57
858	358	41
656	468	41
380	477	36
155	409	17
46	305	-43
26	209	-109
18	126	-111
-26	51	-81
-97	-35	-53
-132	-127	-11
-82	-203	43
40	-227	90
165	-178	103
209	-69	81
151	58	24
45	157	-97
-5	191	-201
72	168	-222
255	109	-147
422	55	-60
431	26	-30
205	24	26
-198	38	39
-630	47	-8
-888	44	-4
-878	28	-24
-619	4	-51
-256	-25	-70
52	-57	-80
206	-88	-44
212	-101	-12
167	-80	12
175	-14	34
283	90	38
446	201	3
553	275	-20
519	275	-51
312	197	-79
0	67	-61
-316	-63	-46
-513	-147	-36
-549	-163	-20
-447	-131	-6
-281	-95	-1
-126	-105	-9
-31	-176	5
8	-292	9
27	-395	4
62	-429	-13
132	-349	-29
222	-164	-23
292	76	-17
321	294	13
285	419	10
199	424	-23
86	317	-55
-23	152	-50
-116	-16	-39
-195	-153	-45
-273	-254	-39
-363	-337	-47
-452	-411	-48
-497	-469	-51
-447	-473	-22
-262	-387	10
39	-204	16
366	38	8
606	267	-17
645	404	-12
459	406	-7
104	288	-11
-268	116	-21
-526	-39	-33
-588	-123	-26
-481	-126	-2
-299	-72	16
-135	0	36
-30	68	79
50	125	130
158	174	118
326	215	16
506	238	-79
636	225	-132
635	171	-204
503	97	-217
317	32	-119
172	9	-30
130	39	-32
154	105	-86
142	168	-64
0	188	-4
-297	137	20
-645	22	18
-900	-132	0
-911	-277	-2
-668	-368	-5
-262	-364	-30
127	-270	-67
360	-110	-60
401	63	-34
328	194	-11
269	244	7
317	211	-6
450	124	-29
561	26	-52
521	-50	-82
279	-96	-86
-102	-124	-46
-475	-152	-22
-704	-177	-12
-708	-176	20
-532	-119	32
-285	-1	21
-72	157	11
69	287	11
166	331	-3
268	259	-36
394	98	-23
493	-76	32
484	-186	-2
324	-188	-17
27	-106	13
-300	-8	13
-523	22	-8
-556	-61	-50
-412	-241	-49
-183	-444	-39
18	-581	-45
99	-590	-44
62	-460	-40
-32	-235	-35
-107	16	-61
-118	233	-78
-71	372	-66
-8	433	-51
40	413	-9
65	331	21
89	199	37
139	39	36
223	-105	34
322	-192	41
403	-185	11
430	-87	-47
385	63	-57
258	195	-34
46	252	0
-226	215	61
-524	116	65
-774	20	10
-892	-21	-52
-820	-1	-130
-556	48	-172
-193	67	-151
158	25	-82
366	-65	-13
395	-145	-14
280	-159	-34
132	-88	-46
41	28	-34
50	112	-8
128	104	10
214	-1	9
263	-134	8
280	-210	6
306	-167	3
371	-12	9
462	171	-23
525	287	-43
476	276	-32
280	154	-42
-28	-3	-52
-366	-108	-36
-610	-116	-26
-684	-54	-37
-589	13	-40
-402	26	-35
-202	-26	-22
-83	-101	-7
-60	-135	-23
-98	-96	-30
-117	0	-22
-52	98	-16
115	139	0
346	114	-3
569	51	-6
695	3	-14
664	0	-17
474	30	8
178	46	45
-165	6	48
-472	-91	24
-699	-195	-12
-814	-238	-47
-813	-173	-67
-699	-17	-76
-496	158	-76
-248	272	-87
-14	275	-70
140	184	-43
199	54	-23
184	-49	2
157	-110	22
194	-144	35
320	-191	46
508	-270	37
673	-352	-20
707	-381	-61
547	-313	-70
214	-156	-68
-193	32	-49
-551	170	-39
-735	207	-55
-713	153	-50
-522	62	-39
-255	11	-58
-5	22	-9
161	80	49
234	127	51
244	119	60
224	55	27
196	-24	-41
159	-62	-78
97	-41	-86
16	14	-55
-54	45	3
-78	10	57
-18	-85	66
122	-182	20
295	-203	-39
404	-112	-118
380	72	-196
184	268	-209
-126	379	-131
-463	349	-7
-680	189	22
-697	-24	21
-516	-205	57
-227	-289	56
44	-264	31
187	-171	3
171	-60	-8
57	26	-23
-45	81	-17
-49	118	16
68	154	34
245	200	32
398	243	-33
446	260	-94
380	236	-100
250	165	-100
131	68	-95
75	-25	-65
95	-86	-4
166	-102	58
251	-81	60
310	-50	37
310	-38	5
216	-64	-46
11	-121	-74
-312	-178	-70
-669	-206	-54
-954	-186	-47
-1036	-131	-44
-844	-70	-38
-426	-34	-52
66	-34	-65
456	-50	-39
608	-63	-10
519	-55	2
283	-44	22
58	-59	50
-66	-130	79
-96	-248	66
-107	-361	19
-176	-404	-24
-318	-332	-52
-459	-153	-71
-522	67	-93
-432	251	-88
-222	335	-76
28	323	-51
221	253	-23
318	187	-11
333	156	9
310	153	10
280	150	-2
240	121	-8
160	77	-24
41	38	-31
-83	34	-16
-155	55	32
-128	75	102
-16	57	107
128	-4	46
236	-77	-2
279	-112	-62
268	-72	-131
245	34	-145
229	156	-81
198	231	-8
107	215	-30
-52	124	-47
-241	-3	-45
-375	-107	-83
-370	-159	-88
-217	-163	-57
1	-147	-13
159	-135	-22
169	-129	-35
36	-121	-6
-145	-92	-2
-241	-44	1
-175	1	33
28	26	50
253	25	54
373	21	24
324	40	-3
137	104	-28
-91	201	-91
-248	296	-110
-281	349	-156
-200	335	-158
-67	257	-43
59	145	16
150	32	1
208	-61	-4
262	-136	20
330	-200	62
415	-268	65
491	-329	43
508	-368	6
429	-356	-39
205	-280	-81
-148	-142	-103
-588	25	-84
-977	166	-62
-1213	222	-75
-1198	150	-77
-938	-47	-37
-515	-314	-14
-60	-556	1
291	-669	19
493	-596	20
562	-351	32
588	-11	19
626	305	-2
671	505	-5
662	559	9
496	501	14
141	395	11
-348	296	10
-814	214	12
-1117	122	13
-1134	-1	-29
-873	-157	-70
-443	-303	-78
3	-384	-39
334	-375	10
470	-292	4
423	-192	-25
275	-129	-38
125	-113	-66
53	-108	-99
97	-59	-89
237	57	-52
422	215	-17
566	352	-23
604	391	-26
495	311	-15
258	161	-7
-47	20	-17
-332	-44	-31
-516	-15	1
-562	62	36
-481	122	44
-327	119	14
-170	66	-6
-57	11	-4
-2	1	-27
15	51	-57
28	127	-63
65	174	-58
131	154	-45
210	77	-21
269	-11	-6
283	-57	-7
245	-40	-35
175	15	-64
107	61	-76
92	57	-54
155	2	-14
288	-72	38
431	-122	58
505	-112	27
428	-51	-4
172	33	-43
-207	104	-100
-589	139	-110
-842	145	-16
-873	131	28
-682	106	-5
-352	61	-23
-42	-11	-10
128	-112	-10
119	-229	-71
-14	-330	-53
-156	-387	28
-187	-383	15
-67	-326	2
163	-242	-26
391	-151	-76
506	-74	-68
450	-22	-89
238	-2	-91
-47	-14	-68
-294	-50	-43
-424	-92	-22
-410	-112	-5
-271	-90	21
-47	-24	12
207	58	-1
445	117	-37
614	113	-57
636	41	-48
461	-76	-41
62	-191	-26
-473	-260	-20
-1010	-259	9
-1231	-189	26
-1129	-71	33
-952	71	32
-336	215	26
312	342	17
754	416	0
869	402	-1
707	292	-16
431	110	-11
214	-76	-11
165	-190	-31
257	-183	-40
389	-60	-43
439	106	-37
373	233	-37
212	253	-30
42	174	-37
-72	51	-40
-116	-37	-34
-110	-45	-46
-95	13	-31
-86	88	16
-84	119	35
-81	90	18
-77	26	18
-89	-29	13
-122	-39	-23
-172	-16	-37
-204	9	-22
-191	-2	-2
-137	-51	-4
-65	-106	-15
-23	-122	-14
-18	-72	-36
-28	26	-52
5	127	-76
131	193	-101
341	204	-125
569	190	-101
701	178	-18
628	187	16
322	201	15
-156	181	18
-684	93	-6
-1083	-62	-37
-1227	-243	-53
-1079	-389	-72
-686	-448	-72
-167	-411	-100
302	-303	-101
592	-171	-54
628	-69	-23
452	-27	0
172	-54	8
-60	-135	31
-153	-233	64
-100	-304	58
28	-311	30
126	-238	-4
133	-109	-38
60	23	-77
-11	103	-102
-3	99	-79
107	36	-26
259	-22	9
333	-14	35
245	84	30
-10	224	-19
-329	321	-39
-595	301	-55
-692	155	-68
-610	-47	-50
-406	-196	-21
-184	-199	13
-1	-53	9
132	162	6
239	330	0
328	353	-18
365	230	-23
296	23	-29
93	-158	-33
-204	-241	-37
-491	-212	-30
-630	-115	-20
-548	-16	11
-262	45	30
92	66	30
387	72	32
496	88	27
421	116	51
232	139	95
50	135	55
-37	101	-48
-13	48	-95
81	5	-163
172	-17	-221
210	-20	-200
184	-17	-149
130	-21	-81
101	-28	-26
128	-32	4
206	-21	18
299	-4	23
346	7	32
314	3	37
193	-9	43
27	-3	68
-118	43	68
-187	129	21
-156	215	-5
-57	253	-11
27	198	-27
20	57	-49
-112	-111	-74
-321	-242	-84
-503	-282	-74
-537	-251	-44
-341	-196	-44
62	-170	-20
539	-188	-27
904	-205	-46
1002	-160	-25
753	-19	-70
201	177	-66
-472	324	-23
-1043	323	-15
-1310	143	-27
-1201	-134	-10
-952	-378	17
-419	-454	7
97	-341	-15
470	-140	-18
624	2	-3
592	-36	-26
450	-249	-32
273	-504	-36
103	-619	-26
-58	-478	-28
-204	-105	-51
-310	345	-21
-318	680	-11
-187	761	-21
66	594	-3
351	305	26
541	63	26
532	-34	14
309	3	-28
-49	79	-71
-383	91	-61
-573	2	-57
-572	-134	-50
-428	-222	-39
-223	-190	-17
-42	-43	9
86	134	40
175	251	72
242	254	65
283	169	69
270	68	32
196	19	-40
78	37	-69
-24	81	-111
-60	88	-164
-26	24	-162
31	-90	-92
44	-186	-38
-15	-207	-16
-111	-134	8
-157	-13	38
-79	92	15
121	128	-9
346	97	-2
474	43	-38
423	14	-35
225	36	6
-10	85	25
-137	120	19
-106	108	4
33	55	-34
148	6	-57
122	-3	-63
-59	37	-20
-299	100	29
-447	130	17
-392	95	14
-152	4	12
169	-82	-8
399	-100	-41
445	-21	-59
301	124	-67
70	254	-62
-121	282	-76
-170	158	-104
-62	-95	-109
140	-400	-103
336	-648	-78
430	-774	-63
358	-745	-32
111	-611	0
-262	-426	33
-654	-263	56
-937	-152	35
-990	-85	32
-766	-31	26
-321	39	-10
167	131	-2
517	224	15
575	274	-13
339	260	-16
-77	181	-16
-459	80	-43
-647	6	-62
-589	5	-111
-371	74	-151
-122	174	-116
28	244	-43
56	240	38
24	153	82
28	26	133
123	-72	159
291	-96	108
451	-33	38
522	72	-74
470	162	-161
329	182	-151
172	119	-81
72	1	-67
57	-121	-66
107	-196	-17
180	-202	19
221	-144	10
188	-48	1
79	50	-1
-82	137	-19
-236	191	-26
-321	212	-41
-291	198	-51
-148	156	-46
46	98	-18
189	39	-2
197	4	3
57	0	0
-157	21	-28
-325	49	-50
-344	57	-44
-205	33	-50
1	-16	-48
139	-62	-19
123	-79	-11
-34	-43	8
-223	31	17
-292	114	24
-163	171	36
145	182	42
503	155	37
759	111	-19
819	77	-42
665	51	-85
363	13	-157
15	-65	-134
-285	-196	-57
-491	-361	-33
-563	-510	-19
-505	-589	1
-339	-557	-15
-126	-423	-14
63	-223	-10
155	-19	1
122	134	43
1	200	26
-130	179	-18
-207	89	-61
-204	-36	-108
-169	-154	-139
-165	-233	-135
-224	-244	-58
-315	-181	-12
-361	-55	-39
-308	95	-28
-169	219	10
-35	275	-2
-4	236	13
-110	114	42
-276	-40	53
-366	-165	46
-259	-208	9
50	-149	4
450	-5	27
740	165	28
800	301	1
626	358	-20
345	327	-55
114	229	-77
44	108	-79
111	5	-83
196	-64	-58
184	-100	-20
39	-114	26
-170	-112	62
-319	-90	33
-319	-40	-6
-172	37	-15
40	125	-21
203	195	-14
257	218	-12
221	190	0
164	126	4
151	58	-32
188	16	-64
219	1	-89
175	0	-68
23	-13	-51
-198	-51	-44
-403	-98	-2
-487	-127	6
-415	-108	-16
-199	-36	-14
76	70	2
339	179	1
519	258	-26
598	298	-63
569	299	-76
436	270	-61
195	205	-64
-138	96	-67
-501	-72	-76
-804	-287	-80
-934	-505	-70
-840	-670	-90
-562	-728	-92
-214	-666	-46
53	-509	14
123	-313	24
-7	-144	72
-242	-34	140
-420	18	130
-433	45	91
-253	76	29
39	120	-35
314	168	-103
461	191	-124
446	174	-81
314	120	-46
150	57	-38
20	16	-37
-47	19	-37
-60	65	-68
-37	135	-80
19	201	-41
127	233	-15
276	215	18
432	149	60
525	39	23
474	-86	-32
255	-192	-30
-80	-241	-34
-418	-205	-10
-645	-88	34
-681	70	47
-540	202	42
-310	243	14
-97	164	-21
34	2	-54
81	-173	-44
93	-273	-24
125	-258	-55
199	-140	-83
291	10	-64
346	120	-64
332	153	-48
245	117	-11
131	61	-4
37	35	8
-1	48	24
14	74	45
60	76	41
100	33	8
111	-31	-18
89	-70	-52
35	-48	-100
-32	33	-78
-95	128	-43
-129	179	-64
-121	143	-86
-60	40	-82
28	-79	-53
111	-151	-52
152	-144	-28
132	-72	-11
66	14	-21
-12	70	-31
-61	76	-30
-70	31	24
-48	-31	58
-24	-90	64
-22	-129	69
-42	-152	34
-71	-145	-34
-89	-105	-81
-95	-22	-62
-91	100	-16
-90	230	21
-89	325	23
-65	353	-16
-4	313	-50
90	233	-44
186	152	-51
240	101	-31
230	72	32
172	37	68
118	-41	93
96	-175	57
97	-334	-38
52	-466	-180
-106	-524	-261
-394	-492	-238
-744	-402	-138
-1003	-313	-33
-1023	-271	-16
-766	-286	-11
-325	-322	5
113	-314	13
380	-219	11
387	-39	-13
212	177	-23
20	345	-21
-37	420	-31
80	373	-27
283	258	-23
430	131	-6
419	63	16
266	68	20
76	127	42
-20	198	50
28	237	32
165	225	19
267	166	7
234	84	-7
64	-3	-7
-157	-84	-8
-304	-142	-34
-299	-176	-70
-160	-174	-67
16	-135	-34
122	-68	-11
117	5	-7
32	59	-18
-51	82	-38
-72	68	-63
-30	41	-87
36	20	-95
64	26	-84
44	56	-59
5	101	-44
7	138	-30
77	154	-8
190	139	20
278	98	24
280	38	31
186	-24	81
36	-81	105
-93	-116	90
-148	-129	58
-125	-118	13
-65	-84	-39
-18	-30	-113
3	45	-168
16	139	-150
62	238	-111
156	305	-36
259	313	12
309	236	-12
240	85	-23
49	-89	-38
-201	-217	-51
-402	-246	-30
-470	-182	-6
-371	-80	48
-156	-24	110
89	-72	118
273	-213	100
355	-374	24
340	-452	-103
242	-390	-202
83	-213	-239
-129	-13	-162
-385	102	-63
-632	82	-36
-787	-43	-34
-784	-172	-54
-589	-210	-87
-272	-121	-97
53	43	-96
241	174	-91
228	190	-71
46	67	-29
-172	-122	10
-296	-278	31
-235	-313	52
-9	-208	64
288	-22	67
533	168	52
641	292	54
591	344	59
423	349	62
216	345	79
49	353	39
-32	345	-6
-14	294	-7
67	165	-6
142	-20	-25
124	-212	-48
-37	-348	-62
-312	-384	-66
-589	-314	-51
-725	-175	-22
-614	-26	0
-269	85	0
175	133	-26
506	123	-45
575	85	-34
363	43	-33
12	24	-58
-277	27	-75
-325	47	-88
-124	64	-101
206	63	-101
470	38	-63
531	-11	-13
371	-70	-8
87	-124	1
-176	-153	22
-310	-144	24
-306	-101	17
-215	-28	17
-109	51	14
-23	122	10
44	169	9
122	189	-20
218	187	-33
310	171	-32
363	154	5
358	132	34
296	116	24
195	100	4
84	85	-53
-31	65	-80
-141	29	-103
-226	-29	-123
-257	-117	-99
-205	-219	-100
-84	-308	-71
44	-340	-21
92	-287	1
-9	-153	53
-240	21	59
-508	164	11
-675	203	-23
-645	106	-47
-432	-105	-66
-147	-351	-70
63	-536	-36
111	-581	-20
10	-475	-13
-129	-264	-21
-182	-35	-40
-87	135	-47
124	213	-42
346	209	5
504	171	44
564	148	38
566	157	5
553	182	-8
523	191	-14
415	162	-19
164	95	-13
-219	16	-15
-643	-43	-4
-934	-60	18
-950	-35	53
-684	9	69
-255	57	34
142	94	-22
351	119	-77
328	137	-147
175	145	-166
46	137	-94
60	103	-11
221	45	2
418	-24	-59
531	-84	-68
465	-118	-43
238	-120	-15
-75	-93	18
-350	-52	5
-518	-9	-9
-553	25	-12
-475	45	-10
-328	48	-24
-154	30	-50
8	-7	-57
135	-50	-48
206	-84	-40
224	-89	-30
203	-60	-14
169	-5	-3
143	51	-1
128	88	-4
111	92	0
82	69	14
42	39	47
21	23	74
35	30	40
85	56	3
139	90	-22
154	117	-36
110	128	-10
29	117	-8
-20	83	-8
24	33	-37
176	-27	-67
381	-81	-82
522	-114	-122
492	-120	-155
254	-104	-131
-124	-91	-75
-521	-96	-46
-799	-133	-40
-887	-183	-55
-786	-219	-56
-571	-211	-22
-332	-160	22
-126	-89	42
12	-37	44
86	-36	57
97	-80	116
44	-129	120
-56	-138	-12
-169	-85	-101
-234	17	-147
-209	125	-188
-93	190	-132
66	192	-51
184	134	50
196	57	100
104	-15	102
-19	-77	84
-79	-136	0
-1	-214	-37
198	-296	-47
432	-346	-62
569	-316	-85
528	-187	-62
288	21	-27
-53	244	-16
-374	409	-36
-545	465	-90
