File Name: not saved
Channel 2: 'Channel 2', 30730 values, raw ADC, no filters.
Channel 3: 'Channel 3', 30730 values, raw ADC, no filters.
Channel 4: 'Channel 4', 30730 values, raw ADC, no filters.

-56	-43	-27
-95	-66	-23
-117	-82	-20
-125	-87	-26
-115	-77	-19
-89	-58	-13
-48	-32	-28
-3	-1	-30
42	28	-23
84	53	-23
110	70	-23
120	77	-21
114	71	-17
91	56	-18
57	34	-22
15	5	-20
-29	-24	-21
-71	-52	-21
-104	-74	-19
-125	-87	-26
-127	-86	-25
-111	-74	-25
-81	-52	-26
-36	-23	-24
12	9	-25
57	39	-24
93	62	-23
114	77	-18
120	80	-20
107	70	-22
85	53	-19
46	28	-20
4	-2	-20
-43	-32	-20
-84	-59	-20
-112	-79	-20
-127	-87	-24
-122	-83	-26
-100	-66	-24
-63	-42	-26
-20	-12	-22
27	17	-22
69	43	-23
100	64	-25
116	77	-23
115	77	-21
99	65	-20
68	44	-19
29	16	-21
-15	-15	-21
-57	-46	-23
-95	-67	-25
-119	-82	-24
-126	-84	-21
-117	-76	-21
-91	-57	-21
-50	-31	-25
-4	-2	-28
43	26	-20
84	52	-21
111	70	-21
123	79	-20
116	76	-24
93	61	-25
58	36	-21
17	7	-16
-28	-24	-24
-68	-52	-22
-101	-72	-19
-119	-84	-24
-122	-82	-26
-107	-71	-25
-77	-51	-24
-37	-24	-29
10	6	-30
54	34	-24
92	57	-25
113	72	-25
118	77	-23
107	69	-21
81	51	-21
42	26	-15
0	-4	-19
-43	-35	-21
-84	-60	-22
-111	-78	-25
-125	-85	-25
-122	-80	-24
-101	-65	-22
-65	-41	-24
-21	-13	-24
24	17	-23
68	45	-23
101	64	-22
116	77	-21
117	76	-21
101	64	-19
71	43	-21
29	16	-18
-15	-14	-17
-58	-42	-19
-95	-64	-22
-117	-81	-21
-125	-82	-19
-113	-75	-22
-88	-56	-22
-49	-31	-27
-4	-2	-28
41	27	-28
81	51	-24
109	68	-24
121	77	-25
113	72	-22
91	59	-22
55	35	-18
13	6	-21
-31	-26	-23
-72	-53	-21
-104	-75	-22
-124	-87	-22
-126	-85	-22
-109	-74	-25
-79	-50	-25
-34	-23	-24
13	8	-24
58	37	-25
93	59	-22
113	76	-20
118	79	-21
106	71	-22
82	53	-25
44	27	-23
2	-2	-19
-44	-34	-20
-86	-61	-20
-115	-81	-23
-129	-87	-26
-124	-81	-25
-102	-64	-24
-65	-38	-23
-20	-10	-23
27	20	-28
68	45	-26
99	65	-23
115	76	-24
115	75	-20
99	64	-19
69	43	-20
31	17	-23
-15	-14	-20
-58	-44	-19
-95	-66	-21
-118	-82	-23
-126	-86	-24
-114	-77	-26
-86	-57	-23
-46	-32	-25
-1	-2	-26
46	27	-23
85	51	-24
111	69	-22
123	77	-19
118	74	-19
97	60	-22
62	36	-22
20	8	-23
-26	-23	-22
-68	-51	-18
-103	-72	-18
-121	-84	-21
-124	-83	-21
-107	-70	-22
-76	-48	-24
-33	-21	-21
13	11	-23
54	39	-24
91	61	-23
111	76	-25
117	78	-21
106	70	-20
81	51	-20
42	25	-20
-2	-5	-22
-46	-35	-21
-86	-59	-24
-113	-79	-25
-125	-84	-25
-121	-80	-26
-99	-64	-24
-63	-41	-22
-20	-13	-31
27	16	-35
68	42	-23
100	64	-22
116	74	-23
115	74	-19
98	63	-18
68	41	-19
28	15	-23
-13	-16	-21
-56	-42	-19
-93	-65	-23
-116	-80	-23
-126	-83	-23
-116	-76	-20
-91	-57	-18
-49	-33	-24
-1	-2	-24
44	27	-21
86	52	-20
111	71	-21
122	79	-23
115	75	-21
94	60	-16
59	36	-15
17	7	-18
-28	-25	-22
-70	-52	-23
-104	-76	-23
-124	-87	-25
-125	-86	-26
-109	-72	-30
-79	-49	-28
-35	-22	-27
11	7	-24
56	35	-25
91	57	-23
113	70	-20
117	77	-22
107	71	-19
81	53	-23
42	28	-23
0	-2	-20
-45	-33	-19
-85	-59	-19
-114	-79	-23
-126	-85	-21
-121	-80	-21
-100	-64	-24
-62	-39	-22
-17	-11	-25
30	20	-25
72	45	-24
103	65	-22
117	76	-20
116	77	-23
101	65	-22
69	43	-23
29	15	-23
-16	-17	-22
-59	-47	-20
-97	-71	-21
-121	-86	-26
-128	-88	-23
-118	-77	-24
-91	-57	-24
-50	-31	-22
-3	-1	-27
41	28	-24
80	53	-21
106	72	-20
116	80	-21
111	77	-21
90	60	-18
57	36	-18
16	5	-16
-29	-27	-20
-69	-55	-21
-103	-77	-23
-121	-85	-24
-124	-84	-25
-108	-70	-25
-77	-50	-24
-35	-24	-27
12	7	-24
55	34	-23
92	58	-24
114	71	-26
120	77	-25
111	69	-19
84	51	-20
45	26	-21
1	-4	-20
-43	-34	-17
-84	-61	-20
-110	-80	-25
-123	-87	-25
-120	-82	-25
-101	-66	-24
-67	-44	-24
-23	-15	-24
22	16	-26
66	44	-25
100	66	-24
118	78	-24
120	79	-21
102	66	-22
69	45	-17
29	17	-19
-15	-13	-22
-58	-42	-21
-94	-66	-22
-116	-80	-24
-124	-85	-24
-115	-77	-22
-89	-57	-23
-49	-32	-25
-2	0	-24
44	30	-22
85	56	-22
110	72	-23
121	78	-21
113	72	-20
91	57	-20
57	34	-20
16	6	-19
-27	-24	-21
-69	-52	-21
-103	-74	-24
-123	-85	-23
-125	-86	-25
-110	-72	-27
-79	-52	-24
-34	-23	-28
12	7	-27
56	35	-24
91	57	-22
113	70	-22
118	76	-20
107	68	-19
84	53	-20
46	28	-20
3	0	-18
-43	-32	-18
-83	-60	-19
-112	-80	-24
-126	-87	-23
-121	-81	-23
-101	-63	-26
-63	-39	-24
-19	-11	-22
30	19	-20
69	45	-27
102	64	-24
119	75	-18
117	75	-22
101	62	-23
69	42	-17
31	14	-15
-15	-16	-20
-57	-45	-31
-95	-68	-32
-120	-82	-27
-128	-85	-30
-119	-76	-27
-92	-57	-27
-50	-31	-28
-4	-2	-27
42	26	-20
82	51	-14
107	68	-17
117	79	-20
112	75	-22
89	61	-20
54	37	-20
13	7	-18
-31	-23	-18
-71	-52	-19
-104	-72	-23
-121	-84	-24
-123	-82	-24
-109	-69	-24
-79	-50	-23
-36	-24	-25
10	5	-24
53	34	-25
93	57	-22
115	74	-20
121	79	-21
109	70	-18
82	53	-19
44	26	-20
0	-4	-19
-43	-33	-23
-82	-59	-22
-110	-78	-23
-123	-86	-24
-120	-82	-26
-99	-67	-23
-64	-42	-25
-21	-12	-28
26	18	-24
69	46	-23
101	66	-18
119	77	-20
119	76	-22
102	63	-21
70	42	-21
29	14	-21
-14	-16	-23
-58	-46	-22
-94	-68	-23
-117	-85	-21
-125	-88	-23
-116	-78	-22
-91	-59	-21
-49	-32	-24
-5	-2	-23
40	28	-23
80	54	-23
106	72	-23
117	81	-21
111	76	-20
91	60	-20
56	37	-20
15	7	-25
-30	-23	-23
-71	-53	-23
-105	-74	-23
-123	-86	-21
-124	-85	-22
-108	-71	-23
-76	-49	-27
-33	-21	-21
13	9	-26
58	38	-30
92	59	-25
113	72	-19
118	75	-13
107	68	-21
83	51	-19
46	27	-20
5	-2	-21
-40	-33	-20
-80	-60	-20
-111	-80	-18
-125	-88	-24
-121	-82	-26
-99	-64	-27
-61	-38	-25
-18	-10	-24
28	19	-23
68	45	-23
98	63	-25
113	75	-25
113	74	-22
99	64	-23
68	45	-22
31	18	-19
-15	-14	-23
-58	-45	-24
-97	-68	-24
-120	-84	-20
-126	-85	-23
-116	-75	-26
-88	-55	-24
-47	-30	-26
0	-2	-24
45	28	-24
84	51	-21
111	71	-22
121	79	-21
114	75	-21
92	59	-20
58	35	-18
15	6	-21
-28	-25	-21
-69	-53	-23
-103	-72	-21
-121	-85	-23
-124	-85	-25
-109	-74	-20
-80	-52	-20
-37	-24	-22
11	6	-24
54	35	-23
92	58	-23
113	72	-21
120	76	-22
107	67	-24
82	49	-26
44	24	-23
0	-5	-21
-43	-34	-23
-83	-59	-25
-110	-78	-23
-123	-84	-20
-120	-80	-21
-99	-64	-21
-65	-40	-26
-21	-13	-25
24	16	-25
67	41	-28
99	62	-26
116	76	-24
117	76	-20
101	65	-19
70	44	-18
29	16	-18
-15	-17	-23
-58	-46	-21
-94	-68	-21
-117	-83	-21
-124	-83	-23
-114	-72	-24
-88	-52	-24
-50	-28	-25
-4	1	-25
42	28	-25
82	53	-21
107	70	-22
121	79	-22
114	76	-19
92	61	-21
56	37	-20
15	8	-21
-29	-24	-18
-70	-52	-19
-103	-76	-22
-122	-87	-21
-123	-86	-25
-107	-74	-28
-76	-50	-27
-33	-24	-28
13	8	-22
57	36	-18
91	58	-23
113	72	-21
117	76	-21
107	68	-19
83	49	-18
44	25	-20
3	-4	-19
-42	-34	-21
-82	-59	-19
-113	-79	-23
-126	-86	-27
-124	-82	-25
-102	-64	-25
-64	-40	-24
-20	-11	-25
27	20	-26
68	46	-24
99	66	-23
115	76	-21
116	77	-20
99	64	-25
68	43	-20
28	16	-20
-17	-16	-20
-60	-45	-20
-97	-68	-24
-118	-84	-23
-125	-85	-21
-114	-77	-24
-88	-56	-25
-49	-31	-27
-4	-1	-27
41	28	-23
81	51	-22
107	69	-23
120	76	-20
114	74	-20
93	58	-23
57	36	-21
15	7	-18
-28	-25	-18
-68	-52	-20
-101	-74	-20
-118	-84	-23
-122	-83	-24
-107	-69	-25
-79	-47	-27
-36	-21	-27
11	9	-28
56	36	-27
94	58	-27
115	72	-26
121	77	-21
107	71	-24
81	52	-22
44	28	-19
1	-4	-19
-42	-34	-19
-82	-60	-18
-110	-79	-17
-123	-85	-22
-120	-80	-24
-100	-63	-23
-64	-41	-20
-20	-12	-22
25	18	-25
68	43	-23
101	64	-21
118	76	-20
118	76	-18
101	63	-20
69	41	-19
28	15	-21
-16	-16	-22
-59	-44	-22
-96	-67	-21
-119	-81	-20
-125	-84	-23
-116	-76	-25
-90	-55	-26
-48	-30	-26
-2	0	-27
43	28	-23
83	53	-23
110	71	-27
120	77	-28
113	74	-25
91	58	-23
57	35	-24
14	5	-23
-31	-25	-21
-71	-53	-20
-104	-77	-20
-122	-86	-22
-123	-86	-24
-108	-70	-27
-77	-49	-24
-35	-21	-26
11	9	-27
54	36	-24
90	58	-25
111	72	-23
117	75	-19
107	68	-17
82	51	-16
46	26	-15
4	-3	-18
-40	-33	-17
-81	-59	-19
-109	-77	-23
-122	-85	-25
-119	-81	-23
-98	-63	-23
-63	-41	-24
-19	-12	-25
27	17	-23
68	44	-20
101	64	-22
115	76	-19
117	77	-19
100	64	-21
69	43	-18
29	16	-21
-16	-16	-21
-59	-45	-21
-97	-69	-23
-120	-84	-21
-126	-86	-27
-117	-77	-30
-89	-57	-26
-50	-32	-25
-3	-3	-27
42	26	-26
82	51	-25
107	69	-25
119	79	-19
113	76	-20
90	60	-21
56	35	-20
14	4	-21
-30	-27	-18
-71	-55	-22
-102	-75	-21
-120	-84	-21
-123	-82	-27
-108	-68	-28
-78	-49	-28
-34	-21	-30
11	7	-26
56	35	-22
93	60	-22
115	75	-23
122	80	-20
110	71	-16
85	53	-19
46	27	-19
3	-2	-21
-42	-32	-24
-83	-59	-25
-110	-77	-23
-124	-85	-18
-119	-80	-24
-100	-64	-25
-65	-41	-24
-20	-12	-25
25	17	-19
67	45	-25
100	64	-27
118	77	-22
117	77	-18
100	64	-15
68	43	-17
28	14	-20
-18	-16	-20
-61	-47	-20
-97	-70	-24
-121	-84	-24
-126	-88	-25
-116	-78	-25
-89	-58	-25
-49	-31	-24
-5	-2	-23
41	27	-23
82	53	-22
109	71	-23
121	79	-21
113	75	-23
93	60	-23
58	36	-20
15	7	-19
-30	-24	-21
-71	-52	-21
-104	-72	-24
-121	-84	-22
-123	-84	-21
-106	-69	-27
-76	-49	-27
-34	-21	-21
12	8	-24
53	36	-23
90	58	-23
111	72	-24
117	77	-23
107	68	-22
81	51	-19
44	27	-21
0	-2	-21
-44	-32	-22
-83	-59	-23
-113	-78	-22
-125	-85	-23
-122	-81	-25
-99	-64	-27
-64	-40	-23
-18	-9	-22
29	21	-25
72	48	-23
104	67	-19
119	78	-23
119	77	-25
102	64	-21
69	42	-24
30	14	-23
-15	-18	-21
-58	-47	-20
-95	-71	-19
-117	-85	-23
-125	-87	-25
-114	-76	-30
-86	-56	-23
-46	-29	-17
0	0	-23
42	27	-23
81	51	-21
107	68	-25
118	76	-23
113	72	-21
92	58	-21
58	35	-21
16	7	-19
-28	-25	-19
-70	-54	-19
-103	-76	-18
-122	-87	-24
-125	-86	-25
-111	-72	-25
-80	-51	-26
-36	-23	-25
11	5	-26
55	35	-24
93	57	-25
115	74	-24
120	79	-18
107	72	-17
81	55	-23
42	28	-24
0	-2	-17
-44	-34	-18
-82	-59	-18
-109	-78	-21
-123	-86	-20
-119	-81	-24
-100	-65	-24
-65	-43	-20
-22	-16	-27
25	14	-27
68	41	-25
99	61	-23
116	72	-24
116	72	-22
100	63	-22
69	41	-22
29	15	-21
-14	-15	-18
-58	-44	-20
-95	-66	-24
-117	-82	-22
-124	-85	-26
-114	-78	-27
-87	-57	-25
-46	-31	-28
-1	-2	-26
44	28	-27
83	53	-26
110	71	-24
120	80	-23
113	76	-23
91	60	-19
55	36	-15
14	8	-15
-31	-24	-20
-70	-51	-21
-104	-72	-21
-122	-84	-24
-124	-84	-26
-108	-70	-26
-77	-49	-22
-33	-20	-23
14	11	-23
57	40	-24
93	61	-23
113	76	-20
117	77	-22
107	70	-20
82	51	-20
44	26	-20
2	-3	-18
-43	-35	-19
-84	-60	-20
-113	-80	-23
-126	-86	-23
-122	-80	-25
-100	-62	-28
-63	-37	-26
-18	-9	-30
27	20	-27
68	43	-24
99	63	-21
113	72	-19
114	72	-18
98	62	-18
68	41	-20
28	16	-18
-16	-15	-17
-57	-43	-18
-95	-66	-21
-117	-82	-26
-125	-85	-23
-114	-77	-21
-88	-58	-26
-50	-31	-24
-4	-2	-23
40	28	-21
81	51	-21
107	70	-20
121	77	-20
115	74	-21
94	60	-21
60	35	-22
18	7	-19
-27	-23	-20
-68	-51	-23
-100	-72	-26
-120	-84	-26
-121	-83	-22
-106	-70	-21
-77	-50	-25
-33	-24	-27
12	7	-28
56	34	-27
92	57	-23
114	72	-23
120	76	-21
107	68	-20
81	49	-24
42	23	-19
0	-7	-19
-45	-37	-23
-83	-61	-21
-110	-78	-20
-125	-84	-23
-121	-79	-26
-101	-63	-24
-66	-40	-21
-22	-13	-27
25	16	-30
68	43	-27
101	63	-24
118	75	-22
118	76	-19
101	65	-18
69	43	-21
30	16	-20
-16	-15	-18
-60	-43	-21
-96	-66	-24
-120	-80	-27
-125	-83	-30
-115	-76	-24
-87	-55	-20
-47	-31	-22
-2	0	-24
44	27	-23
83	52	-22
111	70	-19
121	78	-19
116	75	-23
94	59	-20
59	37	-18
18	9	-17
-27	-24	-19
-69	-52	-22
-102	-76	-22
-121	-86	-22
-124	-86	-20
-109	-72	-24
-77	-49	-28
-34	-20	-21
13	10	-23
55	36	-24
91	59	-22
111	72	-20
116	76	-18
106	68	-19
80	51	-18
44	28	-19
1	-2	-21
-42	-32	-20
-84	-59	-25
-114	-79	-24
-128	-86	-24
-124	-82	-25
-102	-64	-24
-66	-41	-25
-22	-11	-25
26	19	-28
68	45	-26
101	65	-22
117	77	-22
117	76	-21
101	65	-21
71	45	-21
29	17	-21
-15	-15	-20
-59	-43	-19
-96	-67	-21
-118	-82	-22
-125	-85	-24
-114	-76	-25
-88	-57	-31
-47	-32	-31
-2	-2	-25
41	27	-21
81	51	-21
107	68	-23
118	77	-21
112	72	-23
91	58	-23
58	35	-18
15	5	-19
-28	-24	-24
-69	-52	-22
-102	-75	-18
-121	-86	-20
-121	-86	-28
-105	-74	-27
-75	-52	-23
-33	-24	-25
12	7	-27
56	35	-23
92	58	-19
115	72	-17
121	78	-17
109	70	-19
83	52	-17
44	27	-18
1	-5	-24
-45	-35	-25
-84	-62	-21
-111	-80	-24
-125	-87	-24
-119	-82	-24
-100	-66	-24
-63	-43	-24
-20	-14	-25
25	16	-24
68	45	-25
100	66	-20
117	79	-21
116	79	-21
100	66	-20
69	43	-18
29	15	-18
-15	-15	-19
-57	-42	-21
-94	-66	-22
-118	-81	-23
-125	-85	-23
-115	-76	-23
-89	-56	-24
-50	-29	-23
-4	1	-30
42	29	-28
80	53	-24
107	68	-26
118	76	-24
111	71	-23
89	57	-20
56	35	-21
15	6	-22
-31	-24	-25
-70	-53	-25
-103	-75	-25
-121	-86	-25
-125	-86	-19
-110	-71	-23
-79	-50	-27
-37	-21	-24
9	9	-25
54	39	-25
90	60	-23
111	74	-24
117	79	-22
106	70	-21
81	52	-21
44	26	-19
2	-3	-20
-42	-34	-20
-83	-60	-23
-111	-78	-25
-123	-85	-28
-119	-79	-27
-97	-61	-20
-63	-39	-18
-18	-11	-18
27	17	-19
68	43	-21
99	62	-22
115	74	-19
117	76	-20
100	64	-22
71	44	-18
31	15	-19
-14	-17	-18
-59	-47	-22
-96	-69	-25
-121	-83	-27
-127	-85	-27
-116	-74	-26
-88	-55	-25
-49	-30	-25
-3	-2	-27
42	27	-25
82	53	-25
107	71	-21
120	80	-20
113	75	-19
94	59	-19
57	35	-21
16	5	-18
-27	-26	-17
-68	-53	-20
-101	-74	-22
-119	-85	-22
-122	-84	-22
-107	-70	-24
-78	-50	-24
-35	-23	-25
11	7	-23
54	35	-24
91	58	-25
113	74	-25
118	78	-24
107	70	-19
82	54	-20
43	27	-20
0	-3	-21
-44	-33	-21
-82	-60	-21
-110	-78	-24
-123	-86	-25
-120	-81	-25
-99	-64	-24
-64	-41	-27
-21	-13	-26
27	17	-24
69	43	-24
102	63	-22
120	75	-23
121	76	-21
104	64	-20
71	43	-20
30	14	-17
-15	-16	-18
-58	-47	-21
-95	-69	-21
-117	-86	-24
-124	-88	-27
-114	-78	-25
-88	-58	-24
-49	-30	-23
-4	0	-23
42	31	-26
82	56	-30
109	72	-27
119	81	-15
111	77	-21
89	61	-22
54	36	-17
12	6	-20
-33	-24	-19
-74	-52	-24
-106	-74	-25
-124	-84	-26
-125	-82	-21
-108	-69	-21
-77	-47	-23
-33	-20	-23
14	9	-24
57	38	-24
92	58	-27
111	72	-23
117	77	-22
105	70	-23
82	54	-24
46	28	-23
4	-1	-17
-40	-33	-17
-80	-60	-20
-109	-81	-22
-124	-88	-20
-120	-83	-26
-99	-66	-25
-63	-41	-21
-19	-11	-22
27	18	-24
69	43	-21
99	63	-21
116	75	-21
117	75	-19
100	64	-18
70	43	-22
29	16	-21
-15	-15	-19
-60	-46	-18
-97	-69	-21
-120	-85	-25
-126	-87	-23
-116	-78	-24
-91	-58	-25
-50	-32	-23
-5	-3	-25
41	27	-22
82	51	-22
107	70	-21
121	79	-23
114	76	-21
93	61	-19
57	37	-24
16	8	-23
-29	-24	-21
-69	-52	-21
-102	-72	-24
-122	-85	-25
-124	-84	-19
-109	-72	-23
-78	-50	-32
-36	-24	-26
11	7	-22
56	35	-26
91	58	-22
113	71	-19
117	76	-21
105	68	-24
80	51	-21
41	27	-19
0	-2	-20
-45	-33	-20
-84	-59	-22
-112	-78	-23
-125	-86	-25
-121	-80	-23
-101	-63	-26
-66	-38	-22
-22	-9	-17
24	20	-23
67	45	-23
99	65	-23
117	77	-23
118	76	-22
102	65	-22
70	44	-19
31	16	-18
-14	-15	-21
-57	-44	-20
-94	-68	-22
-117	-85	-24
-124	-86	-25
-114	-79	-25
-87	-58	-25
-47	-34	-29
0	-3	-27
44	25	-26
84	49	-26
110	68	-22
120	74	-22
114	70	-19
92	55	-18
58	32	-19
16	4	-22
-28	-27	-22
-68	-53	-21
-102	-74	-23
-120	-85	-21
-122	-83	-24
-107	-70	-23
-77	-48	-23
-33	-21	-27
14	9	-24
57	37	-21
93	59	-19
111	74	-20
118	78	-20
106	70	-18
81	53	-17
43	28	-19
1	-2	-21
-42	-33	-21
-83	-58	-20
-111	-77	-24
-126	-84	-25
-123	-81	-21
-102	-64	-19
-66	-40	-25
-20	-12	-27
26	17	-24
68	43	-25
99	63	-21
116	74	-19
115	74	-21
99	63	-23
68	42	-27
28	15	-24
-16	-16	-22
-60	-44	-21
-95	-66	-20
-118	-80	-23
-125	-82	-24
-114	-72	-25
-86	-52	-24
-46	-28	-25
-1	3	-25
44	30	-26
84	53	-27
110	70	-23
120	76	-23
113	72	-22
93	57	-19
56	35	-20
15	7	-19
-30	-24	-22
-69	-51	-24
-103	-72	-25
-122	-85	-26
-123	-86	-25
-109	-71	-25
-79	-51	-28
-36	-23	-27
11	8	-29
54	36	-27
91	59	-24
113	74	-23
119	78	-21
107	69	-20
81	50	-16
42	26	-18
0	-6	-18
-44	-36	-21
-83	-62	-19
-111	-82	-23
-124	-86	-27
-121	-81	-24
-100	-63	-25
-64	-41	-25
-22	-12	-27
27	18	-22
69	43	-20
103	66	-20
121	79	-19
121	79	-20
103	67	-22
69	45	-21
29	17	-14
-17	-16	-15
-59	-45	-18
-95	-69	-17
-117	-83	-18
-124	-86	-27
-114	-76	-27
-88	-55	-27
-47	-30	-24
-1	1	-20
42	30	-25
84	55	-24
111	71	-23
121	78	-21
116	72	-24
93	57	-21
57	33	-17
14	3	-18
-31	-26	-18
-71	-54	-22
-106	-76	-23
-124	-86	-23
-124	-84	-23
-108	-70	-29
-77	-49	-30
-35	-22	-30
11	8	-25
54	34	-24
90	56	-24
111	68	-21
117	72	-19
105	66	-16
81	49	-17
42	26	-13
1	-4	-16
-43	-32	-18
-83	-60	-19
-111	-77	-21
-126	-84	-27
-121	-79	-37
-99	-62	-38
-62	-38	-34
-18	-9	-29
28	21	-24
71	48	-21
102	67	-20
119	77	-16
118	78	-19
102	66	-21
72	45	-16
30	17	-18
-15	-13	-20
-59	-44	-19
-96	-69	-21
-120	-84	-21
-126	-86	-22
-115	-76	-23
-88	-56	-21
-47	-30	-23
-1	0	-26
44	27	-22
82	52	-21
107	67	-24
119	76	-23
111	71	-21
91	57	-18
55	33	-19
13	4	-22
-34	-26	-20
-75	-54	-25
-107	-74	-24
-126	-84	-24
-126	-83	-26
-110	-69	-24
-78	-50	-22
-36	-22	-25
11	6	-24
56	35	-21
91	58	-23
113	74	-17
119	79	-19
107	70	-18
83	52	-19
44	26	-22
2	-4	-16
-42	-35	-18
-82	-62	-21
-111	-80	-27
-123	-87	-32
-120	-81	-39
-100	-64	-39
-63	-40	-30
-19	-11	-30
28	17	-19
69	43	-17
101	62	-21
116	72	-21
117	75	-19
100	64	-19
70	43	-21
32	16	-22
-14	-14	-23
-57	-45	-19
-95	-69	-20
-119	-84	-18
-126	-86	-21
-115	-76	-26
-87	-55	-19
-47	-29	-21
-1	0	-25
44	28	-25
83	52	-23
107	70	-19
119	79	-21
113	74	-18
91	59	-19
57	35	-18
14	6	-16
-29	-24	-19
-71	-52	-20
-104	-72	-28
-122	-84	-23
-125	-83	-22
-109	-69	-25
-79	-49	-26
-34	-22	-25
12	7	-25
57	35	-25
94	59	-21
115	76	-24
121	78	-20
107	70	-16
82	52	-18
44	25	-19
1	-4	-22
-42	-35	-23
-82	-60	-26
-110	-78	-24
-124	-86	-24
-121	-80	-27
-100	-63	-25
-63	-39	-24
-19	-11	-24
29	19	-26
70	47	-23
101	65	-23
117	77	-23
115	76	-20
99	64	-22
69	43	-25
29	14	-23
-15	-17	-20
-59	-47	-17
-95	-70	-16
-119	-86	-20
-125	-87	-22
-114	-77	-25
-88	-57	-25
-46	-30	-26
-1	0	-26
44	30	-25
84	53	-25
109	69	-22
120	75	-25
114	70	-20
93	56	-22
57	33	-20
16	6	-18
-29	-23	-21
-70	-50	-23
-104	-70	-26
-124	-84	-24
-126	-84	-26
-112	-71	-28
-80	-49	-27
-37	-21	-26
10	8	-26
54	36	-28
90	58	-24
113	72	-21
117	76	-20
107	70	-16
82	53	-20
44	29	-19
1	-1	-19
-44	-32	-21
-83	-58	-22
-111	-78	-23
-123	-86	-21
-121	-81	-23
-100	-65	-23
-65	-41	-23
-22	-13	-24
24	17	-25
67	43	-24
101	63	-21
117	75	-22
119	76	-20
102	64	-18
71	43	-22
30	16	-21
-16	-14	-19
-59	-45	-19
-96	-67	-24
-117	-83	-23
-124	-83	-25
-113	-75	-27
-85	-56	-22
-46	-30	-24
1	-2	-25
44	26	-27
82	50	-21
107	68	-18
118	77	-24
113	74	-21
91	58	-21
57	32	-18
16	3	-16
-30	-28	-20
-70	-55	-21
-104	-77	-22
-123	-86	-23
-124	-83	-25
-109	-69	-25
-79	-46	-26
-35	-20	-27
11	10	-26
56	38	-23
92	59	-21
114	75	-22
121	78	-22
109	71	-20
84	53	-20
45	28	-21
2	-1	-24
-43	-33	-21
-84	-60	-19
-112	-81	-24
-126	-88	-22
-122	-83	-23
-101	-64	-24
-64	-39	-23
-20	-11	-22
26	20	-23
67	45	-25
98	65	-21
115	77	-22
115	79	-21
98	68	-20
68	46	-21
28	18	-20
-16	-15	-19
-60	-46	-20
-96	-70	-24
-120	-86	-25
-126	-88	-27
-116	-79	-28
-89	-57	-27
-48	-33	-27
-3	-4	-27
44	26	-25
83	50	-21
110	68	-18
121	76	-18
114	74	-16
93	58	-21
58	35	-25
17	5	-20
-28	-25	-24
-68	-52	-22
-102	-72	-24
-120	-84	-31
-121	-81	-28
-107	-69	-24
-77	-47	-22
-35	-19	-23
11	11	-20
54	38	-20
91	61	-21
114	76	-22
120	79	-20
109	72	-18
82	53	-17
44	28	-18
0	-4	-18
-43	-35	-17
-82	-60	-20
-111	-78	-22
-122	-84	-24
-120	-80	-22
-100	-62	-22
-66	-39	-22
-23	-11	-25
25	20	-25
66	45	-21
101	65	-26
117	75	-27
116	72	-27
97	61	-27
65	40	-24
26	13	-20
-19	-18	-17
-59	-45	-19
-95	-68	-20
-118	-83	-21
-125	-86	-23
-116	-78	-23
-89	-57	-24
-49	-31	-24
-2	1	-25
42	28	-26
84	53	-25
110	70	-22
120	77	-22
115	72	-19
93	58	-18
59	35	-20
16	6	-23
-28	-25	-22
-71	-55	-21
-105	-79	-22
-123	-89	-24
-124	-88	-24
-107	-72	-23
-76	-50	-25
-33	-22	-18
13	8	-18
56	37	-24
92	61	-22
114	75	-20
121	79	-18
109	71	-20
82	52	-28
42	27	-36
1	-5	-34
-44	-35	-28
-84	-62	-27
-111	-81	-23
-125	-88	-24
-121	-83	-21
-100	-66	-18
-64	-42	-25
-20	-11	-19
27	21	-20
69	48	-24
101	67	-24
117	77	-24
115	76	-18
99	64	-15
68	43	-20
29	16	-21
-14	-14	-17
-58	-42	-21
-94	-66	-24
-119	-80	-25
-126	-84	-26
-117	-77	-25
-91	-58	-21
-50	-32	-19
-4	-2	-25
42	27	-25
82	53	-21
110	70	-19
120	79	-21
114	76	-20
92	59	-17
58	36	-17
16	7	-16
-29	-24	-17
-68	-51	-20
-101	-72	-20
-119	-84	-24
-121	-84	-24
-108	-71	-23
-78	-51	-27
-37	-24	-25
10	6	-26
54	33	-25
91	58	-23
114	72	-23
119	78	-23
107	68	-22
80	51	-22
42	27	-22
-1	-4	-24
-44	-33	-23
-84	-59	-21
-111	-76	-21
-124	-83	-25
-121	-78	-25
-101	-61	-26
-66	-39	-28
-22	-11	-27
24	18	-28
66	44	-24
99	64	-21
116	74	-20
117	74	-18
102	63	-20
72	41	-22
31	14	-19
-13	-16	-18
-56	-44	-17
-93	-69	-19
-118	-83	-23
-125	-85	-20
-114	-76	-26
-88	-54	-25
-47	-29	-24
0	1	-25
44	28	-22
83	53	-24
107	68	-23
117	77	-23
110	74	-20
90	59	-25
55	36	-25
13	6	-21
-31	-25	-21
-75	-55	-23
-107	-76	-26
-125	-87	-18
-126	-85	-20
-109	-69	-26
-77	-48	-26
-32	-20	-26
14	9	-24
58	36	-22
93	58	-23
114	71	-21
121	77	-21
109	70	-20
85	55	-20
47	28	-21
4	0	-21
-41	-32	-22
-81	-60	-21
-109	-79	-22
-123	-87	-24
-118	-81	-27
-98	-64	-26
-62	-40	-26
-20	-11	-24
28	18	-21
68	43	-25
101	62	-24
118	74	-24
117	74	-22
101	62	-14
69	43	-17
29	15	-15
-16	-16	-15
-59	-45	-20
-96	-69	-21
-121	-84	-21
-127	-86	-25
-116	-76	-28
-87	-56	-27
-46	-29	-26
1	0	-22
46	29	-23
85	53	-24
110	68	-25
120	77	-25
114	71	-21
94	57	-21
59	34	-19
16	6	-21
-29	-24	-23
-70	-51	-23
-104	-71	-24
-121	-83	-21
-124	-82	-20
-108	-69	-25
-79	-49	-27
-37	-22	-25
9	7	-25
52	35	-27
90	57	-22
111	72	-18
119	78	-16
107	68	-20
81	51	-16
42	25	-15
-4	-5	-16
-47	-35	-16
-88	-59	-27
-115	-77	-37
-126	-85	-39
-123	-79	-30
-101	-63	-23
-66	-39	-23
-23	-12	-27
24	18	-26
67	45	-24
101	65	-19
119	77	-16
120	77	-21
103	65	-19
71	45	-21
29	16	-21
-15	-15	-19
-58	-45	-22
-96	-68	-23
-118	-85	-23
-125	-88	-24
-114	-77	-25
-88	-57	-23
-47	-30	-22
-1	0	-31
44	29	-28
84	53	-22
110	70	-18
120	79	-14
113	74	-20
92	60	-23
58	34	-21
16	5	-20
-29	-26	-17
-70	-56	-18
-104	-77	-20
-124	-88	-24
-125	-86	-24
-109	-74	-25
-77	-50	-25
-34	-22	-23
13	8	-24
59	37	-27
93	59	-26
115	77	-21
119	80	-18
109	71	-17
84	53	-19
46	27	-20
4	-2	-18
-42	-33	-20
-82	-58	-21
-111	-77	-25
-125	-84	-25
-121	-79	-29
-100	-63	-25
-63	-38	-21
-19	-10	-25
28	19	-22
69	45	-24
101	64	-26
116	75	-21
116	74	-21
100	63	-21
70	41	-22
30	13	-23
-14	-18	-21
-56	-48	-21
-94	-70	-21
-118	-85	-22
-126	-85	-24
-116	-75	-25
-89	-54	-26
-49	-29	-26
-1	0	-24
44	28	-23
83	50	-23
109	67	-21
119	76	-19
112	72	-18
89	57	-20
56	33	-20
14	5	-19
-31	-27	-19
-72	-54	-22
-106	-76	-21
-124	-86	-23
-126	-85	-25
-109	-72	-24
-78	-49	-25
-35	-23	-26
11	6	-27
55	35	-25
91	57	-25
111	71	-21
118	76	-21
107	68	-21
81	50	-20
44	25	-18
0	-4	-19
-43	-35	-20
-82	-60	-22
-109	-80	-27
-121	-86	-24
-118	-82	-25
-98	-65	-23
-64	-41	-24
-21	-13	-25
25	17	-25
66	44	-23
101	66	-20
118	78	-21
118	79	-21
102	68	-20
71	45	-21
30	19	-20
-15	-14	-20
-57	-44	-20
-94	-66	-19
-116	-82	-22
-126	-85	-21
-116	-76	-25
-91	-55	-29
-51	-30	-24
-5	0	-22
42	28	-22
83	51	-17
107	70	-21
120	76	-21
111	72	-19
89	58	-27
54	35	-23
13	7	-19
-31	-25	-19
-71	-53	-21
-105	-75	-24
-124	-85	-24
-126	-84	-23
-111	-70	-24
-80	-48	-27
-35	-21	-20
11	10	-21
55	37	-24
91	59	-24
113	75	-23
117	77	-26
107	68	-33
83	50	-35
45	24	-26
2	-6	-21
-43	-36	-19
-82	-62	-17
-112	-81	-23
-123	-86	-23
-118	-80	-20
-97	-62	-23
-60	-38	-22
-16	-8	-23
32	22	-23
71	47	-21
103	68	-19
120	78	-18
118	79	-21
101	66	-19
68	45	-20
28	16	-20
-18	-16	-21
-61	-45	-21
-97	-70	-21
-119	-85	-25
-125	-87	-22
-115	-78	-23
-88	-57	-25
-47	-30	-23
-1	1	-25
44	29	-24
84	53	-25
110	71	-24
119	79	-20
111	75	-16
89	59	-19
54	36	-21
13	7	-20
-30	-25	-20
-69	-53	-22
-103	-76	-25
-121	-86	-21
-124	-85	-23
-110	-72	-28
-79	-51	-30
-37	-24	-27
12	7	-22
56	35	-22
93	58	-21
114	71	-17
120	77	-21
107	70	-27
82	51	-15
44	25	-19
1	-6	-24
-43	-36	-19
-83	-61	-20
-110	-80	-22
-124	-85	-31
-121	-80	-24
-99	-63	-30
-62	-40	-28
-18	-11	-27
26	17	-25
68	43	-23
98	63	-24
116	75	-19
116	76	-22
101	65	-22
70	45	-19
29	18	-21
-15	-14	-21
-59	-45	-21
-96	-69	-22
-118	-84	-23
-124	-86	-23
-113	-75	-22
-87	-54	-21
-47	-29	-22
-3	1	-22
42	28	-23
81	52	-22
107	68	-20
120	78	-16
113	74	-19
93	58	-24
56	35	-23
14	5	-21
-32	-26	-24
-74	-53	-27
-106	-75	-24
-124	-86	-26
-124	-85	-27
-108	-72	-27
-76	-51	-26
-34	-22	-24
13	9	-26
58	37	-22
94	60	-23
115	72	-22
120	77	-17
107	68	-15
81	53	-19
42	28	-19
1	-1	-19
-43	-31	-21
-83	-58	-22
-110	-79	-24
-124	-87	-24
-121	-82	-24
-100	-65	-23
-63	-40	-20
-19	-9	-24
29	20	-28
71	47	-19
103	66	-21
119	77	-22
117	77	-25
99	65	-25
66	44	-16
27	17	-18
-19	-13	-15
-60	-43	-20
-97	-68	-21
-119	-84	-23
-126	-86	-25
-116	-75	-20
-88	-55	-21
-49	-29	-24
-3	0	-26
42	27	-24
83	52	-23
109	68	-19
119	77	-21
113	72	-20
91	58	-20
56	35	-25
14	5	-22
-29	-26	-22
-70	-54	-20
-104	-75	-18
-122	-85	-18
-124	-84	-21
-108	-71	-22
-78	-51	-22
-32	-23	-24
14	7	-21
58	36	-22
96	59	-31
115	72	-40
120	76	-34
107	67	-24
81	50	-24
43	24	-16
0	-3	-19
-44	-33	-23
-84	-59	-20
-112	-78	-17
-126	-86	-25
-121	-82	-30
-99	-65	-23
-63	-41	-23
-19	-12	-24
28	17	-20
69	43	-24
101	63	-25
117	75	-23
116	76	-25
100	64	-21
68	44	-18
27	16	-19
-16	-14	-17
-59	-44	-20
-95	-68	-21
-117	-83	-22
-123	-85	-26
-113	-74	-24
-87	-55	-23
-48	-28	-23
-2	0	-24
42	30	-23
83	53	-23
109	69	-24
120	77	-23
113	71	-18
92	56	-19
56	33	-20
13	4	-14
-31	-26	-23
-71	-53	-25
-104	-72	-18
-123	-85	-23
-123	-84	-22
-109	-70	-29
-77	-50	-26
-35	-22	-21
12	9	-24
57	37	-23
90	60	-23
112	74	-19
117	78	-20
106	68	-22
79	51	-20
43	26	-19
0	-3	-16
-44	-33	-15
-83	-59	-17
-112	-77	-25
-125	-85	-26
-122	-80	-27
-100	-63	-27
-63	-39	-27
-18	-9	-27
28	20	-25
70	47	-22
102	64	-24
118	76	-22
117	75	-18
100	64	-21
68	43	-21
28	15	-20
-17	-16	-19
-59	-47	-21
-96	-71	-23
-118	-86	-23
-124	-88	-26
-113	-77	-27
-88	-57	-27
-48	-30	-24
-1	0	-23
44	29	-21
84	53	-20
110	70	-22
120	78	-22
114	72	-20
92	58	-18
57	34	-21
14	4	-23
-31	-27	-21
-71	-54	-22
-104	-76	-26
-121	-87	-24
-124	-85	-26
-109	-72	-27
-77	-50	-27
-35	-21	-29
12	9	-29
57	36	-25
93	58	-24
114	72	-23
120	76	-21
107	68	-22
81	51	-19
42	25	-20
-1	-4	-19
-45	-35	-20
-85	-60	-23
-111	-79	-23
-124	-85	-25
-119	-79	-24
-99	-64	-23
-63	-40	-21
-20	-11	-26
25	20	-28
68	46	-24
100	66	-24
117	79	-17
117	79	-17
100	67	-19
69	45	-23
28	18	-23
-18	-14	-20
-61	-45	-24
-97	-68	-21
-121	-85	-25
-127	-87	-24
-116	-78	-24
-91	-58	-26
-50	-30	-24
-4	0	-25
41	30	-24
81	56	-24
107	74	-21
118	79	-18
111	72	-19
90	58	-18
54	32	-18
14	3	-18
-32	-27	-20
-72	-53	-20
-103	-74	-23
-122	-85	-26
-122	-83	-26
-106	-70	-25
-75	-48	-21
-31	-20	-23
16	11	-24
59	39	-23
96	59	-24
116	72	-22
121	75	-23
109	67	-22
83	49	-20
45	25	-19
2	-4	-18
-41	-35	-20
-82	-59	-23
-110	-79	-26
-123	-86	-24
-120	-81	-23
-98	-64	-26
-63	-39	-25
-18	-11	-23
29	20	-25
69	44	-24
102	64	-24
118	74	-23
116	74	-21
99	63	-23
68	41	-19
28	13	-18
-16	-17	-21
-58	-46	-23
-96	-68	-21
-119	-83	-22
-126	-85	-25
-115	-76	-25
-88	-55	-27
-47	-30	-26
-1	0	-26
44	29	-24
83	53	-25
107	70	-21
118	76	-19
111	71	-18
89	57	-19
54	34	-22
12	6	-19
-31	-25	-18
-72	-51	-20
-104	-71	-21
-121	-84	-25
-123	-83	-25
-107	-70	-25
-77	-49	-26
-34	-23	-22
13	7	-24
56	35	-23
94	58	-22
115	74	-21
120	77	-19
107	69	-17
82	51	-20
42	24	-21
-1	-5	-17
-43	-34	-24
-83	-59	-24
-109	-78	-25
-123	-84	-21
-119	-81	-23
-99	-64	-26
-63	-42	-24
-20	-14	-26
25	16	-24
67	41	-23
99	64	-22
116	75	-21
115	76	-21
99	64	-19
66	41	-18
27	14	-22
-17	-17	-20
-60	-45	-19
-95	-68	-25
-118	-82	-25
-124	-85	-26
-114	-76	-23
-87	-55	-24
-46	-30	-18
0	0	-21
44	28	-27
84	53	-21
110	70	-23
120	77	-22
111	72	-21
89	56	-20
53	34	-19
11	5	-18
-34	-25	-17
-74	-52	-19
-106	-75	-21
-125	-85	-24
-125	-84	-24
-109	-70	-28
-77	-47	-28
-33	-18	-27
14	13	-28
58	41	-24
93	64	-21
114	76	-22
118	79	-22
107	70	-18
82	52	-22
45	27	-20
3	-1	-17
-41	-31	-19
-82	-58	-22
-111	-77	-22
-125	-85	-23
-121	-80	-24
-98	-62	-25
-60	-38	-26
-15	-9	-25
32	20	-23
71	45	-25
101	64	-26
115	72	-24
113	72	-24
97	61	-21
66	41	-21
27	15	-18
-18	-18	-21
-61	-47	-23
-98	-72	-21
-120	-86	-23
-126	-86	-25
-113	-75	-29
-86	-53	-23
-47	-28	-21
0	1	-23
44	28	-23
84	52	-25
110	68	-23
121	78	-23
114	75	-22
91	58	-19
56	34	-24
13	3	-25
-31	-28	-23
-71	-56	-15
-103	-76	-17
-121	-85	-24
-124	-84	-23
-108	-71	-24
-79	-51	-25
-35	-23	-24
11	7	-25
55	37	-24
90	61	-24
113	76	-23
118	80	-23
105	70	-20
81	51	-22
41	27	-20
-2	-4	-23
-45	-33	-23
-85	-58	-23
-112	-76	-24
-124	-84	-24
-118	-79	-25
-99	-63	-26
-62	-41	-27
-18	-11	-26
28	18	-25
70	45	-23
102	65	-22
119	76	-21
118	76	-23
100	63	-20
68	43	-20
28	16	-19
-17	-15	-20
-60	-44	-20
-95	-67	-22
-118	-81	-22
-125	-84	-21
-115	-75	-19
-88	-56	-21
-48	-30	-27
-3	-1	-27
43	27	-26
83	52	-21
110	68	-24
120	77	-20
114	72	-21
93	58	-21
57	34	-16
14	2	-16
-30	-28	-20
-72	-56	-25
-106	-76	-21
-124	-85	-26
-124	-82	-28
-108	-69	-25
-76	-49	-25
-33	-23	-26
14	7	-27
56	35	-20
91	59	-22
113	72	-18
118	79	-19
107	70	-21
82	52	-20
45	25	-22
0	-5	-20
-44	-35	-21
-83	-61	-20
-112	-80	-24
-124	-87	-25
-120	-82	-25
-98	-65	-25
-62	-41	-26
-18	-12	-24
29	18	-21
69	45	-23
101	64	-21
116	76	-20
116	75	-19
99	63	-21
68	41	-25
28	13	-20
-15	-17	-16
-58	-47	-15
-95	-68	-18
-117	-81	-23
-124	-83	-23
-114	-72	-23
-87	-53	-26
-46	-27	-30
0	2	-28
44	31	-24
85	55	-21
107	71	-22
119	79	-25
111	74	-23
89	59	-20
57	35	-19
15	7	-20
-28	-24	-21
-69	-53	-18
-101	-72	-22
-120	-86	-28
-121	-84	-25
-106	-70	-27
-77	-49	-27
-34	-23	-25
11	7	-25
55	34	-20
91	56	-24
114	71	-20
119	77	-17
107	68	-21
81	51	-21
42	25	-23
-1	-5	-19
-45	-38	-25
-85	-62	-23
-111	-81	-20
-125	-87	-22
-120	-81	-20
-100	-65	-22
-63	-41	-23
-20	-13	-24
27	17	-24
69	43	-25
101	64	-22
117	77	-22
116	77	-23
99	65	-19
67	44	-21
27	15	-20
-17	-16	-22
-60	-45	-20
-96	-67	-19
-120	-82	-20
-126	-84	-23
-116	-74	-25
-88	-55	-24
-46	-29	-25
0	-1	-22
46	28	-22
85	52	-23
111	70	-24
118	77	-17
111	72	-14
89	58	-19
54	33	-18
12	4	-16
-33	-28	-20
-72	-56	-19
-104	-78	-22
-121	-88	-34
-123	-85	-42
-107	-71	-36
-76	-48	-29
-34	-20	-24
12	9	-25
57	36	-26
92	58	-21
113	74	-22
119	78	-25
107	71	-21
81	55	-18
42	29	-18
-1	-2	-19
-45	-35	-17
-86	-61	-16
-113	-82	-24
-124	-88	-24
-120	-81	-25
-97	-63	-28
-60	-36	-22
-16	-8	-24
28	22	-25
68	48	-27
100	66	-26
115	77	-25
116	75	-23
98	63	-22
68	42	-22
27	16	-16
-18	-14	-14
-60	-44	-20
-97	-66	-24
-119	-83	-21
-125	-85	-25
-114	-76	-22
-89	-56	-22
-49	-28	-25
-2	1	-24
42	30	-24
83	54	-25
109	72	-24
120	78	-22
111	74	-23
90	57	-21
56	31	-21
14	3	-19
-28	-28	-17
-69	-53	-19
-99	-74	-24
-118	-85	-26
-121	-83	-25
-105	-70	-28
-77	-49	-25
-34	-23	-23
12	7	-27
56	35	-25
93	57	-22
114	72	-22
119	76	-19
107	68	-18
81	49	-17
42	24	-17
-1	-5	-19
-45	-36	-20
-85	-61	-21
-111	-79	-20
-124	-84	-21
-119	-79	-22
-99	-62	-24
-63	-38	-25
-20	-11	-24
27	19	-23
68	43	-24
101	64	-21
118	76	-21
118	76	-23
101	66	-18
69	45	-17
29	17	-21
-16	-15	-22
-58	-45	-20
-94	-68	-21
-117	-83	-25
-123	-85	-25
-113	-76	-25
-85	-54	-23
-44	-29	-25
1	0	-26
47	29	-21
84	51	-25
109	68	-21
118	76	-19
111	72	-23
89	58	-23
54	34	-21
12	6	-19
-33	-26	-22
-74	-54	-24
-108	-77	-24
-125	-87	-24
-126	-86	-27
-109	-71	-26
-77	-48	-24
-35	-21	-25
12	11	-25
55	38	-23
90	61	-23
111	75	-21
116	79	-21
106	70	-21
80	51	-24
43	27	-22
-1	-4	-21
-45	-33	-25
-85	-59	-24
-113	-79	-24
-125	-86	-23
-119	-81	-22
-95	-63	-21
-59	-39	-23
-15	-9	-27
33	21	-23
74	46	-24
102	66	-29
116	75	-30
115	72	-26
97	59	-19
66	39	-19
26	12	-22
-17	-19	-21
-60	-48	-21
-96	-70	-20
-118	-84	-22
-126	-85	-23
-115	-76	-22
-88	-53	-23
-46	-28	-23
0	3	-25
46	30	-23
86	54	-22
111	71	-23
121	77	-20
114	72	-20
92	57	-18
57	34	-17
15	4	-20
-29	-27	-22
-70	-54	-24
-102	-77	-24
-121	-86	-20
-122	-85	-21
-107	-71	-24
-77	-48	-25
-33	-21	-24
13	10	-23
58	37	-25
93	61	-24
115	75	-20
118	78	-16
106	70	-16
79	51	-14
40	27	-15
-2	-4	-19
-46	-34	-18
-85	-61	-22
-112	-79	-30
-125	-86	-37
-119	-82	-38
-100	-65	-33
-62	-40	-27
-19	-12	-22
28	17	-22
70	43	-22
102	65	-22
117	76	-21
116	76	-16
99	64	-13
68	45	-17
27	17	-19
-18	-14	-18
-60	-43	-20
-96	-66	-21
-119	-81	-23
-125	-85	-27
-114	-74	-26
-86	-54	-25
-45	-28	-22
1	2	-21
46	28	-25
85	54	-24
111	68	-24
120	77	-23
113	72	-21
89	57	-23
53	32	-20
12	3	-17
-34	-28	-18
-75	-55	-19
-107	-76	-22
-123	-85	-22
-124	-84	-25
-109	-70	-25
-78	-50	-26
-35	-21	-27
11	8	-27
54	37	-26
90	59	-23
111	71	-21
117	76	-22
106	67	-20
81	49	-22
42	23	-21
-2	-6	-22
-44	-34	-23
-86	-60	-20
-112	-77	-24
-125	-85	-23
-120	-80	-25
-98	-63	-24
-61	-40	-24
-16	-10	-25
31	18	-21
74	45	-16
105	64	-19
119	74	-23
118	72	-21
99	61	-19
67	41	-21
28	14	-23
-17	-15	-18
-60	-45	-21
-96	-69	-24
-119	-84	-25
-127	-87	-24
-116	-77	-22
-88	-56	-24
-46	-29	-22
0	2	-25
46	30	-26
85	56	-23
109	71	-21
119	78	-19
111	72	-24
90	57	-22
54	34	-24
13	4	-23
-30	-25	-20
-71	-53	-20
-103	-72	-22
-121	-84	-25
-122	-82	-24
-107	-69	-24
-76	-47	-25
-33	-19	-27
13	10	-28
57	37	-28
93	60	-25
113	72	-21
118	75	-20
107	66	-15
81	48	-20
42	22	-19
0	-5	-18
-43	-34	-21
-81	-61	-22
-110	-79	-22
-123	-86	-25
-119	-81	-26
-99	-65	-26
-62	-41	-26
-19	-12	-24
28	18	-27
69	44	-26
101	64	-26
117	76	-25
115	74	-23
98	63	-21
66	43	-20
26	15	-20
-20	-16	-21
-62	-45	-20
-99	-66	-21
-120	-81	-23
-125	-82	-24
-115	-70	-28
-87	-52	-27
-47	-27	-23
0	1	-24
44	30	-24
84	54	-20
109	71	-18
118	79	-19
111	75	-18
89	59	-20
56	34	-19
13	5	-18
-32	-27	-16
-70	-54	-20
-104	-74	-27
-121	-84	-25
-123	-81	-25
-106	-68	-22
-75	-47	-22
-31	-19	-23
15	10	-24
59	38	-24
93	59	-24
115	72	-24
119	77	-21
107	67	-16
82	50	-21
44	23	-21
1	-7	-18
-45	-38	-22
-85	-64	-22
-113	-81	-24
-126	-89	-27
-121	-82	-27
-98	-65	-25
-60	-39	-22
-15	-8	-25
30	21	-28
72	47	-23
102	67	-20
117	77	-24
116	77	-22
99	65	-18
68	43	-13
27	14	-10
-18	-16	-18
-60	-46	-20
-96	-70	-20
-117	-86	-22
-124	-86	-25
-112	-74	-30
-86	-53	-38
-45	-25	-41
1	4	-34
45	33	-28
84	55	-24
110	71	-21
120	79	-20
111	72	-16
89	59	-17
53	34	-19
14	5	-21
-32	-29	-17
-71	-56	-11
-104	-77	-17
-122	-87	-23
-124	-83	-25
-109	-70	-25
-78	-48	-24
-35	-22	-21
12	7	-21
57	35	-26
93	58	-24
114	74	-24
120	79	-22
107	71	-24
82	54	-22
42	27	-18
-1	-4	-25
-45	-37	-28
-85	-61	-25
-112	-81	-22
-123	-86	-24
-119	-80	-24
-96	-63	-24
-60	-38	-25
-17	-11	-28
30	20	-23
69	45	-22
102	67	-21
119	79	-18
117	77	-20
101	65	-17
68	41	-20
28	12	-23
-18	-19	-16
-59	-48	-15
-96	-69	-18
-119	-84	-23
-126	-85	-21
-116	-77	-25
-89	-56	-25
-50	-31	-24
-4	-2	-28
42	27	-25
81	51	-24
107	69	-20
117	77	-19
110	72	-16
87	57	-18
53	32	-18
12	3	-17
-31	-28	-21
-72	-54	-20
-105	-76	-21
-122	-86	-23
-124	-85	-24
-107	-71	-25
-75	-49	-24
-30	-21	-25
16	10	-25
58	38	-27
93	61	-25
112	75	-21
118	76	-17
106	68	-19
82	49	-20
44	23	-13
-1	-5	-15
-45	-36	-21
-86	-62	-20
-113	-81	-23
-125	-87	-24
-119	-81	-25
-96	-64	-24
-58	-37	-26
-14	-9	-28
31	21	-23
72	47	-24
102	65	-25
118	76	-24
117	76	-21
100	65	-21
68	43	-23
27	16	-21
-18	-15	-21
-63	-45	-22
-98	-69	-24
-120	-83	-24
-126	-84	-24
-113	-72	-23
-87	-52	-26
-45	-26	-25
1	3	-23
46	32	-24
86	54	-23
111	70	-25
121	77	-21
112	74	-19
90	57	-19
53	35	-21
12	6	-19
-33	-24	-22
-71	-52	-20
-103	-72	-21
-122	-84	-31
-123	-83	-27
-107	-71	-26
-76	-49	-26
-34	-23	-24
14	7	-27
57	35	-24
93	59	-24
115	75	-22
119	77	-20
107	69	-20
80	50	-21
42	23	-21
-2	-8	-21
-47	-39	-24
-85	-63	-25
-113	-82	-25
-124	-86	-26
-119	-81	-25
-98	-63	-18
-61	-39	-24
-18	-11	-25
29	20	-25
69	45	-22
101	66	-15
115	77	-16
115	77	-14
97	65	-14
65	43	-16
25	15	-20
-18	-16	-20
-59	-45	-26
-96	-70	-42
-118	-84	-42
-125	-86	-33
-115	-75	-23
-88	-53	-21
-47	-28	-16
1	2	-17
46	31	-20
86	56	-20
111	74	-20
121	79	-19
113	76	-21
90	58	-21
56	33	-19
13	3	-18
-32	-28	-18
-72	-54	-18
-104	-76	-21
-122	-85	-26
-123	-84	-27
-106	-69	-24
-75	-48	-25
-31	-21	-27
15	10	-25
59	36	-25
94	60	-23
114	74	-23
118	77	-20
106	68	-18
81	49	-23
41	24	-19
0	-7	-21
-44	-36	-20
-86	-62	-21
-113	-80	-31
-127	-87	-31
-122	-81	-26
-100	-63	-20
-60	-41	-21
-14	-13	-25
32	17	-25
75	45	-25
104	67	-22
119	76	-22
116	76	-23
99	62	-21
68	40	-20
27	11	-20
-17	-19	-18
-61	-47	-19
-97	-70	-23
-120	-84	-25
-126	-87	-25
-114	-76	-21
-87	-54	-20
-45	-28	-21
1	3	-24
46	32	-23
85	57	-23
109	72	-24
119	77	-25
111	71	-21
89	55	-20
54	32	-19
13	4	-21
-32	-24	-22
-71	-52	-21
-103	-71	-23
-121	-83	-23
-121	-83	-23
-106	-69	-26
-72	-48	-25
-31	-20	-25
16	10	-24
59	37	-25
94	59	-24
115	74	-21
118	77	-18
106	67	-17
79	51	-19
41	25	-18
-3	-6	-19
-46	-36	-19
-85	-62	-21
-113	-79	-23
-125	-85	-24
-121	-79	-26
-98	-60	-24
-63	-37	-25
-20	-8	-24
27	20	-24
67	46	-23
99	66	-21
115	77	-22
114	76	-21
97	63	-21
65	42	-21
26	13	-20
-20	-17	-25
-61	-47	-24
-97	-70	-20
-118	-84	-22
-125	-87	-24
-112	-77	-30
-83	-56	-27
-43	-30	-24
3	1	-21
46	30	-18
86	55	-27
111	71	-25
122	80	-18
114	74	-22
90	58	-22
54	35	-22
11	5	-16
-32	-26	-18
-74	-53	-26
-105	-72	-25
-123	-83	-24
-123	-82	-24
-105	-68	-27
-75	-48	-26
-30	-21	-24
16	7	-25
59	36	-26
93	59	-24
113	74	-24
117	78	-18
105	68	-15
79	50	-17
42	22	-17
-2	-7	-13
-47	-37	-13
-87	-62	-19
-113	-80	-18
-126	-87	-19
-119	-82	-25
-97	-65	-26
-59	-41	-27
-15	-11	-40
32	19	-42
74	46	-30
103	65	-24
118	78	-20
116	75	-20
99	64	-19
67	43	-18
27	16	-19
-18	-15	-20
-60	-45	-19
-97	-69	-22
-119	-84	-22
-125	-85	-24
-114	-75	-25
-86	-54	-23
-45	-27	-23
0	2	-24
46	31	-24
83	56	-22
109	71	-20
118	79	-21
111	72	-22
89	57	-21
54	32	-21
12	3	-22
-33	-29	-21
-72	-57	-21
-105	-77	-21
-123	-87	-27
-124	-84	-28
-108	-70	-20
-77	-47	-25
-35	-19	-29
11	11	-25
54	39	-22
90	61	-21
113	76	-20
118	79	-20
107	69	-22
79	52	-22
41	23	-21
-3	-7	-23
-46	-39	-19
-85	-64	-19
-111	-82	-19
-123	-89	-23
-119	-82	-28
-97	-64	-27
-61	-38	-27
-18	-9	-25
29	20	-21
71	45	-22
103	65	-20
118	76	-17
117	75	-19
99	64	-20
67	43	-20
27	14	-20
-18	-17	-21
-60	-48	-21
-97	-71	-22
-120	-86	-24
-127	-87	-25
-115	-76	-25
-88	-55	-25
-47	-28	-27
1	1	-24
46	31	-23
85	55	-23
110	72	-26
120	80	-24
111	75	-20
89	60	-22
52	34	-21
9	4	-16
-35	-29	-18
-77	-56	-20
-105	-76	-20
-122	-85	-23
-120	-81	-28
-103	-67	-29
-70	-45	-26
-29	-20	-25
16	11	-24
59	38	-20
94	58	-19
114	74	-24
118	77	-22
105	68	-19
80	50	-20
41	24	-20
0	-5	-21
-44	-36	-21
-84	-61	-23
-110	-80	-22
-122	-87	-24
-117	-80	-27
-95	-64	-27
-57	-38	-27
-14	-9	-22
33	21	-22
74	47	-19
103	67	-18
117	77	-21
115	77	-17
97	64	-18
65	43	-19
26	15	-19
-18	-16	-19
-61	-45	-19
-97	-69	-25
-120	-85	-23
-125	-87	-22
-114	-77	-27
-87	-57	-31
-45	-30	-28
0	-1	-25
46	29	-24
85	53	-21
110	70	-17
118	77	-15
111	74	-17
87	58	-18
52	32	-21
11	3	-18
-33	-27	-21
-74	-54	-32
-106	-76	-36
-123	-85	-28
-124	-82	-25
-106	-69	-23
-74	-47	-18
-32	-20	-21
16	12	-24
59	40	-20
93	62	-21
113	77	-17
117	78	-16
105	70	-19
79	49	-18
42	23	-18
-2	-6	-18
-47	-37	-19
-87	-61	-23
-114	-80	-24
-124	-85	-25
-118	-81	-23
-96	-64	-24
-59	-39	-25
-16	-11	-25
29	20	-25
69	47	-23
101	67	-24
117	78	-22
117	78	-21
98	65	-23
67	41	-25
25	12	-23
-20	-19	-23
-62	-48	-23
-98	-70	-23
-118	-84	-24
-125	-85	-27
-113	-76	-26
-87	-54	-24
-46	-29	-24
0	3	-25
46	32	-26
85	55	-24
110	70	-25
119	75	-22
111	70	-25
89	54	-22
53	30	-21
12	2	-21
-31	-27	-18
-72	-54	-21
-103	-77	-19
-122	-86	-22
-122	-86	-27
-104	-71	-25
-71	-47	-24
-28	-20	-26
18	11	-25
62	38	-25
95	59	-23
117	72	-22
120	77	-21
107	68	-18
82	50	-20
44	25	-20
1	-6	-22
-45	-37	-20
-86	-62	-16
-114	-82	-22
-126	-87	-23
-122	-81	-22
-99	-62	-26
-61	-39	-26
-16	-9	-25
32	20	-25
75	45	-25
102	65	-23
117	76	-18
114	76	-21
96	63	-22
64	41	-19
24	14	-20
-21	-18	-17
-63	-45	-21
-97	-67	-23
-120	-81	-24
-125	-83	-23
-114	-72	-22
-85	-53	-27
-43	-28	-25
4	1	-25
49	29	-24
86	54	-23
110	70	-23
117	77	-23
110	72	-19
87	56	-18
52	33	-23
12	4	-21
-32	-26	-22
-74	-53	-25
-105	-76	-24
-123	-86	-21
-125	-85	-24
-108	-72	-26
-76	-48	-26
-33	-20	-24
14	12	-25
57	40	-24
93	63	-22
112	76	-20
118	79	-23
106	68	-21
79	50	-17
40	24	-22
-6	-5	-19
-48	-36	-18
-89	-61	-19
-115	-80	-19
-126	-87	-20
-121	-81	-23
-99	-64	-25
-62	-40	-25
-16	-9	-29
31	21	-27
74	48	-23
106	68	-20
121	78	-23
118	76	-18
99	61	-14
67	40	-12
26	11	-14
-17	-20	-18
-59	-47	-16
-95	-70	-19
-116	-85	-23
-124	-87	-37
-111	-78	-45
-84	-56	-40
-43	-29	-28
4	3	-25
47	31	-23
86	57	-21
107	71	-23
118	78	-24
109	74	-27
87	58	-18
52	35	-15
11	7	-19
-32	-24	-20
-76	-54	-18
-108	-76	-21
-126	-86	-24
-126	-84	-21
-107	-69	-25
-74	-47	-24
-30	-18	-25
17	11	-25
61	38	-21
95	60	-21
116	72	-20
120	77	-20
107	68	-20
81	51	-18
41	26	-18
-3	-6	-19
-48	-35	-20
-86	-61	-20
-113	-79	-20
-125	-86	-21
-119	-79	-26
-97	-61	-25
-59	-37	-24
-14	-8	-27
34	21	-24
75	48	-23
105	66	-22
119	76	-17
116	74	-19
97	62	-20
66	40	-17
26	11	-21
-18	-19	-20
-60	-48	-20
-97	-71	-24
-120	-85	-26
-126	-87	-23
-113	-77	-22
-85	-56	-22
-43	-28	-24
4	3	-26
48	31	-24
84	56	-24
107	71	-22
117	79	-22
111	72	-21
89	57	-21
54	33	-21
11	3	-20
-35	-29	-21
-76	-56	-21
-107	-76	-23
-123	-86	-21
-123	-83	-21
-104	-67	-27
-72	-45	-31
-31	-18	-27
15	11	-30
58	38	-25
94	59	-20
114	74	-22
118	77	-20
106	68	-19
78	51	-22
40	24	-21
-4	-7	-21
-47	-37	-19
-87	-63	-23
-113	-81	-21
-124	-86	-18
-120	-79	-27
-98	-62	-30
-60	-38	-27
-16	-9	-27
29	21	-30
70	47	-26
101	67	-20
116	78	-17
115	76	-15
96	63	-22
65	40	-24
22	10	-25
-22	-22	-20
-65	-51	-16
-101	-74	-17
-122	-86	-25
-128	-87	-30
-115	-75	-25
-87	-54	-25
-45	-28	-26
0	2	-30
46	30	-23
86	56	-27
111	72	-30
122	79	-20
115	72	-23
93	57	-18
55	32	-19
12	2	-21
-32	-28	-21
-77	-55	-22
-106	-75	-22
-124	-85	-25
-123	-81	-24
-104	-66	-27
-70	-45	-24
-27	-17	-21
18	11	-23
60	39	-23
93	59	-22
113	74	-22
115	77	-20
104	68	-19
78	51	-21
41	25	-19
-2	-4	-20
-46	-36	-19
-84	-62	-15
-112	-79	-16
-124	-85	-21
-119	-78	-21
-97	-60	-24
-60	-36	-23
-17	-8	-24
32	20	-26
72	46	-32
104	64	-38
120	77	-30
117	77	-26
99	64	-24
66	43	-21
27	13	-20
-20	-18	-16
-63	-49	-19
-100	-70	-21
-122	-85	-21
-128	-85	-22
-115	-76	-25
-85	-55	-20
-44	-29	-19
4	0	-23
49	29	-25
86	54	-21
111	71	-21
120	78	-19
111	71	-16
89	55	-17
52	29	-15
10	0	-17
-34	-31	-20
-74	-57	-25
-106	-77	-26
-122	-86	-24
-123	-85	-25
-105	-70	-24
-72	-47	-24
-30	-20	-21
17	11	-26
61	39	-26
96	61	-23
116	75	-22
119	76	-20
106	67	-17
80	48	-21
42	23	-24
0	-7	-21
-43	-36	-22
-82	-59	-25
-108	-77	-26
-121	-81	-21
-116	-76	-25
-95	-60	-28
-58	-36	-25
-14	-9	-23
32	21	-21
74	46	-24
103	67	-23
118	79	-20
117	76	-19
98	63	-20
66	41	-20
23	12	-20
-22	-21	-20
-65	-49	-21
-100	-70	-20
-120	-85	-23
-125	-85	-24
-114	-75	-23
-86	-53	-24
-46	-25	-25
0	4	-25
44	32	-24
84	56	-22
109	72	-21
118	77	-22
110	70	-21
87	54	-21
51	30	-20
9	2	-20
-35	-29	-20
-76	-56	-22
-107	-77	-25
-124	-87	-23
-123	-85	-24
-105	-70	-25
-70	-46	-24
-28	-18	-27
19	12	-27
61	39	-27
94	60	-25
114	75	-23
115	77	-20
102	68	-21
75	50	-21
37	25	-18
-4	-6	-25
-48	-38	-25
-86	-62	-23
-113	-81	-19
-124	-86	-18
-118	-79	-21
-96	-59	-22
-58	-34	-26
-14	-5	-26
33	24	-22
74	48	-21
104	67	-22
118	74	-24
116	72	-20
99	61	-22
65	39	-24
26	13	-15
-20	-17	-16
-62	-45	-24
-98	-69	-23
-120	-85	-22
-124	-87	-25
-113	-77	-26
-84	-55	-21
-44	-28	-16
3	3	-16
48	31	-18
86	55	-18
110	71	-19
118	76	-20
111	71	-20
87	56	-21
52	34	-30
9	5	-34
-34	-28	-28
-75	-55	-23
-106	-77	-22
-122	-86	-23
-122	-84	-23
-104	-69	-21
-72	-45	-20
-30	-19	-21
16	11	-21
59	37	-22
96	59	-21
115	72	-20
120	77	-17
106	70	-17
78	51	-20
39	25	-18
-6	-8	-19
-48	-39	-21
-87	-64	-24
-113	-82	-23
-125	-86	-24
-119	-79	-28
-96	-61	-23
-60	-37	-26
-15	-8	-26
31	21	-24
72	48	-24
101	69	-26
117	81	-23
115	80	-20
97	65	-22
64	43	-22
24	13	-22
-20	-19	-25
-63	-48	-24
-98	-71	-23
-121	-85	-22
-126	-87	-24
-113	-77	-25
-85	-55	-25
-44	-29	-26
2	2	-24
47	32	-25
86	56	-24
111	74	-25
119	78	-23
111	72	-23
87	55	-21
50	32	-21
9	2	-19
-36	-29	-15
-77	-56	-21
-107	-78	-24
-124	-86	-25
-122	-83	-26
-106	-68	-25
-72	-46	-26
-30	-17	-25
19	12	-27
62	39	-24
96	60	-28
116	72	-27
118	77	-18
105	68	-22
77	50	-20
40	24	-20
-3	-7	-24
-47	-37	-21
-85	-63	-23
-112	-81	-18
-124	-86	-22
-118	-80	-26
-95	-61	-24
-55	-36	-24
-12	-6	-23
35	23	-25
76	47	-21
105	66	-18
118	74	-19
115	74	-19
97	61	-21
65	41	-20
25	13	-19
-19	-17	-22
-60	-47	-21
-98	-70	-22
-119	-84	-23
-125	-86	-24
-112	-76	-25
-83	-55	-23
-42	-29	-23
4	2	-25
48	31	-23
85	56	-22
110	71	-21
118	79	-22
111	74	-23
87	57	-18
52	33	-14
8	3	-16
-36	-27	-21
-78	-55	-26
-108	-77	-24
-124	-86	-23
-124	-85	-25
-107	-72	-22
-75	-52	-19
-32	-24	-23
16	7	-24
60	36	-21
97	59	-26
117	74	-23
121	77	-19
105	68	-22
77	48	-21
36	22	-21
-7	-9	-21
-51	-38	-22
-89	-63	-25
-115	-81	-22
-126	-86	-25
-120	-80	-28
-97	-60	-22
-57	-36	-20
-12	-6	-23
33	23	-21
75	49	-20
102	68	-18
116	79	-19
114	77	-22
97	63	-32
66	43	-38
25	14	-28
-20	-17	-24
-63	-48	-21
-99	-71	-19
-120	-85	-21
-125	-87	-25
-111	-75	-24
-83	-53	-22
-43	-26	-23
2	4	-19
46	32	-23
84	56	-24
109	71	-20
119	78	-22
110	71	-20
86	57	-21
49	31	-20
8	1	-19
-38	-29	-21
-78	-57	-22
-107	-76	-22
-123	-86	-23
-121	-84	-26
-105	-68	-25
-71	-47	-25
-29	-17	-28
18	12	-28
62	40	-26
97	61	-22
116	74	-19
119	78	-19
107	68	-19
79	51	-21
42	25	-22
-2	-4	-19
-46	-35	-20
-86	-62	-22
-114	-80	-24
-126	-87	-25
-121	-80	-26
-97	-61	-23
-59	-36	-24
-13	-6	-25
35	22	-21
77	48	-22
107	66	-24
121	76	-20
119	74	-20
99	61	-24
66	40	-19
26	11	-17
-20	-18	-19
-62	-49	-20
-99	-71	-23
-119	-86	-25
-125	-88	-27
-112	-76	-26
-84	-55	-23
-44	-28	-25
3	3	-27
46	32	-25
86	56	-26
111	72	-24
120	79	-23
113	72	-24
89	58	-20
52	32	-18
9	2	-18
-35	-29	-17
-77	-58	-20
-108	-79	-25
-124	-89	-23
-124	-86	-25
-107	-72	-25
-75	-49	-20
-31	-19	-17
16	10	-20
59	40	-25
96	62	-24
115	77	-25
119	80	-20
103	68	-20
75	50	-20
34	20	-18
-10	-11	-23
-53	-42	-20
-89	-66	-24
-114	-82	-23
-125	-86	-24
-117	-79	-26
-94	-61	-26
-56	-35	-23
-12	-7	-22
34	23	-26
77	50	-24
106	68	-25
121	80	-24
118	77	-18
99	62	-20
65	40	-16
24	11	-14
-20	-19	-16
-63	-49	-19
-98	-70	-25
-119	-85	-23
-125	-85	-27
-113	-74	-27
-85	-53	-25
-42	-25	-26
4	7	-27
49	35	-28
87	60	-25
111	76	-21
119	81	-22
111	74	-21
86	56	-19
50	30	-19
8	1	-19
-37	-31	-19
-78	-57	-21
-109	-77	-22
-125	-87	-24
-124	-82	-25
-105	-68	-23
-71	-44	-19
-29	-16	-21
18	15	-24
61	42	-19
96	63	-17
116	77	-17
118	79	-18
107	70	-19
78	51	-18
40	24	-21
-4	-6	-32
-49	-37	-38
-89	-63	-31
-116	-83	-27
-126	-88	-23
-121	-82	-25
-97	-63	-23
-58	-36	-23
-13	-8	-24
34	23	-21
75	48	-22
105	68	-20
118	78	-18
116	76	-20
98	63	-18
66	41	-18
24	12	-19
-21	-19	-21
-63	-49	-19
-100	-71	-21
-121	-86	-25
-126	-87	-24
-113	-76	-25
-84	-54	-27
-45	-29	-23
2	1	-23
46	30	-24
84	52	-21
107	69	-20
118	76	-16
110	71	-19
87	57	-23
51	32	-21
9	4	-20
-36	-28	-18
-76	-55	-20
-107	-76	-21
-124	-86	-22
-123	-82	-24
-106	-68	-26
-74	-45	-27
-30	-18	-25
15	12	-24
60	39	-23
94	61	-24
114	76	-22
118	79	-19
104	68	-17
78	49	-19
37	22	-20
-6	-9	-21
-49	-40	-21
-88	-64	-21
-114	-82	-24
-124	-86	-29
-117	-79	-30
-94	-60	-25
-55	-36	-25
-11	-7	-26
37	24	-27
78	50	-25
107	70	-26
122	79	-28
118	77	-23
98	62	-18
65	41	-20
25	13	-23
-20	-19	-21
-61	-46	-24
-97	-69	-24
-119	-82	-24
-125	-83	-26
-112	-72	-21
-84	-53	-22
-42	-29	-22
4	1	-24
50	30	-29
89	54	-25
113	70	-23
120	76	-21
110	69	-20
86	51	-20
49	27	-18
6	-2	-21
-38	-32	-18
-78	-58	-20
-108	-78	-23
-124	-87	-25
-122	-85	-28
-105	-69	-24
-71	-45	-18
-28	-17	-21
17	13	-26
60	40	-23
94	61	-21
111	74	-19
116	77	-20
103	68	-21
76	50	-20
39	26	-20
-6	-5	-15
-49	-35	-18
-88	-61	-20
-115	-81	-23
-125	-85	-26
-119	-78	-26
-95	-59	-24
-56	-34	-23
-12	-5	-25
35	24	-20
75	48	-21
105	67	-21
117	75	-22
116	74	-22
97	61	-19
65	39	-18
23	12	-15
-20	-20	-16
-63	-48	-18
-100	-72	-21
-120	-86	-22
-125	-87	-25
-110	-77	-26
-83	-54	-26
-40	-28	-38
6	3	-40
49	32	-32
86	56	-27
111	72	-23
119	79	-21
111	72	-23
87	56	-22
51	31	-20
8	1	-19
-35	-29	-19
-77	-57	-18
-106	-77	-20
-122	-87	-21
-121	-85	-20
-103	-70	-24
-70	-47	-24
-28	-18	-24
17	12	-24
61	40	-22
94	62	-23
114	76	-23
117	78	-21
103	68	-22
75	48	-21
36	21	-17
-7	-12	-19
-51	-41	-22
-89	-67	-21
-114	-83	-24
-123	-88	-24
-116	-81	-23
-93	-61	-26
-56	-37	-22
-12	-7	-25
34	23	-25
76	51	-20
105	71	-21
119	82	-22
116	80	-20
97	65	-18
63	43	-19
22	13	-19
-23	-19	-18
-65	-46	-20
-100	-69	-19
-122	-82	-23
-127	-85	-25
-114	-72	-25
-85	-52	-21
-43	-25	-24
4	4	-28
50	32	-25
87	57	-26
111	72	-24
118	78	-20
111	71	-24
86	54	-23
50	30	-16
9	1	-16
-36	-30	-18
-78	-58	-20
-109	-77	-23
-125	-85	-26
-124	-82	-22
-105	-67	-23
-71	-46	-26
-28	-20	-26
17	8	-26
59	34	-26
94	57	-26
111	72	-23
116	77	-23
104	68	-20
77	50	-21
38	23	-20
-5	-8	-20
-48	-39	-25
-88	-64	-22
-114	-81	-23
-124	-87	-24
-117	-79	-26
-92	-60	-26
-54	-35	-23
-9	-3	-25
36	26	-24
77	51	-22
105	69	-23
117	78	-24
113	74	-23
94	60	-19
64	39	-18
23	11	-16
-22	-18	-17
-64	-47	-20
-101	-71	-19
-123	-84	-24
-128	-87	-24
-115	-75	-22
-85	-55	-25
-42	-28	-25
5	2	-25
49	31	-26
87	56	-26
111	70	-25
121	77	-25
112	70	-26
89	56	-20
52	31	-16
9	1	-16
-35	-28	-18
-77	-55	-21
-107	-74	-21
-123	-83	-20
-122	-81	-24
-105	-67	-22
-71	-45	-24
-29	-17	-25
17	13	-26
61	41	-22
96	64	-20
115	77	-21
118	79	-18
104	68	-24
75	49	-26
35	21	-19
-7	-8	-16
-51	-40	-22
-87	-64	-19
-114	-81	-23
-125	-88	-26
-118	-81	-24
-96	-62	-26
-58	-36	-23
-12	-6	-24
34	23	-25
76	49	-24
105	67	-23
119	77	-18
116	75	-19
98	63	-23
63	41	-20
23	12	-19
-22	-19	-22
-63	-49	-25
-99	-72	-24
-119	-87	-23
-124	-87	-26
-112	-74	-23
-84	-54	-23
-43	-27	-22
4	3	-22
50	32	-22
89	56	-21
114	74	-24
121	80	-22
113	72	-21
88	56	-19
52	30	-20
8	-1	-19
-37	-32	-19
-78	-58	-22
-109	-78	-21
-123	-87	-24
-122	-85	-25
-104	-70	-25
-69	-47	-28
-27	-16	-25
20	12	-24
61	41	-27
94	61	-23
113	75	-22
117	76	-20
104	66	-20
77	48	-20
37	22	-19
-6	-6	-23
-51	-37	-27
-91	-61	-26
-116	-81	-21
-127	-85	-18
-120	-78	-23
-96	-60	-24
-57	-34	-25
-12	-4	-27
36	27	-25
77	51	-20
106	68	-19
118	77	-19
115	75	-15
96	61	-16
63	39	-19
21	11	-18
-23	-19	-23
-65	-50	-30
-101	-71	-41
-121	-86	-40
-126	-86	-32
-113	-76	-25
-84	-53	-21
-43	-25	-23
4	3	-21
49	32	-21
86	55	-21
111	71	-16
120	77	-16
111	72	-18
87	56	-17
50	30	-16
8	0	-16
-36	-32	-13
-78	-59	-16
-107	-78	-25
-123	-87	-25
-122	-82	-26
-104	-68	-30
-69	-44	-25
-26	-17	-25
19	12	-23
63	40	-24
97	62	-24
117	76	-21
119	77	-21
105	68	-22
76	47	-21
36	19	-19
-8	-11	-20
-52	-43	-20
-89	-65	-22
-115	-82	-25
-124	-85	-25
-117	-78	-29
-95	-60	-24
-56	-36	-23
-13	-8	-24
33	23	-25
75	49	-26
105	68	-25
119	80	-24
115	77	-16
97	63	-16
62	39	-22
22	11	-21
-23	-21	-21
-64	-49	-23
-99	-71	-20
-121	-86	-26
-125	-87	-27
-113	-77	-23
-84	-56	-25
-42	-29	-25
6	3	-25
51	32	-21
89	56	-21
113	72	-22
118	77	-21
107	70	-19
85	54	-18
48	28	-17
6	-1	-18
-37	-31	-20
-78	-57	-22
-108	-78	-24
-123	-85	-24
-123	-81	-25
-103	-66	-25
-69	-42	-24
-24	-14	-26
24	16	-26
66	41	-24
100	63	-24
119	77	-24
121	79	-21
107	70	-20
79	51	-20
40	24	-18
-5	-8	-19
-48	-38	-22
-87	-63	-24
-112	-80	-24
-124	-84	-21
-117	-77	-20
-93	-58	-24
-56	-34	-26
-12	-5	-28
34	23	-25
75	48	-23
102	66	-23
115	75	-20
111	72	-17
91	60	-20
60	38	-18
18	11	-16
-23	-21	-25
-65	-49	-20
-100	-72	-20
-121	-86	-24
-126	-87	-24
-115	-78	-22
-86	-57	-23
-42	-30	-24
5	1	-22
51	31	-26
89	55	-25
113	71	-24
121	77	-23
110	71	-17
86	55	-17
50	30	-19
8	1	-19
-36	-29	-18
-77	-55	-22
-106	-76	-24
-123	-84	-24
-123	-83	-27
-106	-69	-26
-71	-46	-23
-30	-20	-28
18	12	-23
63	39	-21
97	62	-25
118	76	-22
121	78	-24
107	69	-23
77	49	-25
37	23	-26
-7	-9	-19
-52	-39	-20
-91	-64	-22
-114	-81	-26
-123	-86	-24
-116	-78	-23
-92	-58	-24
-55	-35	-24
-11	-4	-26
35	24	-25
76	48	-25
106	67	-23
118	76	-20
116	75	-20
96	62	-19
62	40	-20
21	11	-22
-24	-21	-20
-65	-50	-19
-101	-74	-22
-121	-86	-24
-125	-87	-25
-112	-74	-24
-82	-51	-25
-42	-25	-25
6	7	-25
50	34	-26
87	57	-25
111	71	-23
118	76	-19
110	68	-19
86	53	-23
49	30	-22
6	0	-23
-38	-31	-21
-81	-58	-21
-111	-78	-23
-126	-87	-22
-126	-84	-28
-106	-67	-24
-70	-44	-24
-25	-15	-24
21	15	-26
64	41	-27
97	63	-19
115	75	-19
117	79	-21
103	68	-24
75	50	-19
36	23	-18
-8	-7	-20
-51	-37	-18
-91	-64	-21
-117	-81	-23
-126	-86	-25
-118	-79	-26
-92	-61	-24
-52	-35	-25
-7	-5	-22
37	25	-20
77	50	-23
104	68	-20
119	77	-17
116	75	-15
98	60	-17
64	38	-21
23	8	-32
-23	-23	-37
-67	-51	-30
-100	-75	-18
-122	-85	-18
-125	-84	-21
-112	-70	-20
-83	-50	-21
-41	-23	-25
5	5	-27
50	32	-24
89	56	-22
113	71	-20
121	78	-22
110	72	-21
86	56	-21
50	32	-21
9	1	-17
-35	-29	-19
-76	-55	-22
-106	-74	-25
-123	-82	-27
-122	-80	-26
-105	-65	-26
-71	-44	-24
-28	-16	-24
19	12	-26
63	39	-23
96	61	-18
115	74	-18
117	77	-20
104	66	-21
75	48	-22
35	20	-18
-10	-12	-16
-54	-41	-21
-92	-66	-22
-117	-83	-23
-126	-87	-24
-118	-79	-24
-94	-61	-25
-54	-35	-24
-10	-5	-25
38	24	-26
79	50	-24
107	68	-20
122	79	-23
119	77	-24
99	62	-21
64	41	-20
22	11	-17
-24	-21	-18
-66	-51	-25
-102	-74	-23
-121	-87	-24
-126	-88	-28
-111	-76	-27
-82	-53	-28
-40	-26	-22
7	5	-22
50	32	-24
88	57	-24
111	72	-23
119	79	-21
109	72	-19
85	55	-20
49	30	-19
5	-1	-18
-39	-31	-21
-80	-58	-24
-111	-78	-22
-126	-86	-24
-126	-83	-25
-106	-68	-23
-70	-46	-25
-26	-18	-26
22	12	-29
66	40	-23
99	60	-18
116	74	-22
118	76	-21
103	65	-18
75	45	-21
36	19	-24
-8	-9	-19
-51	-39	-19
-91	-62	-21
-116	-80	-24
-125	-86	-26
-117	-78	-23
-93	-60	-22
-52	-33	-22
-4	-2	-26
40	28	-25
81	52	-25
106	68	-22
117	77	-18
111	72	-18
93	60	-20
60	38	-21
20	10	-17
-23	-21	-17
-66	-50	-22
-101	-72	-25
-123	-86	-26
-126	-86	-26
-112	-74	-25
-83	-53	-25
-40	-25	-27
7	5	-23
52	33	-17
90	57	-21
114	72	-28
123	80	-27
113	74	-23
87	56	-23
49	29	-20
7	-1	-18
-39	-32	-19
-80	-58	-21
-109	-77	-21
-123	-85	-23
-121	-82	-24
-104	-68	-23
-70	-47	-25
-28	-18	-24
19	12	-25
62	41	-25
98	64	-27
117	78	-23
118	79	-16
103	67	-17
72	47	-18
33	18	-21
-12	-12	-21
-54	-43	-22
-92	-66	-21
-117	-81	-19
-125	-85	-21
-118	-76	-24
-93	-59	-25
-55	-33	-26
-8	-4	-26
39	25	-25
79	50	-27
107	68	-23
119	78	-19
116	75	-17
94	63	-19
62	40	-23
21	12	-21
-23	-20	-21
-63	-51	-23
-100	-71	-24
-120	-86	-23
-126	-86	-25
-113	-74	-25
-83	-52	-28
-40	-24	-27
8	6	-26
52	34	-25
92	57	-19
115	72	-20
122	77	-22
111	71	-23
85	55	-18
49	30	-17
5	0	-13
-38	-32	-18
-80	-59	-19
-109	-79	-20
-124	-87	-23
-121	-83	-21
-101	-67	-23
-67	-43	-27
-23	-14	-38
24	16	-44
66	43	-35
100	63	-27
117	76	-21
119	77	-21
104	66	-19
77	47	-17
36	21	-18
-8	-11	-17
-52	-41	-18
-92	-66	-17
-117	-84	-20
-127	-87	-25
-118	-79	-24
-94	-58	-30
-54	-32	-25
-11	-3	-22
35	26	-24
76	51	-22
104	68	-22
117	77	-21
113	72	-19
94	59	-19
60	38	-20
20	10	-18
-24	-22	-21
-67	-51	-19
-102	-72	-20
-123	-87	-29
-126	-86	-24
-112	-76	-25
-81	-52	-27
-39	-24	-22
8	6	-21
52	35	-21
89	57	-25
111	72	-24
118	77	-21
109	71	-22
84	54	-21
46	29	-18
4	0	-19
-41	-32	-23
-80	-59	-21
-108	-78	-23
-122	-86	-24
-119	-82	-19
-101	-67	-19
-68	-43	-21
-26	-16	-24
21	14	-23
63	41	-22
97	62	-21
115	76	-18
118	76	-16
104	66	-21
74	45	-18
34	19	-17
-9	-11	-21
-51	-40	-21
-89	-64	-24
-114	-81	-23
-123	-85	-25
-116	-78	-26
-91	-60	-25
-53	-35	-26
-6	-6	-26
41	24	-26
81	49	-23
109	68	-21
121	78	-24
115	76	-23
94	62	-20
60	39	-20
19	10	-23
-26	-23	-23
-66	-51	-20
-102	-76	-20
-123	-87	-23
-126	-86	-25
-112	-72	-28
-81	-51	-24
-39	-23	-25
8	7	-25
52	35	-23
89	58	-24
110	74	-23
117	77	-22
107	71	-24
83	52	-25
46	27	-23
4	-3	-23
-39	-34	-20
-81	-59	-21
-110	-80	-23
-126	-86	-23
-124	-83	-23
-103	-66	-23
-69	-42	-27
-25	-14	-25
22	16	-21
65	41	-20
97	63	-21
115	74	-22
117	76	-21
102	66	-20
75	47	-18
35	21	-19
-8	-9	-18
-52	-38	-22
-89	-64	-20
-115	-81	-22
-124	-84	-31
-118	-77	-27
-92	-58	-22
-53	-33	-19
-8	-2	-30
39	27	-26
80	51	-18
106	69	-24
118	77	-16
113	74	-22
95	59	-21
60	37	-20
20	9	-21
-26	-22	-19
-68	-49	-23
-103	-72	-23
-124	-85	-25
-127	-85	-24
-112	-72	-25
-80	-51	-24
-36	-24	-22
11	7	-22
55	35	-22
90	60	-25
113	74	-23
118	79	-21
109	71	-21
85	53	-22
49	28	-23
7	-2	-18
-37	-33	-17
-76	-59	-21
-106	-79	-22
-121	-86	-24
-120	-84	-26
-103	-68	-26
-68	-45	-27
-27	-17	-26
20	13	-24
63	40	-24
97	61	-23
115	75	-23
118	76	-21
104	66	-21
74	46	-20
34	20	-21
-11	-12	-20
-54	-41	-19
-92	-65	-22
-116	-81	-23
-124	-86	-25
-116	-79	-27
-91	-59	-24
-52	-34	-18
-6	-3	-19
39	26	-23
79	51	-19
106	70	-20
118	79	-19
114	76	-16
94	61	-16
59	39	-19
18	10	-25
-27	-20	-36
-67	-48	-39
-101	-71	-27
-121	-84	-24
-124	-85	-23
-110	-72	-26
-82	-50	-24
-41	-23	-21
7	7	-22
50	34	-17
88	57	-19
111	72	-21
119	77	-21
107	70	-19
84	54	-18
46	29	-18
2	-2	-19
-43	-33	-20
-83	-60	-24
-110	-79	-25
-126	-87	-24
-122	-83	-28
-102	-67	-26
-68	-45	-25
-25	-17	-26
21	12	-24
64	40	-24
97	62	-24
115	74	-24
118	76	-22
105	65	-18
76	46	-17
36	20	-15
-7	-11	-17
-50	-41	-24
-89	-66	-23
-113	-84	-20
-123	-88	-27
-115	-79	-28
-91	-60	-24
-52	-34	-23
-7	-4	-25
40	25	-23
81	51	-24
107	68	-23
121	77	-18
115	75	-18
95	60	-20
58	38	-21
18	7	-20
-28	-23	-21
-69	-52	-20
-102	-74	-25
-121	-84	-25
-122	-83	-25
-109	-69	-23
-79	-49	-23
-37	-21	-29
9	8	-28
54	36	-30
90	59	-26
113	72	-19
119	78	-19
107	70	-20
83	53	-20
44	27	-22
4	-3	-19
-40	-32	-18
-79	-59	-21
-108	-78	-24
-122	-87	-24
-120	-84	-22
-102	-68	-27
-68	-45	-30
-25	-17	-23
22	14	-24
65	43	-24
98	65	-19
116	78	-20
117	80	-20
102	68	-18
72	47	-20
33	19	-19
-12	-11	-21
-54	-41	-20
-92	-64	-17
-117	-80	-18
-125	-85	-23
-117	-77	-25
-91	-59	-22
-52	-32	-24
-6	-2	-23
40	27	-22
80	53	-20
107	68	-23
120	76	-21
116	71	-20
93	57	-21
60	35	-21
18	6	-21
-24	-23	-23
-67	-51	-25
-101	-72	-26
-121	-87	-24
-125	-88	-24
-110	-74	-28
-81	-52	-27
-38	-23	-25
8	7	-28
52	35	-24
90	58	-22
111	72	-21
118	77	-18
107	69	-20
82	53	-19
45	28	-20
3	0	-19
-42	-32	-20
-83	-58	-22
-111	-77	-26
-126	-86	-28
-123	-81	-21
-102	-65	-21
-67	-40	-23
-23	-10	-24
23	19	-25
65	47	-25
97	66	-27
115	80	-24
117	80	-24
103	68	-22
74	49	-21
34	20	-18
-8	-11	-16
-53	-41	-18
-90	-66	-20
-115	-83	-24
-125	-87	-22
-116	-80	-24
-91	-61	-21
-51	-34	-23
-5	-3	-28
41	27	-31
82	53	-30
107	70	-25
120	77	-22
115	71	-19
94	56	-20
60	33	-23
19	5	-18
-25	-23	-16
-65	-51	-21
-100	-71	-23
-119	-85	-21
-123	-85	-23
-109	-75	-22
-79	-53	-22
-37	-24	-25
10	6	-23
54	35	-21
91	57	-21
114	74	-19
120	78	-19
110	69	-19
84	51	-21
47	27	-21
4	-2	-23
-41	-34	-21
-80	-59	-21
-109	-78	-25
-123	-86	-27
-120	-83	-27
-101	-68	-23
-67	-45	-21
-25	-17	-21
22	13	-24
64	40	-24
97	61	-23
113	75	-21
115	76	-21
99	67	-26
69	45	-37
29	20	-38
-16	-11	-22
-57	-41	-18
-95	-65	-20
-118	-82	-21
-127	-84	-20
-118	-77	-21
-93	-58	-24
-54	-32	-23
-7	-4	-20
39	27	-23
80	51	-26
107	70	-21
119	79	-24
115	74	-23
93	61	-20
60	37	-21
17	8	-19
-27	-24	-19
-69	-52	-18
-102	-74	-24
-121	-86	-24
-125	-86	-24
-110	-76	-25
-81	-52	-23
-38	-25	-25
9	5	-25
54	34	-24
91	57	-24
114	72	-23
122	77	-23
111	69	-23
86	53	-19
48	28	-12
4	0	-17
-40	-31	-24
-82	-56	-21
-109	-76	-28
-124	-84	-25
-120	-82	-25
-101	-68	-23
-67	-45	-22
-23	-17	-27
22	15	-28
63	41	-25
96	64	-23
115	77	-25
115	77	-20
101	67	-19
71	45	-21
33	20	-19
-12	-11	-18
-55	-39	-22
-91	-63	-22
-116	-82	-22
-124	-86	-23
-115	-80	-24
-91	-59	-24
-51	-32	-21
-6	-1	-25
41	29	-25
80	53	-23
107	71	-22
120	79	-23
115	76	-20
94	63	-17
59	38	-16
17	9	-18
-28	-24	-19
-69	-52	-23
-104	-76	-23
-123	-87	-24
-124	-84	-25
-109	-72	-22
-77	-50	-22
-35	-24	-23
12	6	-25
53	33	-23
89	57	-20
112	72	-23
118	78	-26
107	71	-22
84	53	-21
48	27	-20
4	-3	-18
-41	-33	-21
-80	-58	-21
-110	-77	-22
-123	-84	-24
-122	-81	-24
-102	-66	-23
-69	-43	-23
-27	-15	-25
20	16	-22
62	43	-21
96	65	-24
115	78	-27
116	79	-24
102	68	-21
71	47	-22
31	19	-17
-15	-13	-21
-56	-42	-23
-94	-67	-20
-115	-85	-21
-124	-87	-20
-114	-78	-21
-89	-58	-23
-49	-31	-22
-3	-1	-26
42	28	-26
82	53	-23
107	68	-27
117	76	-26
111	74	-21
91	60	-16
58	37	-18
17	8	-23
-26	-23	-22
-66	-51	-21
-100	-74	-20
-120	-85	-23
-123	-86	-25
-108	-74	-24
-80	-52	-27
-37	-26	-23
9	4	-23
54	31	-25
90	56	-24
113	70	-25
120	77	-22
107	70	-21
83	53	-22
44	27	-20
1	-4	-21
-44	-34	-21
-83	-61	-24
-111	-80	-24
-125	-87	-24
-121	-84	-25
-102	-66	-23
-66	-42	-25
-22	-12	-27
25	19	-26
69	45	-23
102	66	-21
120	77	-20
119	78	-19
105	66	-21
75	46	-20
35	20	-19
-9	-11	-19
-52	-39	-18
-90	-64	-21
-116	-80	-25
-123	-84	-25
-115	-77	-23
-88	-58	-20
-48	-32	-25
-3	-2	-24
43	25	-20
82	51	-27
107	67	-20
120	76	-22
114	72	-21
93	58	-21
57	35	-23
16	7	-18
-30	-24	-20
-72	-51	-19
-106	-72	-20
-124	-85	-21
-125	-85	-25
-109	-71	-25
-78	-51	-23
-36	-25	-24
10	6	-22
53	34	-24
90	58	-32
113	72	-40
118	79	-32
107	71	-23
81	54	-19
42	29	-14
-1	-2	-13
-44	-32	-16
-83	-59	-19
-111	-78	-19
-123	-86	-21
-120	-82	-23
-100	-65	-25
-65	-43	-28
-21	-14	-26
25	15	-23
66	41	-20
99	64	-21
115	76	-21
115	77	-20
98	66	-19
69	46	-20
30	18	-20
-14	-13	-21
-55	-43	-23
-92	-68	-24
-115	-83	-24
-124	-87	-27
-113	-78	-29
-89	-57	-26
-50	-31	-23
-3	-1	-21
41	27	-24
83	51	-26
110	69	-25
121	79	-23
115	75	-18
93	59	-21
58	35	-20
13	5	-20
-31	-25	-22
-72	-53	-21
-105	-74	-23
-124	-84	-25
-125	-83	-23
-109	-70	-22
-78	-49	-25
-36	-23	-25
11	7	-22
55	35	-22
91	59	-21
113	72	-20
119	77	-21
107	67	-23
83	50	-22
44	25	-19
2	-4	-18
-43	-33	-21
-82	-59	-19
-111	-78	-20
-125	-86	-24
-121	-81	-26
-101	-64	-27
-63	-41	-25
-20	-13	-22
26	16	-23
68	43	-27
99	63	-24
115	74	-25
116	76	-22
102	65	-23
72	45	-24
33	19	-20
-12	-12	-20
-56	-43	-24
-94	-68	-23
-120	-83	-22
-126	-87	-21
-118	-78	-24
-90	-58	-25
-50	-29	-23
-4	0	-24
41	29	-22
81	53	-21
107	70	-20
119	79	-22
114	75	-21
93	59	-19
59	36	-21
17	6	-19
-30	-25	-20
-69	-54	-20
-103	-75	-22
-121	-85	-24
-122	-84	-25
-108	-69	-25
-79	-49	-28
-36	-21	-29
11	8	-27
56	35	-23
93	58	-18
113	74	-21
119	79	-23
107	71	-19
81	54	-23
42	27	-21
-1	-2	-17
-44	-33	-19
-85	-61	-21
-113	-79	-25
-125	-87	-23
-122	-80	-24
-101	-62	-30
-66	-37	-25
-23	-9	-25
23	19	-24
64	44	-22
97	61	-23
115	74	-22
116	72	-22
100	64	-19
71	45	-16
30	18	-16
-13	-12	-19
-56	-43	-21
-93	-67	-22
-116	-84	-23
-125	-87	-23
-115	-77	-24
-89	-58	-22
-49	-32	-25
-2	-2	-23
42	27	-21
82	52	-23
107	71	-23
121	79	-22
114	75	-19
94	61	-21
58	35	-22
16	5	-20
-27	-26	-23
-69	-55	-19
-103	-77	-17
-122	-86	-22
-122	-83	-27
-107	-70	-27
-77	-48	-25
-32	-21	-30
12	7	-27
57	35	-23
92	57	-24
113	71	-21
118	76	-20
107	68	-19
82	53	-19
44	26	-20
1	-2	-18
-44	-35	-20
-83	-60	-20
-112	-80	-24
-125	-87	-24
-120	-82	-21
-99	-66	-19
-62	-42	-17
-21	-14	-22
24	17	-22
65	43	-18
98	63	-18
116	75	-18
116	75	-24
102	65	-36
70	43	-40
31	17	-33
-14	-15	-25
-57	-45	-22
-95	-69	-21
-118	-86	-26
-125	-87	-24
-116	-79	-21
-90	-57	-21
-48	-31	-18
-2	-2	-23
44	28	-23
84	52	-21
111	70	-20
121	78	-24
115	75	-23
93	61	-17
58	35	-19
16	7	-19
-30	-24	-22
-70	-51	-22
-105	-71	-24
-123	-84	-25
-126	-82	-22
-110	-70	-24
-80	-49	-24
-37	-23	-26
11	7	-24
55	36	-23
92	59	-24
115	76	-24
121	79	-23
109	70	-19
81	51	-16
44	25	-17
0	-5	-19
-43	-37	-21
-83	-62	-24
-108	-81	-21
-121	-86	-24
-117	-81	-24
-97	-64	-25
-62	-40	-26
-19	-13	-24
26	18	-25
68	45	-22
99	66	-19
115	78	-22
115	78	-21
99	65	-19
70	44	-18
28	17	-21
-15	-15	-19
-59	-43	-19
-96	-66	-24
-119	-82	-22
-126	-85	-24
-115	-76	-25
-88	-56	-24
-48	-30	-27
-3	1	-26
42	31	-27
82	56	-24
107	71	-24
119	77	-20
112	72	-18
92	58	-21
57	33	-20
16	6	-22
-28	-24	-21
-69	-51	-21
-102	-74	-19
-122	-85	-23
-123	-85	-28
-108	-72	-27
-77	-49	-28
-34	-22	-26
13	10	-26
58	39	-21
93	61	-24
114	75	-25
118	77	-25
107	69	-22
82	51	-24
44	27	-21
2	-4	-19
-42	-35	-22
-82	-62	-20
-111	-82	-21
-124	-89	-24
-120	-84	-26
-99	-65	-27
-63	-40	-24
-20	-12	-19
26	17	-21
66	41	-24
100	63	-22
117	75	-20
117	77	-21
102	67	-21
70	46	-21
30	18	-20
-15	-15	-19
-57	-45	-19
-94	-69	-21
-118	-84	-23
-125	-86	-23
-115	-77	-26
-89	-56	-24
-49	-31	-23
-4	-1	-27
41	28	-25
81	53	-22
107	71	-22
117	78	-19
111	75	-17
89	58	-19
55	36	-21
12	6	-20
-32	-26	-20
-72	-54	-23
-106	-77	-23
-124	-87	-25
-126	-86	-25
-109	-72	-25
-78	-48	-27
-33	-21	-23
14	9	-21
57	36	-23
94	59	-23
114	74	-22
119	77	-19
107	68	-19
80	49	-20
42	24	-19
0	-6	-18
-43	-36	-20
-82	-62	-21
-110	-81	-22
-124	-87	-25
-120	-84	-25
-99	-65	-25
-63	-41	-25
-20	-11	-23
26	19	-28
69	45	-25
101	66	-23
118	76	-22
120	78	-19
103	66	-23
72	45	-22
29	18	-22
-15	-14	-21
-58	-44	-21
-95	-68	-22
-116	-82	-22
-124	-86	-23
-112	-76	-25
-87	-55	-26
-46	-30	-26
-1	0	-27
42	29	-26
83	54	-26
109	71	-20
119	79	-19
113	74	-19
91	57	-17
56	34	-18
15	5	-18
-31	-24	-21
-72	-52	-23
-105	-74	-22
-124	-85	-23
-124	-85	-26
-108	-70	-25
-76	-48	-28
-33	-19	-25
14	11	-22
58	38	-19
91	59	-26
111	71	-22
115	76	-19
105	68	-19
79	53	-17
41	28	-19
-1	-3	-17
-46	-33	-25
-84	-61	-24
-113	-80	-21
-125	-88	-21
-121	-82	-22
-100	-64	-24
-63	-40	-20
-19	-11	-23
27	18	-21
68	45	-23
101	65	-21
116	76	-19
116	76	-20
101	64	-20
71	43	-23
32	16	-21
-12	-14	-22
-54	-43	-21
-92	-66	-24
-117	-82	-24
-125	-86	-27
-115	-77	-25
-88	-57	-22
-48	-31	-26
0	0	-25
45	28	-26
84	54	-24
110	70	-26
120	78	-21
115	72	-18
93	57	-20
58	33	-19
15	2	-18
-30	-28	-18
-71	-57	-21
-105	-78	-19
-122	-87	-28
-124	-85	-35
-108	-70	-42
-77	-48	-39
-34	-20	-28
14	10	-27
58	36	-21
94	59	-25
115	72	-23
118	77	-19
105	68	-17
79	51	-15
40	24	-18
-3	-4	-16
-45	-34	-19
-85	-60	-20
-112	-78	-19
-125	-86	-20
-121	-81	-21
-101	-64	-22
-65	-41	-23
-20	-11	-24
27	19	-24
69	45	-24
100	66	-23
117	77	-20
117	78	-17
99	65	-17
68	44	-21
28	17	-23
-17	-14	-23
-60	-44	-20
-96	-68	-19
-119	-83	-20
-126	-86	-24
-115	-76	-23
-89	-57	-23
-47	-29	-26
-2	1	-27
44	29	-28
82	53	-25
107	69	-24
118	77	-23
111	72	-24
90	58	-21
54	34	-21
13	4	-21
-31	-27	-21
-74	-55	-22
-107	-76	-23
-124	-86	-22
-124	-84	-25
-107	-70	-23
-75	-49	-24
-32	-21	-23
14	7	-22
57	37	-22
91	59	-20
114	74	-21
117	78	-21
106	68	-17
80	51	-19
42	24	-21
0	-6	-19
-44	-36	-20
-83	-61	-19
-111	-78	-23
-123	-85	-25
-118	-80	-24
-97	-64	-26
-61	-40	-25
-18	-12	-27
28	17	-26
70	44	-23
102	63	-22
118	76	-22
117	76	-22
101	65	-20
69	44	-21
30	16	-24
-14	-14	-22
-56	-44	-20
-93	-67	-21
-116	-82	-23
-123	-84	-27
-115	-74	-27
-87	-56	-27
-48	-30	-26
-1	0	-24
44	28	-25
83	51	-26
109	69	-25
119	77	-21
114	72	-21
92	59	-23
58	35	-21
14	5	-20
-30	-27	-21
-72	-56	-25
-106	-78	-26
-124	-89	-25
-125	-86	-23
-108	-71	-22
-76	-48	-23
-31	-19	-26
16	12	-25
61	40	-24
96	62	-23
115	78	-21
120	80	-21
106	70	-23
81	51	-19
41	24	-13
-1	-6	-12
-42	-36	-18
-83	-61	-22
-109	-79	-21
-123	-84	-24
-120	-79	-22
-101	-63	-25
-65	-39	-25
-22	-10	-26
25	19	-22
68	45	-22
100	65	-22
116	76	-22
115	75	-21
99	64	-21
68	42	-19
27	15	-18
-17	-16	-18
-60	-45	-21
-95	-69	-24
-119	-84	-23
-125	-85	-23
-113	-76	-24
-87	-55	-25
-46	-28	-25
-1	0	-26
44	29	-27
83	52	-26
107	70	-25
118	78	-18
110	74	-21
87	59	-20
52	35	-19
11	4	-17
-33	-27	-17
-75	-54	-21
-106	-74	-23
-124	-85	-23
-124	-82	-25
-108	-69	-23
-76	-47	-19
-33	-21	-19
14	10	-18
57	38	-20
93	60	-21
115	76	-16
119	79	-18
107	71	-27
81	51	-35
44	26	-35
-1	-4	-28
-46	-36	-24
-85	-62	-21
-112	-81	-21
-124	-87	-24
-120	-81	-25
-97	-64	-24
-61	-40	-25
-18	-11	-23
29	19	-23
70	45	-20
101	65	-19
115	77	-19
115	75	-19
98	64	-19
68	41	-19
29	14	-20
-15	-18	-21
-57	-47	-22
-94	-70	-22
-117	-86	-23
-124	-88	-23
-114	-79	-24
-87	-58	-26
-47	-31	-27
-1	-1	-30
42	27	-27
83	52	-25
107	71	-21
119	77	-22
114	74	-20
92	58	-19
59	34	-21
14	5	-20
-31	-27	-24
-75	-54	-21
-107	-76	-21
-124	-85	-20
-124	-82	-23
-106	-70	-25
-74	-46	-21
-31	-19	-22
15	11	-27
58	39	-27
92	61	-24
111	74	-23
117	76	-16
105	67	-20
80	48	-20
42	23	-21
0	-4	-19
-44	-33	-19
-84	-56	-23
-110	-77	-19
-124	-84	-21
-120	-81	-23
-100	-64	-23
-63	-40	-22
-20	-11	-26
26	20	-28
69	45	-22
101	67	-19
117	76	-18
115	76	-18
98	64	-20
66	41	-18
25	14	-20
-18	-19	-23
-60	-47	-23
-95	-70	-23
-118	-84	-27
-123	-85	-28
-113	-76	-25
-86	-54	-25
-45	-28	-25
0	2	-28
46	31	-28
84	56	-24
110	72	-23
119	78	-24
111	74	-23
89	58	-20
52	33	-22
12	4	-23
-32	-27	-18
-72	-54	-21
-104	-75	-26
-121	-85	-24
-122	-83	-23
-105	-69	-24
-71	-47	-24
-29	-20	-30
17	11	-28
61	39	-23
96	61	-25
115	72	-23
118	77	-21
106	68	-21
78	49	-21
41	23	-17
-2	-7	-18
-45	-37	-22
-85	-62	-21
-112	-81	-21
-123	-87	-19
-120	-83	-22
-96	-64	-26
-60	-40	-24
-15	-8	-24
32	21	-26
72	48	-24
103	67	-22
117	77	-21
116	76	-21
99	63	-20
68	43	-21
28	16	-22
-17	-15	-20
-60	-43	-21
-97	-68	-24
-120	-83	-24
-126	-86	-25
-114	-76	-23
-85	-54	-18
-44	-29	-18
2	4	-20
48	32	-20
86	57	-23
110	71	-24
121	78	-20
113	74	-19
92	57	-17
56	33	-21
13	3	-22
-32	-26	-20
-75	-55	-23
-105	-78	-24
-122	-87	-28
-122	-86	-24
-105	-70	-23
-72	-48	-26
-30	-19	-27
16	12	-24
58	38	-22
94	61	-21
115	71	-21
118	75	-23
105	66	-23
78	48	-22
39	21	-20
-4	-8	-19
-47	-38	-20
-86	-62	-21
-112	-80	-21
-125	-86	-23
-119	-81	-24
-98	-63	-27
-60	-39	-27
-18	-10	-24
30	19	-26
72	45	-21
101	65	-21
116	75	-22
114	75	-20
98	61	-24
65	40	-19
25	13	-19
-19	-16	-15
-63	-45	-14
-99	-68	-18
-121	-83	-15
-126	-86	-22
-114	-76	-24
-85	-55	-22
-44	-28	-25
2	3	-36
46	31	-42
84	56	-31
109	72	-24
118	79	-22
111	76	-17
89	59	-19
53	35	-19
10	4	-19
-36	-27	-22
-77	-56	-19
-108	-77	-16
-124	-86	-23
-124	-85	-27
-107	-69	-27
-72	-47	-24
-32	-19	-21
15	10	-24
59	37	-25
94	61	-22
114	75	-19
117	79	-24
106	68	-25
78	51	-21
40	23	-22
-3	-6	-22
-47	-37	-19
-86	-65	-21
-113	-81	-25
-124	-88	-25
-119	-82	-25
-97	-63	-24
-60	-40	-23
-15	-11	-26
30	18	-21
71	46	-19
103	66	-21
117	79	-22
116	80	-22
99	68	-19
68	45	-22
28	16	-21
-16	-16	-21
-58	-46	-21
-96	-68	-21
-118	-81	-23
-124	-82	-25
-113	-70	-25
-85	-52	-24
-44	-26	-24
4	3	-25
47	31	-28
85	55	-20
109	71	-19
119	79	-24
111	74	-20
87	58	-19
53	34	-18
11	4	-20
-34	-28	-20
-77	-56	-20
-108	-77	-24
-125	-87	-24
-126	-84	-24
-107	-69	-26
-75	-47	-25
-31	-19	-27
16	10	-30
59	37	-21
94	59	-17
113	72	-19
117	77	-20
105	66	-19
79	48	-19
41	21	-18
-2	-9	-19
-47	-39	-21
-85	-64	-20
-113	-81	-19
-125	-87	-19
-118	-81	-22
-95	-63	-22
-59	-38	-23
-16	-9	-27
30	21	-25
70	48	-24
101	66	-22
118	77	-21
116	75	-24
100	63	-23
68	41	-20
27	13	-18
-19	-18	-20
-62	-47	-19
-97	-69	-18
-118	-84	-21
-123	-84	-28
-110	-74	-27
-82	-54	-29
-40	-28	-28
5	2	-23
49	31	-25
86	56	-24
111	72	-23
119	77	-20
111	71	-19
87	56	-19
54	30	-19
12	1	-19
-34	-29	-21
-75	-56	-22
-107	-77	-23
-124	-88	-23
-124	-84	-23
-107	-70	-26
-72	-47	-24
-31	-17	-24
17	12	-23
59	41	-24
93	62	-23
114	77	-24
117	79	-25
104	68	-21
75	50	-20
36	23	-20
-7	-8	-19
-51	-38	-20
-89	-63	-21
-115	-81	-20
-126	-86	-24
-121	-79	-27
-97	-62	-29
-60	-37	-26
-15	-9	-24
31	21	-23
72	47	-24
102	66	-26
117	77	-20
115	76	-21
97	63	-22
67	41	-21
27	13	-20
-17	-16	-23
-59	-47	-24
-96	-69	-23
-118	-85	-23
-125	-85	-21
-113	-77	-24
-85	-56	-26
-43	-28	-24
5	2	-24
51	31	-24
88	56	-25
111	72	-25
120	78	-18
110	72	-11
87	57	-14
52	32	-18
11	3	-12
-33	-27	-16
-76	-53	-21
-106	-74	-26
-124	-83	-34
-123	-82	-40
-105	-70	-36
-70	-47	-28
-27	-19	-24
19	11	-23
62	40	-20
95	61	-18
115	76	-21
118	77	-16
104	68	-13
77	48	-23
36	22	-21
-7	-7	-18
-50	-38	-17
-88	-62	-17
-113	-81	-24
-124	-86	-23
-118	-81	-27
-97	-63	-31
-60	-37	-27
-18	-9	-23
28	19	-23
69	45	-25
103	65	-22
119	75	-22
116	75	-23
98	63	-24
65	40	-20
25	14	-18
-21	-17	-24
-62	-45	-25
-96	-66	-21
-119	-82	-19
-124	-83	-22
-112	-74	-22
-83	-53	-22
-42	-27	-25
4	3	-26
49	33	-26
86	57	-25
111	74	-20
118	78	-20
110	72	-22
86	56	-21
52	32	-20
11	3	-20
-34	-28	-21
-76	-55	-21
-107	-78	-23
-124	-88	-25
-125	-86	-27
-106	-71	-30
-71	-47	-28
-28	-17	-30
18	14	-30
61	41	-23
96	63	-23
115	77	-25
119	77	-20
106	68	-22
79	49	-21
40	23	-19
-5	-7	-22
-49	-39	-24
-88	-64	-26
-114	-84	-25
-125	-89	-25
-117	-82	-26
-93	-63	-27
-57	-38	-25
-13	-8	-25
31	21	-25
71	45	-21
101	65	-22
116	75	-24
114	74	-19
97	63	-20
66	41	-19
26	13	-17
-18	-19	-20
-62	-48	-17
-98	-72	-19
-119	-86	-22
-126	-86	-30
-114	-76	-23
-87	-54	-19
-44	-28	-27
2	4	-23
46	32	-26
86	56	-22
109	72	-17
117	77	-22
107	70	-22
86	55	-22
50	31	-18
9	2	-18
-36	-28	-19
-77	-55	-19
-109	-77	-19
-126	-85	-21
-124	-83	-23
-105	-66	-23
-70	-42	-23
-27	-13	-25
20	16	-25
63	41	-21
97	64	-22
116	75	-20
119	79	-21
106	68	-20
79	49	-18
39	22	-20
-4	-9	-20
-49	-39	-19
-87	-64	-22
-112	-81	-23
-123	-84	-23
-115	-78	-24
-94	-61	-26
-57	-36	-27
-14	-8	-25
32	20	-21
72	45	-21
104	65	-25
120	74	-23
117	72	-20
99	59	-19
65	38	-19
24	11	-21
-22	-20	-21
-63	-48	-23
-100	-70	-23
-119	-84	-21
-123	-86	-21
-111	-75	-26
-82	-52	-25
-42	-26	-25
5	4	-23
50	34	-25
86	58	-25
111	74	-21
119	79	-19
111	72	-15
86	56	-14
52	31	-18
11	1	-19
-33	-29	-19
-74	-56	-21
-107	-77	-23
-124	-85	-26
-123	-84	-32
-105	-70	-38
-71	-48	-32
-28	-19	-31
18	11	-28
61	37	-24
95	59	-22
114	71	-15
119	76	-19
105	67	-20
77	48	-23
37	22	-21
-8	-9	-20
-52	-39	-22
-91	-64	-20
-116	-82	-24
-126	-87	-24
-119	-80	-25
-95	-60	-26
-58	-36	-24
-13	-6	-26
32	22	-24
72	48	-19
103	66	-21
117	76	-18
115	75	-18
96	62	-20
64	41	-19
24	14	-19
-20	-17	-18
-63	-45	-20
-98	-68	-19
-119	-83	-22
-125	-85	-24
-114	-72	-23
-87	-53	-25
-44	-25	-25
1	5	-24
48	33	-23
86	56	-21
109	72	-21
117	79	-23
107	72	-22
86	56	-21
48	31	-21
7	-1	-22
-37	-31	-22
-77	-58	-23
-107	-78	-24
-123	-86	-27
-120	-83	-26
-102	-67	-21
-67	-45	-25
-25	-17	-31
23	11	-23
64	39	-24
97	61	-21
116	74	-17
118	77	-23
105	67	-24
77	48	-23
38	20	-19
-6	-11	-18
-51	-40	-22
-89	-64	-21
-115	-80	-20
-124	-85	-23
-118	-77	-27
-95	-61	-28
-57	-36	-23
-14	-7	-20
32	20	-22
74	47	-21
104	67	-21
119	78	-24
115	77	-21
97	62	-21
62	40	-20
20	9	-20
-24	-21	-22
-66	-50	-20
-100	-70	-23
-119	-82	-23
-123	-84	-25
-111	-71	-27
-83	-53	-24
-42	-26	-25
6	4	-26
51	33	-26
90	58	-21
115	74	-20
122	82	-25
113	74	-24
89	57	-23
54	32	-24
11	2	-20
-34	-31	-21
-74	-59	-21
-107	-79	-25
-124	-87	-24
-123	-84	-23
-104	-67	-23
-70	-44	-23
-27	-15	-23
20	14	-23
63	41	-25
97	62	-26
115	75	-23
118	78	-19
102	67	-22
74	45	-24
33	18	-23
-11	-14	-20
-54	-44	-17
-92	-67	-23
-116	-82	-22
-126	-87	-25
-118	-79	-26
-96	-62	-22
-58	-36	-26
-14	-8	-26
33	23	-26
75	49	-25
104	68	-19
117	79	-18
114	76	-21
94	62	-19
63	40	-18
23	11	-19
-22	-19	-19
-63	-48	-20
-98	-69	-23
-121	-82	-22
-126	-83	-22
-113	-72	-22
-84	-53	-23
-40	-26	-25
6	3	-21
52	31	-18
89	55	-19
111	70	-21
119	78	-20
110	71	-19
86	57	-21
49	32	-20
7	2	-19
-38	-28	-21
-80	-56	-20
-111	-75	-21
-126	-84	-25
-123	-80	-26
-103	-65	-25
-67	-41	-24
-24	-14	-28
23	14	-27
64	41	-23
97	61	-14
117	77	-16
118	77	-18
106	68	-18
77	50	-25
38	23	-20
-6	-8	-19
-51	-40	-21
-88	-64	-20
-115	-82	-24
-124	-87	-25
-117	-80	-26
-94	-63	-22
-55	-36	-24
-12	-6	-25
36	25	-23
77	51	-25
106	70	-22
118	78	-19
115	74	-16
95	60	-17
61	37	-19
20	9	-17
-24	-21	-20
-66	-50	-23
-101	-71	-28
-120	-86	-40
-125	-86	-40
-111	-74	-33
-82	-52	-27
-40	-25	-24
7	5	-25
51	32	-24
87	53	-20
111	71	-19
119	77	-22
110	71	-23
87	56	-22
52	31	-19
9	0	-18
-37	-33	-25
-78	-60	-22
-108	-80	-21
-124	-87	-19
-123	-83	-20
-104	-67	-26
-69	-44	-21
-25	-16	-23
22	13	-19
65	40	-23
98	60	-24
117	75	-23
118	77	-24
102	67	-20
72	45	-22
34	18	-20
-10	-14	-20
-52	-44	-20
-91	-67	-20
-115	-83	-23
-125	-85	-24
-117	-77	-25
-95	-57	-26
-56	-32	-27
-11	-4	-23
34	24	-25
76	49	-21
104	67	-22
117	77	-26
114	75	-23
95	63	-21
64	40	-16
23	13	-15
-21	-19	-21
-64	-48	-26
-100	-70	-25
-122	-85	-24
-126	-85	-23
-112	-74	-27
-83	-51	-28
-39	-24	-25
7	7	-25
52	35	-23
87	57	-24
111	71	-23
118	76	-22
107	70	-22
84	55	-18
46	30	-21
4	1	-19
-42	-30	-17
-81	-56	-20
-111	-77	-22
-125	-85	-21
-122	-81	-24
-103	-66	-25
-68	-42	-23
-24	-15	-24
21	15	-24
64	42	-24
98	63	-24
116	76	-24
117	76	-21
102	66	-20
72	45	-22
35	20	-20
-9	-11	-17
-50	-40	-19
-87	-62	-24
-114	-80	-24
-122	-85	-23
-117	-78	-21
-93	-60	-22
-56	-35	-25
-11	-6	-27
35	23	-26
76	48	-23
105	66	-21
118	76	-22
115	74	-20
95	60	-19
61	37	-19
19	9	-20
-26	-23	-19
-67	-51	-19
-102	-75	-23
-121	-85	-25
-124	-85	-21
-109	-72	-21
-79	-50	-27
-37	-23	-25
8	7	-27
52	35	-24
90	58	-23
113	74	-24
120	79	-23
111	72	-25
86	55	-19
50	30	-19
6	0	-15
-37	-32	-16
-78	-58	-21
-109	-79	-20
-122	-86	-24
-121	-82	-27
-102	-66	-25
-68	-43	-22
-26	-15	-24
22	14	-25
64	40	-20
99	63	-17
118	75	-23
121	77	-23
105	68	-20
75	47	-21
34	22	-18
-10	-11	-23
-54	-40	-20
-91	-66	-25
-115	-82	-28
-125	-87	-22
-117	-81	-22
-95	-61	-24
-56	-36	-28
-12	-6	-27
35	24	-21
77	49	-19
105	68	-16
118	76	-18
113	72	-18
94	59	-19
60	37	-18
19	10	-22
-26	-20	-33
-67	-48	-40
-101	-70	-34
-121	-83	-25
-124	-84	-25
-110	-71	-24
-80	-52	-25
-39	-25	-25
6	6	-23
52	34	-21
88	59	-24
111	75	-21
118	80	-19
110	72	-21
85	53	-17
48	28	-19
6	-2	-18
-40	-32	-23
-80	-58	-22
-110	-77	-18
-125	-84	-18
-122	-81	-23
-103	-66	-24
-67	-43	-23
-23	-15	-24
23	15	-21
65	42	-22
99	64	-24
117	76	-26
117	77	-23
103	65	-15
74	45	-17
34	19	-18
-10	-13	-17
-52	-42	-17
-90	-67	-23
-115	-82	-26
-124	-87	-22
-117	-79	-26
-92	-60	-25
-56	-36	-26
-10	-6	-26
36	22	-25
77	48	-25
106	65	-25
119	76	-23
115	75	-18
95	60	-19
62	38	-19
21	9	-16
-24	-21	-20
-65	-51	-21
-100	-72	-23
-120	-84	-23
-124	-84	-22
-111	-70	-26
-82	-50	-26
-40	-23	-25
7	8	-24
51	35	-24
90	59	-23
113	74	-22
121	80	-23
111	72	-18
86	56	-18
49	31	-23
6	0	-23
-38	-30	-24
-80	-58	-24
-109	-78	-26
-125	-87	-27
-122	-84	-23
-101	-67	-24
-67	-44	-23
-22	-15	-27
23	15	-27
65	43	-23
97	64	-22
114	74	-25
115	75	-25
99	63	-24
69	45	-23
31	18	-20
-12	-11	-16
-55	-40	-12
-93	-65	-19
-118	-82	-23
-128	-86	-24
-119	-78	-24
-94	-60	-23
-54	-34	-28
-10	-4	-22
37	23	-21
77	49	-21
105	65	-23
118	76	-26
114	72	-22
96	60	-20
64	40	-18
24	11	-19
-21	-19	-24
-63	-48	-22
-98	-70	-25
-121	-83	-27
-124	-84	-27
-110	-71	-27
-80	-50	-27
-36	-23	-27
10	6	-27
55	35	-24
92	59	-23
115	74	-20
120	79	-18
107	72	-20
82	55	-18
46	28	-20
4	-1	-18
-40	-32	-19
-79	-58	-19
-109	-77	-17
-124	-87	-30
-122	-81	-31
-102	-65	-22
-67	-41	-23
-23	-13	-23
24	16	-22
66	42	-21
99	61	-21
116	74	-19
116	75	-18
101	64	-20
72	45	-22
34	17	-21
-10	-13	-18
-52	-43	-21
-91	-67	-20
-115	-84	-21
-124	-88	-24
-117	-80	-24
-92	-61	-24
-54	-34	-31
-10	-4	-41
35	25	-37
75	51	-27
104	67	-19
116	77	-17
113	72	-17
93	60	-19
60	38	-19
17	10	-20
-27	-21	-19
-68	-48	-18
-102	-69	-16
-121	-82	-21
-124	-84	-23
-109	-72	-23
-80	-52	-26
-35	-24	-23
10	6	-25
54	35	-25
91	58	-25
111	74	-24
119	77	-22
107	68	-22
84	51	-19
46	27	-19
4	-3	-21
-40	-34	-23
-82	-60	-23
-112	-80	-23
-126	-89	-22
-124	-84	-24
-103	-68	-25
-67	-43	-26
-23	-13	-26
23	18	-25
65	45	-26
98	65	-25
117	77	-24
119	77	-21
104	66	-17
75	47	-23
35	18	-21
-10	-12	-15
-52	-42	-19
-89	-65	-25
-112	-81	-28
-121	-84	-21
-112	-77	-20
-89	-59	-23
-50	-34	-25
-7	-5	-28
40	25	-22
80	50	-21
107	68	-20
121	79	-19
116	74	-19
97	61	-20
63	38	-21
21	10	-19
-23	-22	-20
-66	-50	-21
-101	-71	-21
-122	-86	-25
-125	-85	-24
-112	-75	-25
-82	-52	-25
-39	-23	-23
8	7	-25
52	36	-23
89	59	-22
111	72	-23
117	77	-22
107	70	-21
80	52	-20
44	27	-19
2	-2	-18
-44	-35	-20
-84	-61	-23
-114	-80	-24
-128	-87	-21
-125	-82	-23
-104	-66	-25
-67	-41	-21
-24	-13	-25
24	17	-24
65	43	-22
99	63	-23
116	75	-22
116	76	-21
100	66	-17
70	45	-19
31	18	-20
-13	-13	-21
-56	-44	-22
-92	-67	-22
-115	-82	-24
-122	-86	-23
-113	-77	-25
-87	-56	-22
-50	-31	-26
-6	-3	-27
38	26	-25
78	50	-27
106	68	-23
118	76	-20
114	74	-20
94	59	-21
60	35	-20
17	8	-22
-28	-23	-21
-68	-51	-21
-102	-72	-18
-120	-86	-21
-124	-84	-27
-108	-71	-29
-79	-49	-28
-36	-23	-23
11	8	-18
55	36	-18
92	58	-27
115	72	-24
121	76	-22
109	70	-23
83	51	-16
44	27	-23
1	-2	-20
-43	-34	-19
-83	-58	-17
-111	-78	-12
-125	-85	-21
-121	-81	-23
-101	-64	-23
-65	-40	-23
-21	-13	-21
24	18	-25
68	43	-25
101	65	-30
118	77	-39
119	77	-36
102	65	-28
72	43	-23
33	15	-19
-11	-16	-19
-53	-44	-19
-90	-66	-18
-116	-83	-20
-125	-86	-23
-117	-79	-21
-93	-59	-24
-53	-35	-23
-7	-5	-24
39	24	-24
79	50	-21
105	68	-19
117	77	-16
111	75	-19
90	60	-20
58	38	-21
19	11	-20
-25	-21	-21
-66	-48	-23
-101	-71	-23
-123	-86	-25
-126	-87	-24
-112	-75	-23
-79	-52	-24
-34	-24	-23
13	8	-24
58	35	-25
91	59	-23
114	74	-24
117	78	-23
107	71	-22
81	53	-20
45	30	-21
2	-1	-22
-42	-32	-18
-82	-58	-21
-110	-79	-21
-123	-86	-24
-120	-82	-22
-99	-64	-23
-64	-40	-27
-20	-12	-25
28	18	-25
68	43	-22
101	65	-21
117	76	-19
117	77	-17
101	65	-24
68	44	-23
29	18	-18
-15	-14	-21
-56	-41	-18
-92	-66	-18
-115	-81	-24
-124	-85	-26
-115	-78	-26
-91	-59	-27
-52	-34	-25
-7	-3	-25
39	26	-25
81	51	-27
107	68	-27
121	77	-21
116	74	-21
94	58	-22
60	37	-23
18	8	-22
-26	-23	-21
-69	-51	-23
-102	-75	-20
-121	-86	-24
-124	-85	-25
-108	-71	-24
-79	-50	-23
-36	-21	-23
10	9	-25
54	35	-22
91	58	-21
113	71	-20
118	77	-21
107	70	-19
82	52	-20
43	27	-22
0	-4	-20
-44	-34	-20
-83	-61	-23
-110	-79	-23
-125	-85	-21
-122	-81	-21
-102	-64	-24
-65	-41	-26
-21	-13	-28
26	16	-28
69	43	-26
100	64	-23
117	76	-23
115	78	-22
100	66	-21
69	45	-21
29	19	-23
-15	-13	-21
-57	-42	-19
-94	-68	-21
-118	-83	-24
-126	-87	-25
-117	-78	-25
-90	-59	-23
-51	-34	-22
-5	-4	-26
39	24	-27
78	49	-24
105	67	-24
117	76	-23
114	74	-20
94	60	-20
60	38	-20
20	8	-21
-26	-23	-20
-67	-52	-20
-101	-74	-22
-121	-85	-23
-123	-86	-19
-108	-72	-19
-78	-50	-21
-35	-22	-20
11	10	-19
56	38	-20
92	61	-22
114	75	-25
119	79	-25
107	71	-31
82	53	-37
44	28	-32
1	-3	-20
-43	-34	-18
-83	-62	-19
-112	-81	-18
-125	-89	-24
-121	-82	-25
-98	-64	-24
-63	-40	-20
-17	-11	-23
30	17	-24
70	45	-19
102	64	-20
118	76	-23
118	76	-22
100	64	-17
69	43	-17
30	16	-17
-15	-15	-20
-56	-43	-22
-93	-66	-20
-115	-82	-23
-124	-85	-23
-114	-77	-30
-88	-58	-25
-50	-32	-24
-6	-3	-26
38	25	-24
79	50	-25
105	68	-23
117	77	-20
111	75	-21
90	60	-21
55	37	-20
14	6	-23
-30	-24	-22
-72	-54	-23
-104	-75	-21
-122	-86	-22
-124	-85	-24
-107	-71	-25
-77	-51	-25
-33	-23	-19
12	7	-21
56	36	-23
91	59	-22
113	72	-22
118	79	-20
107	70	-17
82	53	-17
44	26	-18
0	-3	-19
-44	-33	-21
-84	-59	-22
-112	-77	-21
-125	-86	-19
-120	-81	-20
-101	-65	-22
-63	-41	-23
-21	-11	-25
27	19	-25
68	47	-23
101	66	-21
118	77	-21
117	77	-24
101	64	-23
69	44	-20
31	16	-24
-12	-14	-23
-55	-43	-21
-91	-67	-23
-116	-81	-23
-125	-86	-25
-116	-79	-28
-91	-60	-27
-50	-33	-25
-4	-2	-24
42	28	-24
82	54	-22
109	70	-26
120	77	-21
114	72	-20
94	58	-22
59	36	-18
18	9	-21
-28	-23	-21
-70	-51	-20
-105	-74	-22
-124	-87	-28
-126	-86	-26
-110	-72	-26
-79	-49	-26
-35	-21	-24
12	8	-22
55	35	-20
90	58	-20
111	72	-18
117	77	-18
107	71	-19
81	53	-20
42	27	-22
-1	-3	-25
-46	-35	-23
-86	-61	-21
-113	-79	-24
-125	-85	-23
-120	-79	-25
-99	-62	-26
-63	-38	-28
-18	-11	-30
26	19	-26
68	45	-21
100	65	-22
116	77	-24
116	74	-18
100	63	-16
70	41	-17
31	14	-15
-14	-15	-20
-56	-43	-18
-94	-65	-20
-117	-81	-28
-125	-85	-39
-115	-78	-44
-90	-60	-33
-50	-33	-28
-4	-4	-26
41	27	-23
82	51	-22
109	70	-21
119	79	-21
114	74	-17
93	59	-15
57	34	-16
16	5	-17
-28	-25	-16
-71	-52	-20
-103	-72	-24
-121	-84	-30
-123	-82	-27
-108	-70	-20
-77	-49	-20
-33	-22	-22
13	8	-25
57	37	-22
93	59	-18
115	75	-17
120	77	-23
107	70	-22
82	52	-16
41	26	-20
-1	-4	-16
-45	-34	-17
-84	-60	-23
-112	-79	-24
-124	-86	-25
-120	-81	-28
-98	-65	-27
-61	-41	-24
-17	-13	-27
30	19	-24
72	45	-21
103	67	-24
119	78	-22
117	76	-20
100	64	-19
68	43	-20
28	15	-22
-16	-16	-21
-59	-44	-20
-95	-68	-22
-119	-84	-24
-125	-86	-24
-115	-79	-24
-88	-59	-24
-48	-31	-24
-2	-2	-24
42	28	-23
81	51	-21
107	70	-21
119	78	-22
114	76	-19
93	61	-19
59	36	-21
17	8	-22
-28	-24	-19
-70	-52	-20
-105	-76	-23
-124	-87	-23
-126	-84	-25
-110	-70	-24
-78	-48	-23
-36	-21	-23
12	10	-23
54	37	-23
90	59	-23
111	74	-23
117	77	-21
106	68	-22
80	49	-22
42	23	-19
-2	-5	-21
-47	-37	-21
-88	-61	-20
-115	-81	-22
-126	-86	-24
-122	-81	-27
-98	-64	-28
-61	-41	-26
-16	-12	-28
29	20	-26
71	47	-24
104	68	-22
119	79	-18
118	79	-20
101	67	-21
70	44	-18
28	17	-16
-15	-15	-15
-56	-43	-16
-93	-66	-22
-114	-82	-19
-121	-85	-23
-111	-78	-27
-85	-58	-25
-47	-33	-30
0	-2	-39
44	27	-36
83	53	-27
109	71	-25
120	79	-19
113	72	-20
91	56	-18
56	31	-17
15	2	-18
-30	-29	-21
-71	-54	-24
-103	-74	-22
-123	-84	-17
-124	-84	-19
-109	-69	-24
-77	-49	-23
-32	-22	-24
12	10	-21
58	38	-26
92	60	-26
114	75	-21
117	77	-22
106	68	-20
80	50	-21
41	25	-23
-2	-5	-23
-45	-34	-21
-86	-61	-22
-113	-80	-24
-126	-87	-21
-122	-84	-30
-100	-65	-27
-63	-40	-24
-19	-9	-26
27	21	-24
67	45	-25
99	65	-21
115	76	-21
115	75	-21
99	63	-19
68	42	-20
30	16	-21
-15	-15	-21
-57	-42	-23
-93	-66	-23
-118	-83	-22
-126	-84	-27
-117	-76	-25
-89	-56	-24
-48	-31	-26
-2	1	-26
44	30	-25
82	55	-21
107	72	-21
118	80	-22
111	75	-19
89	58	-21
56	35	-22
15	6	-21
-30	-25	-21
-70	-52	-21
-105	-76	-20
-123	-86	-20
-125	-85	-22
-107	-70	-21
-75	-48	-21
-31	-19	-21
16	12	-24
59	38	-24
94	59	-20
114	72	-21
119	77	-22
106	68	-16
79	50	-21
42	24	-21
-2	-7	-20
-46	-37	-25
-85	-63	-26
-111	-81	-23
-123	-86	-19
-118	-81	-22
-97	-62	-22
-60	-39	-24
-16	-11	-25
30	17	-23
71	45	-21
101	65	-23
117	76	-25
115	77	-25
98	65	-21
66	45	-15
26	15	-17
-17	-16	-20
-61	-45	-22
-96	-69	-24
-118	-84	-25
-125	-86	-28
-114	-76	-25
-89	-55	-23
-48	-30	-22
-4	0	-21
42	27	-24
82	52	-22
109	68	-23
121	77	-24
114	74	-22
91	58	-19
54	34	-19
11	4	-19
-33	-27	-19
-75	-54	-24
-104	-75	-23
-121	-85	-25
-120	-84	-25
-104	-70	-24
-72	-49	-21
-30	-20	-20
16	11	-25
60	39	-24
96	61	-19
117	75	-21
120	78	-23
107	68	-22
80	49	-21
40	24	-17
-2	-6	-20
-46	-36	-23
-85	-62	-22
-113	-79	-23
-126	-87	-24
-120	-80	-22
-98	-62	-21
-61	-38	-23
-17	-9	-26
28	19	-25
69	45	-25
99	63	-23
115	74	-24
113	75	-24
98	64	-24
67	44	-24
28	16	-19
-17	-14	-19
-59	-43	-23
-95	-68	-23
-119	-83	-24
-124	-87	-28
-113	-78	-28
-85	-58	-27
-46	-32	-25
1	-1	-27
45	26	-24
83	53	-23
107	68	-20
118	77	-17
111	72	-20
90	58	-17
56	34	-16
14	4	-17
-30	-26	-23
-70	-54	-19
-104	-76	-18
-122	-85	-18
-124	-84	-20
-108	-68	-29
-74	-46	-40
-30	-18	-43
17	12	-33
59	40	-27
94	61	-23
113	75	-20
116	77	-20
103	67	-19
77	49	-20
40	23	-21
-3	-6	-18
-47	-36	-19
-87	-62	-21
-115	-80	-21
-126	-87	-23
-120	-80	-24
-97	-62	-26
-60	-36	-23
-15	-7	-23
31	22	-24
72	49	-22
102	67	-22
117	77	-19
115	74	-19
97	62	-24
66	41	-20
25	12	-20
-17	-18	-24
-59	-46	-19
-94	-68	-18
-116	-82	-21
-124	-84	-24
-113	-74	-23
-88	-55	-24
-47	-29	-24
-2	1	-19
42	30	-21
83	55	-20
107	71	-24
118	79	-23
110	74	-19
87	58	-18
52	34	-16
10	4	-17
-34	-27	-22
-76	-56	-23
-106	-76	-26
-123	-86	-27
-122	-84	-27
-106	-69	-22
-72	-46	-19
-30	-17	-24
17	12	-24
62	41	-22
96	62	-21
117	77	-21
120	80	-24
107	71	-26
80	51	-23
41	23	-23
-1	-8	-21
-47	-39	-23
-86	-65	-23
-113	-83	-21
-125	-89	-24
-120	-82	-24
-97	-64	-26
-59	-40	-25
-16	-12	-27
30	18	-27
71	45	-25
101	65	-22
117	78	-17
116	77	-18
102	67	-17
69	43	-20
30	16	-20
-17	-15	-20
-59	-46	-22
-97	-68	-21
-119	-85	-20
-125	-86	-23
-114	-75	-25
-85	-54	-26
-45	-27	-24
1	3	-24
45	32	-24
83	53	-21
107	69	-20
117	76	-20
111	71	-20
87	56	-20
52	31	-21
12	3	-24
-33	-29	-22
-74	-57	-21
-104	-77	-22
-121	-88	-24
-122	-85	-25
-105	-70	-24
-72	-48	-24
-30	-19	-24
18	10	-26
61	39	-24
97	60	-24
116	76	-24
121	77	-23
106	68	-23
80	48	-20
41	22	-18
-4	-9	-18
-47	-40	-19
-87	-64	-17
-114	-82	-18
-126	-87	-23
-120	-80	-23
-98	-63	-24
-60	-38	-23
-15	-9	-27
31	21	-32
71	46	-40
101	66	-36
115	77	-20
111	77	-20
93	66	-20
62	43	-18
22	17	-20
-20	-16	-18
-63	-46	-19
-96	-69	-19
-119	-84	-21
-124	-86	-23
-112	-76	-23
-85	-53	-23
-45	-27	-23
0	2	-25
46	31	-20
85	54	-21
111	70	-19
120	77	-23
111	72	-20
89	58	-15
50	33	-24
8	3	-27
-36	-29	-20
-76	-57	-18
-106	-79	-21
-123	-89	-23
-122	-85	-27
-106	-71	-24
-74	-48	-22
-31	-21	-24
18	10	-25
62	38	-27
97	61	-23
117	76	-23
121	79	-21
107	70	-19
78	49	-22
40	23	-22
-3	-9	-21
-48	-39	-20
-87	-63	-21
-114	-80	-25
-126	-84	-25
-120	-77	-25
-97	-60	-20
-58	-36	-24
-14	-10	-28
33	20	-24
74	46	-23
104	66	-19
117	78	-21
116	78	-22
99	67	-21
67	44	-22
28	15	-21
-16	-17	-21
-59	-46	-23
-97	-70	-24
-119	-84	-25
-126	-85	-25
-114	-75	-24
-86	-53	-19
-46	-26	-19
1	3	-22
44	31	-21
82	53	-23
106	68	-22
116	75	-20
110	71	-22
86	57	-21
52	33	-21
10	5	-20
-36	-27	-20
-78	-55	-18
-108	-77	-21
-125	-86	-25
-125	-85	-26
-105	-69	-30
-71	-46	-30
-28	-19	-28
17	10	-23
60	36	-24
95	57	-23
114	71	-22
118	75	-21
106	68	-19
81	50	-21
41	24	-19
0	-7	-20
-45	-37	-20
-85	-61	-22
-111	-80	-23
-124	-84	-22
-116	-79	-22
-93	-60	-26
-55	-38	-29
-10	-7	-23
35	23	-24
76	49	-24
105	70	-25
119	80	-21
116	79	-17
99	64	-18
67	42	-16
26	14	-13
-19	-18	-17
-61	-46	-19
-97	-69	-19
-120	-83	-25
-125	-86	-25
-115	-77	-25
-88	-56	-30
-48	-32	-41
-3	-1	-35
44	28	-25
82	53	-23
107	70	-20
119	77	-22
111	71	-18
88	55	-17
51	30	-17
9	0	-17
-37	-31	-20
-79	-57	-18
-108	-78	-20
-124	-86	-19
-121	-84	-23
-103	-67	-27
-69	-44	-25
-26	-15	-27
20	17	-26
63	43	-24
97	64	-23
117	77	-17
119	80	-18
107	70	-21
77	51	-23
39	24	-23
-5	-7	-15
-50	-36	-19
-87	-63	-26
-116	-81	-23
-126	-86	-25
-122	-80	-24
-99	-62	-22
-61	-39	-27
-16	-9	-28
33	21	-22
74	47	-22
104	68	-23
118	77	-23
116	77	-20
99	62	-19
67	41	-18
26	12	-16
-18	-19	-24
-61	-47	-25
-98	-72	-24
-119	-85	-25
-124	-88	-25
-112	-77	-30
-84	-56	-27
-43	-28	-25
3	3	-25
46	30	-24
86	53	-25
110	67	-22
120	75	-21
113	71	-17
89	56	-21
54	33	-23
11	4	-18
-34	-27	-20
-75	-55	-20
-105	-76	-21
-122	-86	-27
-123	-84	-27
-106	-68	-24
-74	-45	-26
-30	-17	-25
18	13	-25
61	40	-25
97	61	-22
115	74	-23
118	78	-24
104	68	-18
76	50	-15
36	23	-21
-6	-7	-21
-51	-38	-23
-89	-64	-23
-116	-83	-21
-127	-88	-24
-120	-81	-23
-96	-60	-25
-58	-35	-25
-12	-6	-21
34	23	-22
76	49	-22
104	67	-24
117	77	-20
115	77	-19
97	63	-20
63	41	-19
23	12	-19
-20	-17	-20
-63	-48	-23
-99	-69	-23
-121	-83	-21
-124	-86	-23
-112	-75	-24
-83	-55	-21
-43	-28	-23
2	2	-23
48	30	-23
84	54	-26
109	70	-21
118	77	-15
111	70	-16
89	56	-16
52	32	-18
9	1	-18
-37	-28	-20
-79	-57	-22
-111	-77	-22
-126	-86	-25
-124	-82	-26
-105	-68	-25
-68	-45	-24
-25	-16	-25
22	13	-24
64	41	-24
98	62	-24
117	76	-23
118	78	-21
105	68	-23
77	49	-21
38	21	-21
-7	-9	-22
-51	-40	-21
-88	-65	-24
-115	-83	-26
-124	-87	-22
-119	-80	-24
-95	-60	-27
-58	-34	-26
-14	-5	-27
32	24	-26
72	49	-24
103	67	-25
117	76	-24
115	74	-21
97	60	-21
64	38	-20
24	10	-18
-20	-21	-19
-61	-49	-23
-96	-70	-23
-117	-84	-23
-124	-85	-26
-112	-72	-26
-83	-54	-25
-42	-27	-21
4	2	-20
48	31	-21
86	55	-21
107	71	-21
117	78	-21
109	71	-21
86	56	-25
51	32	-34
9	3	-35
-35	-27	-27
-77	-55	-20
-108	-76	-22
-126	-85	-23
-123	-82	-23
-104	-68	-24
-68	-44	-23
-23	-15	-24
22	15	-23
65	41	-23
97	61	-22
115	72	-21
118	72	-19
104	62	-18
77	44	-16
36	17	-17
-7	-12	-17
-52	-41	-20
-89	-64	-21
-114	-82	-25
-124	-86	-25
-115	-79	-23
-93	-60	-22
-54	-34	-22
-12	-5	-21
35	26	-21
76	51	-25
106	68	-20
120	77	-19
116	75	-18
97	61	-20
63	38	-21
21	12	-22
-23	-19	-24
-65	-48	-21
-99	-69	-21
-120	-84	-23
-124	-85	-24
-112	-76	-23
-84	-55	-23
-43	-28	-23
4	3	-22
50	33	-19
86	57	-23
112	72	-26
119	79	-20
111	71	-22
86	54	-19
50	29	-20
8	0	-25
-37	-31	-24
-77	-58	-24
-108	-78	-19
-123	-86	-22
-121	-84	-24
-102	-69	-24
-67	-44	-24
-24	-16	-24
21	15	-25
64	41	-23
97	62	-25
115	75	-23
117	76	-24
103	67	-20
75	47	-21
35	20	-21
-12	-11	-18
-54	-41	-20
-93	-66	-20
-117	-82	-24
-126	-86	-23
-119	-78	-26
-94	-61	-27
-56	-36	-22
-11	-8	-24
34	22	-24
75	47	-23
104	66	-24
117	77	-25
114	74	-24
95	61	-21
64	38	-23
23	11	-21
-22	-21	-19
-64	-47	-18
-100	-68	-18
-121	-83	-22
-126	-85	-24
-113	-74	-21
-83	-52	-21
-40	-26	-22
6	5	-23
49	34	-24
86	57	-23
107	72	-20
117	77	-23
107	72	-21
86	56	-21
52	33	-23
8	4	-22
-35	-28	-21
-78	-54	-22
-109	-74	-25
-125	-82	-26
-123	-79	-25
-103	-65	-23
-67	-42	-22
-23	-16	-24
23	14	-23
67	39	-24
99	59	-26
117	72	-25
118	74	-21
103	65	-20
74	44	-23
35	18	-22
-8	-13	-19
-52	-44	-19
-88	-68	-23
-115	-84	-25
-125	-87	-27
-117	-79	-27
-93	-58	-23
-54	-33	-24
-10	-5	-26
36	23	-26
77	47	-22
105	65	-24
119	75	-23
115	74	-17
96	61	-19
61	38	-20
20	10	-19
-25	-23	-20
-67	-51	-18
-101	-71	-15
-120	-82	-21
-123	-82	-25
-112	-70	-23
-83	-50	-25
-42	-25	-26
3	3	-23
48	32	-22
86	55	-21
111	72	-23
117	78	-23
107	72	-19
83	56	-18
47	32	-19
5	2	-20
-39	-30	-19
-79	-56	-15
-108	-78	-19
-124	-86	-23
-123	-84	-25
-104	-68	-27
-68	-44	-26
-25	-16	-24
22	15	-32
65	41	-39
99	63	-37
117	74	-27
118	75	-21
103	66	-19
74	47	-16
35	22	-16
-10	-9	-16
-53	-38	-16
-93	-64	-20
-117	-82	-23
-125	-86	-24
-118	-80	-21
-92	-59	-20
-53	-34	-23
-7	-4	-23
38	25	-24
79	48	-20
107	67	-18
119	76	-20
116	75	-17
97	62	-18
65	40	-17
24	11	-18
-20	-21	-21
-62	-50	-22
-98	-74	-23
-119	-86	-24
-125	-86	-23
-111	-74	-21
-83	-51	-21
-41	-25	-25
4	5	-30
49	33	-27
86	57	-22
109	71	-21
118	76	-21
109	70	-21
86	54	-22
49	31	-22
7	1	-19
-37	-29	-18
-78	-56	-23
-107	-77	-24
-123	-86	-24
-121	-84	-26
-102	-66	-24
-67	-44	-22
-23	-14	-23
24	17	-27
66	43	-26
98	63	-21
116	75	-23
117	76	-24
102	66	-19
74	47	-20
34	21	-21
-10	-11	-23
-52	-40	-25
-89	-65	-21
-116	-81	-21
-126	-85	-19
-118	-79	-26
-94	-60	-25
-56	-36	-24
-12	-6	-24
36	24	-23
77	51	-23
106	71	-23
120	81	-21
116	80	-19
96	64	-22
61	40	-21
21	9	-19
-24	-23	-19
-65	-49	-23
-98	-71	-25
-118	-84	-25
-123	-84	-23
-111	-71	-22
-82	-51	-25
-41	-25	-25
4	4	-24
49	31	-23
87	55	-23
111	70	-23
119	76	-24
111	68	-23
85	51	-23
49	26	-19
5	-5	-20
-39	-34	-22
-79	-60	-23
-110	-80	-23
-124	-87	-24
-123	-84	-27
-103	-68	-30
-68	-46	-28
-25	-15	-24
24	15	-24
66	45	-23
99	67	-22
116	79	-21
118	80	-21
103	68	-23
72	48	-24
34	19	-19
-10	-12	-17
-53	-43	-22
-91	-67	-23
-116	-82	-27
-126	-86	-28
-118	-78	-24
-93	-59	-24
-54	-35	-25
-10	-6	-23
36	22	-24
77	47	-24
105	67	-24
119	77	-19
115	76	-18
96	62	-16
63	40	-20
20	9	-25
-24	-21	-19
-66	-50	-19
-101	-72	-16
-119	-85	-18
-123	-84	-25
-109	-72	-21
-81	-51	-23
-40	-24	-26
5	5	-27
50	33	-27
86	57	-24
111	72	-25
118	78	-23
109	71	-23
85	54	-22
48	30	-22
7	0	-24
-38	-30	-19
-80	-58	-19
-109	-76	-21
-125	-85	-24
-122	-81	-27
-104	-66	-27
-67	-43	-25
-23	-14	-23
23	16	-18
65	43	-18
97	64	-19
115	76	-17
117	77	-20
104	65	-16
72	45	-19
33	17	-24
-12	-12	-35
-55	-41	-35
-93	-65	-27
-118	-82	-24
-126	-87	-23
-117	-79	-24
-92	-60	-21
-52	-34	-21
-7	-4	-22
40	25	-22
79	49	-20
107	67	-20
119	76	-19
113	72	-17
94	60	-19
59	38	-18
20	8	-17
-25	-21	-16
-65	-51	-19
-99	-72	-21
-121	-86	-23
-124	-86	-24
-111	-74	-24
-82	-53	-25
-40	-26	-24
6	3	-25
51	31	-24
89	56	-25
113	71	-22
119	79	-21
110	71	-20
86	55	-20
48	29	-20
3	0	-21
-40	-30	-24
-81	-56	-26
-110	-76	-28
-123	-84	-26
-120	-80	-25
-100	-64	-25
-67	-41	-24
-22	-11	-24
23	18	-26
65	46	-25
99	67	-21
117	80	-24
118	79	-23
101	66	-23
70	45	-20
31	15	-17
-13	-14	-15
-54	-43	-13
-92	-66	-22
-116	-82	-25
-126	-86	-24
-117	-78	-25
-93	-60	-24
-54	-35	-25
-8	-5	-24
38	24	-25
78	51	-25
105	67	-17
118	77	-14
114	71	-17
94	59	-22
60	37	-17
20	9	-21
-23	-21	-23
-65	-50	-19
-99	-71	-21
-119	-86	-20
-122	-86	-26
-108	-74	-26
-78	-53	-25
-36	-25	-24
10	4	-22
54	33	-20
90	56	-22
113	72	-21
121	77	-16
110	70	-22
86	53	-26
49	27	-24
6	-2	-20
-39	-34	-20
-80	-59	-21
-109	-78	-24
-125	-86	-26
-121	-82	-21
-102	-66	-24
-65	-42	-24
-23	-13	-27
24	19	-25
66	45	-25
98	67	-25
116	80	-22
116	79	-24
101	67	-23
71	47	-22
32	19	-21
-12	-11	-21
-55	-42	-23
-93	-65	-25
-117	-83	-25
-125	-86	-24
-117	-78	-26
-92	-57	-25
-52	-31	-26
-6	-2	-24
40	27	-23
80	51	-24
107	68	-23
118	78	-24
114	74	-22
94	59	-22
58	35	-19
17	7	-19
-28	-25	-19
-68	-53	-19
-103	-72	-21
-123	-86	-22
-126	-84	-22
-112	-74	-24
-82	-52	-24
-40	-26	-23
7	4	-24
51	33	-25
89	57	-24
111	72	-22
119	77	-17
107	70	-17
83	53	-18
44	27	-21
2	-4	-19
-41	-34	-19
-84	-60	-25
-111	-81	-22
-126	-88	-24
-123	-83	-24
-102	-67	-25
-68	-43	-26
-22	-14	-26
26	17	-24
68	43	-19
102	65	-20
118	78	-20
119	77	-19
102	67	-12
72	46	-13
31	19	-22
-12	-12	-28
-54	-41	-38
-91	-65	-42
-115	-82	-33
-123	-85	-27
-115	-78	-17
-90	-58	-16
-51	-33	-24
-5	-4	-22
39	26	-22
80	50	-23
107	68	-21
119	79	-16
114	77	-20
96	62	-20
62	39	-15
21	10	-20
-23	-22	-20
-65	-49	-16
-100	-70	-22
-121	-82	-22
-123	-82	-28
-108	-70	-25
-79	-50	-21
-36	-23	-25
10	7	-26
54	34	-25
90	58	-24
113	72	-24
119	77	-19
110	70	-17
85	53	-16
48	30	-25
5	-1	-24
-41	-32	-25
-82	-58	-26
-110	-79	-23
-126	-87	-26
-121	-84	-24
-101	-68	-27
-64	-43	-26
-22	-15	-22
26	16	-22
67	41	-22
99	63	-21
115	75	-18
115	76	-21
101	65	-21
70	43	-19
32	16	-18
-14	-15	-17
-56	-44	-18
-94	-69	-23
-119	-83	-27
-126	-86	-25
-118	-78	-27
-91	-57	-23
-50	-32	-24
-4	-2	-28
41	28	-23
81	51	-25
107	69	-23
118	77	-23
114	74	-23
91	60	-17
58	37	-16
17	9	-18
-29	-24	-19
-69	-51	-22
-103	-74	-23
-121	-84	-23
-124	-84	-25
-108	-72	-26
-78	-50	-26
-39	-25	-25
7	5	-25
51	33	-23
89	57	-18
111	72	-21
119	77	-21
107	70	-20
82	52	-21
44	27	-21
0	-4	-21
-44	-35	-21
-85	-61	-21
-112	-81	-21
-124	-88	-25
-121	-83	-26
-100	-65	-23
-65	-42	-24
-20	-13	-24
26	20	-26
68	45	-25
102	67	-26
118	79	-22
117	80	-17
101	67	-21
70	46	-19
30	18	-20
-14	-14	-21
-55	-43	-19
-92	-68	-23
-116	-83	-24
-124	-86	-25
-115	-78	-30
-90	-58	-26
-50	-32	-26
-5	-2	-24
41	27	-23
81	51	-21
107	71	-23
120	78	-21
113	75	-19
94	59	-19
60	37	-18
20	9	-21
-25	-21	-21
-67	-48	-22
-101	-69	-22
-121	-83	-26
-124	-84	-28
-109	-72	-25
-79	-52	-23
-36	-24	-21
9	7	-21
52	35	-23
89	58	-23
111	71	-24
116	77	-26
106	69	-22
81	51	-21
44	28	-18
2	-2	-16
-41	-32	-24
-81	-59	-22
-110	-78	-24
-124	-87	-29
-120	-83	-27
-100	-67	-30
-62	-43	-26
-18	-13	-24
28	16	-23
69	41	-21
101	62	-18
118	72	-20
117	76	-20
101	64	-21
69	45	-20
30	18	-20
-14	-13	-20
-57	-43	-21
-93	-67	-21
-118	-82	-24
-125	-86	-25
-115	-76	-25
-89	-56	-25
-50	-30	-27
-4	0	-31
41	29	-29
81	55	-22
107	70	-19
117	79	-19
112	74	-19
90	58	-20
57	35	-21
15	6	-20
-28	-24	-23
-68	-52	-25
-103	-70	-30
-121	-82	-23
-125	-83	-18
-110	-70	-19
-80	-50	-19
-39	-23	-22
9	6	-21
53	35	-19
90	58	-16
112	72	-15
119	77	-16
109	68	-14
83	51	-16
44	25	-18
0	-6	-19
-44	-37	-26
-85	-62	-35
-111	-80	-38
-125	-87	-33
-120	-82	-30
-99	-65	-25
-63	-42	-25
-20	-11	-27
27	19	-24
69	47	-21
102	65	-22
118	77	-23
117	77	-22
100	63	-20
69	42	-21
29	15	-22
-14	-14	-22
-56	-45	-19
-92	-67	-21
-116	-82	-24
-124	-85	-20
-114	-76	-20
-88	-57	-25
-47	-31	-25
-2	-3	-25
44	26	-26
83	50	-21
107	68	-19
118	79	-19
111	75	-18
92	62	-19
59	39	-20
19	9	-20
-24	-21	-20
-68	-51	-18
-102	-72	-19
-123	-85	-23
-126	-83	-24
-111	-69	-23
-79	-48	-24
-34	-22	-24
12	8	-25
56	36	-27
90	58	-23
111	72	-18
116	77	-24
107	70	-17
83	52	-16
46	26	-22
4	-3	-18
-41	-35	-21
-83	-62	-24
-113	-80	-25
-126	-87	-28
-122	-82	-30
-100	-64	-25
-62	-41	-26
-18	-11	-27
29	17	-27
69	43	-25
99	63	-21
115	75	-22
115	75	-19
99	65	-16
68	44	-19
30	17	-18
-14	-13	-19
-56	-43	-21
-94	-68	-19
-118	-84	-19
-126	-86	-25
-118	-77	-23
-91	-57	-23
-50	-31	-25
-3	-1	-24
42	28	-25
83	51	-22
109	67	-23
119	76	-21
111	71	-23
90	59	-25
57	35	-20
15	7	-20
-28	-23	-23
-68	-52	-24
-102	-74	-23
-120	-86	-24
-125	-85	-27
-109	-72	-26
-79	-50	-26
-35	-22	-23
12	8	-24
55	37	-24
91	60	-22
113	74	-22
118	77	-21
106	70	-21
80	51	-20
42	25	-19
-1	-5	-16
-46	-36	-17
-86	-61	-23
-111	-79	-25
-125	-85	-20
-119	-78	-27
-98	-62	-26
-61	-37	-20
-17	-11	-20
29	19	-25
72	45	-24
104	63	-21
119	75	-22
117	72	-20
99	63	-21
69	41	-20
28	13	-19
-15	-18	-19
-58	-47	-17
-95	-70	-20
-118	-85	-23
-126	-87	-23
-115	-78	-25
-89	-58	-24
-49	-32	-23
-3	-2	-25
42	27	-25
80	51	-24
106	68	-22
117	77	-20
111	71	-19
90	58	-21
55	35	-24
14	7	-20
-31	-24	-21
-71	-51	-20
-103	-70	-23
-121	-83	-26
-123	-81	-27
-107	-69	-28
-76	-48	-24
-33	-20	-25
14	10	-25
59	39	-23
94	59	-22
115	76	-24
120	78	-24
107	71	-23
82	53	-20
45	28	-19
3	-2	-23
-41	-33	-22
-82	-60	-21
-111	-80	-21
-123	-87	-25
-120	-81	-28
-98	-64	-28
-61	-38	-28
-17	-9	-23
29	21	-24
69	45	-25
100	64	-25
115	74	-23
114	74	-22
98	62	-19
67	41	-16
28	15	-19
-17	-16	-19
-60	-45	-23
-97	-68	-25
-120	-84	-23
-126	-86	-26
-117	-78	-26
-89	-56	-27
-50	-30	-26
-3	-1	-24
42	29	-26
82	53	-24
107	70	-24
116	77	-20
111	72	-17
89	58	-20
54	34	-20
12	7	-20
-30	-26	-19
-70	-52	-14
-103	-74	-18
-120	-84	-26
-122	-82	-26
-106	-69	-26
-76	-48	-26
-34	-23	-23
11	7	-24
54	33	-25
92	56	-19
114	71	-21
121	77	-24
110	71	-18
84	53	-19
44	28	-18
1	-4	-18
-45	-36	-22
-84	-62	-21
-112	-82	-20
-125	-86	-19
-120	-81	-24
-99	-65	-26
-62	-40	-22
-17	-13	-24
30	18	-23
74	43	-22
105	65	-24
121	77	-24
119	77	-22
100	65	-20
68	41	-21
27	15	-21
-17	-17	-21
-61	-45	-22
-99	-67	-23
-121	-82	-22
-127	-84	-24
-116	-76	-25
-89	-55	-24
-48	-31	-27
-2	0	-26
42	28	-25
81	53	-25
107	71	-25
117	79	-24
111	76	-19
90	60	-16
56	36	-21
15	7	-20
-31	-25	-16
-71	-52	-17
-104	-75	-18
-123	-85	-24
-123	-84	-30
-107	-69	-30
-74	-47	-26
-32	-21	-25
15	10	-22
59	35	-20
94	57	-22
115	71	-19
120	76	-17
107	69	-15
82	52	-15
42	27	-16
0	-3	-23
-44	-33	-35
-84	-60	-32
-112	-78	-27
-123	-85	-22
-119	-80	-22
-97	-62	-24
-60	-39	-22
-15	-11	-22
31	20	-25
72	44	-25
102	65	-17
117	75	-18
115	76	-23
98	64	-20
67	43	-19
29	15	-19
-16	-16	-25
-58	-45	-23
-96	-69	-23
-120	-85	-20
-128	-89	-21
-116	-79	-23
-88	-58	-23
-47	-33	-30
-1	-1	-27
44	26	-28
83	53	-25
107	70	-24
117	77	-22
110	72	-20
87	57	-21
52	35	-20
10	5	-21
-33	-26	-19
-75	-52	-22
-106	-72	-24
-122	-84	-26
-124	-83	-25
-107	-68	-24
-76	-47	-30
-33	-20	-26
14	10	-24
57	38	-24
93	60	-22
113	74	-21
119	78	-20
107	68	-18
82	50	-16
43	23	-18
-1	-8	-18
-45	-38	-18
-86	-65	-23
-113	-82	-26
-126	-88	-23
-120	-81	-20
-97	-62	-23
-60	-38	-23
-15	-8	-26
30	19	-30
71	46	-25
101	66	-24
116	76	-20
114	76	-20
97	63	-20
66	43	-20
25	14	-21
-18	-18	-22
-61	-47	-22
-97	-70	-23
-118	-85	-23
-123	-86	-23
-113	-74	-24
-86	-53	-26
-45	-26	-26
0	3	-24
46	29	-24
85	53	-21
110	67	-22
120	76	-21
112	72	-20
90	57	-19
54	34	-20
13	5	-20
-31	-26	-20
-70	-55	-23
-104	-76	-21
-120	-85	-21
-122	-83	-16
-106	-68	-22
-74	-46	-32
-31	-17	-25
16	12	-25
59	39	-24
93	61	-23
114	74	-22
117	77	-19
106	68	-21
80	51	-19
42	27	-22
0	-3	-21
-44	-33	-18
-85	-61	-20
-113	-79	-19
-125	-87	-22
-121	-81	-25
-98	-61	-25
-60	-36	-25
-15	-5	-27
32	24	-25
72	48	-23
103	65	-22
117	75	-22
115	76	-22
96	63	-22
64	41	-22
23	13	-17
-21	-19	-18
-61	-50	-23
-98	-75	-22
-119	-88	-24
-125	-90	-25
-114	-79	-30
-88	-58	-28
-47	-31	-21
-2	-2	-22
43	28	-23
82	51	-24
107	68	-22
117	77	-21
111	71	-21
87	56	-21
52	32	-21
10	3	-18
-33	-28	-21
-75	-55	-21
-106	-76	-20
-122	-86	-24
-122	-83	-25
-105	-69	-23
-72	-47	-22
-30	-19	-21
16	11	-23
59	39	-23
95	61	-20
116	74	-19
121	78	-20
107	68	-19
82	51	-19
43	25	-22
-1	-5	-20
-46	-36	-20
-85	-61	-20
-112	-79	-23
-124	-85	-28
-118	-79	-29
-97	-61	-27
-58	-36	-25
-14	-6	-25
33	22	-26
74	49	-25
104	68	-23
118	79	-23
115	77	-22
97	65	-20
66	43	-18
25	15	-21
-19	-17	-20
-62	-48	-23
-98	-70	-25
-121	-85	-21
-126	-86	-24
-116	-74	-24
-87	-52	-22
-45	-26	-25
1	2	-27
46	30	-22
86	53	-24
111	68	-23
120	77	-22
114	72	-26
92	58	-24
56	35	-21
14	5	-20
-32	-27	-26
-75	-56	-22
-108	-77	-21
-126	-87	-25
-126	-85	-22
-108	-70	-25
-75	-47	-22
-31	-18	-24
16	12	-22
59	39	-21
93	61	-20
113	74	-19
117	76	-23
105	69	-21
77	51	-19
39	24	-18
-4	-5	-20
-48	-36	-18
-86	-63	-19
-113	-81	-22
-124	-88	-24
-119	-82	-25
-96	-65	-25
-58	-40	-25
-12	-11	-24
33	20	-26
75	47	-27
105	67	-25
118	77	-24
117	76	-21
97	64	-18
65	41	-19
24	13	-15
-20	-18	-19
-61	-48	-23
-97	-70	-23
-119	-85	-27
-125	-86	-27
-113	-75	-27
-85	-53	-28
-44	-26	-27
3	3	-24
46	32	-18
85	55	-20
110	74	-21
119	80	-20
111	76	-21
88	59	-18
53	33	-17
11	3	-21
-34	-29	-25
-76	-57	-24
-107	-77	-19
-124	-87	-21
-124	-84	-24
-107	-70	-22
-76	-48	-21
-32	-20	-19
13	10	-20
58	39	-23
94	61	-22
114	76	-20
119	77	-25
106	67	-37
79	48	-41
38	20	-30
-5	-9	-21
-50	-40	-20
-89	-64	-23
-115	-82	-22
-125	-86	-19
-117	-79	-24
-94	-61	-24
-56	-34	-23
-12	-6	-24
34	23	-20
75	48	-21
104	65	-22
119	76	-18
115	72	-16
97	61	-22
63	39	-20
23	11	-19
-21	-20	-19
-63	-49	-17
-98	-70	-21
-119	-85	-19
-125	-86	-23
-113	-75	-23
-84	-54	-25
-43	-28	-26
3	2	-27
48	31	-28
86	55	-24
110	71	-24
119	78	-21
111	72	-20
88	57	-20
52	32	-21
11	3	-21
-33	-28	-21
-74	-54	-23
-106	-75	-24
-122	-83	-25
-123	-82	-23
-104	-68	-22
-70	-46	-24
-28	-20	-25
18	11	-24
60	38	-23
95	61	-23
114	74	-22
117	77	-22
105	68	-20
78	49	-16
40	24	-17
-3	-6	-20
-47	-36	-22
-87	-60	-24
-114	-79	-22
-125	-85	-22
-120	-79	-26
-95	-61	-25
-57	-36	-25
-12	-7	-29
32	23	-31
74	47	-25
104	66	-19
116	76	-20
115	75	-21
97	62	-22
65	41	-20
23	12	-13
-22	-20	-13
-64	-48	-18
-100	-72	-24
-121	-84	-25
-126	-86	-23
-114	-76	-26
-86	-55	-23
-44	-29	-21
4	3	-24
48	31	-22
86	57	-21
111	75	-25
121	80	-25
111	74	-23
87	55	-21
52	32	-19
10	2	-25
-35	-28	-21
-75	-53	-19
-105	-75	-21
-121	-83	-21
-121	-82	-29
-105	-68	-27
-71	-47	-23
-28	-19	-20
18	12	-23
62	41	-25
94	63	-23
113	77	-23
116	79	-21
104	68	-24
76	49	-24
37	22	-22
-6	-11	-20
-50	-39	-24
-88	-64	-23
-115	-81	-24
-124	-86	-26
-117	-79	-26
-95	-60	-28
-57	-35	-25
-12	-5	-24
33	25	-25
75	51	-25
104	70	-24
119	79	-20
116	76	-18
97	61	-20
62	39	-22
21	9	-19
-24	-22	-19
-65	-50	-19
-99	-74	-23
-121	-86	-21
-126	-87	-23
-113	-77	-23
-85	-55	-22
-43	-29	-25
4	3	-23
49	31	-23
86	55	-21
110	70	-17
118	77	-20
110	71	-21
86	55	-19
52	32	-20
11	3	-22
-34	-28	-21
-76	-55	-19
-107	-77	-20
-123	-86	-25
-123	-85	-26
-104	-69	-26
-69	-45	-28
-27	-16	-25
20	12	-28
62	37	-25
96	59	-23
115	72	-24
119	77	-22
107	68	-22
80	50	-19
42	24	-19
-3	-9	-15
-48	-40	-13
-88	-66	-18
-113	-83	-19
-125	-88	-23
-117	-79	-20
-94	-59	-19
-55	-35	-35
-10	-6	-42
36	22	-41
78	47	-32
105	66	-21
118	76	-21
116	75	-17
97	62	-18
65	40	-18
23	10	-21
-21	-20	-19
-62	-47	-18
-98	-69	-19
-120	-83	-21
-125	-85	-22
-112	-72	-23
-84	-53	-25
-41	-26	-25
4	5	-25
48	33	-25
85	58	-25
107	74	-18
116	78	-21
107	71	-22
85	54	-20
49	29	-20
7	-1	-17
-37	-30	-16
-78	-57	-21
-107	-77	-25
-124	-86	-24
-121	-84	-27
-105	-69	-23
-70	-47	-27
-28	-18	-30
18	12	-28
63	41	-25
97	63	-21
117	76	-21
118	79	-20
105	68	-21
76	48	-21
35	21	-21
-8	-11	-23
-52	-41	-23
-91	-67	-20
-117	-85	-22
-126	-89	-25
-119	-80	-29
-95	-60	-26
-57	-35	-24
-11	-4	-25
35	24	-24
77	51	-24
106	68	-22
118	78	-18
114	75	-19
96	61	-20
62	39	-19
22	10	-19
-24	-21	-20
-65	-50	-22
-101	-71	-20
-121	-84	-21
-125	-86	-19
-112	-75	-22
-82	-54	-22
-40	-26	-23
5	4	-24
49	35	-22
86	60	-26
110	75	-22
117	80	-19
107	72	-19
86	56	-25
50	32	-24
8	3	-20
-35	-27	-19
-76	-54	-18
-107	-74	-27
-121	-85	-24
-122	-83	-28
-102	-68	-30
-69	-45	-24
-26	-15	-22
21	15	-23
62	41	-24
95	62	-23
113	72	-22
114	76	-21
100	65	-21
72	48	-18
35	23	-20
-8	-6	-19
-51	-38	-17
-90	-64	-20
-116	-83	-21
-126	-89	-22
-119	-81	-24
-95	-63	-23
-56	-36	-25
-10	-5	-26
36	24	-24
78	50	-24
107	67	-20
120	77	-20
117	75	-21
98	61	-24
64	39	-23
21	9	-18
-23	-22	-17
-64	-52	-21
-99	-74	-25
-118	-86	-24
-122	-87	-25
-108	-72	-25
-80	-54	-30
-40	-27	-28
6	2	-28
50	31	-28
88	55	-27
111	70	-24
120	79	-22
110	72	-25
86	56	-21
49	31	-19
7	1	-17
-38	-31	-17
-77	-57	-19
-105	-78	-23
-121	-86	-27
-121	-81	-26
-105	-66	-25
-70	-43	-24
-28	-15	-25
19	14	-24
63	41	-30
97	62	-26
116	76	-25
117	77	-23
102	67	-19
74	47	-21
33	19	-19
-10	-12	-15
-53	-43	-17
-91	-67	-28
-115	-82	-25
-124	-86	-23
-117	-78	-23
-91	-60	-19
-53	-35	-20
-10	-6	-23
36	23	-24
75	50	-21
104	68	-23
116	78	-20
113	76	-18
96	61	-20
62	37	-21
21	8	-25
-25	-21	-25
-66	-51	-22
-101	-71	-18
-120	-83	-21
-123	-83	-23
-111	-71	-25
-81	-51	-24
-40	-25	-26
7	6	-24
52	35	-20
90	58	-25
113	72	-20
120	77	-21
111	70	-21
86	53	-19
50	29	-19
7	1	-17
-36	-29	-18
-78	-55	-20
-108	-76	-23
-124	-85	-22
-122	-81	-25
-104	-66	-24
-68	-42	-23
-23	-13	-27
22	17	-24
64	43	-22
96	63	-22
113	76	-25
115	77	-22
102	67	-21
75	47	-19
36	22	-15
-7	-10	-17
-50	-41	-20
-89	-65	-24
-115	-84	-24
-125	-87	-23
-115	-79	-26
-91	-58	-20
-53	-32	-22
-10	-3	-26
35	26	-23
76	49	-22
103	66	-20
116	74	-16
113	71	-18
94	59	-19
59	37	-19
17	10	-19
-26	-22	-16
-68	-51	-23
-102	-74	-36
-123	-87	-43
-126	-86	-32
-113	-75	-28
-84	-52	-27
-40	-24	-26
6	6	-28
52	33	-23
90	55	-23
113	70	-22
119	76	-22
110	70	-22
85	53	-21
49	29	-20
7	-2	-19
-38	-33	-20
-77	-59	-21
-107	-79	-24
-123	-85	-22
-121	-80	-22
-101	-65	-21
-66	-40	-23
-24	-12	-26
24	18	-24
66	43	-24
99	65	-23
117	77	-21
119	77	-19
105	66	-20
75	46	-18
36	19	-18
-8	-12	-20
-52	-41	-19
-91	-64	-23
-116	-81	-22
-125	-86	-26
-119	-78	-28
-94	-59	-26
-56	-33	-22
-10	-3	-20
36	27	-24
78	51	-25
105	70	-21
117	79	-22
113	76	-21
91	62	-21
58	39	-22
18	10	-19
-27	-24	-20
-67	-52	-21
-102	-74	-23
-123	-85	-23
-126	-85	-22
-113	-72	-26
-83	-51	-24
-40	-25	-23
6	4	-26
51	31	-23
88	55	-19
110	72	-20
118	77	-25
109	72	-25
85	53	-19
49	29	-19
6	-3	-16
-37	-34	-19
-79	-59	-22
-108	-79	-22
-122	-86	-24
-120	-83	-23
-99	-66	-26
-63	-43	-28
-20	-15	-26
26	15	-25
68	40	-23
101	61	-24
117	71	-21
118	74	-21
103	64	-19
75	44	-18
36	20	-18
-7	-11	-19
-51	-41	-19
-89	-66	-22
-115	-85	-23
-124	-88	-21
-115	-82	-25
-91	-61	-26
-50	-35	-25
-5	-4	-26
40	27	-23
80	51	-25
106	70	-23
118	80	-24
111	77	-21
93	62	-17
59	39	-22
18	10	-20
-26	-23	-19
-69	-51	-19
-102	-74	-21
-123	-86	-24
-125	-85	-23
-111	-72	-29
-80	-51	-25
-37	-24	-23
9	7	-25
52	34	-24
89	57	-22
111	74	-23
117	79	-21
107	72	-21
84	55	-21
46	30	-21
3	-1	-20
-42	-32	-21
-81	-59	-23
-110	-79	-23
-125	-87	-26
-122	-82	-27
-103	-65	-29
-68	-41	-26
-27	-13	-24
21	17	-24
63	43	-23
97	63	-22
115	75	-21
116	76	-23
101	65	-20
69	44	-18
30	17	-18
-14	-14	-16
-56	-42	-20
-94	-66	-21
-118	-80	-25
-126	-84	-24
-119	-75	-25
-93	-56	-24
-53	-32	-21
-7	-2	-23
40	26	-22
81	51	-23
107	70	-21
120	78	-22
117	75	-22
94	58	-20
61	35	-20
18	5	-20
-26	-25	-16
-66	-51	-17
-100	-72	-18
-118	-82	-20
-121	-82	-22
-106	-69	-23
-76	-48	-24
-35	-22	-26
10	8	-30
52	35	-27
90	59	-21
111	74	-21
118	79	-22
110	71	-19
85	54	-18
49	29	-20
6	-1	-16
-38	-32	-17
-79	-59	-19
-109	-78	-20
-125	-86	-19
-122	-82	-22
-103	-66	-26
-68	-42	-28
-23	-14	-39
24	16	-42
67	43	-29
100	64	-21
117	76	-25
118	77	-21
102	66	-16
72	47	-17
33	19	-18
-12	-11	-19
-55	-41	-16
-93	-67	-22
-118	-84	-30
-126	-88	-24
-116	-78	-25
-90	-58	-25
-50	-31	-25
-5	-1	-30
40	27	-28
79	51	-25
106	67	-22
119	76	-21
115	72	-21
96	59	-23
59	37	-23
17	8	-16
-28	-23	-14
-72	-53	-18
-105	-76	-22
-123	-86	-24
-125	-86	-27
-109	-71	-27
-78	-50	-26
-35	-22	-27
12	6	-27
56	34	-26
93	57	-23
115	71	-21
120	77	-21
109	69	-21
84	51	-22
46	26	-23
4	-4	-20
-42	-34	-20
-80	-60	-20
-110	-80	-22
-124	-87	-25
-121	-82	-22
-101	-65	-20
-66	-43	-24
-22	-13	-21
26	15	-24
68	43	-26
100	64	-19
118	77	-20
117	78	-18
101	65	-19
70	45	-19
30	16	-22
-14	-15	-20
-58	-45	-18
-94	-68	-20
-117	-84	-23
-125	-88	-23
-115	-77	-21
-90	-58	-27
-51	-31	-26
-5	-2	-25
39	28	-25
81	53	-21
107	70	-24
118	79	-23
113	74	-22
92	60	-19
59	38	-18
17	8	-18
-28	-22	-21
-69	-51	-22
-103	-72	-20
-122	-85	-21
-126	-84	-23
-110	-70	-25
-80	-50	-23
-37	-23	-23
11	7	-23
52	35	-21
89	57	-24
110	72	-27
115	79	-21
106	72	-21
82	55	-24
46	30	-24
4	-1	-23
-40	-32	-23
-82	-60	-21
-109	-78	-23
-124	-86	-29
-120	-79	-24
-99	-63	-27
-63	-39	-28
-20	-11	-27
26	17	-27
67	42	-25
99	62	-25
116	74	-22
118	75	-24
103	65	-21
74	45	-20
33	18	-22
-12	-13	-15
-55	-43	-18
-92	-67	-23
-116	-82	-22
-124	-85	-23
-115	-76	-24
-89	-57	-25
-50	-31	-25
-4	-3	-23
42	27	-22
82	50	-21
107	68	-19
119	77	-22
111	72	-22
90	57	-17
54	34	-16
12	6	-20
-32	-25	-21
-74	-53	-21
-105	-74	-21
-125	-86	-23
-126	-85	-27
-111	-70	-26
-80	-48	-25
-36	-19	-24
11	10	-25
56	38	-25
91	59	-18
114	75	-21
120	80	-22
110	72	-19
85	55	-20
46	27	-16
2	-4	-19
-42	-36	-19
-82	-62	-26
-111	-81	-28
-124	-88	-20
-121	-82	-16
-100	-66	-21
-64	-41	-22
-21	-14	-18
26	16	-18
68	42	-23
101	62	-20
118	76	-19
118	76	-21
102	66	-21
70	45	-27
30	17	-33
-14	-13	-37
-58	-44	-31
-95	-67	-25
-118	-83	-23
-125	-86	-21
-116	-78	-24
-90	-58	-23
-50	-31	-24
-4	-2	-25
41	27	-21
82	52	-25
107	69	-22
119	77	-16
112	72	-22
89	59	-18
56	35	-19
14	6	-18
-30	-26	-19
-70	-54	-23
-104	-76	-20
-122	-87	-26
-124	-86	-26
-108	-72	-27
-77	-48	-25
-34	-21	-27
13	9	-28
56	37	-26
91	57	-23
113	72	-21
118	76	-26
107	70	-27
84	53	-20
46	28	-17
4	-2	-20
-42	-33	-22
-84	-59	-22
-112	-79	-21
-126	-84	-23
-121	-78	-25
-100	-62	-23
-63	-38	-22
-19	-12	-23
27	18	-23
67	43	-23
98	63	-23
115	76	-21
114	76	-21
99	66	-21
69	45	-19
30	17	-17
-14	-15	-16
-58	-44	-18
-95	-67	-21
-120	-84	-24
-129	-85	-25
-118	-76	-26
-92	-55	-23
-51	-29	-22
-4	1	-25
42	30	-26
82	53	-24
107	70	-21
117	77	-19
110	71	-18
90	57	-18
54	33	-19
15	5	-22
-30	-26	-19
-70	-53	-19
-102	-77	-20
-122	-87	-21
-123	-86	-23
-107	-74	-25
-74	-50	-28
-30	-21	-28
17	10	-25
61	39	-21
97	62	-19
117	76	-18
120	79	-19
107	70	-23
83	51	-22
44	27	-20
2	-4	-22
-41	-34	-19
-81	-60	-18
-109	-80	-25
-123	-86	-28
-119	-81	-26
-97	-62	-25
-63	-37	-25
-19	-11	-25
28	19	-26
68	43	-25
100	64	-22
116	75	-21
116	76	-21
101	65	-22
69	43	-22
29	17	-20
-16	-16	-22
-60	-45	-19
-96	-68	-21
-118	-83	-24
-125	-86	-22
-114	-77	-25
-87	-57	-25
-47	-31	-26
-2	-1	-27
42	28	-24
83	53	-21
107	71	-20
119	77	-20
113	72	-19
90	57	-20
56	33	-24
13	5	-24
-30	-26	-22
-70	-53	-20
-103	-75	-18
-120	-86	-21
-122	-85	-25
-107	-72	-27
-76	-50	-26
-32	-23	-26
14	8	-27
58	36	-25
94	59	-25
114	74	-22
118	79	-23
106	71	-23
80	53	-20
41	29	-21
0	-2	-21
-44	-32	-22
-85	-59	-22
-111	-79	-22
-125	-86	-21
-120	-82	-21
-99	-65	-25
-62	-41	-25
-18	-11	-24
29	19	-23
71	43	-23
101	64	-24
117	76	-23
115	77	-18
99	65	-20
69	44	-21
30	17	-19
-14	-16	-23
-57	-45	-23
-94	-70	-23
-119	-84	-21
-125	-87	-24
-115	-76	-24
-87	-55	-23
-45	-30	-26
0	1	-24
46	29	-21
84	53	-21
107	70	-24
117	77	-24
109	74	-21
89	58	-21
53	35	-19
13	5	-18
-32	-27	-20
-75	-53	-22
-106	-77	-23
-124	-86	-26
-125	-84	-24
-108	-69	-23
