File Name: not saved
Channel 2: 'Channel 2', 11150 values, raw ADC, no filters.
Channel 3: 'Channel 3', 11150 values, raw ADC, no filters.
Channel 4: 'Channel 4', 11150 values, raw ADC, no filters.

-48	96	-2
81	134	-3
227	142	19
365	129	14
462	102	-26
478	65	-64
402	17	-114
245	-45	-111
61	-116	-106
-104	-179	-127
-214	-212	-107
-262	-202	-76
-268	-153	-52
-259	-79	2
-248	-4	-12
-231	57	-15
-187	102	23
-104	139	16
10	174	21
133	204	25
234	222	43
283	211	44
280	174	49
237	119	38
166	55	8
79	-12	1
-17	-83	-19
-117	-159	-38
-211	-237	-69
-278	-297	-104
-300	-315	-108
-263	-272	-101
-184	-174	-94
-76	-45	-32
36	79	16
129	171	22
201	221	21
239	240	1
251	238	7
226	221	-13
163	182	-31
61	110	-39
-63	0	-57
-189	-128	-66
-289	-251	-51
-345	-332	11
-345	-348	16
-291	-289	-6
-198	-159	-1
-76	18	-32
57	209	-25
183	362	7
280	431	51
332	390	101
330	244	59
277	43	22
195	-139	-62
100	-242	-178
10	-242	-222
-69	-171	-185
-144	-96	-111
-212	-76	-91
-271	-127	-45
-299	-216	-17
-274	-274	-10
-188	-248	-6
-50	-122	-23
107	60	-35
241	233	-11
306	338	15
292	350	-11
204	291	30
79	196	45
-39	97	12
-114	12	11
-137	-62	38
-120	-126	34
-88	-176	-12
-69	-200	-34
-77	-189	-46
-101	-149	-32
-117	-93	-35
-101	-44	-32
-36	-19	-7
69	-14	23
191	-17	42
291	-8	21
341	19	-18
325	65	-33
248	112	11
135	148	22
12	154	-14
-96	132	-48
-185	81	-95
-247	8	-137
-288	-77	-105
-306	-153	-44
-290	-192	-28
-235	-182	-31
-138	-110	-70
-13	5	-100
116	120	-88
222	195	-67
281	201	-13
291	145	11
248	64	3
172	8	-7
72	0	-8
-39	29	-14
-152	55	-8
-252	29	14
-321	-61	21
-347	-192	36
-318	-303	39
-241	-332	32
-134	-260	32
-20	-111	40
86	51	20
180	168	-29
258	209	-34
321	188	-27
353	140	-48
343	96	-48
276	65	-69
158	30	-64
11	-24	-38
-123	-94	-42
-221	-155	-50
-263	-175	-57
-268	-142	-35
-250	-71	-53
-225	-3	-61
-195	31	-23
-148	23	-12
-77	3	-2
19	6	-1
115	57	12
187	141	19
212	211	12
186	229	-7
134	171	-25
78	63	-21
38	-47	-7
10	-117	13
-24	-133	4
-82	-117	-19
-158	-99	-20
-228	-96	-9
-253	-103	-37
-204	-92	-64
-80	-47	-82
88	28	-62
245	101	-44
346	140	-69
373	129	-38
329	80	-6
244	25	13
139	-8	30
39	-17	85
-54	-22	150
-134	-45	87
-195	-94	-5
-228	-150	-90
-223	-181	-160
-186	-165	-194
-132	-108	-243
-78	-37	-236
-25	12	-186
31	31	-128
102	34	-42
184	50	26
256	95	63
283	153	39
234	186	-1
99	157	11
-89	56	49
-273	-86	10
-394	-206	-20
-426	-260	39
-372	-231	68
-262	-140	77
-148	-42	64
-54	28	54
15	58	29
69	70	-21
129	89	-26
192	131	-43
245	187	-31
276	225	-7
263	227	3
214	180	-7
136	104	-24
49	22	-28
-35	-45	-23
-112	-94	-31
-182	-130	-109
-237	-156	-162
-269	-171	-84
-258	-166	-35
-194	-135	-41
-82	-80	-31
59	-9	-48
195	61	-13
287	120	-21
314	157	-21
279	165	-11
196	135	-26
93	69	-9
-7	-29	-3
-93	-140	-3
-160	-225	5
-207	-256	15
-232	-216	8
-232	-127	16
-205	-33	-5
-150	28	-27
-70	37	-40
19	10	-44
106	-15	-26
179	-1	-38
229	58	-18
248	138	2
240	194	-9
206	185	14
150	115	44
77	16	43
-8	-58	37
-100	-80	9
-187	-51	-3
-259	-12	8
-296	-11	-8
-286	-61	-55
-221	-148	-101
-103	-213	-125
41	-206	-135
179	-107	-126
270	52	-99
290	207	-48
231	287	-30
121	261	-30
-1	147	-32
-96	2	-12
-145	-103	9
-159	-129	8
-162	-90	32
-180	-29	9
-214	1	-14
-245	-22	-26
-234	-84	-40
-156	-141	-21
-19	-145	5
144	-80	16
283	39	12
361	162	43
359	239	46
297	249	45
197	199	39
87	122	-45
-25	50	-84
-135	-1	-132
-232	-45	-207
-292	-99	-225
-291	-173	-193
-217	-251	-127
-93	-301	-74
33	-290	16
110	-208	86
110	-71	87
49	79	74
-20	197	77
-43	257	68
8	259	54
117	218	59
229	161	-6
288	96	-70
261	25	-65
157	-58	-34
14	-151	-47
-117	-238	-21
-206	-294	8
-233	-301	-16
-205	-251	-38
-136	-165	-39
-47	-62	-8
42	26	-47
123	95	-74
172	138	-68
188	169	-36
169	188	-65
121	192	-70
60	177	-39
-6	135	-90
-77	76	-64
-150	5	-30
-221	-51	10
-278	-80	39
-300	-68	31
-276	-25	24
-199	31	54
-89	74	58
32	74	25
138	27	33
212	-48	-3
251	-109	-13
257	-110	-28
234	-33	-42
182	93	-50
101	201	-37
-4	215	-9
-118	106	-9
-223	-105	-8
-299	-322	-38
-325	-451	-52
-305	-421	-65
-229	-259	-50
-107	-42	-6
39	126	17
183	190	17
288	166	-13
333	115	-4
306	106	-5
234	153	-60
144	215	-79
78	219	-86
44	125	-89
32	-43	-55
3	-216	-63
-68	-305	-55
-183	-278	-13
-308	-159	38
-387	-19	84
-371	78	65
-249	114	7
-58	119	-56
133	135	-118
263	183	-164
291	236	-144
228	241	-96
113	162	-50
10	11	5
-39	-161	43
-18	-277	42
40	-297	37
89	-233	21
77	-136	16
-13	-70	43
-156	-63	48
-287	-95	49
-340	-115	43
-274	-88	-2
-105	-7	-35
99	94	-27
253	166	-41
300	182	-48
240	140	1
135	76	46
59	16	29
60	-21	-2
121	-40	-47
175	-60	-149
145	-85	-176
7	-106	-125
-199	-104	-115
-379	-72	-150
-443	-23	-91
-350	19	-23
-139	31	-35
92	15	-25
254	-3	-37
302	14	13
262	85	32
194	186	39
147	271	64
132	289	40
121	215	80
64	76	64
-57	-84	32
-217	-206	20
-357	-263	-89
-416	-263	-143
-370	-232	-64
-242	-183	-81
-85	-122	-97
52	-35	-69
147	79	-74
195	200	-46
229	284	-9
261	294	22
291	215	19
302	92	-10
268	-27	-38
178	-88	-25
37	-79	-3
-124	-33	14
-277	-6	12
-387	-38	8
-428	-125	24
-393	-223	13
-291	-264	-12
-141	-222	-12
19	-97	-4
151	59	3
222	194	16
226	270	26
181	294	28
122	287	-14
78	261	-27
56	208	-11
45	99	-19
23	-77	-51
-30	-286	-70
-106	-464	-65
-181	-533	-109
-227	-457	-91
-224	-273	-10
-172	-69	12
-88	65	1
0	92	-13
80	39	-38
139	-6	-44
181	24	-9
207	145	26
212	296	68
192	383	86
136	343	53
52	181	-39
-48	-30	-117
-143	-201	-142
-211	-279	-188
-233	-274	-181
-204	-234	-142
-131	-207	-119
-34	-196	-77
69	-168	-80
161	-78	-56
230	80	-36
270	256	-7
285	379	45
276	399	41
238	319	48
164	199	29
57	106	34
-71	68	30
-200	57	24
-302	6	30
-350	-125	32
-343	-316	69
-294	-474	79
-226	-510	48
-157	-381	35
-94	-131	34
-29	127	-35
46	290	-122
132	313	-105
214	237	-61
262	142	-88
254	101	-98
188	116	-82
78	138	2
-39	104	8
-137	-8	-27
-199	-156	-44
-229	-263	-100
-231	-270	-85
-215	-177	-51
-182	-45	-35
-118	51	-18
-26	77	-13
85	55	-6
192	36	-3
269	65	-16
302	134	-32
289	188	-30
249	170	24
196	61	77
136	-93	102
61	-216	110
-34	-252	66
-149	-198	1
-259	-109	-72
-328	-51	-123
-325	-60	-85
-247	-109	-42
-122	-135	0
4	-84	95
85	51	86
107	215	21
92	336	-69
74	354	-115
92	278	-80
151	156	-165
226	43	-183
262	-24	-144
225	-63	-130
104	-108	-83
-68	-182	-95
-232	-271	-51
-325	-334	-36
-317	-322	-20
-215	-213	52
-68	-40	42
66	139	29
151	258	42
175	282	31
166	218	-5
141	103	0
130	-12	16
125	-97	2
111	-134	-21
68	-131	-15
-10	-102	32
-106	-60	46
-193	-17	55
-243	15	19
-245	30	-41
-210	29	-41
-170	17	-49
-141	14	-21
-126	36	24
-108	83	18
-57	135	4
33	162	22
151	131	-6
253	37	-18
289	-84	-23
234	-188	-57
91	-227	-95
-89	-183	-131
-251	-85	-127
-343	17	-119
-341	72	-63
-250	62	-11
-100	8	4
69	-42	-15
222	-40	-19
327	25	18
369	126	7
346	209	-12
273	222	-4
175	152	6
81	24	-16
4	-110	-39
-56	-204	-43
-119	-231	-28
-204	-207	32
-307	-162	59
-394	-124	79
-428	-101	107
-366	-79	81
-205	-36	40
16	34	29
236	126	52
396	210	6
462	259	-88
439	260	-112
358	218	-163
242	154	-257
113	88	-353
-22	30	-321
-153	-21	-238
-260	-72	-151
-321	-127	-28
-321	-178	-49
-263	-215	40
-167	-225	76
-61	-201	59
24	-153	123
84	-84	104
128	-4	91
169	76	54
210	143	50
240	187	16
237	197	2
187	164	18
93	99	23
-27	15	39
-143	-68	57
-234	-140	10
-287	-190	-40
-304	-222	-47
-290	-233	-25
-242	-216	-42
-161	-160	-155
-49	-59	-87
76	77	18
192	219	-20
269	329	-158
288	365	-194
255	321	-98
187	206	-16
111	61	41
46	-76	9
0	-171	37
-40	-211	5
-84	-207	-18
-135	-171	10
-184	-122	1
-207	-70	17
-187	-21	3
-116	19	12
-13	46	-9
86	49	-25
144	31	-15
144	0	18
91	-25	57
13	-22	52
-49	22	40
-76	99	18
-60	171	10
-25	203	-25
3	154	-81
6	33	-133
-20	-124	-166
-56	-257	-143
-88	-308	-95
-95	-259	-42
-78	-131	12
-42	15	34
0	123	24
42	158	-10
82	118	-39
119	43	-47
157	-30	-48
183	-68	-48
191	-70	-58
164	-49	-43
98	-29	-4
-2	-29	37
-116	-45	61
-214	-66	16
-269	-66	8
-262	-24	19
-203	59	7
-108	164	30
-10	243	24
66	257	28
107	185	25
122	51	35
124	-85	10
125	-157	-36
128	-131	-61
118	-28	-67
81	82	-69
8	120	-70
-85	47	-61
-173	-110	-92
-229	-270	-68
-234	-339	-40
-190	-275	-69
-111	-111	-60
-17	70	-33
78	188	-98
159	206	-137
221	154	-143
253	94	-90
250	77	-27
209	108	-32
136	140	-38
50	123	-43
-36	32	33
-105	-101	36
-156	-213	11
-182	-251	33
-195	-199	56
-194	-95	38
-174	2	18
-134	43	41
-71	31	2
5	-2	-40
85	-21	-103
145	-2	-58
175	41	-2
171	84	13
129	103	47
65	98	2
-13	84	-49
-85	71	-117
-140	62	-128
-170	40	-38
-172	-4	47
-149	-60	98
-107	-111	85
-59	-126	21
-11	-99	-15
30	-46	-47
68	0	-91
101	21	-94
135	22	-78
169	27	-66
203	56	-36
228	102	-18
231	124	-5
196	86	-9
111	-19	-12
-14	-145	-13
-162	-217	-32
-285	-171	-19
-340	-21	16
-303	149	45
-181	221	54
-26	120	64
104	-116	49
160	-368	18
139	-467	-15
72	-332	-64
15	-7	-83
12	343	-61
62	529	-56
128	448	-55
150	145	-84
90	-202	-124
-44	-413	-104
-202	-393	-91
-319	-190	-62
-344	41	-10
-275	157	6
-160	101	12
-46	-49	-30
30	-157	-42
75	-109	-11
115	89	5
182	327	-19
266	457	-65
332	391	3
327	158	55
222	-118	81
35	-297	110
-172	-309	59
-324	-194	46
-372	-52	41
-314	14	-4
-195	-22	-32
-75	-113	-60
8	-174	-96
48	-138	-89
77	-13	-58
121	144	-11
188	256	15
254	277	-46
280	218	-119
234	120	-137
119	28	-113
-26	-37	-120
-157	-86	-76
-235	-134	9
-256	-184	35
-237	-222	54
-200	-218	-30
-159	-165	-58
-109	-79	28
-41	11	7
48	76	-32
148	105	-62
230	115	-105
269	123	-62
261	142	2
206	160	34
130	155	24
46	113	7
-35	42	5
-111	-32	-15
-183	-85	-36
-240	-103	-47
-264	-95	-36
-248	-80	15
-182	-80	-3
-81	-93	-21
26	-107	-4
113	-102	-49
167	-63	-38
188	3	-16
184	83	-9
169	152	0
142	189	-4
104	178	19
53	110	26
-1	-8	0
-55	-158	0
-92	-290	19
-111	-356	16
-122	-315	19
-134	-163	-3
-148	51	-39
-152	247	-77
-118	345	-133
-33	310	-138
96	174	-99
241	26	-64
346	-47	-42
380	-2	-47
314	129	-77
170	254	-111
-14	278	-85
-189	151	-36
-325	-94	-29
-412	-353	-18
-442	-522	-19
-420	-527	26
-345	-386	64
-217	-170	89
-48	16	110
130	114	65
277	123	20
361	93	-3
363	85	9
291	129	8
175	202	4
51	250	8
-52	224	11
-121	118	7
-160	-34	-4
-178	-171	-21
-186	-249	-32
-189	-257	-35
-181	-215	-68
-157	-163	-91
-106	-112	-95
-26	-64	-83
76	0	-90
187	90	-126
284	192	-90
350	269	-36
365	291	-15
324	247	-17
231	149	-66
99	39	-89
-47	-50	-53
-180	-103	-20
-276	-126	38
-320	-137	121
-308	-142	60
-250	-140	-11
-165	-114	-24
-66	-60	-23
25	14	-26
107	91	-25
175	149	34
229	174	24
257	171	-6
251	150	-3
202	117	29
115	70	32
4	8	-32
-108	-70	-78
-200	-152	-98
-258	-211	-142
-278	-230	-192
-269	-198	-172
-234	-135	-81
-177	-61	13
-95	-5	48
8	25	45
120	38	56
221	49	14
281	72	-23
292	101	-58
252	122	-70
175	112	-4
90	60	40
12	-29	44
-50	-131	3
-97	-209	-6
-135	-235	-33
-173	-192	-76
-205	-100	-43
-224	17	-20
-210	119	3
-156	183	16
-54	205	-7
83	195	-35
226	177	-70
334	154	-70
365	126	-36
302	82	-1
162	11	47
-18	-76	89
-174	-164	90
-262	-237	61
-279	-286	6
-245	-314	-50
-205	-326	-72
-185	-317	-57
-178	-264	-84
-148	-147	-130
-60	45	-124
85	286	-131
245	507	-61
359	644	44
365	635	50
258	482	51
82	230	27
-87	-37	7
-194	-254	-22
-217	-376	-65
-187	-410	-74
-147	-384	-75
-131	-326	-57
-144	-260	-43
-159	-187	-20
-142	-106	-14
-80	-17	-11
18	69	1
123	140	10
208	190	10
257	211	-14
269	211	16
245	193	41
198	158	40
121	103	39
24	33	-9
-84	-45	-45
-181	-118	-93
-247	-170	-117
-263	-189	-45
-240	-171	22
-183	-123	28
-110	-59	-6
-35	13	-85
36	81	-76
101	137	9
157	174	-38
196	190	-66
216	174	-19
214	135	-37
195	72	-89
163	-2	-107
120	-77	-68
61	-142	-52
-19	-195	-48
-113	-226	-54
-204	-233	-78
-261	-212	-31
-255	-167	-17
-180	-101	6
-48	-23	40
100	51	56
223	115	72
283	157	97
274	174	120
203	169	77
95	145	-16
-21	110	-74
-129	72	-111
-213	36	-131
-267	2	-45
-287	-32	-47
-271	-69	-60
-224	-106	-20
-157	-131	-43
-82	-135	-82
-6	-105	-102
72	-45	-24
160	28	40
253	88	91
341	110	66
388	92	20
369	48	-15
269	14	-98
110	5	-121
-68	21	-135
-222	35	-133
-320	19	-64
-361	-45	-18
-363	-144	12
-344	-237	42
-311	-280	43
-249	-254	27
-145	-167	9
-1	-54	13
158	46	19
285	121	-6
341	174	-10
302	221	1
191	255	10
48	261	-7
-70	212	13
-133	103	59
-130	-45	26
-82	-179	-11
-21	-248	-12
22	-226	-24
32	-127	-81
13	-11	-122
-15	82	-123
-21	122	-111
13	127	-78
93	126	-48
192	147	-20
273	182	-6
292	200	-14
229	166	-42
95	66	-63
-67	-75	-40
-207	-215	-19
-291	-311	15
-318	-345	28
-307	-326	44
-281	-280	71
-255	-225	59
-209	-158	58
-124	-72	49
7	38	17
165	161	-38
302	260	-65
371	310	-74
351	291	-108
257	223	-107
129	127	-109
16	40	-176
-59	-33	-131
-108	-98	-2
-148	-159	62
-199	-213	86
-252	-237	59
-279	-209	-14
-249	-124	-69
-152	-4	-105
-10	106	-153
136	174	-176
242	185	-105
288	158	-40
276	128	-24
232	119	-2
175	128	24
123	121	47
62	64	55
-19	-59	7
-124	-222	12
-241	-368	32
-336	-432	5
-380	-375	30
-347	-206	36
-240	20	36
-78	232	10
93	360	-5
229	382	32
301	309	14
299	190	8
242	80	6
162	17	4
88	0	-32
32	7	-56
-10	1	-20
-54	-42	-43
-115	-114	-68
-188	-196	-65
-250	-251	-84
-269	-263	-120
-224	-237	-101
-111	-187	-65
41	-127	-36
194	-59	8
306	25	13
361	136	-21
358	259	-30
310	359	-5
234	388	-15
137	313	8
32	134	47
-77	-106	57
-173	-338	61
-242	-489	44
-279	-508	18
-290	-393	-11
-289	-183	-60
-287	50	-108
-285	233	-127
-259	319	-148
-182	301	-132
-43	219	-71
137	138	-44
306	108	-30
409	137	9
401	190	5
288	205	1
113	131	-3
-56	-31	-7
-174	-227	16
-221	-374	1
-212	-410	2
-186	-325	-3
-162	-166	-25
-138	-12	-16
-88	77	14
9	90	33
143	63	40
283	53	26
373	97	-5
373	183	-21
283	268	-52
135	287	-40
-24	215	7
-150	65	0
-223	-107	-27
-245	-246	-59
-239	-309	-86
-228	-291	-66
-213	-216	-62
-197	-121	-72
-166	-38	-31
-113	22	-39
-33	60	-81
70	90	-84
184	118	-107
288	143	-116
351	168	-49
354	174	-26
282	161	-50
152	116	-32
-8	38	-48
-154	-70	-20
-257	-201	40
-303	-326	45
-300	-421	36
-269	-447	19
-215	-384	21
-144	-237	-9
-46	-34	-81
75	170	-68
201	327	-3
299	398	11
334	388	8
301	322	70
216	233	84
122	154	46
42	85	41
-1	25	20
-31	-45	-8
-71	-117	-2
-144	-179	1
-240	-206	4
-321	-187	3
-357	-131	-39
-312	-60	-68
-197	-3	-52
-39	27	-76
117	35	-111
236	35	-101
300	44	-80
314	68	-57
300	104	-45
262	135	-8
203	142	27
109	110	48
-21	28	40
-177	-87	-8
-316	-209	-53
-392	-288	-107
-374	-285	-131
-260	-181	-144
-94	-9	-126
69	160	-76
181	250	-52
221	218	-31
204	89	-4
166	-63	12
136	-154	29
119	-139	37
98	-47	27
41	45	34
-56	58	61
-182	-31	81
-296	-179	84
-356	-292	60
-342	-300	5
-258	-187	-46
-136	-15	-80
-11	127	-76
95	178	-63
172	144	-56
230	87	-39
268	76	-42
284	131	-53
268	221	-38
212	275	-22
118	239	36
2	112	83
-116	-48	65
-207	-168	49
-257	-205	1
-259	-161	-30
-218	-86	-65
-148	-30	-77
-58	-13	-97
36	-20	-129
128	-9	-118
210	43	-147
269	130	-124
297	210	-48
276	241	-7
204	204	-35
86	114	-61
-51	8	36
-178	-89	-5
-262	-163	-51
-285	-224	54
-251	-274	109
-187	-309	137
-123	-304	82
-82	-232	-48
-62	-99	-113
-48	62	-108
-14	196	-186
54	257	-209
150	235	-38
241	153	57
292	64	48
273	3	48
180	-18	9
34	-26	9
-121	-52	21
-241	-111	-2
-290	-187	20
-262	-241	26
-169	-241	0
-44	-176	-41
66	-68	-71
132	46	-59
144	147	-57
117	218	-79
83	274	-53
76	313	-11
111	327	-19
180	286	-5
238	169	0
236	-14	17
148	-216	19
-15	-364	-17
-200	-410	-12
-344	-339	-12
-397	-199	-7
-351	-62	-9
-237	16	-16
-113	20	-7
-27	-7	2
14	-11	-12
31	51	-16
61	168	-21
117	279	-27
182	332	-13
214	284	-25
175	157	-8
65	-1	-3
-81	-127	-44
-198	-191	-45
-245	-194	3
-211	-160	14
-135	-112	13
-65	-57	-2
-36	4	-40
-47	70	-47
-63	117	-72
-52	112	-86
7	41	-81
94	-71	-93
182	-167	-93
237	-185	-65
250	-97	-63
229	59	-69
180	201	-67
111	244	-14
21	148	54
-86	-48	108
-194	-253	141
-269	-368	117
-281	-343	82
-224	-198	-56
-107	-9	-179
24	147	-145
140	224	-68
222	224	-8
267	183	47
280	138	19
269	98	-96
215	53	-192
117	-8	-144
-18	-85	-36
-153	-155	-5
-247	-191	24
-272	-179	10
-232	-125	-19
-159	-55	-35
-91	5	-19
-49	40	-1
-26	57	-5
4	65	-14
58	78	5
132	95	2
199	115	1
222	131	13
179	147	-9
86	154	51
-26	143	37
-122	104	-58
-183	25	-70
-217	-84	-108
-237	-198	-117
-249	-273	-115
-245	-275	-66
-207	-203	47
-123	-84	-86
4	35	-144
144	113	-36
270	133	-6
353	116	6
374	96	-6
342	95	-3
258	110	26
129	112	31
-29	65	30
-193	-38	36
-325	-174	13
-389	-286	-4
-362	-320	0
-252	-254	30
-99	-112	29
47	45	24
142	154	21
172	182	-5
159	141	-13
138	74	-18
141	32	-10
175	36	-10
209	72	1
202	100	4
121	72	-14
-33	-19	-21
-226	-151	-59
-392	-261	-80
-475	-305	-43
-436	-259	-47
-286	-138	-62
-69	10	-76
143	138	-83
292	215	-54
341	237	-33
296	219	19
196	185	29
98	147	21
40	109	4
31	67	-49
48	15	-82
48	-46	-101
4	-111	-91
-87	-167	-37
-194	-202	33
-274	-205	47
-292	-170	24
-237	-104	-8
-126	-24	-27
6	45	-35
124	87	-32
211	97	19
262	88	17
277	86	-20
260	105	-29
205	140	-58
109	165	-38
-23	137	-38
-170	47	-57
-298	-91	-36
-366	-229	-3
-355	-313	-5
-271	-308	-30
-138	-222	-84
1	-100	-185
114	11	-225
182	68	-208
207	79	-111
201	66	5
180	66	24
156	88	74
129	118	97
98	133	64
54	115	40
1	65	0
-62	5	-16
-126	-43	-21
-182	-68	-6
-221	-81	8
-232	-93	32
-221	-116	40
-182	-142	62
-116	-154	87
-20	-120	65
101	-34	42
234	87	11
353	208	-11
421	279	-44
405	273	-82
297	177	-123
120	22	-134
-72	-141	-112
-223	-260	-115
-287	-296	-89
-262	-251	-40
-180	-156	4
-95	-57	-18
-49	11	-4
-49	48	29
-67	75	19
-65	129	29
-13	225	11
89	340	12
206	422	37
290	418	62
297	300	84
221	93	74
77	-134	44
-99	-317	-5
-270	-400	-89
-399	-389	-139
-459	-321	-132
-437	-244	-135
-325	-194	-126
-152	-170	-80
42	-153	-35
196	-112	-24
261	-38	-62
225	61	-92
124	169	-103
24	256	-103
-15	301	-84
28	301	-58
115	252	-17
180	158	13
164	35	32
57	-93	59
-102	-201	53
-237	-258	47
-289	-256	79
-242	-196	87
-126	-109	65
-2	-20	9
91	54	-24
143	105	-89
175	143	-122
204	179	-105
234	210	-77
238	227	12
191	206	22
90	132	15
-41	9	21
-155	-134	43
-214	-254	30
-214	-306	-3
-185	-268	-4
-161	-160	-25
-165	-24	-68
-181	77	-121
-162	106	-79
-75	60	-52
83	-21	-76
267	-85	-79
410	-89	-59
454	-24	-72
373	71	-100
209	143	-44
10	148	-25
-162	77	-50
-276	-29	-38
-330	-119	-1
-339	-145	29
-314	-105	11
-256	-29	22
-162	28	18
-40	32	-46
90	-11	0
200	-67	44
262	-83	21
277	-34	43
258	63	19
231	165	-48
216	215	-88
212	200	-60
198	122	-42
145	30	-30
48	-41	28
-88	-78	38
-232	-95	45
-355	-120	49
-431	-164	30
-445	-207	15
-399	-209	-26
-295	-142	-70
-150	-6	-88
25	154	-68
202	270	-47
346	292	-39
423	211	-50
411	75	-50
302	-53	5
125	-119	60
-72	-117	52
-242	-86	4
-338	-70	-61
-352	-104	-74
-296	-171	-70
-198	-227	-106
-85	-222	-52
25	-131	-18
131	14	-7
236	166	6
326	272	-21
373	305	-17
346	271	-35
227	198	-56
23	106	-75
-201	4	-80
-371	-100	-40
-428	-196	7
-369	-256	40
-236	-253	24
-109	-178	13
-42	-52	-7
-40	67	-44
-59	132	-82
-40	126	-87
53	71	-86
196	22	-84
328	22	-43
383	77	-44
337	148	-41
216	181	-6
87	144	51
-3	47	74
-39	-64	56
-49	-145	97
-79	-173	133
-145	-165	119
-232	-151	98
-285	-153	28
-264	-159	-104
-161	-135	-228
-6	-61	-282
139	57	-217
237	174	-149
266	244	-65
245	235	3
206	160	3
162	63	42
104	-15	31
27	-51	-20
-77	-63	-38
-190	-80	-8
-280	-116	-6
-319	-163	-37
-291	-192	-13
-213	-178	-29
-108	-114	-32
-5	-21	5
83	72	2
157	140	-14
216	180	11
262	203	29
279	215	-17
250	211	-18
172	171	19
58	86	18
-65	-48	-3
-172	-200	-22
-243	-322	-44
-280	-379	-72
-291	-352	-83
-288	-260	-85
-262	-134	-67
-198	-9	-21
-89	90	27
57	168	30
209	227	7
324	274	-20
360	301	-2
313	298	-5
201	244	-29
72	135	26
-31	-5	28
-86	-149	9
-98	-252	-2
-91	-296	-3
-88	-276	13
-99	-216	59
-111	-151	63
-111	-96	12
-91	-54	-15
-54	-1	-111
-12	80	-142
25	188	-162
57	289	-163
89	337	-122
113	288	-110
120	148	-96
88	-40	-79
18	-206	-17
-75	-294	-9
-149	-286	-9
-166	-211	28
-118	-121	49
-34	-53	56
33	-22	41
42	-8	0
-8	15	-14
-75	53	-5
-97	97	-8
-35	123	16
98	123	28
238	104	3
310	88	-6
269	81	71
136	77	112
-34	47	55
-170	-18	-47
-238	-114	-170
-241	-202	-182
-214	-235	-248
-190	-194	-228
-170	-95	-2
-133	13	-3
-52	85	-13
75	100	11
216	77	-2
328	55	-1
358	60	-37
306	93	-30
196	122	-4
74	117	76
-29	64	65
-99	-13	40
-148	-80	22
-193	-110	-2
-244	-104	-5
-289	-84	-96
-308	-72	-150
-281	-76	-117
-198	-72	-112
-71	-37	-166
78	34	-115
223	119	-42
334	170	-4
391	157	31
381	75	34
311	-37	24
195	-123	13
61	-149	35
-63	-110	22
-162	-49	33
-226	-12	37
-255	-24	28
-255	-65	21
-231	-94	3
-178	-67	4
-97	21	8
11	137	28
132	233	36
245	253	12
336	195	-20
381	85	-33
373	-33	-42
306	-114	-74
194	-149	-67
42	-144	-14
-129	-123	4
-303	-103	-32
-452	-85	-35
-550	-65	-44
-581	-36	-51
-538	-5	-37
-419	19	-53
-238	28	-72
-24	22	-94
184	11	-99
344	10	-61
422	27	-21
400	51	-26
292	75	-2
150	77	20
16	48	31
-72	-6	24
-115	-77	-17
-128	-141	-10
-142	-184	-10
-162	-196	-33
-173	-166	-54
-145	-95	-40
-60	8	-1
68	120	22
204	215	37
299	267	59
323	260	98
278	204	63
199	123	-5
121	44	-71
64	-9	-125
24	-38	-136
-22	-61	-85
-86	-97	-25
-162	-148	-30
-226	-203	-37
-248	-234	-41
-214	-222	-60
-134	-154	-117
-35	-60	-42
58	29	-43
128	90	-33
171	116	74
190	126	-12
188	139	-27
162	162	-53
103	179	-63
15	158	-59
-90	85	-51
-187	-31	-38
-257	-154	-115
-285	-237	-85
-274	-249	-16
-239	-192	15
-187	-97	45
-124	1	47
-43	77	39
54	126	26
170	160	-1
277	183	29
354	198	38
375	188	70
338	147	63
250	81	54
136	11	9
21	-52	-82
-84	-105	-78
-174	-164	-174
-253	-242	-230
-311	-326	-188
-333	-384	-95
-306	-355	-22
-217	-219	-11
-83	6	-1
66	247	-23
196	414	27
276	438	48
300	324	26
273	127	11
208	-57	26
122	-157	42
24	-152	32
-80	-86	4
-178	-26	-25
-263	-32	-48
-325	-107	-68
-357	-215	-85
-352	-288	-68
-308	-273	27
-217	-159	46
-82	25	10
86	219	-1
261	366	-21
394	430	-7
449	402	1
405	311	-1
285	185	-21
132	63	-13
-4	-41	-12
-92	-127	-43
-138	-204	-57
-164	-275	-69
-194	-334	-54
-226	-362	-43
-234	-344	-46
-188	-269	-39
-78	-147	-27
72	1	-11
216	142	-43
306	260	-66
325	339	-54
275	372	-61
184	359	-8
81	285	19
-28	144	21
-144	-48	48
-267	-254	37
-375	-416	2
-442	-476	-25
-434	-419	-14
-347	-263	-2
-195	-74	-9
-20	88	6
148	185	49
280	221	70
369	227	36
417	233	62
421	244	76
373	243	-35
275	195	-156
135	93	-209
-19	-40	-205
-150	-162	-204
-229	-235	-147
-253	-246	-106
-241	-210	-61
-219	-161	-32
-200	-113	-44
-178	-66	23
-132	-5	61
-44	79	27
78	168	-40
203	233	-70
289	241	-36
312	189	-68
261	106	-98
161	29	-86
39	-20	-58
-77	-48	21
-176	-83	43
-250	-151	36
-291	-243	37
-297	-326	28
-253	-343	26
-169	-263	10
-55	-108	22
56	76	36
150	218	12
211	284	18
253	279	36
288	238	15
320	201	-3
330	177	-12
287	150	-20
170	93	-66
-24	2	-69
-248	-97	-17
-436	-161	-59
-526	-166	-85
-494	-129	-54
-363	-95	-36
-193	-102	-17
-47	-149	11
40	-192	11
74	-173	-6
84	-62	14
106	99	8
151	237	-8
209	261	-8
240	157	-39
216	-30	-49
137	-190	-74
23	-248	-59
-93	-194	-26
-172	-95	-31
-201	-40	-14
-186	-70	-42
-139	-152	-42
-78	-196	1
-6	-127	16
69	53	11
147	268	-14
214	398	-38
254	370	-8
253	202	13
202	4	-4
113	-109	8
9	-81	31
-85	47	26
-151	163	19
-182	158	51
-190	8	32
-187	-214	-7
-182	-379	-19
-175	-383	-43
-150	-208	-71
-97	61	-133
-10	295	-167
101	388	-155
208	319	-96
279	150	-15
291	-16	-15
241	-100	-19
147	-87	-7
34	-21	-38
-71	28	-84
-156	10	-54
-219	-72	79
-260	-174	105
-279	-231	-40
-264	-215	-155
-210	-131	-155
-115	-22	-102
10	65	-82
136	105	-67
237	102	-1
291	84	18
297	74	-21
262	82	-25
205	93	-38
136	83	-80
56	45	-10
-32	-16	108
-133	-76	133
-231	-116	104
-302	-128	52
-321	-116	43
-270	-94	-1
-156	-67	-60
-5	-41	-52
139	-8	-75
242	25	-84
280	50	-97
257	57	-76
191	39	-54
107	11	-81
35	-11	-55
-25	-8	-24
-76	19	5
-124	55	20
-174	81	11
-219	80	13
-243	53	8
-228	11	11
-169	-34	6
-67	-79	16
56	-118	43
184	-144	19
286	-140	8
346	-85	1
346	28	-21
292	169	-21
194	274	-45
74	277	-76
-41	155	-59
-140	-59	-46
-211	-273	-48
-260	-387	-62
-290	-341	-39
-305	-160	-12
-296	52	-14
-255	187	4
-180	174	16
-77	43	37
35	-108	19
134	-169	-7
207	-78	1
245	125	6
251	328	-8
222	410	-41
157	319	-69
63	90	-91
-45	-160	-111
-152	-313	-104
-229	-314	-94
-257	-188	-83
-232	-24	-32
-166	85	-4
-85	96	22
-6	26	37
61	-59	28
124	-106	48
189	-85	47
256	-17	43
311	61	40
329	116	19
291	129	-8
188	108	-32
38	61	-64
-130	3	-81
-279	-59	-109
-381	-112	-130
-415	-139	-138
-382	-131	-112
-290	-89	-45
-162	-31	-17
-24	16	63
107	37	78
214	43	13
287	55	-4
317	100	-62
301	178	-80
237	250	-140
131	268	-215
5	189	-111
-119	20	-38
-206	-188	2
-243	-359	42
-227	-429	33
-181	-384	40
-133	-263	-10
-103	-136	14
-87	-57	40
-58	-36	19
8	-45	30
124	-29	6
265	41	-29
381	165	-25
423	289	-17
366	359	-23
226	341	24
46	241	2
-115	105	-19
-225	-7	-34
-278	-60	-36
-295	-52	-11
-287	-21	-24
-262	-5	0
-208	-37	6
-110	-106	1
21	-181	-8
155	-213	1
244	-178	9
258	-82	17
203	43	10
113	151	26
33	203	19
-8	183	-40
-17	104	-65
-26	-7	-105
-67	-114	-137
-149	-189	-162
-237	-215	-81
-285	-186	-72
-253	-109	-48
-142	-4	24
17	100	14
172	169	60
284	183	84
337	138	36
336	63	-36
299	-13	-31
218	-57	-54
101	-61	-93
-54	-43	-85
-217	-30	-72
-344	-44	-68
-392	-83	-47
-353	-121	-15
-262	-130	-7
-172	-100	21
-126	-47	30
-126	-4	13
-133	1	-24
-88	-19	-15
44	-34	10
241	8	-4
428	121	-24
526	274	-1
478	390	39
300	391	87
53	244	98
-178	-13	52
-329	-283	-25
-375	-470	-97
-339	-507	-171
-258	-401	-221
-168	-222	-161
-83	-46	-99
-4	68	-40
74	117	26
151	135	48
216	161	42
258	209	29
268	257	24
245	266	57
194	215	70
117	106	7
25	-15	-68
-79	-110	-109
-181	-149	-94
-263	-138	-80
-310	-107	-64
-303	-87	-21
-241	-93	-20
-133	-112	-71
-4	-119	-130
122	-88	-161
222	-17	-149
276	72	-72
279	155	-21
241	199	13
172	195	48
93	143	22
13	63	11
-60	-29	0
-125	-111	-24
-181	-175	-23
-221	-213	-11
-235	-225	20
-217	-209	28
-170	-167	15
-100	-99	18
-20	-5	26
56	106	29
126	215	18
189	301	12
245	329	3
285	286	-1
285	183	9
226	53	3
103	-62	-13
-63	-136	-38
-224	-167	-44
-329	-179	-13
-347	-204	-26
-275	-252	-12
-152	-294	14
-19	-274	15
86	-142	-4
150	104	-53
176	400	-37
183	625	-40
172	664	-81
142	468	-70
93	92	-27
26	-326	-17
-43	-620	-33
-105	-690	-29
-150	-530	-3
-180	-249	-4
-203	2	5
-218	118	21
-213	77	20
-177	-43	21
-104	-137	-20
-8	-123	-93
80	-2	-133
136	163	-156
156	292	-150
155	340	-76
158	317	-56
171	264	-5
181	221	61
154	183	39
64	123	21
-79	17	32
-229	-124	25
-325	-249	20
-319	-305	44
-214	-264	12
-57	-161	-44
84	-53	-48
165	3	-50
183	4	-94
172	-2	-84
175	40	-86
204	155	-127
234	291	-134
223	362	-124
134	294	-39
-17	76	-2
-185	-208	16
-305	-443	41
-340	-524	14
-296	-435	22
-211	-246	38
-136	-59	80
-94	43	105
-69	51	130
-32	23	105
39	26	5
140	101	-117
238	222	-185
292	323	-160
284	340	-175
222	257	-129
134	104	-52
51	-58	-25
-13	-180	-2
-68	-251	37
-119	-281	87
-165	-288	76
-191	-269	57
-181	-207	15
-126	-95	-25
-43	48	-43
41	175	-72
107	237	-84
141	210	-65
154	129	-1
154	51	32
142	32	-30
114	82	-84
57	151	-90
-26	170	-67
-120	96	-41
-195	-52	-42
-230	-202	-4
-215	-264	47
-168	-194	68
-114	-15	80
-68	193	96
-27	333	91
24	357	36
102	268	-17
198	122	-85
283	-15	-108
318	-111	-119
270	-170	-109
147	-221	-75
-20	-281	-72
-180	-353	-47
-295	-405	-74
-350	-393	-81
-358	-307	-41
-338	-150	-35
-294	32	-78
-217	181	-69
-96	253	-13
66	231	26
242	143	61
381	47	27
439	3	-9
399	45	-6
278	157	-6
123	274	5
-22	316	14
-131	224	7
-198	7	26
-242	-260	69
-269	-460	95
-288	-501	89
-282	-358	48
-246	-94	22
-166	183	-13
-47	364	-93
94	405	-165
240	335	-163
363	225	-134
439	140	-127
446	98	-69
371	67	-81
225	8	-44
44	-101	16
-119	-229	-24
-228	-326	-44
-262	-343	-90
-250	-275	-76
-221	-163	-29
-200	-58	-19
-189	0	-18
-161	11	-5
-87	8	16
41	31	28
191	91	18
306	171	-1
344	233	9
291	243	4
178	193	23
56	105	18
-32	12	36
-81	-66	61
-107	-120	32
-145	-159	10
-205	-183	-24
-269	-191	-58
-295	-170	-91
-249	-111	-96
-130	-24	-103
24	70	-68
163	138	-42
236	162	-74
229	147	-49
164	110	-38
86	84	-48
33	70	-26
16	62	28
20	35	40
18	-29	2
-18	-120	-6
-89	-208	-17
-177	-250	-6
-241	-227	-3
-248	-147	1
-178	-47	25
-39	24	11
131	48	64
288	28	125
384	10	144
389	32	182
302	115	93
151	240	-103
-26	345	-248
-189	373	-280
-305	275	-251
-361	60	-246
-360	-213	-198
-313	-444	-125
-240	-549	-105
-161	-487	-89
-85	-286	-71
-15	-37	-31
57	158	8
143	233	46
241	183	69
334	80	14
391	7	-5
375	26	77
284	134	124
130	261	101
-44	324	42
-190	259	10
-275	77	24
-299	-159	-15
-282	-352	-19
-259	-433	-28
-234	-386	-48
-195	-242	-28
-116	-67	-38
11	88	-38
166	189	-29
301	233	-27
365	227	11
332	186	86
216	130	78
77	70	4
-37	18	-10
-97	-23	-149
-113	-60	-245
-121	-105	-184
-148	-159	-143
-195	-213	-112
-237	-243	-82
-235	-223	24
-169	-140	58
-49	-17	74
84	106	89
191	194	65
251	224	65
262	205	77
251	168	49
228	131	-35
196	103	-34
142	64	-64
51	2	-78
-74	-83	-45
-209	-169	-18
-318	-216	-35
-364	-206	-69
-333	-140	-45
-243	-55	-59
-120	11	-28
4	36	-50
104	29	-54
172	20	-16
211	37	-22
219	84	-23
199	129	-60
156	140	-59
102	99	-59
42	15	-74
-11	-65	-63
-59	-106	-25
-113	-84	33
-181	-23	28
-258	33	41
-316	48	76
-315	16	-24
-222	-34	-60
-32	-60	-26
214	-32	-14
446	48	-23
581	140	-7
569	199	51
423	191	22
195	117	-16
-42	4	-26
-216	-114	-53
-312	-216	-38
-345	-300	-14
-350	-359	-30
-347	-394	-30
-331	-387	-13
-276	-305	11
-169	-145	11
-25	62	-6
111	261	-20
186	388	-36
181	403	-48
114	317	-64
45	186	-49
32	79	-8
93	36	0
191	53	-23
253	85	-13
216	74	3
65	-3	10
-145	-125	-24
-325	-229	-66
-390	-256	-5
-304	-186	-24
-105	-43	-57
116	102	-63
274	192	-75
324	200	-38
278	150	-43
188	87	-28
110	51	-19
64	49	-38
43	49	-63
8	14	-31
-65	-74	29
-175	-192	69
-281	-289	115
-345	-319	155
-336	-259	189
-252	-142	121
-124	-17	-14
8	67	-109
112	99	-205
182	98	-314
221	99	-263
242	126	-141
245	169	-105
230	197	-115
184	177	-99
102	96	-81
-2	-21	-95
-109	-131	-38
-194	-200	-32
-248	-214	-10
-262	-187	47
-250	-144	-7
-216	-108	9
-167	-79	21
-104	-40	16
-20	24	32
78	115	49
176	212	102
266	279	97
321	291	98
329	235	79
280	119	31
184	-27	-18
53	-170	-80
-83	-274	-106
-202	-320	-108
-278	-304	-98
-298	-233	-113
-255	-135	-99
-159	-38	-24
-28	40	24
115	97	44
238	142	56
309	194	31
306	252	2
234	289	7
98	272	30
-51	171	27
-168	9	11
-217	-164	15
-190	-278	-5
-123	-288	-26
-70	-213	-44
-91	-121	-80
-189	-93	-87
-325	-151	-88
-418	-246	-89
-387	-273	-61
-198	-140	-34
104	151	-11
411	501	-2
611	746	12
626	753	16
470	505	5
224	117	-7
-10	-231	-22
-159	-403	-47
-221	-375	-77
-237	-238	-100
-277	-140	-90
-360	-162	-37
-447	-282	24
-463	-390	35
-350	-368	76
-104	-177	152
198	103	143
450	335	131
554	410	114
495	310	-21
333	121	-147
161	-33	-206
49	-69	-306
14	-1	-230
12	84	-131
-16	91	-109
-104	-13	-31
-226	-173	-2
-321	-292	24
-336	-292	58
-248	-173	49
-96	3	-67
61	143	-234
170	195	-257
216	165	-202
216	106	-177
205	74	83
195	83	145
180	102	144
134	93	224
45	31	134
-71	-60	113
-191	-138	22
-269	-164	-36
-285	-133	-106
-244	-80	-109
-172	-40	-69
-92	-34	-48
-24	-45	-32
30	-43	15
77	-3	81
114	71	38
142	150	39
159	198	48
163	199	26
152	157	-44
126	92	-95
78	16	-108
0	-64	-78
-97	-157	-4
-189	-254	32
-233	-332	39
-201	-349	14
-93	-275	-43
52	-111	-109
175	110	-158
226	325	-169
191	473	-93
104	516	-18
20	443	8
-15	279	22
6	64	22
40	-160	30
34	-348	40
-38	-464	22
-163	-488	12
-285	-421	13
-336	-292	-3
-282	-159	-28
-142	-57	-48
31	-12	-18
172	-3	-4
245	10	-27
245	68	-18
203	179	-26
149	313	-26
94	410	-13
32	428	-13
-43	345	-12
-132	205	-31
-209	48	-30
-247	-78	-19
-234	-160	-18
-180	-207	-26
-119	-240	-32
-81	-259	-55
-76	-251	-61
-78	-200	-27
-54	-102	-18
14	13	1
123	106	3
230	145	-21
291	132	-26
285	104	-9
219	95	18
127	120	29
44	150	1
-13	139	-5
-54	53	20
-101	-92	21
-162	-241	-10
-223	-322	-57
-258	-292	-76
-241	-170	-155
-167	-13	-257
-58	108	-193
54	155	-100
148	139	-49
212	106	-21
259	97	-15
289	118	45
300	143	56
271	132	10
190	67	16
60	-38	87
-90	-150	98
-224	-223	28
-304	-248	-65
-320	-232	-101
-279	-203	-43
-208	-174	-77
-124	-137	-98
-39	-79	-124
44	14	-153
126	123	-103
192	221	-28
226	268	28
214	251	38
163	182	36
86	93	36
11	26	71
-48	-6	89
-88	-6	53
-120	0	-23
-152	-11	-21
-174	-47	16
-172	-105	14
-123	-156	12
-34	-175	8
72	-144	-11
158	-61	-12
191	52	-20
169	168	-39
114	239	-55
68	233	-114
50	139	-74
57	-15	-50
58	-188	-50
24	-319	-6
-55	-362	-5
-162	-315	-8
-249	-201	-37
-276	-74	-39
-231	19	-55
-128	60	-53
-12	61	-6
83	59	12
141	90	10
171	171	-19
181	278	-5
178	370	17
154	395	46
90	317	74
-18	144	53
-150	-80	44
-269	-287	49
-335	-413	10
-325	-416	-85
-257	-309	-147
-156	-148	-134
-61	0	-132
3	80	-168
44	84	-183
91	49	-150
162	37	-91
258	86	-80
358	192	-7
414	300	52
394	339	51
280	260	132
99	72	155
-110	-157	104
-285	-344	52
-389	-421	34
-407	-375	-4
-349	-249	-91
-245	-112	-120
-128	-15	-55
-20	28	3
69	43	-12
139	67	-20
196	120	-66
239	188	-74
260	237	-68
252	233	-103
201	169	-105
116	65	-89
6	-44	-70
-104	-126	-60
-192	-171	-49
-246	-186	-35
-262	-183	-6
-247	-169	-18
-201	-139	-26
-134	-88	-25
-48	-13	1
44	70	17
131	147	-3
190	198	16
209	224	30
191	233	34
150	230	10
113	215	12
95	169	26
96	65	34
94	-102	34
66	-309	45
-3	-494	43
-99	-590	-30
-188	-556	-43
-229	-386	-13
-195	-131	-21
-102	130	-57
19	332	-92
115	434	-62
151	438	-33
127	380	-9
71	291	22
25	208	15
11	134	-32
22	65	-66
22	6	-109
-28	-52	-56
-142	-101	15
-287	-141	-13
-399	-179	2
-415	-215	-2
-306	-253	-35
-96	-277	-38
145	-271	-35
340	-222	-61
431	-128	-78
414	-13	-90
320	101	-80
188	182	-64
46	213	-50
-100	195	-14
-245	138	-10
-369	63	11
-431	-4	20
-390	-42	38
-245	-38	56
-43	6	19
132	66	-1
214	112	21
188	113	24
102	56	11
41	-36	13
68	-125	-18
182	-166	-22
311	-135	-33
363	-46	-51
295	55	-17
123	114	-6
-71	101	11
-210	14	37
-253	-101	16
-226	-195	-60
-184	-222	-89
-172	-173	-133
-182	-79	-153
-173	23	-96
-99	97	-95
46	135	-11
212	150	37
333	157	-15
352	165	-82
276	164	-71
151	138	-56
32	82	-160
-44	-2	-154
-91	-92	-88
-135	-163	-61
-206	-200	-44
-288	-206	-5
-345	-188	24
-333	-159	36
-240	-117	19
-91	-60	-6
64	14	-22
182	97	-11
244	168	105
261	205	105
254	193	44
238	143	54
204	82	29
138	30	22
30	2	-38
-107	-12	-17
-243	-29	24
-339	-70	-22
-366	-129	-5
-311	-182	7
-180	-192	-4
6	-143	-24
210	-35	-63
383	101	-60
481	214	-24
466	269	-28
337	261	-32
136	198	-35
-63	107	-56
-194	6	-43
-223	-97	-43
-169	-201	-35
-101	-291	-37
-85	-341	-58
-156	-322	-48
-287	-230	-43
-409	-92	-15
-433	33	43
-325	88	43
-101	55	7
169	-24	3
390	-77	4
493	-35	-12
446	112	-42
284	308	-48
77	453	-15
-100	460	-27
-197	312	-37
-209	67	-13
-172	-167	-25
-136	-301	-29
-140	-294	0
-186	-185	-2
-233	-46	-9
-224	44	-19
-118	58	-35
75	8	-17
294	-62	-23
459	-102	-40
502	-84	-51
411	-9	-49
234	92	-28
44	171	-9
-90	189	-13
-151	113	-15
-159	-41	-14
-163	-235	-36
-189	-395	1
-232	-460	36
-259	-408	60
-233	-246	65
-142	-41	45
-12	135	40
113	236	23
198	252	-32
228	221	-111
221	183	-149
195	171	-145
170	180	-169
133	183	-219
77	155	-257
-12	89	-215
-121	-1	-128
-224	-92	-67
-282	-160	-15
-286	-198	-7
-236	-207	34
-156	-186	47
-65	-133	24
18	-47	49
97	60	77
171	165	102
239	233	110
283	241	98
287	189	56
237	102	17
138	16	-28
18	-43	-15
-92	-70	-96
-168	-85	-154
-206	-110	-18
-213	-155	0
-204	-210	-11
-187	-246	-5
-160	-238	24
-115	-178	43
-47	-75	34
38	39	40
123	143	-17
186	211	-48
214	241	-57
199	224	-88
155	165	-112
94	77	-76
34	-18	-28
-20	-90	9
-68	-118	10
-119	-101	1
-177	-57	-19
-234	-24	-60
-278	-22	-80
-285	-49	-85
-237	-67	-44
-129	-36	-4
19	63	5
181	200	11
324	309	12
417	320	23
451	214	49
416	32	98
321	-145	112
172	-243	112
-12	-245	126
-208	-190	79
-379	-159	65
-481	-196	13
-486	-281	-129
-385	-337	-182
-208	-276	-211
-10	-78	-239
151	193	-206
242	414	-197
261	475	-249
236	362	-273
205	149	-211
191	-37	-86
194	-101	60
188	-43	164
143	51	186
44	71	152
-101	-32	123
-264	-222	90
-411	-384	51
-494	-413	2
-491	-282	-21
-392	-57	3
-215	153	-5
1	257	1
203	241	8
340	166	1
386	106	-20
340	110	-77
239	155	-92
123	180	-127
32	138	-136
-26	30	-135
-57	-89	-151
-86	-159	-110
-124	-154	-63
-164	-99	-21
-189	-51	24
-177	-51	49
-121	-99	59
-32	-140	77
67	-126	84
154	-39	19
212	86	-5
238	186	16
229	210	-82
175	153	-222
79	57	-166
-62	-17	-9
-221	-39	46
-352	-20	60
-412	-4	49
-373	-27	23
-234	-95	-21
-37	-167	4
163	-195	40
311	-154	-17
383	-60	-104
380	39	-88
333	100	26
275	104	-2
221	71	-4
161	45	22
81	45	31
-30	67	49
-159	72	45
-277	32	43
-343	-56	15
-339	-161	-6
-274	-230	-48
-180	-227	-69
-91	-152	-59
-23	-39	-52
28	64	-81
86	128	-67
165	150	-1
255	150	21
326	142	26
333	139	35
256	126	10
101	93	-32
-88	41	-37
-261	-13	-57
-372	-52	-115
-405	-71	-144
-371	-90	-155
-296	-126	-148
-210	-190	-74
-122	-251	-16
-37	-263	1
48	-176	-1
129	7	-19
198	229	8
245	397	14
257	431	-15
234	317	-8
175	109	-8
91	-85	-2
-10	-184	21
-110	-167	42
-195	-88	77
-243	-35	79
-244	-72	70
-195	-188	49
-114	-308	20
-18	-339	-13
79	-227	-52
161	-7	-49
225	223	-45
261	362	-25
267	353	4
237	236	25
172	95	1
86	16	-80
-2	25	-145
-75	80	-176
-127	103	-211
-166	36	-275
-207	-102	-160
-255	-250	0
-295	-322	40
-292	-278	60
-221	-144	-30
-64	0	-57
140	79	-14
337	70	-2
461	9	83
465	-28	63
359	7	31
192	108	13
18	213	-95
-115	244	-135
-202	168	-189
-250	2	-176
-274	-176	-69
-267	-286	22
-217	-286	87
-117	-190	75
12	-56	67
122	56	32
169	114	8
129	119	22
36	97	22
-49	71	15
-66	58	5
-1	53	14
105	49	34
172	39	46
143	20	9
16	-7	-25
-158	-48	-40
-295	-101	-56
-331	-163	-58
-259	-216	-58
-132	-242	-49
-11	-210	-30
60	-116	-5
87	28	-7
104	191	-13
139	328	-15
199	398	-7
254	382	-8
263	277	-34
205	116	-36
90	-56	-22
-44	-198	-11
-159	-281	-28
-231	-296	-24
-259	-258	-8
-252	-189	-5
-217	-105	-12
-156	-11	-24
-68	94	-1
29	196	14
107	278	-4
134	309	-21
105	266	-34
39	158	-29
-6	19	-3
11	-97	0
100	-154	-19
216	-148	-33
284	-106	-15
242	-81	-45
79	-108	-85
-148	-182	-78
-339	-264	-103
-402	-306	-111
-303	-263	-126
-89	-150	-133
144	-2	-109
300	127	-65
330	201	24
251	211	62
130	177	76
27	125	93
-20	76	87
-31	28	60
-43	-19	10
-89	-72	22
-168	-119	15
-249	-147	-45
-296	-138	-95
-281	-96	-120
-217	-32	-101
-120	39	-67
-21	106	-114
65	168	-150
140	221	-64
206	265	-88
258	290	-176
278	279	-99
252	225	57
170	118	105
52	-17	71
-70	-157	81
-172	-267	71
-228	-330	61
-242	-341	96
-223	-301	55
-184	-233	28
-124	-140	8
-41	-45	-93
64	43	-116
182	122	-65
288	179	-35
353	207	-90
355	204	-100
296	168	-9
182	106	-21
46	33	-31
-87	-36	-32
-193	-94	-35
-260	-131	-33
-281	-153	-60
-259	-158	-68
-209	-142	-75
-153	-103	-35
-109	-29	-9
-83	67	15
-57	164	45
-7	218	57
91	208	66
230	129	61
366	15	24
433	-81	-18
383	-121	-18
203	-101	-2
-54	-55	-18
-302	-42	-35
-452	-95	-29
-468	-200	-38
-374	-301	-21
-227	-330	-2
-92	-251	-30
3	-83	-39
62	102	-39
111	235	-45
162	274	-42
206	239	-43
216	175	-19
186	141	16
119	149	43
46	171	34
-1	162	1
-20	91	-9
-28	-29	-21
-63	-154	-41
-139	-226	-57
-231	-214	-103
-296	-135	-103
-287	-33	-76
-194	39	-82
-42	57	-37
115	31	8
228	7	30
273	31	45
262	121	32
225	258	-28
175	370	-90
127	384	-104
61	248	-98
-23	-25	-31
-122	-356	-21
-210	-628	-46
-259	-732	-63
-253	-627	-67
-190	-356	3
-92	-44	-7
17	185	-40
116	260	-34
191	199	-45
236	93	-13
252	37	51
240	84	57
198	198	21
127	298	-16
33	298	-84
-69	174	-107
-169	-16	-34
-247	-192	48
-287	-273	18
-288	-240	-37
-253	-130	-41
-187	-15	-34
-101	53	-55
-2	68	-62
104	60	-10
206	66	1
290	103	14
333	151	2
314	178	-9
237	154	22
113	81	15
-23	-22	29
-132	-117	58
-189	-178	38
-195	-199	-44
-169	-187	-99
-141	-164	-94
-127	-139	-97
-115	-118	-60
-83	-93	6
-8	-49	10
104	24	2
222	132	-12
296	257	-32
288	356	-53
201	381	-63
63	298	-48
-75	113	-38
-177	-124	-24
-231	-326	16
-259	-416	41
-287	-356	17
-321	-187	11
-343	4	-14
-319	124	-21
-224	124	-17
-58	32	-35
140	-72	29
331	-97	59
466	4	33
517	200	20
483	398	-18
373	483	-53
206	400	-83
1	150	-87
-211	-173	-118
-388	-466	-112
-481	-631	-78
-470	-628	-99
-350	-490	-121
-176	-286	-117
-13	-94	-92
89	32	-96
119	82	-41
106	90	8
97	104	-1
124	157	7
175	248	4
214	341	22
196	388	44
107	341	39
-18	199	32
-133	6	53
-191	-177	46
-186	-286	30
-141	-304	48
-102	-242	24
-87	-149	-15
-85	-66	-28
-62	-8	-28
13	33	-21
135	81	-24
267	138	-83
355	190	-90
358	205	-42
275	165	-31
144	82	-7
11	-12	23
-95	-66	14
-169	-62	-3
-231	-9	-20
-286	48	-56
-329	63	-97
-325	16	-68
-248	-76	-32
-101	-158	-40
81	-187	6
234	-137	10
310	-28	9
292	96	4
208	190	-8
104	222	-6
29	192	-36
-4	115	10
-7	15	15
-6	-90	-12
-25	-187	-48
-65	-263	23
-122	-304	-6
-180	-289	-107
-229	-224	-54
-253	-124	-78
-236	-21	-46
-160	53	-62
-18	92	-95
170	104	-92
354	119	-80
470	152	-10
474	196	13
358	227	16
172	211	4
-17	141	-20
-158	36	-62
-235	-64	-104
-269	-127	-107
-288	-151	-69
-306	-144	-21
-302	-139	-1
-248	-138	21
-131	-123	64
20	-63	59
154	52	46
219	188	11
207	279	-31
145	268	-46
86	149	-55
70	-30	-51
90	-171	-43
102	-206	-1
58	-126	5
-52	0	22
-191	72	32
-299	31	-6
-314	-111	-26
-232	-270	-26
-93	-344	-6
42	-277	2
127	-98	11
159	102	0
163	230	-25
172	241	-9
194	168	54
207	86	44
180	51	-19
99	79	-44
-20	118	-92
-139	106	-114
-222	19	-72
-249	-121	-70
-233	-243	-68
-197	-282	20
-155	-221	49
-101	-85	22
-26	62	24
77	166	13
189	210	-22
278	214	-91
302	205	-125
262	200	-126
169	178	-114
59	117	-56
-26	6	11
-80	-132	41
-116	-247	50
-164	-286	42
-231	-236	-18
-307	-127	-101
-357	-29	-139
-345	5	-142
-255	-40	-76
-96	-124	0
94	-183	47
275	-156	87
407	-40	61
469	119	0
451	250	-19
359	291	-9
207	236	8
23	109	15
-163	-21	-15
-313	-106	-30
-399	-125	-50
-408	-97	-38
-345	-58	-56
-228	-36	-94
-77	-44	-5
81	-64	65
216	-77	91
319	-55	26
360	7	3
342	102	71
269	198	47
169	257	45
63	240	-38
-22	134	-145
-87	-34	-172
-140	-208	-211
-195	-325	-199
-255	-333	-168
-298	-241	-106
-300	-96	-28
-244	30	13
-133	87	48
3	77	52
128	38	48
216	35	22
260	92	31
268	189	46
254	268	-21
222	274	-3
162	195	69
64	60	2
-62	-65	-50
-197	-141	-75
-300	-159	-78
-340	-149	-14
-312	-155	-26
-228	-183	-16
-119	-211	26
-15	-189	-19
69	-85	-52
131	80	-35
175	244	-55
205	333	-31
214	317	-6
193	205	-19
143	65	-55
64	-45	-84
-28	-94	-86
-124	-99	-84
-210	-103	-55
-281	-138	-18
-325	-203	11
-338	-260	10
-298	-268	1
-195	-200	-28
-37	-75	-15
144	64	55
306	177	94
404	230	47
418	228	6
358	186	9
257	119	34
151	41	6
63	-41	-75
-5	-116	-97
-69	-163	-61
-144	-171	-30
-229	-140	-52
-303	-101	-24
-331	-76	-16
-289	-78	-37
-178	-85	-27
-18	-58	-51
148	32	-55
272	187	-42
327	354	-16
302	469	-46
216	475	-86
93	374	-84
-33	206	-86
-141	24	-75
-215	-131	-46
-256	-268	2
-264	-393	46
-258	-523	69
-234	-616	42
-185	-627	21
-108	-509	12
8	-274	-34
147	7	-66
279	244	-38
366	370	-2
381	370	-14
314	296	-8
192	223	-11
57	197	-26
-52	202	-22
-116	190	-9
-141	111	3
-148	-30	-5
-156	-183	-34
-172	-270	-37
-186	-242	-16
-179	-114	-4
-132	46	16
-49	158	38
58	174	70
164	112	49
242	33	-31
269	4	-69
245	50	-65
175	149	-81
80	233	-95
-19	251	-62
-102	177	-20
-159	32	19
-191	-132	24
-208	-270	-11
-221	-348	-34
-223	-362	-71
-206	-319	-105
-156	-230	-98
-60	-110	-33
64	24	13
191	147	-44
284	230	-122
317	253	-92
284	223	-40
206	159	-39
111	92	-5
17	38	0
-65	-13	3
-145	-78	0
-222	-173	-8
-282	-280	-5
-307	-363	-56
-274	-376	-98
-185	-286	-93
-57	-112	-71
67	85	7
162	244	103
213	317	84
236	301	44
244	233	34
253	154	-31
245	93	-43
196	54	-1
91	15	-24
-65	-39	-10
-224	-108	-19
-329	-174	-30
-332	-209	-33
-237	-203	-48
-91	-163	-22
38	-107	-56
102	-50	-74
92	5	-48
47	64	0
22	138	38
48	218	49
118	284	35
183	311	-6
194	279	-29
122	204	-64
-17	101	-67
-172	0	-61
-291	-93	-55
-338	-182	-28
-304	-274	-11
-207	-368	20
-83	-427	29
38	-421	19
134	-320	24
190	-132	9
201	93	-29
178	289	-42
141	396	-49
113	390	-41
105	290	-28
107	143	-4
89	-5	13
27	-124	10
-87	-199	-4
-225	-227	-11
-332	-202	2
-355	-127	22
-279	-16	61
-130	102	74
27	190	44
135	215	20
175	174	-28
161	96	-137
138	16	-183
139	-26	-172
166	-25	-178
184	1	-184
159	17	-179
71	-1	-71
-59	-51	-37
-188	-120	-51
-271	-179	-1
-286	-216	34
-244	-223	66
-169	-199	44
-90	-144	21
-12	-55	9
65	59	41
149	174	-13
229	257	-69
284	268	-60
299	207	-77
256	97	-112
170	-9	-103
63	-71	10
-40	-72	30
-128	-35	83
-195	-4	60
-247	-8	-15
-279	-55	-43
-278	-112	-47
-235	-142	-26
-143	-122	-74
-21	-55	-24
102	25	-13
196	93	-3
238	121	17
229	118	-8
184	92	1
123	57	1
68	16	18
25	-28	3
-10	-67	11
-44	-92	25
-85	-91	-9
-128	-66	-19
-162	-37	-46
-175	-24	-49
-145	-32	-33
-74	-43	-19
35	-26	-5
156	43	-22
254	154	-3
302	261	45
288	312	32
214	268	46
107	149	40
-5	-3	-15
-97	-123	-23
-158	-188	-81
-194	-203	-145
-221	-200	-181
-242	-208	-193
-260	-222	-142
-259	-217	-57
-226	-177	-16
-153	-112	-21
-48	-52	3
69	-26	17
180	-27	8
260	-11	-2
302	69	-2
313	224	-1
288	393	6
228	477	16
122	404	8
-33	163	19
-226	-149	15
-419	-403	16
-555	-488	-3
-577	-390	-26
-459	-183	-27
-217	15	-28
69	118	-23
306	120	-30
423	77	-19
402	63	0
291	109	6
169	182	1
99	225	46
97	190	116
121	88	124
111	-38	95
24	-131	26
-126	-176	-66
-282	-192	-82
-378	-210	-79
-374	-241	-154
-274	-254	-194
-128	-208	-213
14	-76	-230
122	113	-246
196	287	-188
251	372	-140
288	333	-160
300	211	-42
260	79	7
162	5	9
22	-2	46
-120	11	40
-225	-21	70
-264	-127	45
-253	-270	50
-211	-364	77
-162	-334	105
-112	-169	85
-48	59	50
36	244	39
140	296	16
242	211	-20
302	63	-105
302	-43	-59
245	-43	-37
145	49	-61
36	151	-48
-60	164	-46
-138	46	-26
-198	-154	24
-242	-334	67
-268	-391	24
-267	-299	20
-227	-101	4
-143	100	-20
-28	219	-13
105	230	-29
229	166	-24
320	94	-38
362	52	-42
339	39	-58
255	22	-75
124	-28	-59
-25	-100	-15
-165	-157	38
-272	-150	30
-341	-74	1
-375	35	-52
-375	119	-92
-338	131	-71
-244	81	-60
-85	14	-66
128	-9	-52
344	26	-58
492	90	-35
505	122	16
374	78	-6
159	-32	-4
-51	-151	16
-168	-205	19
-164	-166	26
-80	-57	22
-5	43	32
-18	70	53
-134	8	56
-295	-104	32
-394	-181	4
-369	-157	7
-195	-33	22
46	132	-39
258	250	-105
351	261	-136
306	171	-179
172	47	-189
34	-36	-134
-50	-31	-75
-67	42	-46
-52	113	-25
-57	105	-17
-103	-14	-12
-177	-202	-9
-225	-376	-24
-206	-446	-44
-112	-379	-18
31	-214	-1
172	-29	11
273	97	27
314	134	37
306	110	51
275	90	2
236	114	-38
190	182	-58
122	244	-43
27	240	8
-91	149	13
-208	-9	-34
-295	-162	-47
-332	-248	-34
-316	-238	-28
-256	-154	-42
-174	-46	-26
-85	38	-2
4	80	19
89	95	80
166	110	74
225	142	109
253	181	104
239	199	24
186	170	-50
104	92	-62
7	-15	-114
-85	-118	-202
-165	-190	-211
-223	-222	-234
-262	-218	-178
-273	-195	-93
-247	-162	-7
-181	-116	41
-80	-56	39
39	21	-6
152	110	-28
234	196	0
266	259	18
250	275	19
194	238	-25
117	152	-27
34	31	-46
-39	-86	-44
-100	-171	-40
-141	-198	-1
-161	-168	57
-156	-102	26
-135	-30	13
-110	12	-2
-93	15	35
-91	-18	40
-91	-61	13
-70	-92	11
-8	-90	15
100	-48	9
234	20	-13
340	96	-22
371	151	-40
297	163	-44
132	115	-49
-61	8	-27
-229	-132	-19
-312	-265	-5
-300	-340	14
-218	-319	-14
-110	-196	-34
-14	-11	-35
50	174	-21
86	301	-12
105	331	-18
118	272	-47
121	171	-56
111	84	-74
83	40	-86
40	31	-62
-10	21	-57
-59	-29	-29
-113	-125	2
-166	-240	3
-216	-315	14
-249	-305	20
-245	-207	-10
-185	-57	-56
-72	81	-62
67	162	-38
205	178	-60
302	158	-72
346	142	-19
331	149	9
266	162	5
172	144	17
65	72	7
-46	-49	-11
-148	-177	22
-229	-260	-10
-277	-271	-97
-287	-215	-155
-259	-131	-139
-198	-59	-66
-115	-20	-60
-22	0	-34
74	29	12
160	85	38
231	161	24
271	227	15
275	250	51
236	215	32
159	135	34
59	36	22
-42	-52	-44
-132	-117	-57
-199	-159	-30
-240	-182	-51
-251	-186	-59
-229	-168	-37
-177	-120	-51
-95	-49	-38
2	31	-11
95	94	7
162	125	-1
184	121	-11
162	93	18
104	64	-15
38	45	-48
-8	43	8
-18	43	38
7	32	16
44	2	22
67	-45	36
48	-88	10
-9	-109	-62
-82	-92	-123
-132	-41	-149
-124	22	-135
-55	68	-121
53	70	-81
156	17	-28
216	-67	-7
216	-147	-1
163	-173	4
75	-121	2
-32	-13	15
-158	101	45
-296	154	66
-426	104	41
-507	-31	-11
-481	-191	-6
-328	-289	-9
-62	-263	14
230	-113	3
446	103	-21
506	290	-36
417	379	-78
253	341	-81
118	224	-89
86	95	-99
143	17	-117
211	9	-111
187	35	-74
24	43	-35
-241	-17	13
-493	-150	64
-618	-304	86
-561	-413	79
-357	-418	57
-107	-309	13
87	-122	-26
175	67	-86
181	192	-83
163	222	-49
175	169	-57
226	89	-33
268	37	4
255	49	26
161	112	53
14	183	74
-130	211	51
-221	165	22
-237	49	9
-212	-97	-44
-178	-222	-113
-161	-286	-112
-148	-275	-30
-109	-204	-6
-21	-97	-34
107	20	-17
240	124	-30
325	199	-61
335	233	-71
274	223	-110
171	169	-90
65	84	-42
-23	-5	-46
-94	-82	61
-158	-135	85
-215	-163	27
-258	-174	-33
-267	-170	-95
-225	-149	-72
-134	-103	-99
-18	-33	-97
98	49	-125
184	125	-107
230	171	-63
241	181	-38
224	155	-2
183	115	18
121	74	35
39	32	31
-53	-15	72
-145	-72	87
-213	-143	86
-247	-213	90
-241	-256	75
-197	-251	52
-124	-196	9
-28	-99	-48
82	19	-77
188	132	-122
266	223	-163
299	272	-140
269	274	-92
190	225	-71
87	134	-62
-16	18	-23
-104	-94	5
-184	-183	15
-261	-236	11
-338	-254	22
-389	-254	16
-378	-237	8
-281	-200	4
-96	-124	-9
128	1	2
326	161	7
431	321	-5
421	430	-33
320	461	-40
184	417	-42
67	327	-34
-22	228	-27
-101	132	-47
-195	35	-18
-306	-94	6
-400	-257	7
-418	-426	22
-325	-549	26
-141	-573	64
63	-488	66
203	-329	21
234	-152	-8
171	2	-43
94	126	-65
79	241	-130
156	357	-120
280	450	-49
359	464	-46
322	345	-36
159	110	-49
-59	-177	-113
-240	-394	-149
-308	-460	-144
-262	-365	-122
-166	-192	-49
-90	-61	24
-68	-43	95
-82	-118	142
-72	-188	171
-2	-150	177
121	31	147
240	291	61
287	502	-66
236	557	-110
113	421	-197
-18	174	-276
-102	-61	-228
-128	-194	-180
-129	-199	-139
-149	-133	-100
-200	-70	-51
-262	-60	-52
-277	-92	-43
-212	-111	53
-75	-77	66
90	14	14
216	116	29
273	179	64
261	174	47
216	120	21
178	55	21
153	18	13
121	10	5
52	6	16
-61	-27	32
-201	-98	22
-319	-186	16
-377	-245	25
-344	-243	18
-238	-175	-9
-90	-76	-30
65	20	24
199	86	47
300	118	22
359	134	0
373	149	-96
344	166	-132
265	169	-158
153	145	-140
18	84	-91
-117	-7	-81
-239	-108	-28
-336	-199	-16
-397	-258	-9
-416	-267	-2
-386	-211	-3
-303	-92	10
-177	70	20
-32	228	22
107	317	24
222	301	8
302	182	-10
358	19	-7
386	-100	-35
374	-118	-52
324	-34	-61
212	82	-45
48	137	-14
-139	72	-41
-311	-98	-88
-417	-292	-85
-436	-424	-37
-371	-432	-6
-251	-339	22
-121	-212	8
-12	-116	3
60	-60	-2
106	-6	-46
135	100	-44
163	270	-41
189	451	-17
205	543	-18
200	477	-32
162	257	-9
90	-29	9
-12	-265	23
-125	-366	1
-232	-321	-2
-299	-192	-14
-305	-66	-34
-234	5	-48
-96	34	-36
76	53	0
237	96	-1
343	150	30
373	182	74
336	155	70
245	71	32
132	-29	32
21	-94	26
-82	-98	-19
-176	-65	-19
-256	-43	-9
-311	-64	16
-321	-127	-69
-288	-179	-226
-214	-173	-341
-125	-85	-365
-44	51	-244
19	177	-151
72	238	-42
137	222	116
221	164	83
306	105	36
355	71	24
324	49	-21
195	8	-9
-1	-76	-21
-201	-185	-5
-338	-274	-19
-369	-299	-11
-300	-241	9
-176	-127	16
-53	-11	28
33	67	9
87	97	13
131	105	14
190	124	8
257	171	9
306	225	20
299	244	26
216	201	40
76	91	26
-82	-50	3
-209	-176	22
-285	-245	23
-310	-247	26
-312	-203	42
-309	-144	84
-300	-103	53
-257	-80	-44
-161	-71	-99
-3	-55	-198
184	-15	-247
344	49	-233
429	127	-156
411	190	-17
306	214	-4
161	182	-23
28	99	-30
-58	-12	-30
-95	-117	-2
-104	-185	-6
-114	-200	2
-139	-166	-23
-173	-100	-30
-184	-25	-25
-152	43	-17
-68	96	48
46	141	74
156	185	95
216	233	82
205	269	43
124	286	53
5	252	68
-117	147	52
-202	-27	-15
-231	-240	-87
-209	-430	-145
-158	-536	-168
-103	-510	-178
-66	-361	-157
-50	-145	-82
-43	51	-45
-27	157	-48
14	157	-41
83	92	-26
170	39	-19
251	55	2
301	142	34
306	247	41
259	290	47
170	229	63
58	76	67
-56	-102	86
-154	-223	81
-223	-245	38
-255	-178	-4
-250	-72	-41
-213	14	-91
-148	56	-168
-68	59	-192
9	51	-138
74	48	-65
117	51	6
140	51	38
155	43	44
163	35	19
164	41	-17
147	65	-42
96	84	-74
8	58	-100
-108	-27	-138
-217	-157	-132
-281	-273	-72
-279	-315	-80
-203	-243	-48
-81	-81	-21
48	108	-42
149	244	53
200	285	110
208	240	112
192	149	101
169	68	47
140	23	17
105	7	-51
44	-10	-109
-37	-49	-141
-141	-117	-162
-247	-198	-129
-336	-267	-77
-389	-309	-38
-386	-309	52
-314	-261	121
-167	-162	99
40	-14	62
273	157	15
469	315	-10
562	410	-66
521	416	-86
355	339	-7
133	214	7
-69	93	-18
-194	13	-30
-232	-17	-47
-215	-19	-31
-208	-24	-24
-241	-55	-14
-308	-113	9
-360	-183	24
-339	-245	50
-218	-281	53
-18	-283	40
206	-248	17
381	-170	10
462	-63	-2
439	52	-30
350	142	-40
226	179	-64
101	147	-54
-12	68	-47
-105	-17	-101
-180	-76	-138
-226	-89	-141
-237	-70	-97
-217	-44	-86
-174	-28	-61
-120	-9	-8
-62	33	-17
0	114	-5
69	228	7
136	331	32
179	366	72
172	301	101
106	143	110
-6	-65	72
-124	-263	38
-199	-390	3
-206	-422	-57
-155	-372	-123
-87	-270	-165
-49	-157	-197
-57	-54	-173
-91	20	-127
-97	71	-57
-42	106	24
77	136	46
221	165	45
328	197	33
351	227	18
291	237	24
184	218	47
76	160	104
-7	67	142
-70	-41	118
-134	-135	84
-213	-192	-21
-288	-194	-185
-321	-144	-311
-278	-65	-278
-151	16	-149
21	72	-114
178	85	-80
265	57	-18
273	2	9
226	-48	-3
169	-69	-70
128	-49	-124
107	0	-72
77	43	-20
9	51	-60
-95	4	-15
-210	-89	42
-292	-188	24
-315	-246	34
-270	-237	66
-186	-162	64
-93	-53	62
-10	47	72
58	123	37
123	170	10
191	209	-3
248	257	33
266	301	38
225	309	43
123	243	60
-7	89	8
-122	-120	-7
-185	-316	-44
-187	-423	-105
-152	-406	-142
-109	-274	-165
-87	-94	-175
-79	60	-155
-56	140	-113
3	147	-71
109	119	-20
234	106	6
326	139	24
337	198	61
245	233	109
78	198	95
-107	81	60
-249	-84	72
-312	-234	78
-300	-305	86
-250	-282	72
-193	-195	5
-153	-104	-86
-120	-66	-162
-72	-94	-197
2	-157	-213
93	-198	-184
172	-169	-55
216	-53	17
212	123	15
184	313	19
154	458	8
139	516	20
128	462	13
90	299	-33
-3	43	-81
-150	-245	-114
-310	-488	-101
-420	-608	-53
-426	-555	-13
-321	-343	6
-135	-59	1
62	181	-12
209	294	14
279	256	56
284	133	31
260	25	18
234	6	26
209	77	-9
172	174	-7
104	213	-32
-5	142	-62
-133	-14	-82
-243	-182	-118
-304	-275	-87
-298	-257	-55
-237	-157	-20
-141	-38	7
-39	40	37
52	67	79
133	67	96
202	88	74
253	142	12
279	205	-21
269	230	-51
216	182	-93
131	72	-114
22	-56	-72
-87	-143	-26
-180	-158	-67
-244	-111	-75
-274	-48	-45
-274	-21	-62
-243	-43	-55
-187	-101	-47
-110	-141	-40
-19	-129	-57
74	-56	-35
158	49	41
215	141	51
237	182	85
210	157	119
142	84	124
46	-1	93
-48	-72	48
-121	-116	-26
-158	-133	-120
-161	-138	-156
-148	-140	-161
-133	-138	-155
-128	-125	-151
-121	-98	-144
-96	-46	-86
-29	21	-31
75	94	-9
196	161	2
302	206	16
359	224	25
343	201	2
257	145	11
121	56	27
-28	-46	32
-157	-139	38
-240	-192	32
-271	-181	2
-256	-104	-20
-208	17	-5
-143	143	-40
-70	224	-62
12	222	-75
102	135	-116
194	-5	-97
269	-150	-25
300	-234	10
258	-225	37
139	-120	49
-38	38	35
-229	181	39
-374	237	16
-435	168	2
-404	-12	-7
-303	-240	-34
-177	-413	-45
-63	-454	-11
15	-340	19
69	-114	23
113	123	-6
165	275	-47
228	290	-55
280	190	-54
302	54	-50
273	-34	-56
190	-36	-28
67	23	-1
-57	77	-6
-160	63	-36
-215	-25	-46
-226	-142	-36
-206	-215	-51
-169	-193	-79
-128	-85	-81
-80	51	-53
-15	148	-69
66	169	-67
155	131	-71
229	91	-64
262	90	-24
237	133	-56
157	186	-61
40	194	-5
-79	131	13
-177	16	-20
-232	-106	-29
-245	-185	9
-221	-198	17
-174	-159	22
-122	-97	17
-72	-41	5
-27	0	-2
25	30	8
97	55	61
198	72	60
323	77	29
436	66	19
496	56	1
454	64	-64
300	85	-124
58	88	-70
-195	20	5
-389	-145	-1
-466	-388	-25
-428	-612	-7
-321	-713	-13
-207	-606	-93
-128	-306	-137
-81	79	-106
-37	395	-100
36	529	-94
141	460	-67
244	279	-37
290	124	11
251	87	48
138	160	56
-2	251	60
-118	250	58
-183	106	5
-204	-116	-21
-213	-299	-10
-230	-322	-13
-248	-159	-18
-236	108	-45
-159	340	-43
-16	420	-15
163	325	-19
321	126	-44
413	-54	-30
417	-138	3
345	-124	11
229	-84	19
98	-104	58
-30	-215	77
-152	-378	66
-251	-494	46
-313	-497	17
-317	-373	-11
-260	-183	-35
-163	-16	-65
-63	79	-104
7	106	-90
42	122	-82
63	174	-108
100	270	-139
163	372	-156
238	410	-151
283	353	-120
259	211	-90
162	47	-50
16	-79	22
-123	-140	75
-217	-152	69
-249	-154	41
-237	-168	75
-205	-185	42
-168	-170	-24
-123	-92	-36
-48	38	-95
54	174	-114
167	253	-136
249	244	-50
269	156	29
212	43	-16
111	-37	37
5	-63	61
-69	-49	118
-105	-33	129
-122	-48	77
-144	-97	48
-186	-151	-7
-229	-171	-77
-241	-141	-208
-195	-71	-239
-95	1	-183
31	47	-165
148	58	-99
222	54	-44
248	55	9
238	78	30
212	112	2
178	128	34
133	106	61
71	39	66
-12	-49	42
-104	-129	14
-186	-173	9
-240	-167	0
-253	-124	-10
-226	-61	-8
-166	-2	31
-85	43	45
12	76	59
107	89	103
187	83	93
230	55	22
226	10	-34
175	-41	-91
98	-78	-185
16	-78	-242
-51	-42	-265
-95	19	-263
-124	74	-178
-142	99	-63
-156	72	49
-148	2	100
-110	-90	105
-42	-171	116
41	-210	69
115	-190	16
162	-107	-64
175	26	-109
172	175	-111
166	299	-88
157	345	-32
132	296	1
71	147	35
-34	-52	20
-172	-238	31
-298	-351	30
-370	-355	22
-362	-269	33
-287	-134	0
-174	-8	-19
-68	78	-13
8	112	8
50	109	29
78	85	52
107	45	68
138	4	72
164	-31	48
166	-35	7
142	9	-8
102	93	-10
58	181	-75
20	206	-147
-14	129	-137
-49	-39	-94
-91	-227	-31
-123	-326	14
-124	-270	49
-77	-60	35
20	206	-20
133	400	-35
227	422	-72
262	268	-139
234	28	-221
158	-176	-282
71	-249	-268
-4	-190	-227
-57	-71	-147
-105	5	-30
-161	-19	63
-226	-121	108
-281	-231	135
-300	-264	120
-262	-198	32
-165	-56	-34
-34	94	-48
94	195	22
191	228	65
239	208	30
245	169	-5
222	127	51
178	85	140
113	29	91
34	-38	45
-57	-105	36
-143	-152	-15
-212	-166	-98
-249	-160	-114
-255	-149	-129
-239	-137	-170
-208	-113	-161
-165	-46	-127
-97	77	-100
5	233	-79
140	362	-36
297	394	7
430	290	32
496	71	29
462	-183	35
322	-381	81
102	-447	99
-135	-374	55
-327	-209	13
-422	-29	21
-402	96	-9
-296	142	-44
-151	120	-17
-20	70	-43
68	32	-46
113	30	-49
137	60	-59
167	108	-32
210	154	-7
254	181	16
270	180	-3
244	147	-9
165	77	-2
57	-18	-2
-57	-131	-20
-162	-243	14
-255	-322	21
-343	-341	-23
-420	-286	-22
-463	-159	-23
-443	6	-26
-337	157	-47
-159	248	-57
49	259	-75
222	208	-75
314	138	-72
317	93	-59
258	93	-15
176	112	-9
107	106	-18
52	35	-30
-3	-98	-27
-78	-254	-13
-165	-372	-27
-236	-390	-38
-260	-309	-28
-215	-165	3
-112	-20	68
17	80	115
139	125	123
234	139	137
295	162	80
324	201	3
326	244	-84
288	244	-277
204	174	-301
74	41	-153
-80	-119	-111
-215	-240	-77
-296	-272	-6
-308	-208	-10
-256	-87	-55
-170	30	-124
-85	88	-189
-11	65	-209
51	-10	-176
111	-86	-111
170	-108	-41
214	-52	57
229	57	126
201	171	117
132	228	84
40	192	93
-50	74	91
-125	-74	37
-179	-186	30
-215	-222	48
-239	-177	-7
-248	-96	-12
-237	-27	36
-198	-4	64
-126	-17	53
-28	-25	14
85	13	26
200	119	26
300	260	-46
366	380	-70
385	416	-43
342	343	-87
234	177	-159
71	-30	-252
-110	-216	-127
-273	-343	-2
-372	-391	-23
-389	-379	22
-329	-320	-10
-224	-233	22
-116	-133	32
-31	-31	18
20	57	24
56	121	10
94	153	51
142	157	18
194	150	-45
215	141	-42
180	137	-28
80	124	-21
-59	92	-19
-195	28	-8
-269	-57	12
-255	-151	-13
-156	-227	-34
-10	-263	-19
124	-260	-10
209	-217	-27
228	-143	-38
201	-45	-65
163	69	-68
144	183	-58
149	275	-44
159	319	-11
142	290	-9
76	191	0
-36	47	-13
-172	-96	-38
-288	-201	-51
-352	-240	-51
-347	-216	-50
-287	-157	-70
-193	-92	-50
-94	-46	-23
-4	-13	-8
72	17	-1
139	64	-6
202	131	-21
251	205	-48
270	258	-71
249	266	-64
180	219	-46
77	123	-2
-41	6	47
-150	-112	33
-231	-200	40
-271	-248	17
-272	-251	19
-236	-211	52
-169	-147	32
-80	-67	18
21	7	26
122	67	11
206	109	-94
258	132	-145
269	143	-109
234	137	-43
159	114	-3
66	68	-65
-24	8	-101
-87	-60	-72
-117	-122	-130
-120	-163	-111
-119	-184	-11
-129	-187	13
-160	-173	59
-195	-138	-11
-209	-72	-71
-173	31	-85
-80	159	-132
50	272	-55
175	324	-9
258	279	-26
273	142	28
226	-33	77
144	-173	40
59	-216	60
-17	-157	61
-86	-37	7
-158	71	-3
-231	103	-2
-288	49	-19
-292	-57	-60
-218	-156	-52
-64	-195	-31
130	-159	-32
302	-69	16
403	32	32
399	111	22
313	149	21
182	143	-8
64	100	-4
-17	32	-21
-66	-55	-58
-103	-150	-55
-148	-226	-68
-202	-264	-106
-248	-256	-101
-262	-196	-39
-233	-104	13
-165	5	21
-82	106	22
-8	195	40
46	260	51
84	298	44
117	300	19
149	267	-8
170	202	-61
164	113	-110
117	19	-121
30	-67	-119
-83	-141	-102
-187	-196	-76
-257	-229	-35
-271	-232	-12
-228	-204	-4
-133	-143	9
-6	-58	-18
128	36	-18
244	121	-4
314	186	-16
329	225	-16
284	236	-20
198	222	26
95	174	87
3	95	125
-67	-13	82
-113	-127	24
-144	-224	4
-178	-273	-63
-221	-262	-145
-269	-202	-234
-308	-116	-133
-319	-33	1
-278	23	-28
-168	50	-30
6	58	-35
223	58	-2
430	61	-24
565	67	-90
573	71	-93
445	66	-78
209	50	-116
-47	20	-131
-243	-21	-59
-320	-72	-20
-282	-124	14
-189	-165	30
-105	-179	40
-75	-157	46
-89	-102	43
-104	-25	49
-72	52	64
19	119	82
139	165	85
232	193	76
251	211	53
190	215	9
81	201	-57
-26	151	-103
-96	61	-122
-124	-57	-137
-136	-182	-128
-159	-279	-101
-199	-325	-43
-241	-305	-11
-250	-224	-46
-204	-100	-12
-98	41	-27
44	170	-67
193	260	-27
306	283	2
363	233	29
357	115	19
286	-34	43
171	-167	37
30	-237	-23
-109	-224	-55
-222	-140	-36
-288	-29	24
-314	55	30
-300	78	2
-258	33	-15
-193	-49	20
-104	-122	53
6	-145	19
125	-95	-3
232	21	-48
296	166	-107
300	301	-134
251	382	-139
165	370	-112
68	256	-63
-18	63	2
-93	-161	6
-158	-350	38
-216	-444	77
-259	-416	46
-262	-273	7
-215	-81	-41
-111	96	-32
23	200	-49
154	219	-102
245	183	-87
276	135	-108
254	110	-101
198	103	-66
132	88	-85
65	38	-63
-1	-56	-42
-76	-166	-1
-156	-245	-8
-234	-257	-34
-287	-203	9
-303	-121	49
-273	-58	57
-201	-42	24
-101	-55	17
14	-60	-30
130	-15	-60
233	86	-51
302	209	3
327	298	82
299	305	100
223	228	108
120	103	76
9	-16	-38
-86	-93	-201
-161	-120	-211
-207	-121	-79
-231	-126	-69
-228	-138	-55
-191	-149	9
-125	-131	2
-37	-75	-25
48	8	-37
105	85	-36
119	127	-19
102	135	-12
85	124	26
93	127	65
139	150	43
196	170	59
216	150	36
161	58	-1
24	-99	-15
-153	-275	-34
-295	-394	-56
-338	-411	-85
-263	-309	-76
-115	-131	-99
37	51	-79
125	183	-50
120	236	-55
50	231	-54
-19	207	-53
-25	187	2
49	168	21
169	117	40
262	12	20
267	-140	-4
160	-291	59
-33	-368	39
-234	-322	35
-363	-153	31
-370	72	-11
-256	261	-47
-76	334	-85
97	265	-100
204	103	-150
230	-60	-157
194	-137	-131
139	-98	-103
106	27	-47
98	153	-2
91	199	20
46	140	30
-53	0	49
-202	-153	56
-358	-257	66
-468	-278	75
-484	-235	52
-400	-162	-14
-241	-94	-68
-49	-42	-108
129	4	-98
263	55	-109
341	115	-131
363	161	-19
336	165	70
273	123	149
187	45	134
91	-29	79
-6	-77	107
-99	-89	49
-188	-86	-56
-270	-92	-164
-332	-114	-166
-346	-141	-104
-288	-130	-153
-150	-59	-172
46	63	-128
255	193	-161
414	269	-100
476	261	-32
435	173	-21
318	56	18
172	-29	26
46	-47	65
-40	-16	59
-103	19	51
-159	8	55
-222	-64	52
-280	-174	47
-314	-263	11
-300	-282	-40
-235	-216	-59
-135	-89	-74
-27	59	-65
71	183	-11
156	265	0
230	298	6
291	286	-2
328	238	-11
317	149	-20
239	32	-35
106	-97	-55
-46	-198	-76
-178	-246	-60
-252	-227	-51
-264	-152	-4
-237	-57	7
-195	18	-19
-162	49	-26
-124	32	-40
-64	-14	-32
32	-61	-37
150	-74	-25
254	-35	-3
299	49	5
256	153	5
137	228	16
-14	229	29
-150	136	19
-236	-31	-7
-263	-219	-25
-256	-358	-44
-229	-394	-51
-191	-325	-50
-138	-179	-43
-58	-20	-5
48	100	19
166	164	29
265	187	27
324	196	34
324	209	20
269	215	-44
175	195	-57
55	136	-44
-74	54	-49
-194	-11	-42
-291	-37	-48
-347	-21	-28
-347	3	2
-295	-8	-52
-202	-72	-132
-93	-163	-170
11	-222	-202
97	-195	-149
162	-82	-24
211	65	42
251	162	28
276	150	-23
280	31	-10
261	-123	9
207	-227	45
125	-226	87
20	-130	89
-96	-13	64
-205	49	42
-285	24	-4
-317	-54	-81
-287	-119	-108
-204	-110	-72
-91	-15	-2
17	116	-71
99	215	-107
141	233	-54
159	171	-12
170	80	0
183	16	-10
188	9	-7
170	40	-27
109	66	-20
11	44	-48
-104	-32	-54
-205	-133	-25
-262	-215	44
-264	-238	87
-222	-196	85
-139	-109	52
-39	-8	-46
68	84	-126
171	158	-147
251	214	-104
289	253	-35
275	261	-25
205	231	-38
97	143	-33
-26	18	-38
-134	-120	-6
-213	-232	8
-259	-286	21
-279	-280	26
-277	-227	25
-253	-151	48
-204	-80	52
-128	-23	21
-34	20	-18
62	57	-32
148	94	-59
210	134	-102
245	169	-165
257	191	-129
234	194	0
175	162	27
82	100	22
-27	7	8
-119	-98	-9
-164	-192	-34
-156	-248	-66
-113	-241	-7
-75	-175	16
-70	-75	-9
-102	19	-29
-119	77	-13
-71	85	62
71	64	85
281	49	54
476	60	38
554	96	4
462	122	28
228	106	72
-63	34	74
-291	-63	13
-383	-139	-114
-342	-152	-214
-241	-98	-290
-170	-26	-282
-170	3	-254
-223	-44	-194
-253	-141	-112
-205	-208	-66
-62	-173	-26
119	-11	6
260	214	46
299	387	54
231	403	66
100	238	64
-31	-33	46
-120	-283	28
-165	-401	2
-183	-352	9
-201	-192	56
-215	-30	106
-207	58	108
-153	63	102
-50	29	94
74	28	74
186	85	20
254	174	-55
275	244	-81
262	244	-95
237	183	-160
202	99	-211
152	38	-165
75	11	-95
-32	-11	-24
-145	-60	3
-233	-154	-26
-267	-253	-58
-245	-301	-93
-182	-256	-100
-107	-124	-104
-42	32	-59
11	144	-59
53	168	-34
101	120	38
151	56	52
196	36	112
216	77	149
198	142	151
136	174	107
41	135	82
-57	28	56
-138	-107	-5
-173	-205	-27
-154	-238	-86
-93	-212	-144
-19	-157	-208
38	-110	-236
63	-78	-217
59	-51	-170
50	-8	-106
65	53	-21
116	115	24
178	148	22
212	129	37
182	67	2
74	-13	0
-83	-76	24
-236	-106	21
-325	-106	23
-333	-99	21
-262	-102	17
-153	-114	14
-37	-113	16
65	-69	32
150	29	54
219	169	43
258	310	-10
244	399	-9
157	398	6
10	298	11
-156	125	46
-279	-62	34
-311	-214	26
-255	-292	0
-152	-289	-39
-67	-233	-86
-52	-158	-124
-106	-98	-89
-177	-63	-71
-200	-46	-37
-132	-24	-59
16	18	-86
187	77	-65
313	138	-56
338	177	-80
262	181	-121
134	150	-72
16	98	-27
-42	39	16
-33	-17	24
20	-74	22
71	-131	20
86	-184	-11
48	-213	-40
-16	-199	-53
-67	-139	-30
-71	-52	-8
-14	29	36
81	74	57
167	78	84
194	60	144
138	62	186
19	102	178
-108	166	122
-184	206	65
-180	171	-24
-106	47	-175
-24	-140	-264
9	-313	-247
-39	-394	-273
-145	-352	-261
-248	-204	-148
-279	-20	-122
-208	125	-184
-59	191	-209
111	187	-145
240	154	-89
292	132	30
276	135	144
222	144	108
159	130	53
97	77	41
29	1	84
-52	-75	62
-145	-121	8
-230	-135	68
-273	-135	138
-260	-139	118
-191	-156	83
-92	-162	40
13	-133	-21
100	-47	-64
161	87	-96
193	229	-114
198	324	-154
179	330	-175
133	239	-167
75	85	-171
10	-77	-125
-46	-189	-50
-92	-222	21
-134	-179	45
-188	-105	48
-259	-37	37
-344	-13	24
-412	-25	32
-417	-48	21
-320	-48	18
-108	1	27
193	90	21
506	186	-31
754	248	-58
837	244	-32
720	171	-8
436	51	32
83	-83	57
-227	-206	32
-402	-304	3
-421	-364	10
-333	-386	-7
-221	-354	-21
-145	-270	-9
-121	-140	-39
-107	7	-28
-48	133	-21
75	213	-23
224	239	-14
328	231	-43
321	215	-35
197	213	-20
8	211	-11
-156	182	1
-229	104	-7
-206	-25	-15
-139	-167	-16
-97	-273	-26
-118	-301	-18
-191	-241	-13
-261	-121	-43
-269	13	-76
-190	125	-151
-52	202	-172
92	244	-152
200	270	-113
249	278	-24
255	256	-2
237	195	62
202	92	100
144	-31	119
54	-151	143
-67	-242	89
-195	-292	-2
-291	-306	-114
-321	-283	-122
-277	-230	-162
-180	-140	-177
-60	-30	-143
44	74	-58
121	139	37
175	145	37
216	106	74
252	59	76
269	54	11
254	102	-78
192	169	-55
86	193	-3
-47	114	-11
-178	-64	-20
-285	-280	-47
-352	-427	-60
-369	-426	-77
-327	-265	-83
-218	-26	-100
-42	174	-66
180	253	-20
399	195	21
541	68	24
554	-28	-5
419	-31	98
184	52	119
-67	158	70
-245	204	32
-298	153	-19
-247	27	-41
-166	-114	-120
-138	-208	-140
-191	-232	-42
-288	-202	-18
-343	-152	-52
-280	-102	-79
-84	-48	-198
182	24	-128
407	120	65
498	215	102
436	272	69
275	256	29
107	161	7
9	29	-43
-8	-93	-101
11	-163	-105
4	-174	-12
-62	-150	7
-172	-121	28
-267	-106	28
-296	-97	-12
-246	-77	1
-150	-36	-24
-54	22	-30
4	74	-32
31	100	-17
54	95	-53
107	74	-66
175	58	-36
232	60	-37
225	67	-6
140	59	11
-1	20	17
-144	-45	-9
-241	-109	-2
-268	-132	0
-245	-100	-45
-206	-17	-32
-172	77	-12
-134	137	-21
-70	141	-24
36	100	-1
170	51	16
280	30	22
320	53	54
265	97	69
139	119	53
6	80	44
-85	-27	-9
-108	-170	-83
-92	-297	-136
-86	-359	-190
-128	-341	-190
-215	-261	-151
-300	-157	-91
-319	-56	-33
-235	33	-17
-51	122	-15
179	222	-9
391	321	40
526	390	81
553	388	79
474	291	52
306	122	43
76	-70	44
-174	-219	-2
-393	-282	17
-526	-257	36
-530	-178	-39
-402	-106	-92
-191	-76	-78
19	-97	-121
167	-137	-166
216	-159	-143
200	-125	-17
164	-37	64
163	75	1
209	171	-37
266	221	-79
280	211	-71
216	154	-43
81	70	-30
-78	-20	27
-202	-105	62
-259	-175	-14
-249	-225	-43
-210	-238	-65
-169	-210	-84
-132	-135	-60
-83	-25	-96
1	94	-100
115	197	-91
221	264	-65
261	288	-20
200	274	24
48	233	32
-132	168	21
-262	81	72
-288	-20	79
-209	-126	49
-81	-208	32
18	-243	14
30	-222	-13
-40	-151	-31
-137	-64	-19
-186	2	-30
-133	29	-64
12	28	-78
196	32	-10
336	70	3
373	150	-12
295	239	45
139	284	53
-28	240	14
-157	94	-14
-222	-109	-42
-228	-297	-43
-197	-390	-28
-152	-354	-2
-106	-211	68
-68	-34	78
-39	97	38
-20	136	-15
-5	86	-76
18	1	-105
61	-60	-172
132	-57	-174
214	-2	-132
275	66	-108
279	100	-87
211	80	-77
91	23	-65
-41	-33	-94
-139	-58	5
-182	-52	152
-178	-36	87
-161	-40	32
-156	-80	-6
-163	-129	-45
-153	-157	-48
-91	-122	-43
37	-22	-63
201	110	-81
342	233	-34
401	292	-12
346	277	31
208	192	13
39	71	4
-96	-53	4
-165	-155	-36
-176	-215	-74
-160	-235	-90
-153	-210	-32
-159	-158	-3
-169	-86	41
-161	-7	76
-123	63	49
-63	120	52
3	158	40
54	171	9
93	161	-2
119	124	-8
137	72	-15
136	19	-55
104	-13	-81
32	-23	-99
-68	-16	-127
-166	-15	-106
-228	-42	-74
-229	-102	-47
-181	-175	-54
-112	-224	-43
-56	-212	-18
-23	-133	-11
2	-14	20
44	104	30
120	183	22
206	210	24
261	201	34
244	179	61
138	158	90
-21	129	65
-172	74	34
-256	-23	-15
-247	-150	-107
-166	-263	-124
-59	-322	-105
24	-297	-23
64	-192	5
69	-43	-25
71	103	-45
85	201	-120
116	233	-130
148	191	-126
167	97	-112
166	-23	-104
150	-134	-23
122	-206	93
83	-221	85
17	-178	66
-79	-114	17
-191	-66	10
-289	-64	34
-325	-105	32
-279	-147	34
-151	-143	29
12	-62	38
154	80	-26
237	235	-96
254	345	-123
226	372	-134
179	325	-139
135	233	-116
89	131	-145
34	42	-134
-40	-41	-16
-122	-136	-39
-191	-233	-50
-232	-301	-37
-236	-309	-12
-213	-237	-12
-177	-106	-39
-140	34	23
-96	132	34
-34	164	2
46	142	-3
137	110	43
214	104	95
254	129	87
245	161	-21
194	166	-32
111	123	22
16	40	22
-81	-51	17
-169	-124	1
-233	-169	16
-259	-187	3
-232	-192	-19
-151	-191	-55
-35	-163	-52
76	-94	-76
154	21	-99
182	156	-18
172	262	30
144	305	34
120	260	-1
101	158	-10
75	47	-17
25	-20	-59
-49	-24	-45
-130	5	-45
-194	21	-43
-226	-29	-63
-223	-153	-75
-199	-316	-53
-160	-443	-62
-103	-470	-54
-7	-368	-16
133	-170	58
302	48	45
439	211	14
488	275	24
411	253	-23
226	188	-53
1	125	-11
-185	84	-19
-277	43	-62
-292	-21	-57
-281	-122	-67
-298	-230	-57
-348	-292	-54
-390	-273	-8
-354	-171	44
-201	-32	76
40	84	96
283	135	83
425	135	57
414	131	-17
280	166	-50
107	250	-34
-6	337	-57
-23	357	-58
32	266	-61
80	77	-163
56	-141	-179
-48	-305	-190
-185	-352	-157
-271	-281	-32
-258	-135	3
-148	29	41
2	170	1
118	268	-33
165	316	12
158	298	35
141	189	29
155	-5	34
198	-245	-14
225	-444	-56
183	-516	-18
48	-423	-36
-144	-209	-48
-321	11	-13
-407	125	24
-370	85	17
-234	-61	-8
-66	-196	-11
64	-214	-15
132	-80	-58
150	139	-105
156	329	-34
184	393	9
230	313	-69
258	164	-126
231	36	-47
133	-8	4
-15	19	43
-165	49	38
-272	18	-24
-312	-88	-44
-295	-213	-33
-245	-282	50
-187	-249	41
-125	-123	-26
-50	28	-60
44	134	-61
151	165	-137
245	138	-123
299	106	18
290	106	7
224	133	10
123	149	24
15	109	29
-78	4	35
-152	-131	40
-206	-237	45
-244	-268	32
-257	-219	21
-237	-130	-3
-177	-50	-10
-76	-16	-42
46	-17	-77
169	-22	-57
261	5	-16
310	67	-44
306	143	-14
265	191	34
188	185	17
88	127	0
-22	40	-9
-133	-32	-27
-231	-64	-55
-305	-53	-71
-346	-5	-129
-352	60	-106
-316	125	-41
-234	168	-11
-111	166	-6
46	106	-14
211	-13	6
346	-160	0
407	-282	-12
373	-326	-17
262	-268	-42
110	-137	-68
-29	-1	-82
-118	58	-85
-153	5	-75
-157	-143	-52
-167	-306	-26
-201	-393	-49
-241	-348	-34
-245	-176	19
-178	58	22
-37	273	33
138	401	52
284	424	51
344	369	29
306	282	42
205	200	34
99	141	-16
25	100	-23
-17	60	-43
-58	11	-74
-136	-49	-91
-253	-119	-68
-365	-189	-6
-410	-244	52
-345	-268	61
-180	-245	16
29	-170	17
206	-54	-9
301	70	-106
313	174	-149
280	230	-91
253	237	9
251	202	22
250	150	19
211	97	-16
109	41	-70
-44	-24	-144
-199	-103	-263
-305	-186	-249
-321	-257	-104
-269	-289	77
-181	-270	138
-103	-200	117
-47	-93	103
-1	23	64
58	125	-3
137	197	-61
216	233	-96
263	233	-129
245	198	-72
172	143	-63
66	71	-66
-32	-6	-45
-98	-88	-9
-137	-163	36
-170	-231	-37
-216	-275	-88
-272	-286	-33
-311	-248	-12
-299	-160	-35
-216	-34	20
-72	103	26
93	224	7
234	299	2
317	315	-42
322	274	-40
262	188	-15
166	76	34
62	-39	78
-27	-137	71
-83	-196	39
-98	-200	22
-77	-148	-18
-38	-52	-125
-12	44	-89
-23	104	5
-79	96	-2
-156	27	12
-207	-65	9
-192	-133	7
-93	-130	-10
66	-50	-18
216	70	-19
292	181	-41
252	230	-46
115	197	-48
-54	103	-49
-185	-13	-60
-232	-110	-37
-201	-168	-2
-136	-190	30
-86	-191	24
-71	-180	12
-68	-160	4
-36	-119	13
46	-60	24
169	6	2
276	60	-33
317	88	-98
263	88	-117
150	71	-88
27	60	-58
-51	58	-39
-77	61	9
-81	51	2
-108	13	-15
-178	-43	20
-269	-98	59
-319	-118	66
-272	-90	36
-118	-19	1
94	74	-76
284	151	-147
384	195	-189
373	202	-200
273	179	-176
150	138	-135
46	84	-122
-23	16	-100
-78	-67	-12
-139	-154	63
-214	-225	84
-278	-251	81
-298	-229	99
-251	-163	111
-149	-78	110
-27	-1	81
76	54	7
143	89	-3
180	116	-22
210	150	-117
241	185	-178
261	206	-214
242	189	-119
170	120	52
42	11	26
-105	-113	-6
-229	-215	-12
-299	-276	-43
-307	-286	29
-272	-259	35
-215	-204	1
-153	-136	-7
-81	-56	-67
7	33	-97
109	128	-35
205	210	-9
263	259	-8
267	260	46
210	210	85
113	128	80
6	40	33
-84	-31	-62
-153	-81	-133
-201	-118	-106
-240	-157	-106
-259	-201	-114
-245	-246	-53
-183	-261	-30
-72	-227	-14
66	-126	8
209	22	29
320	183	40
380	313	32
384	372	8
335	357	-46
242	261	-61
113	125	-36
-29	-20	3
-161	-136	15
-246	-199	6
-273	-196	2
-245	-135	-5
-184	-43	-4
-126	45	-24
-95	93	-34
-86	82	-33
-72	18	-36
-34	-61	-44
39	-114	-48
128	-106	-42
184	-37	-11
175	53	19
90	119	49
-43	115	64
-174	37	32
-241	-77	-9
-224	-174	-38
-136	-205	-60
-27	-165	-77
51	-87	-82
72	-23	-82
36	-16	-58
-16	-61	-10
-36	-122	29
9	-140	15
118	-80	-27
249	52	-63
346	206	-89
355	313	-148
269	325	-158
109	227	-78
-61	58	-60
-193	-121	-16
-253	-251	30
-255	-296	60
-231	-256	82
-215	-153	46
-212	-27	75
-199	91	76
-141	179	19
-20	228	-44
143	244	-52
300	238	-86
387	215	-164
374	183	-130
274	138	-72
125	79	15
-18	2	71
-126	-86	59
-190	-173	74
-231	-233	102
-260	-251	134
-279	-222	80
-267	-152	-36
-200	-69	-29
-79	1	-23
75	45	-205
214	65	-257
295	69	-238
302	69	-217
252	67	-162
175	50	-137
107	15	-58
57	-41	-13
15	-97	15
-35	-126	-31
-102	-110	-48
-180	-56	8
-248	1	14
-279	19	47
-260	-34	85
-195	-151	58
-99	-279	53
10	-352	41
107	-309	-8
172	-143	-16
200	104	-16
182	345	5
132	500	14
66	507	3
7	387	-13
-27	185	-15
-42	-18	-1
-50	-157	6
-81	-203	38
-142	-170	42
-221	-97	25
-276	-31	14
-263	3	2
-167	1	-12
4	-17	-34
192	-27	-50
332	-12	-7
373	32	29
319	90	-8
204	138	-38
85	158	-84
1	140	-95
-42	88	-68
-66	8	-58
-100	-89	-28
-152	-187	1
-209	-268	8
-239	-311	-30
-213	-286	-34
-133	-192	-47
-20	-42	-60
87	121	-38
163	239	-37
193	270	-33
189	208	-39
163	87	-18
128	-33	-5
82	-103	-6
23	-103	4
-48	-60	26
-121	-19	29
-177	-15	16
-202	-48	4
-191	-91	-36
-156	-102	-66
-101	-64	-138
-38	12	-165
32	90	-70
110	137	-26
188	143	-3
249	124	70
269	104	158
241	100	215
162	100	159
56	80	55
-46	24	-79
-127	-65	-214
-176	-159	-320
-202	-223	-379
-214	-233	-320
-217	-199	-270
-202	-142	-154
-157	-90	-26
-74	-51	24
37	-21	150
151	14	155
237	62	102
272	116	24
253	157	-43
190	168	-16
105	150	-41
18	112	15
-66	62	51
-144	14	64
-215	-33	63
-269	-77	57
-292	-108	16
-273	-111	-126
-209	-77	-109
-106	-16	-17
18	51	17
142	96	10
253	99	10
336	64	-4
381	19	-9
373	-15	11
314	-25	14
202	-24	24
50	-37	15
-111	-76	12
-243	-134	13
-314	-190	-39
-306	-214	-49
-227	-198	21
-108	-149	14
9	-80	-4
88	1	-31
107	93	-71
77	200	-57
16	305	-58
-37	372	-64
-59	354	-64
-45	237	-32
-15	51	-8
1	-129	-3
-22	-233	14
-85	-225	9
-156	-140	-11
-198	-52	-20
-179	-32	-26
-101	-92	-43
0	-183	-44
77	-225	-62
96	-162	-55
68	-6	-27
35	168	-13
49	274	11
127	267	2
238	162	-30
314	28	-43
299	-63	-56
165	-87	-59
-40	-64	-31
-241	-48	-18
-363	-66	11
-375	-112	26
-299	-145	-9
-188	-128	-21
-94	-57	7
-29	37	42
20	109	56
84	132	87
167	115	57
252	87	-10
300	81	-58
283	103	-171
209	129	-170
100	128	-113
-1	80	-96
-79	-7	-147
-130	-103	-225
-173	-170	-214
-217	-194	-193
-252	-178	-88
-253	-140	-15
-200	-98	51
-96	-54	155
30	-9	185
138	40	145
199	88	69
214	120	107
205	125	103
196	97	-38
192	47	-170
178	-11	-168
122	-59	-86
14	-98	-70
-132	-125	-57
-269	-149	-22
-347	-167	38
-335	-169	65
-241	-141	61
-106	-71	32
20	35	1
105	164	-55
147	284	-104
170	364	-135
191	374	-106
214	310	-15
226	183	-14
196	29	-4
115	-112	-5
1	-208	-4
-120	-254	2
-209	-259	11
-248	-249	17
-235	-242	6
-182	-235	9
-114	-202	-26
-42	-120	-32
23	18	-21
78	190	-20
117	341	-19
137	420	2
139	398	12
134	288	-4
135	139	-5
139	7	-6
136	-70	7
94	-99	5
-11	-104	-15
-173	-121	-47
-350	-174	-43
-471	-251	-34
-481	-331	-21
-357	-378	-4
-139	-371	-22
91	-301	-17
256	-183	-40
318	-35	-62
292	119	-48
241	253	-37
210	345	-32
209	372	-30
203	332	-24
135	225	-19
-16	78	-15
-226	-72	-12
-411	-195	-12
-487	-261	-10
-416	-258	6
-222	-192	14
12	-86	18
190	35	5
258	148	-6
229	225	-3
159	260	-18
114	252	-38
121	210	-48
159	149	-35
184	77	-6
148	7	3
44	-63	32
-100	-127	14
-227	-183	-37
-299	-218	-89
-298	-223	-132
-240	-186	-70
-156	-111	-130
-69	-11	-232
1	93	-233
59	174	-203
110	215	-109
161	211	-52
207	165	55
241	92	94
251	12	102
224	-57	133
151	-111	101
37	-151	72
-100	-180	1
-231	-206	-24
-315	-223	-2
-330	-222	-8
-272	-187	12
-165	-118	14
-44	-21	-44
51	88	-70
106	182	-22
130	247	45
145	270	-30
172	258	-159
212	210	-127
241	131	24
226	29	94
143	-94	76
5	-218	33
-158	-317	-57
-291	-354	-88
-353	-312	-112
-325	-191	-133
-228	-26	-151
-91	135	-174
42	250	-147
141	291	-122
198	267	-103
216	203	-7
212	129	84
194	68	87
163	19	112
117	-29	142
49	-94	159
-31	-170	158
-110	-248	129
-167	-301	111
-189	-301	57
-172	-229	0
-121	-81	-45
-55	123	-92
11	341	-98
62	507	-115
89	568	-134
91	477	-140
79	244	-124
60	-55	-98
52	-315	-67
56	-429	-48
57	-361	-49
27	-157	-38
-64	61	-61
-228	162	-44
-426	80	-14
-589	-150	4
-632	-393	29
-503	-508	57
-218	-410	72
133	-137	60
432	174	68
569	372	40
528	372	-16
353	211	-52
165	12	-80
58	-102	-96
62	-72	-86
129	50	-62
170	162	-26
115	165	21
-38	39	56
-216	-141	79
-333	-274	58
-325	-278	21
-206	-167	7
-41	-5	-64
91	116	-129
150	151	-135
151	118	-98
138	79	-23
155	86	32
197	140	119
230	200	156
202	201	115
98	115	55
-58	-29	-13
-212	-170	-104
-308	-244	-272
-324	-233	-264
-278	-162	-108
-207	-86	-104
-138	-43	-153
-71	-36	-205
7	-38	-219
107	-12	-181
216	61	-166
300	161	-117
309	249	-16
234	282	34
98	251	75
-43	165	140
-139	55	158
-166	-53	182
-143	-149	150
-111	-227	116
-104	-282	99
-130	-304	40
-166	-270	-27
-167	-167	-79
-113	-13	-58
-5	143	-13
120	240	-64
232	225	-57
294	102	-32
306	-78	-69
279	-222	-10
224	-254	22
140	-158	-10
26	13	-72
-116	154	-72
-264	181	-53
-383	67	-50
-422	-123	-17
-370	-283	-6
-244	-320	40
-89	-199	54
40	20	14
116	241	2
147	372	31
163	389	60
194	312	62
248	202	37
302	113	-8
313	50	-17
249	2	-18
111	-53	-58
-71	-117	-90
-251	-167	-95
-380	-181	-63
-428	-159	-56
-393	-118	-60
-291	-84	-42
-143	-64	-48
22	-44	-82
175	-2	-136
280	66	-97
314	138	-17
274	171	-34
179	143	-43
70	55	-55
-10	-47	-62
-45	-116	-57
-51	-124	-44
-63	-86	-23
-111	-45	-24
-194	-48	1
-273	-105	35
-291	-185	32
-213	-233	3
-41	-209	20
167	-103	38
338	54	51
414	215	42
380	335	26
266	382	51
124	362	56
2	268	45
-95	129	22
-175	-36	7
-258	-188	-2
-339	-290	-31
-394	-319	-91
-401	-271	-129
-332	-186	-84
-203	-104	-47
-47	-66	-85
92	-68	-120
193	-75	-120
253	-40	-86
284	61	-99
302	214	-144
302	358	-36
275	427	-6
210	374	-48
113	222	14
2	19	-24
-89	-155	-68
-144	-250	-2
-165	-256	77
-163	-206	26
-165	-148	2
-177	-113	-30
-197	-100	-52
-202	-79	-56
-172	-20	-104
-88	81	-31
44	195	28
208	272	84
369	267	127
478	166	86
496	10	-8
405	-149	-48
210	-246	-14
-40	-260	9
-274	-210	1
-428	-149	1
-459	-125	35
-379	-159	16
-228	-223	21
-66	-254	28
54	-199	-14
124	-41	-109
151	186	-171
159	404	-75
153	528	-57
128	505	-45
83	353	-23
21	124	-48
-31	-90	-71
-51	-227	-113
-31	-263	-69
7	-216	-12
24	-138	8
-7	-63	11
-87	-11	6
-169	32	-41
-201	74	-56
-151	115	-54
-32	139	-40
105	124	42
198	64	57
214	-24	32
164	-103	29
80	-135	26
2	-113	13
-57	-60	-17
-108	-26	-65
-170	-41	-81
-246	-108	-89
-313	-186	-65
-333	-222	0
-287	-182	68
-178	-74	155
-38	53	133
89	145	70
175	174	9
214	149	-83
219	109	-173
206	90	-127
183	101	-13
151	114	-42
114	98	-18
75	40	1
39	-39	-47
7	-92	-105
-32	-87	-117
-83	-25	-182
-140	49	-241
-178	81	-117
-161	47	-56
-72	-31	-23
71	-91	-37
216	-81	-40
302	9	34
290	124	45
189	183	43
49	126	56
-68	-39	85
-125	-240	52
-132	-371	75
-129	-358	68
-153	-208	-2
-211	-2	-64
-269	159	-79
-280	205	-100
-214	144	-224
-72	46	-84
97	-5	-30
239	28	-85
314	119	72
312	199	87
251	201	90
155	114	72
49	-20	74
-51	-129	61
-134	-166	-15
-181	-138	-35
-185	-97	-86
-145	-98	-123
-84	-157	-165
-19	-236	-143
29	-264	-76
62	-190	-35
101	-12	-25
158	211	-15
225	391	-4
262	455	13
234	391	36
115	237	47
-60	62	49
-236	-86	28
-345	-189	46
-358	-263	76
-303	-330	57
-232	-393	-14
-197	-424	-60
-191	-384	-64
-169	-249	-116
-75	-33	-113
110	206	-10
328	404	-5
483	505	-15
488	495	9
336	410	15
99	296	44
-103	194	38
-178	110	77
-120	34	12
5	-62	-65
89	-190	-84
62	-318	-158
-65	-406	-113
-218	-414	-48
-310	-338	-74
-291	-206	-89
-185	-74	-66
-50	13	-44
56	43	-56
111	38	-48
143	37	2
175	68	-16
223	132	-50
254	194	-121
230	211	-151
131	165	-46
-22	59	11
-177	-58	24
-271	-152	65
-278	-188	106
-215	-167	97
-121	-112	81
-38	-44	41
19	18	-20
55	79	-56
86	135	-96
121	186	-161
151	213	-168
165	203	-123
151	150	-50
115	66	-17
62	-18	17
1	-81	54
-68	-112	51
-151	-124	102
-232	-140	68
-291	-175	43
-299	-222	20
-236	-251	30
-106	-230	41
51	-147	9
184	-12	-34
260	130	-79
257	236	-106
208	270	-102
148	241	-36
113	171	-36
106	108	-40
105	74	-24
74	65	8
-10	57	-25
-133	10	-161
-261	-86	-160
-342	-205	-74
-345	-292	-34
-267	-292	22
-138	-181	42
6	20	26
128	233	28
207	369	-20
242	370	-43
234	241	-56
191	43	-45
124	-135	-11
44	-234	8
-35	-240	37
-99	-192	50
-141	-155	78
-166	-167	112
-182	-228	135
-195	-296	86
-199	-320	2
-175	-270	-64
-102	-148	-145
18	15	-208
163	183	-167
291	331	-167
360	438	-100
355	495	84
292	475	87
206	365	97
119	171	30
41	-61	-93
-44	-263	-154
-152	-372	-215
-275	-354	-234
-382	-238	-194
-428	-86	-95
-390	41	-6
-275	106	28
-125	119	28
16	109	30
119	104	11
183	107	22
226	100	5
261	67	-14
284	11	9
269	-41	-12
197	-67	57
69	-61	98
-82	-48	67
-207	-61	40
-269	-117	18
-255	-194	43
-191	-248	32
-113	-235	29
-46	-144	-6
7	-8	-30
57	114	-35
117	189	-63
182	197	-59
229	171	-26
238	142	-9
198	132	22
127	127	-5
52	97	-95
-7	26	-156
-49	-75	-193
-92	-161	-164
-148	-191	-123
-221	-148	-72
-280	-53	20
-295	33	91
-235	68	76
-105	35	32
59	-36	11
203	-95	56
287	-92	50
291	-19	-47
230	93	-31
130	188	14
20	211	-9
-86	154	-4
-187	32	36
-273	-104	14
-335	-204	-49
-348	-248	-103
-295	-226	-122
-172	-159	-130
-5	-66	-120
170	27	-52
320	112	-39
421	174	-32
469	207	-63
468	198	-125
409	145	-83
299	60	-14
132	-38	-3
-55	-125	-21
-229	-181	5
-337	-200	11
-357	-186	3
-305	-157	15
-224	-126	34
-168	-101	49
-157	-81	24
-174	-50	28
-170	0	14
-103	83	-1
30	190	19
189	301	7
306	379	-32
329	382	-24
245	294	10
101	115	-1
-47	-109	0
-152	-320	-12
-202	-453	-24
-215	-474	-37
-217	-390	-43
-223	-240	-58
-213	-81	-63
-170	43	-10
-81	116	-22
44	150	-18
175	166	-9
280	190	-27
334	225	-30
330	259	-35
273	272	-19
175	244	-23
50	183	-29
-76	98	-32
-179	10	-45
-232	-64	-43
-229	-125	-36
-178	-178	-15
-112	-230	6
-65	-280	10
-48	-311	17
-50	-297	8
-29	-219	-3
37	-84	-10
148	79	-32
262	215	-23
328	284	14
314	262	31
222	170	49
91	51	81
-35	-47	97
-127	-97	24
-191	-102	-96
-245	-89	-106
-300	-82	-25
-336	-90	-84
-321	-100	-223
-228	-92	-151
-65	-47	-139
111	21	-217
240	89	-235
269	131	-235
208	135	-97
100	118	11
7	99	22
-32	96	39
-23	105	42
0	98	22
-9	46	37
-55	-62	90
-116	-206	152
-148	-336	167
-117	-394	135
-22	-351	37
103	-207	-117
210	-5	-217
266	189	-236
261	316	-198
216	345	-136
159	296	-74
111	198	-52
72	100	-6
29	34	44
-27	4	53
-105	-8	39
-190	-31	44
-264	-81	66
-307	-149	68
-300	-207	91
-240	-221	99
-134	-169	103
-6	-62	104
116	63	79
197	165	36
216	209	-21
179	188	-77
102	115	-115
22	11	-134
-27	-97	-137
-36	-194	-110
-23	-268	-66
-21	-301	-35
-64	-282	-23
-151	-204	-13
-253	-80	-6
-319	56	-19
-307	164	-21
-209	211	-9
-56	195	-14
92	137	-19
188	71	-19
210	21	-6
180	-3	12
127	-6	2
84	2	-8
54	17	-10
29	37	-24
0	58	-39
-32	67	-38
-54	51	-21
-52	5	-8
-27	-60	-3
3	-109	-3
18	-110	-5
12	-49	9
-1	47	49
10	139	61
60	183	41
148	153	32
234	75	9
276	-11	-70
254	-58	-119
175	-52	-143
69	-8	-183
-29	35	-176
-105	41	-148
-167	-4	-54
-222	-88	21
-273	-173	22
-299	-223	3
-272	-218	-49
-181	-159	-120
-42	-66	-165
103	32	-132
209	114	-70
251	165	-32
242	183	4
205	171	62
167	143	87
128	98	88
68	41	91
-27	-30	85
-160	-109	67
-296	-189	51
-390	-249	-15
-403	-272	-149
-328	-246	-117
-188	-166	-40
-27	-57	-46
113	52	-96
207	135	-151
253	174	-31
262	169	19
245	136	0
210	105	60
162	91	93
109	96	66
54	103	10
-2	82	-15
-66	14	-61
-147	-108	-57
-231	-251	-54
-300	-370	-41
-314	-403	-11
-248	-318	-24
-101	-124	-35
89	124	-76
256	345	-77
346	468	-65
334	457	-45
242	335	-8
119	174	33
9	50	60
-77	3	17
-150	17	-38
-231	38	-44
-318	4	6
-375	-114	17
-357	-287	20
-244	-437	-38
-57	-487	-56
134	-395	-24
263	-196	-50
290	38	-71
234	211	-81
155	277	-25
117	244	-18
139	179	8
184	131	106
188	131	138
106	145	94
-59	112	33
-249	-6	2
-380	-196	-38
-400	-390	-111
-310	-494	-197
-161	-444	-154
-19	-252	-129
76	9	-110
126	236	-36
163	345	-37
214	324	23
280	209	15
333	79	-24
332	-11	-92
248	-36	-103
99	-13	-28
-82	23	-41
-241	48	11
-344	54	41
-377	51	34
-344	41	24
-269	26	-8
-172	-4	-3
-66	-46	-7
36	-81	-10
124	-78	-35
192	-24	-43
234	68	-38
245	163	-12
238	210	57
204	183	94
150	88	104
72	-34	39
-21	-131	20
-118	-176	52
-201	-171	45
-252	-144	16
-260	-127	-55
-225	-129	-48
-162	-134	-94
-81	-114	-209
6	-49	-215
92	47	-223
172	147	-205
231	213	-161
255	229	-132
232	201	-52
161	158	37
58	125	71
-43	105	107
-124	81	98
-169	21	47
-185	-84	12
-188	-219	6
-185	-345	22
-177	-411	10
-150	-393	2
-89	-306	-30
7	-178	-59
122	-52	-68
230	41	-69
302	100	-40
328	137	14
309	159	53
254	169	65
182	151	48
100	106	8
8	49	44
-94	7	65
-198	10	24
-295	53	-35
-370	109	-111
-407	123	-174
-394	65	-241
-336	-44	-234
-223	-152	-193
-65	-182	-85
107	-109	8
261	41	8
350	185	24
342	236	16
241	157	26
84	-19	5
-67	-208	19
-161	-325	48
-172	-326	28
-122	-233	55
-60	-100	65
-25	18	66
-35	89	24
-65	121	35
-79	129	106
-38	129	61
50	122	18
159	106	-34
240	93	-107
253	93	-149
198	117	-160
94	149	-122
-19	152	-91
-117	93	0
-186	-26	85
-229	-165	93
-248	-254	54
-232	-242	2
-170	-131	-36
-61	18	-97
76	122	-144
208	121	-140
296	26	-103
318	-95	-108
284	-155	-106
226	-110	-79
171	13	-102
130	137	-61
92	177	26
28	101	63
-71	-58	61
-195	-218	43
-304	-301	66
-352	-273	150
-321	-164	145
-218	-34	60
-88	59	4
28	98	-70
100	103	-74
131	104	-20
136	126	-54
138	164	-62
139	190	-77
128	182	-157
95	128	-190
29	46	-169
-54	-37	-125
-143	-105	-91
-216	-150	-57
-262	-178	-24
-278	-191	1
-260	-189	26
-205	-161	49
-109	-99	49
23	-6	53
171	98	48
300	185	13
371	233	-1
363	233	-22
278	186	-34
151	113	-36
22	32	-31
-61	-47	-1
-86	-120	30
-58	-178	42
-7	-212	49
36	-210	48
52	-163	5
33	-79	0
-18	20	-13
-88	97	-42
-157	127	-23
-206	102	-14
-217	41	-24
-182	-14	-48
-106	-33	-89
-16	-4	-132
42	50	-119
35	93	-86
-49	90	-64
-178	38	-25
-285	-30	5
-303	-69	19
-201	-43	26
-10	40	55
198	130	74
334	161	64
346	88	30
249	-72	0
117	-254	-26
34	-362	-77
48	-342	-105
136	-189	-129
228	27	-134
242	208	-94
144	279	-67
-26	225	-72
-193	86	-67
-277	-61	-23
-255	-155	30
-160	-179	48
-65	-155	61
-28	-118	84
-46	-95	84
-79	-70	61
-58	-23	24
42	65	-23
195	180	-72
323	275	-98
355	309	-108
262	257	-78
83	141	-66
-109	7	-35
-240	-97	14
-278	-153	2
-249	-165	-28
-201	-159	-45
-174	-156	-86
-168	-148	-85
-154	-122	29
-98	-62	62
12	30	87
144	124	60
254	193	-41
302	209	-182
280	181	-215
211	129	-35
128	79	-21
55	38	-14
-6	-1	-39
-71	-55	-91
-152	-135	-19
-240	-227	-15
-310	-301	-10
-324	-322	-17
-269	-269	-7
-148	-149	-3
5	10	-5
148	166	32
245	282	57
284	336	71
275	323	11
237	257	-42
187	158	-25
135	51	-78
77	-45	-122
-1	-120	-87
-108	-171	-22
-234	-202	-25
-358	-215	-4
-439	-210	52
-443	-180	76
-352	-118	91
-188	-27	61
8	72	43
183	148	9
299	171	-68
350	137	-123
365	70	-141
380	13	-133
401	6	-16
407	48	-13
346	101	-64
178	109	-76
-95	31	-85
-407	-118	-38
-645	-275	-43
-720	-358	-24
-589	-316	-25
-312	-167	2
14	20	31
269	157	39
389	197	54
373	165	60
283	123	62
195	135	68
140	203	91
111	269	46
62	251	10
-33	104	1
-170	-138	-66
-299	-370	-156
-369	-481	-194
-354	-427	-198
-271	-256	-143
-167	-69	-87
-77	35	-84
-13	40	-54
46	6	-31
127	22	0
226	141	21
314	325	14
346	461	21
291	450	21
158	252	15
-8	-49	1
-148	-318	-9
-221	-430	6
-222	-355	13
-180	-167	2
-130	9	61
-96	78	117
-65	28	123
-27	-64	123
37	-108	83
119	-54	12
199	72	-68
254	197	-136
267	252	-214
242	215	-189
184	127	-94
106	41	-26
9	0	19
-98	-11	-28
-210	-29	-144
-308	-81	-142
-363	-158	-11
-360	-213	-17
-290	-202	-67
-167	-116	-142
-18	7	-157
127	109	-76
244	141	-67
314	109	-66
326	51	-55
288	22	6
210	38	20
111	77	-5
12	88	-1
-71	37	55
-137	-72	101
-189	-193	119
-235	-269	164
-273	-261	96
-285	-181	18
-249	-71	-44
-151	24	-46
-3	84	-52
159	122	-80
284	158	-52
337	206	-102
308	244	-89
226	240	-66
139	161	-111
83	14	-164
62	-148	-84
48	-257	3
7	-261	24
-83	-154	51
-201	12	29
-304	154	39
-341	196	9
-292	114	-19
-180	-62	-32
-49	-244	-30
50	-345	-16
101	-316	-1
115	-169	9
123	24	5
151	181	10
191	238	-1
211	193	-11
172	92	-2
66	-1	13
-92	-29	3
-253	6	16
-360	68	13
-380	102	16
-311	65	44
-181	-27	48
-26	-127	49
120	-171	41
239	-119	-1
313	15	-37
329	166	-77
279	252	-154
172	227	-195
35	85	-188
-93	-102	-133
-173	-257	-84
-191	-314	-59
-165	-267	-41
-129	-162	-15
-114	-62	22
-127	-19	43
-150	-24	56
-145	-35	77
-89	2	117
16	106	137
136	244	123
237	354	108
283	365	36
276	269	-130
231	108	-252
166	-42	-195
94	-126	-118
12	-135	-114
-83	-110	-42
-182	-108	-52
-263	-153	-160
-302	-230	-136
-277	-274	-108
-195	-241	-147
-84	-116	-118
30	59	-47
124	210	-37
192	283	-78
236	267	39
262	192	91
263	109	77
230	48	120
157	14	75
49	-22	65
-69	-82	42
-178	-160	64
-252	-228	67
-291	-248	16
-296	-203	-3
-272	-110	-3
-221	-10	-10
-133	58	-71
-16	82	-85
111	86	-103
219	114	-138
270	195	-168
245	326	-186
167	451	-88
78	495	26
22	395	32
27	139	27
69	-211	36
104	-552	24
76	-766	-8
-28	-785	-16
-174	-618	0
-294	-342	12
-321	-70	34
-233	109	27
-60	165	39
123	131	54
257	75	87
310	54	160
299	92	162
263	158	80
234	209	54
201	209	65
128	162	-72
-14	93	-190
-221	38	-229
-431	10	-238
-569	-2	-181
-574	-24	-185
-439	-68	-188
-225	-115	-219
-10	-129	-222
135	-75	-163
198	52	-90
202	213	11
196	345	39
201	388	53
212	312	61
196	132	81
126	-90	77
5	-283	71
-136	-394	61
-249	-400	35
-306	-312	45
-303	-176	34
-253	-51	27
-178	26	28
-80	45	46
38	31	47
181	27	77
321	68	149
419	161	194
432	261	211
343	310	147
169	257	38
-36	98	-109
-203	-113	-332
-288	-296	-368
-280	-368	-315
-206	-307	-307
-108	-158	-129
-25	2	-68
23	87	-57
41	76	-67
44	0	-153
56	-63	-117
91	-54	-92
147	38	-15
206	168	85
248	259	171
245	260	159
182	166	22
68	27	-164
-69	-98	-163
-195	-167	-12
-274	-176	54
-297	-160	108
-269	-148	82
-210	-152	46
-139	-153	15
-65	-122	-15
9	-46	-37
84	60	-48
152	155	-26
198	202	-57
211	183	-107
180	123	-76
119	55	-66
40	16	-42
-36	14	24
-101	32	15
-155	43	16
-195	18	28
-223	-50	42
-222	-151	43
-186	-246	31
-115	-292	30
-23	-261	11
68	-137	-17
143	47	-47
196	237	-68
229	362	-96
245	379	-95
239	283	-30
201	130	-6
127	0	-44
26	-53	-46
-71	-24	-11
-132	38	10
-148	54	-19
-126	-19	-38
-111	-175	-8
-128	-340	-17
-180	-429	-15
-229	-393	13
-216	-241	28
-109	-48	20
81	103	37
285	168	19
425	158	-35
432	122	-37
306	103	-35
91	110	-2
-136	114	32
-311	77	42
-407	-11	38
-436	-115	28
-425	-182	25
-392	-175	-17
-332	-99	-58
-231	-1	-52
-80	70	-87
109	93	-113
302	91	-161
451	113	-200
522	178	-195
496	261	-189
383	299	-137
216	233	-100
35	53	-20
-120	-170	25
-217	-340	34
-249	-376	87
-229	-272	118
-180	-102	-19
-129	38	-192
-86	84	-78
-41	47	59
19	-4	-32
102	2	-56
194	84	16
265	193	-6
284	244	-23
239	179	-36
137	14	-48
18	-174	-23
-88	-289	6
-158	-282	8
-194	-181	0
-213	-61	42
-229	-4	64
-236	-31	87
-217	-98	110
-158	-129	66
-53	-72	-30
76	64	-106
195	219	-157
274	312	-188
295	301	-151
262	211	-72
196	88	-1
111	-9	27
17	-61	72
-81	-89	74
-177	-127	46
-256	-192	115
-303	-263	164
-304	-296	120
-259	-249	78
-178	-125	2
-76	36	-88
35	177	-132
148	244	-142
253	233	-103
330	178	-120
357	126	-132
312	106	-44
198	120	-52
38	134	-70
-115	114	-40
-217	45	-37
-235	-57	-35
-181	-158	-36
-97	-224	1
-37	-238	11
-31	-208	36
-70	-154	56
-120	-91	43
-133	-27	40
-87	34	39
12	82	45
123	99	30
202	72	15
222	0	-36
186	-85	-92
118	-134	-140
44	-104	-172
-20	10	-127
-85	162	-88
-157	275	-102
-240	274	-35
-315	139	122
-347	-83	112
-306	-289	-12
-182	-384	-69
0	-315	-81
191	-114	-128
339	124	-147
401	300	-85
373	340	-55
276	252	-7
154	95	7
34	-51	11
-60	-131	54
-133	-142	70
-186	-117	25
-224	-97	18
-237	-103	78
-218	-119	26
-162	-116	-17
-70	-70	-28
38	14	-7
142	110	28
221	180	-62
257	203	-115
253	183	-75
216	139	-22
162	103	-30
93	70	-6
18	40	31
-61	-10	26
-143	-81	81
-221	-159	-32
-272	-214	-100
-286	-224	22
-256	-183	-133
-181	-108	-187
-77	-29	-149
32	29	-221
126	62	-181
192	78	-152
224	93	-48
225	109	-5
202	119	24
156	103	65
95	48	79
21	-37	84
-54	-129	40
-128	-189	34
-186	-196	27
-223	-149	32
-239	-69	20
-234	7	20
-207	55	11
-156	66	-3
-78	57	26
22	53	34
125	85	0
212	154	-10
261	240	13
268	298	-23
242	279	-50
202	165	-35
161	-33	-7
110	-251	20
38	-410	10
-67	-446	-22
-191	-344	-44
-294	-151	-49
-321	47	-45
-250	168	-28
-97	174	-29
78	98	-41
201	4	-48
234	-33	-28
176	5	1
89	94	-25
28	166	-37
21	169	-35
46	88	-15
49	-45	11
-15	-171	4
-149	-243	15
-296	-249	26
-390	-210	75
-371	-160	135
-244	-110	33
-61	-60	-106
102	11	-63
196	106	-99
216	206	-349
195	272	-287
174	272	-65
171	205	-72
172	94	-64
145	-11	-89
68	-81	-75
-50	-109	7
-177	-119	24
-267	-135	39
-292	-165	59
-251	-191	52
-164	-182	45
-62	-118	36
31	-7	-18
107	117	-12
172	211	39
226	252	101
261	240	13
266	197	-103
234	149	-68
167	106	-39
74	61	-17
-29	-6	-92
-128	-98	-136
-215	-205	-86
-281	-300	-51
-320	-352	-120
-314	-340	-112
-251	-263	-35
-130	-133	-62
28	29	-20
192	191	27
317	323	37
373	395	31
354	392	34
273	317	35
157	195	24
36	74	25
-74	-16	-6
-168	-55	-1
-245	-55	-1
-294	-49	-27
-296	-62	-30
-237	-114	-36
-121	-189	-25
25	-268	-2
155	-321	-1
229	-338	-6
234	-313	-2
189	-245	-19
138	-134	-23
117	16	-16
123	192	-5
127	362	-11
86	481	-23
-22	497	-41
-178	401	-53
-325	205	-35
-408	-31	-23
-392	-245	-22
-284	-384	-19
-133	-429	-14
12	-394	-10
115	-309	0
175	-194	0
202	-71	-1
205	48	-8
188	154	-35
142	231	-48
76	259	-29
2	239	7
-54	177	21
-81	102	34
-90	29	66
-107	-29	69
-162	-85	28
-246	-144	-30
-325	-205	-111
-347	-249	-170
-264	-240	-211
-86	-157	-161
143	-6	-40
342	169	1
454	308	26
453	364	53
366	321	78
240	210	149
121	81	57
23	-20	-28
-53	-75	-23
-124	-93	-117
-192	-98	-242
-243	-112	-359
-256	-134	-116
-222	-147	85
-144	-133	65
-45	-90	167
48	-24	45
125	43	7
183	97	34
222	130	-93
242	145	-215
234	142	-289
188	121	-189
97	68	-93
-24	-9	-51
-150	-107	18
-245	-196	78
-292	-249	120
-290	-254	89
-245	-209	4
-174	-134	-100
-91	-48	-194
-3	32	-79
84	103	15
157	158	37
197	197	84
193	207	84
140	177	130
58	105	77
-23	9	-12
-70	-81	-48
-65	-132	-13
-18	-134	-43
41	-95	-92
77	-46	-67
66	-23	-48
16	-44	-13
-43	-96	-22
-78	-144	9
-58	-151	11
6	-90	14
91	26	16
158	165	2
175	282	2
145	343	-11
89	334	-11
31	257	-17
-18	128	-20
-63	-38	-3
-122	-216	-6
-200	-373	-20
-279	-456	-44
-321	-425	-44
-285	-270	10
-162	-28	13
20	215	4
203	379	-30
319	398	-67
319	287	-57
211	119	-36
44	-24	-23
-115	-84	-16
-213	-68	5
-235	-33	7
-201	-36	-6
-159	-106	-23
-149	-211	-27
-181	-301	-34
-235	-329	-42
-263	-288	-47
-234	-202	-62
-126	-104	-58
36	-14	-54
211	74	-53
346	169	-50
411	261	-46
399	324	-44
335	321	-36
251	243	-22
169	112	-15
94	-14	-3
16	-96	-5
-70	-116	-13
-166	-105	-23
-242	-95	-2
-271	-106	38
-236	-122	25
-142	-105	34
-20	-35	91
94	77	108
171	187	65
207	247	42
210	236	29
196	174	-6
178	112	-32
150	74	-79
97	63	-97
13	41	-57
-94	-24	-131
-202	-142	-296
-285	-274	-281
-319	-359	-195
-296	-352	-238
-226	-249	-301
-131	-95	-161
-29	45	39
65	131	74
144	153	68
204	135	34
237	118	56
237	117	62
202	126	18
132	116	27
29	71	30
-91	-8	22
-215	-96	5
-317	-166	19
-369	-190	34
-345	-171	48
-242	-119	62
-79	-53	82
100	8	83
238	59	32
297	93	-14
269	104	-34
194	92	-17
127	58	-30
116	19	-49
166	-13	-55
238	-24	-66
271	-19	-49
216	-9	-16
70	-9	17
-127	-26	22
-310	-49	-2
-417	-65	-74
-422	-57	-119
-340	-32	-53
-214	-3	17
-79	14	38
42	13	61
147	5	43
229	7	3
282	32	-46
296	74	-118
261	108	-158
180	114	-152
70	74	-120
-46	-1	-91
-162	-96	-32
-270	-177	26
-371	-230	30
-437	-234	20
-447	-182	56
-374	-72	127
-215	80	135
-13	240	138
172	354	133
285	372	65
306	279	-4
255	103	-111
184	-83	-201
140	-196	-224
126	-196	-192
116	-105	-192
64	11	-252
-40	72	-128
-170	43	-36
-264	-60	-80
-277	-173	-42
-194	-234	-48
-54	-218	0
74	-147	29
150	-69	20
167	-22	57
162	-6	58
169	10	52
203	49	67
234	114	34
219	171	-64
135	174	-46
-4	110	41
-151	-7	32
-251	-121	32
-274	-185	58
-236	-175	82
-168	-111	105
-107	-36	77
-60	18	8
-12	40	-27
54	50	-85
141	68	-241
223	110	-230
262	161	-193
234	196	-194
147	200	-80
30	162	-7
-71	93	42
-141	8	40
-185	-86	18
-221	-176	-9
-259	-253	-15
-296	-289	-28
-303	-264	-29
-247	-167	20
-121	-14	26
48	147	47
221	259	51
346	279	31
406	211	38
391	83	42
319	-40	22
207	-112	-68
78	-116	-110
-53	-70	-64
-169	-21	-74
-242	-8	-56
-259	-48	-93
-222	-123	-67
-148	-187	-16
-65	-198	-20
-6	-125	16
29	15	8
57	190	-3
100	342	17
166	432	24
237	438	-35
279	362	-68
255	227	-71
163	50	-75
24	-140	-32
-120	-326	2
-234	-473	18
-308	-548	22
-351	-530	0
-383	-411	-20
-401	-230	-46
-389	-43	-63
-316	87	-61
-172	131	-31
23	110	15
219	67	18
359	63	42
411	119	56
373	215	32
278	305	3
158	328	-19
42	265	-29
-57	135	-34
-142	-7	-2
-206	-119	-17
-239	-180	-33
-225	-200	2
-165	-206	-32
-78	-209	-114
12	-199	-156
84	-145	-135
136	-35	-109
182	120	-95
237	270	-65
292	357	-60
326	341	-43
302	227	-25
203	56	37
41	-111	29
-130	-229	-42
-262	-282	-48
-321	-286	-34
-308	-253	63
-249	-196	152
-181	-119	185
-121	-18	112
-59	93	30
18	191	-10
116	243	-155
216	238	-189
285	193	-124
295	132	-153
234	85	-120
125	53	-92
4	21	-49
-97	-29	-14
-166	-103	-13
-207	-187	-12
-229	-243	-28
-237	-249	-19
-221	-199	-16
-170	-120	-2
-86	-44	-11
23	7	-12
131	33	-1
215	57	22
262	96	24
270	150	17
255	200	14
216	215	12
162	181	39
85	99	17
-7	1	-14
-100	-88	-24
-180	-150	-39
-239	-181	-93
-274	-193	-112
-300	-188	-54
-310	-156	18
-290	-81	48
-213	33	32
-56	165	49
164	268	87
393	300	107
539	244	68
529	134	-23
337	15	-96
10	-64	-122
-350	-101	-130
-619	-120	-106
-713	-175	-83
-621	-280	-45
-407	-414	-19
-165	-504	-46
26	-485	-51
129	-330	-44
163	-68	-41
169	209	-42
188	421	-19
234	518	19
292	497	32
341	412	58
351	298	84
314	185	87
234	70	91
117	-51	52
-18	-175	-7
-149	-272	-35
-249	-312	-55
-290	-280	-113
-262	-192	-188
-168	-87	-211
-36	3	-197
90	62	-168
180	99	-137
216	134	-60
208	170	32
175	194	63
135	183	91
101	129	103
59	43	101
6	-44	30
-68	-100	-51
-153	-119	-95
-228	-112	-215
-269	-108	-245
-269	-117	-57
-232	-134	24
-162	-134	30
-77	-91	62
19	-11	39
113	85	36
198	158	30
256	187	72
276	171	17
250	131	45
180	88	34
83	43	-100
-23	-6	-70
-121	-74	-140
-200	-155	-175
-253	-229	-105
-280	-261	-35
-271	-233	15
-228	-145	25
-149	-29	40
-41	79	39
75	150	10
181	180	2
254	175	18
284	158	-35
268	126	-107
209	84	-69
115	26	28
-3	-43	-6
-126	-108	-3
-234	-156	43
-297	-172	20
-294	-157	9
-221	-116	-11
-104	-54	-16
8	16	-6
77	88	2
86	145	-21
56	170	-32
39	156	-17
77	117	-48
180	78	-67
302	68	-45
383	97	-21
346	135	-11
184	135	-19
-60	55	-30
-299	-105	-24
-451	-299	-19
-473	-451	-18
-382	-494	-18
-235	-417	-9
-94	-257	-18
12	-90	-28
87	28	-26
151	84	-11
216	106	31
278	145	40
302	211	43
269	282	43
175	301	32
49	233	-28
-76	71	-110
-165	-127	-139
-214	-284	-133
-232	-343	-97
-235	-280	-67
-227	-131	-40
-201	48	-23
-150	201	-15
-65	295	-10
37	317	-35
139	271	-27
216	183	-35
255	71	-44
252	-24	-49
214	-80	-60
154	-81	-52
74	-40	-51
-14	3	-26
-105	7	14
-183	-53	47
-237	-154	48
-253	-246	25
-232	-273	-8
-173	-207	-61
-93	-72	-45
-4	76	-16
79	178	-22
149	207	15
198	179	41
225	131	-17
229	101	-67
212	89	-105
180	77	-80
129	33	-4
55	-48	-41
-42	-145	-74
-157	-219	-92
-262	-242	-81
-331	-206	-42
-325	-139	-61
-240	-74	-32
-93	-28	22
69	4	55
196	37	55
262	84	63
263	135	51
226	171	5
172	174	-21
119	136	16
60	77	-9
-12	17	-85
-105	-23	1
-203	-48	-6
-272	-68	-45
-290	-92	-36
-250	-113	-62
-166	-116	-46
-65	-89	-33
25	-32	-9
91	30	-15
138	71	-12
169	74	3
184	41	-8
181	7	-14
161	-9	28
130	10	51
104	49	42
86	85	47
65	90	2
15	53	-43
-89	-17	-68
-236	-103	-95
-383	-178	-106
-459	-226	-120
-420	-230	-129
-249	-180	-120
-1	-79	-85
234	54	-42
380	183	-8
398	261	7
311	258	14
175	170	20
59	36	18
-5	-84	7
-22	-137	13
-24	-112	18
-47	-36	29
-102	32	34
-181	43	13
-253	-13	-7
-288	-107	-27
-262	-178	-56
-168	-178	-84
-21	-94	-52
142	41	-25
276	168	-17
342	240	6
319	233	7
221	164	13
80	65	41
-54	-21	89
-159	-82	89
-231	-117	82
-281	-134	84
-325	-142	3
-344	-137	-91
-304	-114	-163
-174	-63	-226
42	7	-249
290	80	-202
488	135	-89
562	160	-39
498	154	-45
340	125	-76
169	93	-106
48	58	-89
-1	27	-17
-22	-13	51
-69	-68	25
-174	-142	-9
-312	-227	-18
-419	-301	14
-435	-340	9
-341	-322	-36
-174	-237	-46
-5	-93	-13
111	84	-14
158	252	16
167	368	61
175	403	-1
201	350	55
222	243	115
199	112	78
109	1	71
-33	-72	30
-178	-113	-12
-271	-133	-50
-285	-152	-62
-234	-167	-117
-156	-171	-142
-84	-145	-64
-29	-83	-62
20	3	-54
85	93	-44
166	160	-68
239	188	-83
267	181	-68
226	150	-58
125	113	-67
1	70	8
-97	22	29
-139	-43	3
-126	-123	14
-92	-209	-1
-68	-274	3
-75	-301	22
-100	-279	24
-117	-211	6
-96	-110	7
-24	3	14
89	116	12
212	215	15
312	291	-6
360	322	-2
346	291	20
266	196	16
136	51	-5
-26	-109	-15
-194	-235	-3
-343	-287	-11
-442	-260	-39
-481	-173	-65
-452	-70	-84
-360	8	-102
-223	51	-97
-56	76	-83
111	110	-74
253	169	-28
342	241	-9
371	283	-27
342	261	-60
269	163	-34
179	8	52
89	-154	91
5	-271	87
-77	-320	56
-158	-309	14
-236	-261	-44
-295	-198	-78
-312	-123	-123
-272	-22	-164
-173	103	-149
-39	224	-128
100	292	-107
211	265	-60
280	134	-15
302	-54	-20
280	-222	37
216	-296	76
109	-249	57
-34	-118	31
-188	21	-8
-308	104	13
-355	105	17
-312	51	-18
-199	-3	-50
-66	-16	-24
34	15	13
81	62	-19
91	89	6
103	84	14
155	67	-34
245	71	-9
328	115	-21
344	179	-50
258	215	-16
83	183	-55
-126	74	-64
-291	-72	-29
-371	-192	-30
-357	-234	-3
-290	-192	24
-217	-114	19
-159	-58	12
-110	-63	16
-42	-116	-52
59	-166	-178
188	-149	-158
300	-52	-96
353	91	-121
329	215	-76
237	256	-24
112	195	-9
-5	66	8
-96	-69	35
-163	-162	43
-213	-196	16
-251	-186	-7
-262	-162	-23
-237	-134	-25
-162	-97	1
-51	-34	45
65	57	26
159	157	-2
210	229	-35
222	243	-45
203	197	-7
169	115	-49
123	35	-62
65	-22	-26
0	-61	51
-62	-95	42
-99	-140	-24
-98	-189	-4
-64	-218	-21
-24	-201	-44
-3	-131	-78
-14	-28	-95
-40	79	-86
-50	151	-63
-18	174	-4
60	153	34
155	104	30
222	53	36
229	23	37
171	25	27
74	54	61
-30	87	96
-115	89	61
-178	27	0
-222	-98	-43
-249	-249	-111
-253	-348	-160
-218	-330	-187
-147	-167	-204
-47	94	-164
42	345	-98
107	483	-46
131	450	-41
126	272	-6
107	43	30
83	-127	62
42	-190	104
-23	-163	75
-113	-112	46
-209	-105	33
-270	-154	15
-272	-222	0
-209	-249	-1
-111	-201	-23
-16	-102	-44
49	-2	-34
86	52	-5
118	57	44
167	45	64
229	63	65
276	120	44
275	185	-52
210	206	-162
99	147	-189
-18	18	-151
-101	-120	-110
-134	-200	-14
-141	-190	-5
-144	-112	-149
-169	-24	-194
-194	13	-179
-188	-11	-128
-121	-61	-29
7	-79	84
158	-25	86
276	89	64
318	211	87
274	277	10
171	257	-51
61	164	-14
-23	45	28
-75	-49	-6
-110	-100	1
-152	-114	-17
-200	-124	-90
-241	-145	-83
-237	-176	-34
-172	-190	-3
-49	-163	-3
97	-90	-2
223	14	32
297	110	33
306	171	10
271	189	-19
214	166	-23
151	127	31
85	84	24
5	47	-6
-91	13	-3
-195	-22	-16
-281	-61	-55
-333	-110	-57
-321	-163	-1
-260	-213	-14
-159	-237	-49
-43	-219	-63
63	-144	-36
153	-13	1
216	145	-24
251	291	-20
251	382	-4
214	388	-2
144	316	-7
54	191	-12
-40	48	-15
-125	-84	-16
-195	-187	-27
-258	-264	-40
-307	-319	-41
-337	-353	-59
-330	-364	-48
-262	-347	-26
-123	-284	-21
71	-163	-28
280	23	-49
459	260	-56
553	500	-37
546	665	-12
432	688	-15
238	519	-13
-8	189	-10
-255	-206	-25
-459	-534	-30
-579	-685	-34
-589	-632	-16
-494	-416	-10
-325	-152	-8
-136	56	19
26	151	4
133	152	-16
194	119	-17
237	104	-30
286	130	-17
346	170	-12
387	186	-4
371	153	1
273	83	-25
107	10	-44
-79	-38	-40
-225	-59	-32
-295	-76	-35
-282	-107	4
-226	-156	17
-166	-191	-19
-127	-179	-32
-105	-105	13
-65	9	17
15	112	-2
140	161	21
280	140	-19
381	85	-123
395	40	-129
306	40	60
144	74	2
-45	95	-98
-206	61	-89
-311	-40	-166
-357	-167	-161
-369	-250	-147
-364	-237	-52
-338	-123	-48
-270	36	-103
-132	165	-55
76	206	58
311	160	159
501	75	61
569	11	-12
484	11	-25
287	59	-37
53	112	-6
-119	114	-51
-177	49	-6
-130	-64	71
-52	-181	16
-19	-252	-5
-74	-265	-27
-185	-232	-38
-281	-174	-25
-285	-111	-57
-169	-43	-65
29	36	-56
221	131	-9
326	227	14
318	291	5
226	301	5
116	248	-4
36	153	-45
-3	43	-105
-38	-48	-2
-107	-113	107
-223	-157	65
-345	-185	60
-417	-203	16
-392	-198	-26
-263	-159	-42
-84	-78	-71
90	24	-72
210	115	-95
267	165	-63
283	161	-31
292	116	-16
296	61	-12
272	25	-12
195	10	5
56	-1	-9
-117	-31	-15
-268	-96	-22
-348	-179	-14
-344	-250	4
-278	-270	15
-195	-232	4
-132	-150	1
-91	-60	6
-48	6	5
22	50	31
125	98	6
238	187	-40
322	319	-89
338	458	-113
280	530	-112
170	469	-94
34	261	-61
-102	-52	-27
-226	-362	11
-333	-565	32
-406	-596	36
-424	-469	19
-360	-257	14
-206	-49	-10
10	90	-32
228	157	-33
373	190	-33
407	233	-37
325	301	-25
186	364	17
62	354	39
4	235	49
16	11	79
60	-250	98
83	-460	41
46	-540	-58
-42	-475	-190
-144	-312	-301
-213	-125	-320
-218	15	-230
-161	84	-111
-68	99	-55
32	106	14
122	136	12
196	201	3
251	262	50
276	289	58
254	250	53
178	150	-49
52	16	-112
-92	-113	-48
-218	-209	-7
-294	-260	30
-312	-264	69
-284	-237	60
-229	-182	31
-160	-106	64
-75	-20	43
32	63	-36
151	129	-68
252	168	-101
299	178	-133
262	166	-96
159	141	-26
24	104	0
-93	56	32
-152	-6	24
-156	-75	0
-126	-126	1
-103	-137	-23
-105	-96	-12
-123	-11	3
-132	77	-9
-108	131	10
-46	122	49
36	66	69
110	2	61
158	-17	55
175	29	28
179	121	-38
170	197	-92
145	197	-72
95	97	-34
14	-76	-38
-90	-253	-37
-191	-368	-10
-258	-381	-29
-268	-316	-47
-223	-226	-79
-139	-151	-90
-44	-111	-20
47	-78	-69
127	-15	-112
195	97	-80
238	241	-62
244	372	-62
195	438	-44
97	420	-13
-28	313	-27
-136	156	20
-194	-14	-16
-193	-162	-80
-152	-264	-55
-111	-316	-92
-101	-316	-60
-126	-276	-2
-154	-223	67
-137	-178	115
-49	-153	100
104	-133	77
273	-81	-2
396	32	-72
419	203	-116
337	377	-76
187	468	-1
29	410	-3
-86	198	-66
-141	-90	-107
-153	-339	-72
-157	-443	-72
-178	-379	-65
-221	-210	-42
-257	-41	-5
-253	44	35
-187	46	-2
-66	27	6
76	71	31
203	211	58
280	391	95
302	501	85
261	455	59
167	252	46
31	-20	35
-125	-232	8
-273	-296	-18
-370	-222	-34
-375	-98	-51
-274	-42	-90
-91	-101	-91
111	-237	-116
259	-345	-149
306	-329	-98
261	-171	-48
172	68	-94
111	286	-111
115	393	-17
170	368	-14
219	257	-25
198	120	-13
79	-5	7
-109	-114	44
-298	-222	56
-415	-312	52
-425	-354	-12
-345	-306	-45
-226	-162	-67
-112	33	-53
-30	192	-52
32	243	-50
95	174	-34
167	41	-42
234	-64	-20
266	-85	0
242	-19	30
154	65	44
38	86	26
-69	16	-4
-144	-111	-44
-180	-215	-53
-191	-224	-16
-199	-127	-3
-208	18	9
-203	134	-6
-162	168	-35
-70	124	-39
65	58	-67
216	31	-63
346	63	17
415	132	64
405	183	56
314	174	36
166	103	-70
-1	-4	-96
-141	-97	-24
-226	-145	-40
-241	-152	-70
-202	-131	-101
-144	-104	-104
-100	-68	-76
-86	-21	-64
-93	44	-32
-95	112	-1
-56	154	-4
28	143	-33
138	79	-25
234	-21	5
262	-113	12
210	-163	22
86	-157	91
-64	-110	43
-191	-55	-113
-259	-21	-67
-263	-23	-16
-237	-58	-95
-204	-98	-116
-184	-117	-48
-166	-93	14
-119	-15	-43
-18	103	-78
143	239	-83
326	349	-4
470	393	60
516	336	49
432	180	52
245	-45	31
26	-271	19
-156	-416	-46
-243	-418	-60
-241	-268	-71
-191	-25	-79
-156	205	-49
-159	309	-27
-186	215	17
-193	-36	20
-134	-340	9
-10	-539	4
141	-523	-2
257	-280	-11
284	92	-12
228	421	-11
125	568	-18
33	473	-18
-18	201	-12
-39	-111	-9
-66	-320	-19
-132	-351	-16
-229	-223	-13
-317	-16	-30
-338	174	-37
-263	294	-39
-115	327	-42
54	300	-34
182	236	-27
232	147	-30
216	35	-33
180	-85	-30
154	-185	-23
149	-238	-16
140	-233	-13
99	-190	-12
8	-157	-5
-109	-167	1
-214	-225	-6
-263	-285	-28
-247	-292	-44
-175	-211	-39
-80	-55	-8
11	115	22
89	236	52
154	268	45
212	235	2
260	182	-22
275	163	-35
241	188	-55
154	218	-111
35	204	-89
-86	106	-4
-176	-58	-46
-224	-229	-172
-233	-332	-214
-223	-325	-115
-206	-219	-54
-182	-63	-30
-141	76	28
-72	154	36
23	171	16
132	158	-8
233	150	30
300	165	66
324	197	10
300	222	-43
237	221	-30
143	182	22
29	110	43
-94	18	26
-214	-94	-28
-321	-216	-99
-402	-337	-108
-443	-423	-47
-432	-437	-5
-354	-354	20
-208	-183	78
2	21	103
240	181	89
439	233	65
547	164	2
516	20	-103
352	-118	-160
110	-177	-192
-130	-135	-211
-306	-32	-160
-379	61	-92
-363	85	-18
-299	27	64
-216	-77	63
-133	-162	29
-37	-191	84
77	-153	83
206	-74	13
320	18	-54
383	110	-58
373	198	-16
306	282	-92
210	341	-158
121	343	-38
52	259	84
-5	94	61
-71	-99	42
-155	-243	9
-242	-272	-48
-308	-178	-117
-325	-12	-103
-289	142	-53
-217	208	5
-128	170	12
-42	65	-30
41	-33	36
123	-76	24
199	-46	15
258	15	-3
273	53	-44
234	38	-35
141	-31	-40
24	-118	-16
-89	-176	-7
-172	-174	-56
-216	-117	-15
-227	-43	10
-214	1	-69
-181	-17	-91
-123	-92	-49
-40	-189	-9
60	-246	-11
158	-212	-22
229	-77	-44
252	127	-62
228	323	-71
164	430	-47
81	401	-23
-10	244	2
-101	28	26
-182	-167	37
-248	-270	57
-274	-273	84
-250	-214	126
-170	-150	126
-54	-116	93
69	-100	32
172	-63	-53
234	33	-107
253	179	-180
232	318	-214
182	378	-142
111	313	-165
28	148	-182
-61	-45	-168
-148	-171	-103
-214	-178	-21
-250	-80	-20
-248	52	5
-217	135	-16
-166	117	-1
-100	3	8
-27	-151	11
54	-279	35
140	-334	43
221	-300	47
266	-190	8
260	-37	-33
187	121	6
60	247	41
-82	312	9
-190	290	28
-226	187	37
-173	32	61
-59	-118	66
59	-214	56
122	-221	64
96	-151	38
-5	-52	0
-124	18	-81
-181	26	-97
-124	-17	-27
40	-72	-32
253	-89	-113
417	-34	-156
451	79	-162
330	199	-133
99	261	-133
-156	222	-139
-350	83	-86
-436	-107	-12
-421	-277	70
-340	-356	104
-240	-318	43
-143	-187	14
-54	-22	74
39	110	82
142	171	-18
238	163	-91
308	117	3
328	81	-5
300	77	-173
237	103	-185
163	128	17
97	122	85
36	70	-9
-29	-15	-23
-111	-102	-4
-200	-163	45
-279	-174	58
-311	-137	83
-276	-62	86
-174	31	64
-29	117	-20
117	171	-110
226	179	-136
273	140	-153
254	79	-184
187	30	-145
97	19	-67
6	41	-77
-71	57	-48
-136	10	-48
-190	-119	-28
-236	-301	12
-271	-451	24
-284	-473	38
-264	-331	12
-208	-77	-14
-108	174	-75
18	301	-25
150	265	51
258	115	-2
320	-29	-11
320	-65	17
262	28	40
166	174	36
54	257	-21
-48	197	-16
-130	8	3
-191	-207	-32
-236	-334	-90
-259	-309	-111
-255	-164	-25
-204	2	-15
-100	96	-25
50	86	0
216	23	-30
352	-10	-15
419	50	-56
398	200	-94
299	373	-65
151	489	-43
1	475	-10
-119	316	19
-197	50	59
-242	-253	87
-269	-512	99
-290	-653	67
-304	-635	24
-295	-459	-2
-247	-178	-13
-150	109	-57
-14	300	-77
132	332	-89
252	221	-102
314	47	-86
310	-85	-99
245	-111	-112
149	-41	-138
40	54	-108
-59	98	-38
-147	51	13
-218	-54	42
-273	-153	49
-299	-179	40
-275	-123	9
-195	-27	-7
-64	49	24
87	71	32
222	49	17
302	25	6
325	41	-24
296	103	-7
241	174	-35
184	206	-24
133	168	-8
85	68	-19
22	-54	22
-52	-156	6
-132	-206	6
-191	-201	-2
-215	-157	13
-200	-96	14
-156	-28	-23
-96	34	-6
-33	84	-43
24	110	-100
82	106	-136
139	82	-160
184	47	-144
210	28	-58
195	35	34
139	59	-38
54	80	-125
-40	71	-59
-124	27	13
-185	-46	39
-224	-121	35
-242	-170	-6
-241	-173	-14
-214	-136	-28
-151	-71	-47
-52	2	-31
65	71	38
171	126	72
233	164	65
229	181	80
169	174	-37
89	153	-91
24	110	-50
-1	55	-92
7	-7	-122
19	-79	-137
0	-151	-132
-63	-222	-92
-153	-271	-49
-225	-281	22
-234	-238	74
-161	-137	34
-28	2	-23
110	147	-21
196	260	20
204	309	5
147	282	-32
66	187	-19
10	51	-12
0	-95	-13
16	-216	-32
26	-289	-67
-11	-300	-53
-94	-244	-28
-191	-147	11
-253	-40	37
-239	38	16
-148	61	12
-11	38	-7
113	-6	-20
184	-25	-17
191	12	-22
155	108	-15
113	219	-23
90	291	-21
87	282	1
86	190	20
65	54	24
12	-66	3
-63	-126	-36
-139	-130	-62
-195	-117	-68
-223	-131	-63
-223	-192	-61
-195	-261	-47
-148	-278	-28
-75	-191	-11
16	-4	2
111	215	21
184	373	21
212	398	12
186	279	-12
111	80	-42
23	-103	-36
-57	-198	-51
-113	-192	-49
-151	-135	-51
-174	-93	-42
-194	-106	-28
-195	-163	-31
-159	-210	-20
-72	-191	-13
61	-89	-3
210	68	2
334	218	18
396	305	9
387	316	-13
314	262	-30
206	188	-43
85	114	-23
-32	48	1
-144	-22	2
-247	-102	49
-331	-182	141
-385	-233	161
-389	-233	123
-336	-178	22
-218	-86	-30
-51	8	-102
143	83	-302
330	129	-356
458	158	-331
489	177	-218
414	178	-88
254	145	-21
64	67	30
-96	-46	14
-187	-166	1
-213	-244	-93
-206	-246	-153
-214	-181	-113
-256	-86	-11
-310	-15	63
-320	-1	91
-236	-41	147
-57	-96	83
170	-110	-9
363	-55	-15
451	65	-17
414	205	-10
300	301	42
175	310	14
99	225	-7
76	76	-9
60	-83	-74
3	-201	-49
-129	-254	-62
-305	-238	-42
-455	-176	-21
-507	-97	-9
-428	-19	12
-251	47	8
-43	106	30
120	158	16
196	203	4
184	230	2
130	223	28
78	179	9
59	96	-35
69	-7	-60
86	-114	-39
74	-202	15
18	-259	38
-70	-278	37
-166	-258	-12
-228	-206	-19
-231	-131	-11
-161	-51	-40
-36	27	-44
110	94	-81
244	142	-119
