File Name: not saved
Channel 2: 'Channel 2', 10810 values, raw ADC, no filters.
Channel 3: 'Channel 3', 10810 values, raw ADC, no filters.
Channel 4: 'Channel 4', 10810 values, raw ADC, no filters.

-100	-101	-34
-132	-145	-23
-156	-168	-35
-176	-165	-55
-186	-141	-48
-175	-97	-42
-127	-41	-26
-45	16	-35
54	71	-34
145	114	-13
204	143	-14
216	154	-9
198	145	-3
160	118	2
111	67	-17
56	1	-32
-16	-77	-24
-108	-147	-15
-208	-196	-11
-291	-215	-18
-329	-195	-48
-303	-143	-34
-214	-76	-13
-93	-7	-20
27	49	-35
125	88	-30
195	110	4
248	120	-17
291	124	-24
328	122	-24
329	106	-35
273	72	-10
139	18	-23
-53	-49	-32
-269	-113	-25
-443	-158	-18
-526	-171	-16
-500	-157	-30
-378	-118	-24
-202	-74	-24
-25	-29	-29
117	14	-25
209	59	-30
253	113	-31
265	165	-32
255	202	-30
228	207	-27
179	168	-23
109	92	-24
27	-4	-23
-57	-89	-12
-128	-144	-14
-173	-163	-9
-190	-153	3
-178	-127	-8
-141	-96	-15
-84	-60	-26
-5	-16	-44
87	38	-46
175	98	-42
240	149	-40
262	169	-34
234	156	-10
166	106	-1
75	41	-8
-13	-27	-7
-87	-86	-10
-144	-130	-16
-191	-161	-30
-232	-176	-31
-259	-179	-38
-259	-155	-47
-215	-109	-40
-120	-43	-29
11	31	-7
149	96	-5
260	142	-6
317	166	-8
314	170	-31
262	163	-48
187	147	-51
107	121	-36
33	77	-41
-38	13	-6
-113	-71	26
-191	-161	-6
-261	-235	-4
-300	-271	-10
-288	-253	-13
-223	-188	-20
-115	-90	-28
3	13	-22
103	96	-33
160	141	-22
172	152	-31
154	139	-23
121	116	-23
90	89	-28
54	58	-33
10	17	-32
-52	-41	-21
-127	-105	-30
-195	-158	-33
-236	-179	-30
-228	-159	-28
-169	-99	-35
-72	-21	-39
32	53	-21
125	106	-2
192	138	-14
232	156	-19
248	168	-9
249	177	-10
232	174	-23
191	157	-32
122	106	-42
26	31	-18
-84	-58	-3
-191	-144	-20
-271	-211	-24
-310	-246	-13
-298	-248	-7
-241	-219	-20
-149	-165	-20
-34	-93	-25
85	-13	-13
197	61	-25
283	123	-38
332	166	-37
323	185	-42
245	181	-28
106	150	-18
-77	93	12
-262	9	11
-407	-93	-12
-465	-192	-30
-425	-270	-34
-305	-296	-28
-150	-261	-25
-10	-173	-11
83	-51	-29
125	68	-33
145	166	-25
172	219	-38
225	235	-34
285	218	-35
328	182	-46
314	134	-39
234	78	-14
97	14	-14
-55	-51	-15
-189	-107	-15
-273	-140	-22
-305	-144	-30
-291	-118	-25
-240	-70	-23
-158	-14	-34
-52	34	-30
69	69	-45
184	84	-24
262	81	4
278	63	9
231	37	11
130	7	-2
14	-27	-4
-88	-59	-10
-154	-89	-26
-185	-113	-36
-191	-127	-32
-184	-131	-25
-169	-117	-28
-143	-87	-40
-102	-40	-27
-42	17	8
27	81	-11
99	139	-42
161	183	-45
212	200	-37
251	180	-28
270	127	-26
267	48	-34
226	-31	-28
141	-91	-15
17	-116	-40
-126	-106	-38
-264	-84	-7
-369	-69	-2
-410	-83	-16
-380	-115	-15
-279	-141	-6
-128	-131	-6
41	-68	-17
194	32	-45
297	134	-36
332	196	13
299	190	13
221	124	-17
123	31	-17
31	-46	-11
-42	-88	-13
-101	-93	-20
-152	-86	-25
-197	-88	-38
-228	-103	-40
-226	-117	-43
-180	-104	-49
-95	-52	-48
14	31	-52
114	119	-36
184	181	-25
216	203	-26
214	191	-37
192	165	-30
159	136	-16
117	113	-12
63	80	-2
-1	24	-8
-78	-54	-13
-150	-145	-19
-205	-222	-23
-229	-260	-18
-225	-251	-12
-191	-200	-24
-140	-127	-22
-76	-49	-16
-4	21	-24
67	82	-18
128	129	-13
169	162	-19
179	170	-29
162	150	-30
126	106	-20
83	43	-12
33	-23	-14
-21	-85	-17
-88	-127	-21
-159	-156	-32
-221	-161	-40
-245	-137	-43
-209	-86	-33
-114	-5	-26
22	90	-34
159	174	-45
254	225	-28
283	221	7
253	168	12
180	78	-4
91	-22	-17
4	-109	2
-72	-171	7
-144	-204	-26
-211	-219	-40
-259	-215	-40
-277	-196	-34
-250	-158	-34
-178	-98	-43
-75	-24	-31
37	56	-31
136	124	-25
207	174	-26
245	199	-23
254	202	-21
236	188	-38
194	158	-32
128	112	-23
49	47	-9
-31	-25	-6
-102	-101	-40
-150	-155	-47
-173	-173	-53
-170	-150	-45
-150	-92	14
-114	-21	10
-64	39	-5
-4	77	6
61	88	-7
119	80	-8
149	64	-15
139	51	-8
94	34	-17
25	11	-35
-40	-25	-37
-88	-71	-30
-105	-120	-35
-107	-156	-38
-112	-164	-35
-132	-145	-51
-165	-107	-37
-188	-62	-26
-178	-22	-8
-118	11	15
-14	38	-1
107	65	-16
211	94	-20
263	117	-22
262	120	-19
216	100	-28
152	59	-38
91	13	-23
39	-17	-25
-11	-22	-34
-68	-4	-32
-136	15	-33
-201	16	-24
-242	-8	-26
-233	-48	-36
-168	-80	-33
-55	-82	-27
77	-42	-15
190	18	-11
260	76	-16
271	103	-30
234	93	-20
163	54	-19
84	10	-30
14	-22	-21
-38	-37	-33
-75	-46	-52
-105	-57	-31
-140	-79	-4
-186	-101	-6
-235	-112	-1
-267	-99	-15
-262	-59	-10
-197	-5	9
-75	57	-14
84	113	-34
236	162	-38
332	194	-31
344	202	-42
276	173	-31
159	97	17
34	-19	12
-61	-154	-18
-129	-263	-7
-181	-317	-11
-241	-297	-9
-305	-223	-3
-345	-125	-33
-318	-40	-36
-195	11	-35
9	37	-48
236	59	-40
404	99	-48
454	158	-48
375	215	-27
221	244	-26
50	224	-31
-68	153	-28
-119	51	-14
-125	-47	-21
-129	-122	-31
-159	-164	-16
-204	-174	-15
-233	-167	-40
-206	-149	-37
-110	-114	-24
32	-59	-22
174	19	-11
274	106	-9
312	185	-12
297	227	-12
257	215	-4
216	162	-8
181	83	-35
132	13	-58
50	-29	-51
-80	-37	-34
-245	-34	-8
-403	-41	12
-506	-85	15
-508	-162	7
-403	-246	-20
-217	-301	1
-14	-287	-17
140	-199	-30
208	-56	-24
187	95	-28
123	199	-25
74	229	-40
80	185	-37
131	96	-52
183	7	-33
175	-47	-25
84	-57	-40
-72	-36	-28
-232	-7	-27
-318	6	-16
-288	-3	-1
-159	-27	-3
16	-48	-30
172	-51	-35
270	-29	-25
308	17	-20
302	75	-35
269	130	-37
216	165	-25
132	170	-13
17	140	-16
-112	76	-15
-218	-13	4
-274	-105	-14
-269	-183	-7
-231	-230	-16
-188	-237	-34
-168	-206	-30
-159	-151	-36
-133	-79	-39
-60	-4	-44
59	65	-27
198	122	-3
302	158	3
336	168	-25
287	149	-36
184	106	-13
72	48	-38
-14	-12	-59
-71	-64	-35
-108	-102	-30
-140	-122	-42
-170	-125	-25
-186	-104	-2
-173	-59	2
-125	5	-7
-58	82	-4
6	150	2
51	192	-14
75	193	-15
86	154	-14
95	84	-15
104	7	-21
97	-57	-38
62	-104	-10
-8	-132	-11
-96	-149	-39
-175	-157	-38
-206	-160	-21
-178	-147	-30
-95	-113	-57
17	-61	-57
118	3	-44
188	65	-42
216	120	-35
212	162	-31
188	200	-29
157	237	-2
121	265	-5
81	272	-7
22	233	-20
-57	137	-9
-152	-11	16
-248	-186	0
-316	-343	16
-337	-444	5
-299	-460	-4
-214	-395	-7
-110	-276	-30
-13	-136	-25
54	-8	-38
89	86	-38
103	142	-35
117	166	-36
141	165	-34
175	150	-30
200	119	-28
195	77	-28
151	25	-30
68	-29	-40
-28	-72	-40
-117	-97	-56
-175	-94	-67
-188	-63	-28
-153	-15	-6
-79	41	1
15	92	-2
107	126	-14
175	137	-3
201	122	8
180	85	14
120	32	0
35	-24	-19
-48	-71	-11
-115	-103	-2
-153	-119	-26
-159	-121	-43
-145	-117	-50
-122	-109	-72
-98	-92	-55
-76	-66	-35
-52	-27	-41
-21	22	-46
18	78	-38
60	130	-25
104	171	-15
138	196	-21
164	196	-32
175	171	-11
171	119	-9
138	43	-21
71	-41	-18
-32	-119	-17
-161	-164	-16
-285	-166	-8
-370	-124	-13
-378	-57	-22
-299	11	-29
-142	61	-1
43	80	3
214	74	-55
328	51	-53
363	25	-17
328	3	-17
249	-12	-26
154	-21	-18
65	-21	-6
-6	-20	-23
-57	-24	-40
-94	-46	-34
-121	-96	-27
-140	-164	-1
-157	-235	32
-170	-272	2
-180	-246	-23
-185	-152	-18
-173	-5	-17
-139	147	-23
-78	257	-36
11	298	-35
107	264	-44
200	194	-42
255	114	-45
253	51	-43
189	7	-28
75	-34	-15
-59	-79	-5
-173	-120	-11
-237	-137	-18
-239	-116	-27
-182	-56	-13
-88	15	-6
21	60	-8
126	55	-18
212	4	-33
262	-54	-48
262	-78	-39
198	-35	-8
79	60	-15
-64	156	-21
-186	197	-34
-239	142	-18
-206	11	-2
-111	-152	-8
-16	-272	-18
23	-309	-22
-22	-253	-13
-123	-140	-26
-211	-23	-25
-214	57	-37
-106	91	-42
80	95	-31
266	96	-25
373	113	-10
368	145	-19
266	169	-46
123	162	-48
-1	106	-28
-85	15	-22
-132	-90	-12
-173	-175	-16
-216	-214	-19
-251	-205	-27
-249	-158	-24
-189	-93	3
-81	-29	-22
44	27	-28
143	77	-28
190	128	-35
183	180	-26
148	222	-24
115	237	-12
103	209	-30
104	132	-18
95	23	-18
60	-92	-26
-4	-184	-37
-83	-231	-49
-149	-229	-34
-173	-179	-4
-148	-102	14
-75	-11	-30
24	81	-49
119	158	-47
191	205	-36
222	215	-30
211	182	-36
159	121	-25
80	49	-23
-24	-7	-6
-136	-41	9
-247	-56	20
-330	-75	21
-370	-117	17
-354	-186	12
-290	-270	-11
-201	-334	-19
-111	-354	-29
-40	-318	-46
10	-229	-45
55	-117	-34
110	-2	-31
182	95	-31
254	170	-33
299	224	-31
284	250	-34
212	243	-27
97	196	-21
-20	115	-41
-109	17	-44
-150	-64	-35
-143	-106	-10
-106	-92	0
-51	-36	-13
7	32	-15
63	83	-15
108	91	-14
132	62	-17
131	19	-24
101	-6	-35
56	6	-42
14	52	-43
-10	109	-36
-19	139	-30
-27	118	-26
-54	37	-20
-109	-77	-18
-186	-183	-12
-253	-246	-17
-285	-248	-15
-261	-198	-15
-187	-123	2
-82	-52	4
34	2	-28
139	41	-30
226	78	-31
287	118	-27
320	156	-10
314	169	-22
269	147	-28
187	86	-19
82	6	10
-23	-62	-5
-116	-95	-56
-187	-89	-43
-236	-58	-46
-261	-34	-44
-259	-36	-46
-221	-59	-42
-136	-83	-32
-19	-74	-38
105	-20	-17
198	70	-22
234	168	-5
203	228	1
134	227	-25
59	162	-36
3	60	-45
-30	-54	-43
-55	-145	-8
-92	-198	13
-139	-207	-4
-178	-170	-3
-177	-94	-30
-115	4	-38
-1	99	-32
130	161	-41
236	161	-23
284	96	-25
277	-1	-18
226	-89	-27
151	-119	-24
66	-84	-19
-32	-8	-28
-139	53	-8
-240	57	10
-305	-4	9
-315	-104	-18
-269	-186	-11
-198	-214	-2
-139	-187	-28
-119	-133	-29
-123	-96	-2
-110	-88	-28
-43	-90	-44
82	-57	-40
228	36	-46
320	189	-23
306	336	-20
191	408	-10
24	360	-4
-114	200	-28
-168	-8	-34
-138	-179	-30
-67	-253	-27
-18	-222	-43
-20	-129	-40
-60	-33	-12
-92	26	-25
-72	50	-17
7	62	-17
121	86	-20
216	123	-16
266	150	-25
258	135	-12
211	68	-20
144	-28	-9
72	-120	3
-10	-171	-28
-105	-174	-36
-205	-148	-20
-288	-122	-26
-330	-117	-25
-314	-121	-8
-241	-114	-7
-128	-75	-18
5	3	-37
141	89	-38
262	154	-34
346	171	-24
373	150	-20
326	106	-20
214	69	-10
78	47	-20
-37	26	-13
-95	-8	-4
-102	-66	-22
-94	-131	-25
-115	-173	-27
-187	-161	-36
-280	-94	-55
-336	4	-42
-290	92	-30
-129	135	-44
100	135	-32
309	112	-33
407	98	-41
363	113	-25
211	147	-9
28	166	-4
-112	135	-13
-170	45	-18
-166	-83	-32
-141	-214	-30
-143	-304	-27
-176	-332	-31
-214	-301	-13
-214	-230	-2
-149	-139	-1
-26	-42	-23
114	56	-16
223	150	0
266	222	-18
241	251	-17
167	225	-18
85	150	-15
18	57	-16
-21	-13	-30
-45	-31	-20
-76	-4	-6
-128	39	-27
-197	51	-49
-262	3	-19
-289	-95	-22
-249	-203	-44
-136	-261	-40
25	-233	-42
189	-123	-36
306	30	-16
342	160	-18
301	223	-34
214	201	-24
123	115	-7
54	7	-7
10	-84	-2
-31	-136	4
-94	-155	-4
-177	-155	-6
-260	-148	-16
-305	-136	-20
-276	-112	-21
-174	-61	-10
-24	15	-15
120	102	-34
216	171	-33
242	197	-37
207	166	-30
141	94	-31
82	16	-24
42	-32	-36
25	-35	-36
14	-5	-22
-8	24	-30
-50	20	-43
-107	-28	-52
-156	-102	-32
-174	-160	-24
-141	-167	-28
-62	-112	-22
43	-20	-14
139	71	-11
190	126	-20
178	135	-26
113	121	-34
32	102	-26
-29	92	-12
-45	81	-21
-27	52	-19
-7	-4	-15
-20	-77	-22
-78	-136	-13
-163	-157	-21
-232	-126	-29
-247	-65	-32
-191	-2	-28
-89	38	-19
26	56	-24
115	68	-14
167	90	-8
193	124	-9
210	154	-17
226	157	-27
228	117	-20
191	43	-25
106	-41	-17
-16	-118	-11
-137	-176	-23
-222	-222	-33
-246	-249	-31
-222	-259	-12
-181	-229	-23
-150	-145	-49
-129	-16	-47
-97	126	-30
-21	233	-5
102	276	9
242	249	-12
340	174	-18
342	99	-24
231	36	-31
44	-11	-21
-142	-66	-38
-259	-137	-19
-269	-216	-7
-191	-274	-2
-84	-274	18
-4	-214	-10
17	-115	-21
-8	-24	-22
-34	28	-35
-21	44	-47
45	60	-54
143	117	-51
223	218	-32
237	330	-35
167	386	-44
32	333	-17
-123	171	-15
-245	-43	-32
-296	-226	-40
-272	-301	-23
-199	-257	-17
-114	-137	-25
-50	-25	-29
-20	15	-8
-8	-31	-1
5	-117	-6
40	-175	-6
103	-151	-30
175	-42	-19
240	101	-11
266	209	-12
251	233	0
196	166	4
123	45	-20
42	-69	-42
-32	-139	-25
-105	-151	-30
-168	-121	-23
-215	-81	-10
-241	-46	-26
-229	-23	-36
-180	0	-36
-99	31	-41
-5	69	-36
86	110	-26
160	138	-23
204	150	-16
216	145	-36
195	130	-33
139	105	-33
48	61	-33
-60	1	-20
-172	-79	-2
-258	-163	8
-298	-230	-25
-277	-260	-19
-198	-247	-7
-80	-192	-18
56	-105	-35
182	-2	-33
274	104	-34
320	196	-44
318	260	-25
269	278	-19
192	239	-13
98	153	-21
0	41	-7
-92	-60	-8
-169	-129	-13
-228	-158	-13
-264	-156	-27
-277	-145	-14
-261	-140	-17
-216	-137	-18
-145	-121	-32
-54	-70	-56
51	14	-53
163	118	-44
269	209	-42
351	264	-34
392	270	-19
365	235	5
269	162	6
112	60	-20
-76	-65	-27
-253	-218	-30
-383	-375	-7
-442	-494	-4
-426	-533	-16
-358	-460	-13
-259	-281	-16
-143	-40	-37
-26	193	-42
81	357	-28
167	418	-20
216	388	-15
216	299	-29
166	192	-30
89	95	-23
15	14	-18
-22	-53	-28
-16	-107	-36
16	-140	-15
40	-144	-13
22	-119	-27
-43	-74	-22
-133	-32	-14
-204	-8	-13
-212	-7	4
-143	-10	-3
-19	7	-16
121	56	-21
234	127	-36
287	189	-31
286	208	-40
244	168	-57
175	78	-42
100	-29	-28
15	-118	-27
-76	-166	0
-170	-179	4
-248	-173	-12
-291	-171	-12
-282	-175	-11
-226	-178	-24
-126	-162	-36
-10	-109	-22
98	-28	-37
182	66	-56
234	148	-38
245	196	-28
222	202	-13
169	170	-11
87	115	-18
-12	45	-17
-116	-22	-15
-202	-78	-6
-256	-106	-23
-261	-102	-18
-212	-72	-9
-119	-26	-20
1	16	-25
124	40	-35
228	41	-26
294	31	-18
318	27	-28
300	40	-29
241	74	-9
151	108	-24
40	123	-37
-75	99	-38
-178	38	-21
-249	-41	-12
-277	-115	-10
-262	-158	-5
-224	-163	-31
-177	-138	-35
-133	-98	-35
-90	-56	-31
-31	-19	-21
48	16	-24
150	55	-24
241	96	-42
283	131	-21
245	153	-32
133	148	-26
-17	120	6
-150	71	-2
-211	16	-30
-190	-41	-43
-118	-95	-44
-49	-142	-30
-29	-181	6
-66	-199	9
-123	-186	-6
-141	-130	-26
-84	-31	-14
44	90	-14
183	197	-20
266	244	-30
245	201	-30
131	74	-24
-17	-92	-21
-129	-231	-11
-164	-282	-40
-133	-230	-42
-87	-106	-49
-75	27	-46
-113	106	-26
-170	104	-4
-182	40	22
-101	-27	22
66	-47	-12
262	-4	-20
404	76	0
428	135	-19
328	132	-23
152	59	-30
-23	-46	-30
-136	-132	-29
-173	-161	-40
-158	-130	-33
-132	-80	-45
-130	-46	-53
-145	-49	-32
-158	-72	-13
-138	-75	-23
-81	-26	-44
1	74	-53
79	186	-43
129	261	-21
154	265	-3
158	201	-2
162	109	-14
161	34	-16
145	6	-25
95	12	-24
3	19	-17
-117	-7	-16
-230	-82	-15
-298	-177	-16
-298	-252	-15
-231	-263	-23
-121	-207	-20
-5	-104	-26
92	6	-34
159	84	-30
199	120	-38
225	126	-30
239	127	-11
239	137	-6
216	152	-9
167	157	-41
89	133	-59
-10	78	-38
-115	-2	-35
-217	-87	-32
-308	-160	-34
-369	-208	-34
-382	-225	-25
-328	-205	-27
-206	-149	-20
-34	-61	-12
139	41	5
260	136	7
288	194	-10
224	198	-2
105	149	-10
-10	66	-33
-70	-21	-24
-68	-84	-19
-33	-112	-19
-10	-110	-5
-34	-92	-18
-100	-70	-28
-174	-54	-25
-205	-46	-5
-166	-40	-11
-61	-30	-44
77	-11	-31
206	18	-32
296	55	-32
331	94	-13
314	119	-3
253	118	-7
149	82	-40
15	12	-51
-124	-70	-31
-240	-147	-33
-299	-187	-22
-290	-184	-5
-228	-144	-14
-143	-86	-16
-69	-33	-27
-16	3	-31
27	18	-21
85	31	-17
165	51	-14
252	89	-19
309	135	-24
302	168	-31
226	164	-19
101	110	-25
-28	22	-38
-121	-75	-31
-162	-141	-32
-169	-154	-23
-170	-112	-12
-186	-38	-16
-212	27	-19
-225	58	-32
-195	48	-31
-113	18	-33
3	-5	-65
118	-1	-44
196	35	-8
216	80	5
189	106	2
134	99	-19
78	57	-25
30	-2	-10
-10	-58	-19
-55	-99	-33
-108	-123	-2
-164	-135	10
-201	-139	-8
-202	-126	-28
-160	-89	-30
-82	-24	-10
8	56	-15
85	128	-23
135	168	-15
158	163	-37
156	120	-42
138	61	-36
102	8	-37
44	-23	-22
-34	-36	-19
-124	-47	-21
-195	-66	-35
-218	-98	-36
-175	-135	-35
-75	-159	-41
49	-149	-35
145	-101	-40
180	-17	-46
148	80	-34
80	166	1
20	222	24
9	236	-1
50	211	-7
115	170	8
154	127	-13
126	86	-15
33	37	-14
-96	-39	-18
-206	-157	-44
-258	-292	-50
-239	-410	-27
-170	-449	-43
-91	-373	-49
-31	-194	-36
4	36	-22
35	233	-23
82	328	-11
148	305	0
215	197	7
245	74	-1
221	-11	-25
126	-31	-35
-4	-14	-35
-135	2	4
-229	-17	0
-269	-69	-12
-264	-127	-17
-232	-157	-31
-179	-135	-8
-110	-74	2
-20	-2	-1
86	55	-20
190	88	-18
267	101	-22
299	106	-36
276	112	-28
218	105	-25
141	80	-22
68	29	-45
0	-34	-44
-67	-92	-25
-139	-129	-37
-207	-135	-44
-253	-120	-31
-257	-93	-20
-208	-63	-22
-118	-26	-21
-11	23	-9
84	84	-26
148	144	-40
175	183	-36
181	186	-32
171	150	-24
150	91	-32
116	29	-35
61	-16	-25
-10	-46	-16
-91	-72	-18
-165	-107	-15
-217	-152	-24
-240	-194	-27
-232	-213	-28
-199	-194	-16
-145	-136	-21
-78	-53	-52
0	34	-44
81	109	-39
155	158	-7
214	180	17
251	171	-23
257	136	-51
226	71	-41
159	-3	-4
52	-66	7
-72	-93	-11
-197	-70	-35
-288	-16	-40
-321	39	-44
-290	48	-13
-206	-1	12
-103	-93	6
-5	-179	21
64	-204	0
109	-142	-5
141	-10	-7
171	134	-27
198	225	-36
203	219	-31
172	127	-31
101	-1	-17
4	-110	-27
-91	-158	-43
-150	-152	-25
-162	-118	-35
-125	-93	-38
-63	-83	-34
0	-71	-29
48	-30	-58
78	53	-63
92	157	-39
98	237	-31
99	257	-34
93	200	-45
83	101	-21
64	3	4
38	-53	19
2	-63	-4
-51	-54	-1
-120	-63	19
-195	-116	14
-260	-192	0
-286	-257	-19
-253	-257	-16
-160	-179	-25
-32	-40	-41
96	110	-67
186	225	-39
223	274	-11
208	259	-31
166	205	-15
122	143	4
89	84	-23
60	30	-35
25	-31	-6
-28	-102	-10
-97	-176	-16
-164	-235	-19
-214	-258	-24
-234	-235	-27
-217	-169	-39
-166	-78	-40
-91	17	-24
2	93	-23
102	143	-34
188	166	-35
245	168	-17
255	155	-7
216	134	-24
133	105	-24
35	61	-36
-59	3	-27
-130	-69	-3
-169	-148	-7
-177	-209	-16
-160	-236	-37
-122	-214	-20
-63	-147	-27
7	-48	-56
85	52	-65
154	134	-80
198	187	-68
215	203	-46
204	194	-2
172	162	31
135	110	14
96	40	19
49	-50	22
-7	-144	-10
-92	-222	-13
-199	-259	-18
-313	-246	-6
-403	-190	-3
-426	-110	-32
-360	-36	-40
-199	16	-34
17	41	-23
222	57	-42
354	80	-32
375	119	-16
306	173	-33
188	218	-22
86	233	-23
30	199	-34
15	120	-18
-5	17	-16
-68	-81	-31
-185	-151	-33
-311	-183	-46
-380	-182	-47
-335	-163	-39
-174	-133	-30
49	-93	-13
245	-37	-18
344	38	-31
317	122	-14
196	195	9
50	229	-11
-57	206	-10
-98	127	-24
-85	15	-55
-52	-98	-48
-31	-183	-21
-33	-226	11
-45	-227	24
-49	-194	20
-39	-143	-15
-18	-80	-25
-1	-8	-21
7	63	-48
7	130	-59
17	174	-43
40	195	-21
78	183	-15
107	142	-16
107	78	-36
75	-2	-41
19	-83	-7
-38	-152	24
-77	-192	29
-94	-195	5
-102	-166	-12
-120	-113	-15
-150	-61	-17
-172	-24	-48
-149	-4	-64
-60	16	-56
85	53	-60
238	116	-63
340	195	-44
342	257	-12
248	267	-6
97	207	0
-48	89	8
-139	-52	8
-172	-174	3
-172	-243	-15
-177	-260	-27
-201	-235	-35
-228	-190	-26
-213	-138	-23
-132	-77	-32
7	-2	-27
163	85	-47
278	168	-65
314	219	-60
266	218	-54
172	162	-19
77	66	14
4	-37	-10
-40	-115	-16
-80	-150	9
-130	-141	2
-191	-108	-2
-243	-70	-9
-259	-39	-29
-222	-19	-60
-137	0	-75
-28	22	-65
82	54	-59
180	99	-23
258	147	-7
306	197	8
314	233	22
262	243	4
151	211	-7
-8	134	-10
-166	18	-1
-274	-116	-11
-303	-235	-20
-253	-316	-1
-170	-340	1
-101	-316	-32
-74	-258	-35
-78	-186	-48
-72	-111	-31
-21	-32	-16
87	51	-37
216	135	-31
314	205	-41
328	233	-14
245	213	-6
101	145	-17
-48	59	-27
-158	-17	-40
-201	-61	-42
-190	-82	-41
-158	-97	-26
-124	-125	-37
-99	-167	-45
-72	-192	-53
-37	-174	-62
12	-85	-46
67	55	-29
116	199	-3
148	291	36
162	301	56
163	241	38
144	148	-11
101	67	-32
21	17	-27
-88	-21	-46
-206	-77	-51
-291	-166	-50
-311	-264	-28
-250	-332	-10
-123	-312	-18
24	-194	-7
150	-21	-16
219	147	-16
234	243	-18
211	247	-32
186	187	-43
175	113	-38
172	69	-13
163	64	3
119	75	1
36	62	-5
-81	11	-11
-201	-69	-37
-300	-144	-43
-352	-186	-36
-355	-190	-51
-316	-170	-60
-245	-145	-49
-156	-125	-38
-54	-100	-20
51	-47	-1
156	34	-10
244	127	-5
292	196	-18
292	206	-25
236	151	-20
138	51	-36
22	-49	-37
-83	-113	-38
-160	-126	-43
-195	-101	-38
-198	-59	21
-170	-24	56
-119	0	70
-49	21	74
37	46	16
128	74	-12
206	94	-27
249	98	-40
245	87	-49
198	66	-64
126	49	-66
54	32	-83
-1	3	-90
-44	-48	-66
-96	-123	-52
-169	-196	-56
-264	-237	-51
-358	-214	-49
-402	-129	-38
-352	-13	-9
-200	92	-18
20	149	-25
251	154	-7
422	136	-21
489	131	-36
446	157	-17
317	190	4
149	194	6
-15	127	0
-148	-8	0
-241	-174	-7
-290	-309	-10
-300	-358	0
-276	-313	-6
-226	-207	-5
-161	-93	-6
-94	-11	-30
-33	32	-6
24	63	9
90	117	-21
170	205	-28
258	301	-14
332	356	-27
358	323	-33
319	190	-28
207	-11	-31
52	-211	-38
-111	-352	-39
-244	-391	-34
-320	-337	-30
-339	-225	-36
-310	-103	-28
-252	-12	-16
-177	43	-38
-92	69	-28
2	87	-10
101	108	-14
195	134	-11
269	157	-16
306	155	-16
296	133	-18
232	92	-30
129	45	-25
8	4	-44
-102	-30	-67
-178	-64	-51
-206	-110	-27
-185	-162	-3
-132	-204	-19
-68	-213	-15
-15	-169	-11
17	-79	-28
33	32	12
49	124	15
77	169	-3
117	160	-10
160	119	-20
175	79	-28
138	61	-33
35	68	-40
-121	75	-47
-296	55	-39
-438	-1	-28
-497	-75	-34
-448	-134	-47
-291	-149	-44
-72	-109	-32
147	-40	-14
306	24	-19
373	51	-21
346	39	3
258	9	22
149	-15	19
60	-12	7
18	3	-22
18	8	-28
39	-19	-30
49	-72	-37
30	-123	-12
-29	-134	-12
-116	-89	-8
-206	-7	-19
-269	64	-42
-273	78	-38
-208	22	-30
-82	-64	-33
75	-120	-26
216	-94	-23
299	19	-23
296	169	-20
216	272	-49
92	268	-57
-34	150	-42
-126	-24	-28
-170	-171	-17
-173	-235	-7
-150	-202	-13
-116	-115	-20
-81	-35	-25
-36	0	-38
14	-3	-37
75	-8	-44
130	23	-32
167	98	-27
182	188	-15
175	244	-4
164	240	5
148	166	18
123	60	-5
74	-40	-17
-10	-109	-22
-124	-147	-36
-240	-171	-48
-314	-194	-23
-311	-211	-11
-226	-198	-35
-86	-131	-46
54	-10	-50
147	136	-31
167	254	-20
128	298	-12
66	243	4
16	115	-15
-6	-35	-27
-10	-147	-31
-18	-178	-23
-48	-130	-5
-101	-38	3
-152	36	16
-176	45	14
-154	-28	-12
-92	-154	-25
-8	-278	-22
68	-334	-43
119	-290	-55
139	-158	-36
133	21	-12
121	182	-8
111	279	-16
105	301	-20
101	257	-23
93	181	-23
72	97	-34
35	20	-40
-22	-43	-40
-96	-86	-54
-172	-103	-44
-231	-95	-12
-245	-69	-20
-199	-49	-31
-89	-51	-17
60	-76	-3
215	-95	23
326	-72	15
351	13	-37
275	150	-47
115	282	-32
-83	339	-51
-260	279	-29
-366	115	-32
-387	-86	-49
-337	-243	-34
-262	-296	-22
-200	-245	12
-166	-135	9
-143	-32	-14
-99	20	-34
-4	31	-39
141	23	-31
302	30	-19
420	58	-17
446	87	-31
371	92	-23
234	56	-11
90	-4	12
-5	-62	17
-37	-97	4
-29	-108	-5
-23	-111	-33
-50	-123	-56
-114	-149	-64
-184	-163	-65
-216	-143	-35
-188	-76	-18
-98	25	-45
19	123	-49
127	186	-30
198	199	-17
224	174	-30
209	137	-30
166	109	-22
102	89	-27
17	65	-36
-81	24	-45
-181	-38	-43
-258	-104	-56
-295	-151	-35
-280	-159	14
-222	-129	33
-133	-77	39
-32	-22	31
66	23	11
159	63	-11
234	104	-31
276	150	-34
270	195	-17
214	215	-9
113	195	-11
-7	117	-24
-116	-6	-22
-189	-151	-19
-223	-272	-28
-229	-339	-36
-225	-333	-43
-217	-261	-35
-197	-157	-40
-145	-51	-38
-50	27	-48
81	72	-49
214	97	-30
314	122	-16
341	161	-28
299	205	-35
201	231	-8
93	208	-4
2	127	8
-62	3	-5
-106	-124	-18
-148	-211	-15
-189	-234	-30
-225	-198	-23
-228	-140	-26
-181	-88	-32
-84	-56	-39
44	-32	-38
162	13	-17
236	93	-7
241	198	-16
184	284	-10
86	313	-1
-17	256	-19
-101	126	-34
-150	-28	-31
-163	-157	-27
-152	-229	-36
-121	-249	-35
-81	-238	-51
-26	-219	-52
39	-199	-26
113	-158	-12
186	-78	-17
238	43	-2
244	174	29
189	274	-8
80	299	-6
-65	241	3
-200	123	-16
-285	-11	-10
-291	-123	-30
-231	-196	-48
-130	-232	-50
-43	-238	-47
-4	-224	-45
-20	-187	-26
-69	-122	-7
-105	-40	-13
-96	39	-23
-32	94	-19
63	115	-16
154	112	-23
202	110	-28
202	129	-33
170	170	-29
130	203	-25
99	196	-21
75	127	-24
44	6	-34
-8	-120	-30
-77	-208	-36
-143	-223	-40
-182	-170	-30
-173	-87	-19
-120	-15	-5
-39	23	-15
41	32	-11
105	35	-8
149	59	-18
172	106	-22
184	156	-24
180	179	-8
155	153	-14
100	83	-36
22	-9	-55
-65	-90	-55
-136	-141	-36
-177	-162	-22
-178	-158	-1
-152	-144	18
-109	-121	20
-65	-85	1
-28	-29	-27
1	38	-44
23	103	-43
39	147	-25
48	155	-18
50	132	-20
51	90	-17
50	43	-35
49	-1	-41
41	-44	-32
20	-87	-16
-14	-126	4
-52	-150	7
-81	-139	-18
-88	-92	-49
-77	-20	-34
-62	45	-47
-62	74	-48
-84	50	-28
-106	-7	-22
-107	-66	-11
-59	-89	-5
33	-54	-2
135	15	-30
198	85	-24
180	113	-7
83	85	0
-57	15	-7
-180	-57	-34
-237	-92	-34
-215	-79	-25
-137	-30	-24
-44	21	-45
32	53	-38
86	56	-18
129	42	-28
175	34	-21
228	35	-4
260	40	-24
245	27	-22
175	-14	-16
62	-79	-34
-60	-143	-32
-159	-181	-33
-215	-178	-37
-236	-140	-31
-233	-92	-25
-218	-49	-16
-182	-24	-9
-111	-4	-9
3	28	-17
143	80	-33
266	142	-25
330	190	-12
302	207	-26
198	189	-9
49	152	2
-91	118	-17
-181	93	-34
-209	70	-43
-191	24	-35
-158	-57	-28
-126	-163	-30
-112	-256	-24
-101	-289	-21
-85	-240	-19
-51	-118	-23
2	28	-31
71	144	-47
147	202	-54
216	202	-34
272	177	-36
297	156	-39
278	145	-9
209	127	15
97	79	7
-40	-17	-5
-174	-137	-12
-277	-243	-11
-330	-301	-3
-321	-297	-13
-271	-252	-17
-188	-192	-40
-92	-138	-47
6	-87	6
103	-14	9
194	84	-6
269	195	4
314	279	-24
310	301	-26
244	241	-28
125	118	-38
-24	-15	-35
-165	-121	-38
-267	-178	-38
-310	-198	-42
-294	-202	-27
-236	-199	-25
-160	-181	-32
-80	-120	-30
-4	-13	-14
61	124	-14
120	244	-25
165	299	-33
194	274	-27
200	192	-22
182	99	-37
143	33	-23
84	5	-18
12	-8	-22
-64	-37	-11
-135	-96	-12
-188	-169	-18
-208	-217	-33
-189	-213	-32
-139	-151	-26
-67	-58	-27
8	22	-17
78	68	-15
136	80	-27
180	80	-20
202	83	-14
195	95	-12
151	97	-5
69	71	-14
-27	21	-25
-118	-34	-36
-178	-61	-27
-193	-50	-13
-174	-19	-12
-144	-4	-22
-122	-34	-44
-115	-102	-44
-112	-164	-34
-93	-169	-18
-44	-91	-9
32	47	-25
122	181	-22
202	239	-17
245	193	-26
242	68	-34
191	-64	-45
103	-141	-26
-5	-140	1
-110	-87	11
-185	-35	-12
-208	-23	-26
-168	-53	-20
-77	-93	-39
30	-102	-27
113	-63	-26
136	6	-27
95	70	-7
17	104	-16
-53	106	-28
-80	102	-32
-49	106	-28
12	119	-19
67	115	-25
80	65	-34
36	-28	-29
-46	-140	-20
-132	-216	-17
-186	-223	-35
-188	-158	-40
-139	-61	-35
-60	11	-46
27	33	-23
107	16	4
163	2	14
195	28	14
199	98	-3
175	180	-4
127	222	-16
63	187	-30
-5	81	-36
-66	-49	-40
-113	-152	-48
-145	-189	-54
-160	-162	-55
-160	-101	-64
-141	-39	-26
-105	2	21
-47	32	15
23	65	30
95	110	0
158	161	-36
195	190	-25
206	179	-49
189	118	-36
151	30	-41
98	-62	-49
32	-131	-40
-41	-164	-28
-122	-163	-19
-198	-141	-30
-255	-119	-38
-271	-104	-19
-239	-100	13
-153	-101	12
-32	-94	9
90	-71	0
184	-24	-22
226	39	-24
214	104	-22
158	147	-16
83	145	-12
7	99	-5
-57	23	-13
-113	-52	-33
-161	-100	-25
-200	-113	-30
-224	-99	-28
-213	-80	-35
-168	-64	-35
-92	-58	-29
-2	-40	-45
82	5	-49
147	72	-42
191	149	-24
219	197	-2
238	198	-7
242	153	-21
229	83	-27
190	23	-27
121	-14	-7
29	-30	2
-81	-49	-5
-191	-89	-13
-285	-144	-24
-344	-190	-30
-345	-191	-36
-282	-136	-25
-162	-40	-21
-10	53	-22
131	109	-21
228	115	-32
262	96	-44
241	95	-48
187	135	-46
124	211	-27
58	272	-18
-13	262	-5
-100	156	7
-191	-29	-12
-267	-230	-6
-291	-373	1
-247	-413	-7
-143	-348	-25
-19	-223	-46
85	-94	-46
137	-4	-44
141	41	-35
123	62	-5
111	84	-8
122	114	-17
150	147	-22
167	161	-43
151	138	-45
97	81	-46
16	1	-37
-72	-78	-32
-152	-140	-17
-210	-175	-8
-241	-183	-11
-239	-166	-17
-191	-125	-35
-97	-62	-20
29	13	-25
157	89	-41
244	150	-33
263	182	-17
216	182	-8
128	158	-16
36	116	-18
-27	67	-21
-56	16	-12
-70	-35	2
-89	-87	20
-126	-128	8
-168	-153	-6
-191	-153	-19
-172	-125	-46
-105	-79	-71
-6	-21	-78
101	38	-58
194	90	-30
261	131	19
296	164	29
291	180	8
236	178	7
122	156	-11
-36	115	-32
-204	60	-39
-325	0	-29
-363	-66	-24
-304	-137	-18
-187	-213	-5
-68	-281	-64
0	-322	-65
6	-316	-64
-15	-237	-62
-10	-96	-14
59	80	-6
183	235	-9
301	325	-26
342	323	3
270	237	21
107	106	-8
-79	-23	-9
-211	-117	6
-251	-167	7
-212	-181	-25
-148	-174	-61
-111	-158	-53
-122	-127	-38
-145	-77	-17
-133	3	-10
-51	96	-23
86	175	-39
225	212	-43
300	187	-21
273	114	-11
166	22	-2
22	-45	-13
-98	-65	-38
-161	-41	-22
-169	-3	-25
-151	9	-45
-136	-28	-54
-133	-107	-57
-129	-184	-44
-103	-214	-52
-47	-166	-40
30	-45	-18
107	103	-3
161	221	15
179	269	22
170	244	7
148	171	-18
120	90	-42
93	23	-54
56	-29	-28
7	-81	-7
-52	-148	22
-112	-222	22
-160	-273	-13
-181	-278	-21
-165	-216	-25
-117	-104	-27
-42	23	-38
44	128	-52
128	190	-59
186	209	-57
206	197	-34
180	171	-21
116	134	7
35	83	13
-39	14	9
-84	-58	0
-103	-118	-23
-104	-144	-18
-109	-135	-25
-130	-105	-20
-161	-77	-13
-176	-67	-14
-149	-77	-17
-69	-79	-40
50	-52	-32
172	14	-16
257	103	-30
269	183	-40
216	218	-27
131	193	-27
46	118	-37
-8	24	-36
-34	-52	-39
-48	-95	-24
-79	-105	-6
-129	-98	-3
-185	-88	-14
-221	-72	-6
-201	-45	-18
-128	7	-14
-20	85	-10
85	160	-38
152	199	-27
166	169	-22
138	71	-12
96	-64	-39
68	-184	-49
72	-235	-23
100	-194	-11
124	-87	-26
111	26	-57
35	83	-34
-109	45	-15
-286	-66	0
-439	-200	0
-497	-278	-25
-431	-259	-30
-244	-147	-33
2	7	-16
216	131	11
336	182	-21
326	159	-58
226	103	-46
99	64	-38
13	68	-35
-16	106	-32
-15	131	13
-30	110	30
-96	30	13
-191	-75	-6
-267	-158	-42
-258	-179	-49
-148	-129	-57
37	-39	-61
226	51	-63
346	110	-39
371	137	4
314	142	-8
238	143	-29
183	145	-28
159	128	-41
134	81	-20
76	-5	-1
-35	-105	9
-178	-192	15
-305	-238	4
-366	-237	-4
-343	-206	-17
-251	-162	-25
-132	-118	-50
-25	-64	-56
46	8	-63
92	102	-65
122	199	-51
148	262	-20
165	265	32
163	197	34
132	81	2
71	-38	-4
-11	-126	-4
-99	-166	-10
-180	-167	-26
-241	-151	-25
-272	-136	-19
-262	-123	-30
-203	-96	-28
-99	-41	-43
37	44	-45
172	140	-34
278	225	-48
333	274	-53
333	283	-50
292	257	-30
229	198	-27
151	113	-32
62	0	-2
-38	-132	16
-149	-268	1
-253	-371	-13
-328	-408	-12
-357	-364	-20
-325	-253	-33
-243	-109	-43
-125	19	-42
2	104	-44
118	138	-33
210	145	-34
267	144	-35
284	153	-8
254	162	12
182	154	29
76	114	12
-40	41	-3
-144	-42	-16
-206	-117	-26
-216	-160	-22
-177	-169	-19
-103	-148	-20
-16	-106	-17
67	-53	-6
130	12	-36
167	83	-71
172	144	-53
156	179	-51
113	171	-51
54	124	-35
-12	53	-27
-80	-11	3
-141	-53	24
-195	-67	8
-236	-74	-23
-261	-92	-19
-262	-127	-15
-235	-173	-15
-177	-195	-20
-96	-174	-47
-7	-102	-58
75	0	-61
136	100	-53
175	166	-30
200	183	-12
216	166	-7
225	127	-4
214	88	-26
172	54	-42
99	18	-25
5	-24	-27
-77	-78	-23
-117	-129	-10
-104	-165	1
-48	-169	-2
7	-137	-16
23	-77	-13
-14	3	-8
-83	83	-9
-134	150	-19
-126	188	-26
-42	190	-25
83	155	-20
191	95	-9
221	26	-17
158	-31	-34
29	-66	-36
-98	-88	-41
-166	-107	-45
-155	-137	-22
-88	-176	-3
-19	-200	5
11	-180	0
-12	-97	-20
-54	35	-17
-78	179	-24
-51	275	-35
20	287	-26
101	213	-33
151	86	-38
143	-36	-46
89	-112	-46
17	-131	-51
-38	-112	-58
-59	-97	-62
-55	-111	-34
-44	-156	-14
-48	-196	5
-71	-195	36
-107	-127	23
-132	2	43
-130	149	29
-94	262	-1
-24	301	-13
60	260	-27
139	160	-27
192	47	-43
200	-37	-43
159	-79	-42
78	-83	-30
-28	-75	-35
-124	-81	-51
-194	-108	-60
-222	-149	-75
-208	-179	-66
-168	-182	-25
-110	-138	-14
-47	-54	-25
24	57	-31
97	169	-17
171	255	7
229	291	-4
252	267	-5
228	187	-9
158	68	4
64	-50	17
-27	-143	-4
-93	-189	-16
-128	-182	-34
-140	-142	-33
-145	-93	-21
-156	-60	-18
-159	-51	-30
-136	-64	-40
-66	-86	-39
53	-95	-24
200	-81	-8
325	-35	-24
373	31	-37
326	104	-35
188	163	-40
11	183	-35
-152	157	-19
-256	83	-9
-296	-16	-5
-288	-110	-4
-267	-171	-16
-251	-186	-20
-231	-160	-27
-186	-106	-36
-95	-40	-30
31	31	-28
162	106	-25
257	183	-34
288	251	-37
258	279	-41
196	255	-39
135	162	-27
87	27	-13
46	-109	6
-14	-203	-2
-102	-229	-12
-206	-192	-8
-290	-127	-21
-316	-72	-15
-267	-49	-10
-161	-52	-30
-34	-60	-30
83	-46	-38
167	-3	-42
225	59	-37
262	117	-30
285	149	-20
276	145	-27
216	113	-25
109	68	-19
-28	20	-7
-150	-31	-23
-225	-86	-45
-235	-141	-37
-200	-185	-28
-150	-200	-16
-106	-171	-17
-71	-102	-23
-31	-8	-17
31	81	-23
117	140	-33
202	165	-25
255	155	-17
257	132	-18
205	109	-31
119	90	-8
25	68	13
-64	35	1
-148	-15	-20
-225	-82	-34
-290	-152	-25
-325	-210	-26
-310	-238	-23
-229	-225	-33
-96	-163	-34
57	-60	-20
195	63	-21
287	183	-35
328	269	-26
320	301	-13
279	274	3
209	197	20
111	96	-3
-15	-9	-13
-159	-101	-31
-295	-175	-40
-390	-231	-62
-415	-270	-80
-356	-291	-64
-234	-282	-47
-77	-242	-30
75	-161	-20
191	-52	-20
254	66	-6
267	170	3
236	240	2
172	261	-2
90	237	-12
2	180	-3
-85	106	-8
-154	38	-16
-198	-15	-33
-209	-56	-32
-190	-90	-27
-147	-121	-34
-91	-142	-19
-33	-145	-25
20	-114	-35
68	-44	-40
111	45	-33
147	131	-23
175	178	-42
188	174	-55
180	126	-44
150	65	-10
94	17	9
19	-5	26
-67	-9	58
-145	-24	35
-202	-62	-12
-223	-125	-41
-195	-186	-52
-129	-210	-70
-35	-181	-62
59	-96	-34
133	14	-23
172	113	-19
183	168	-30
175	174	-29
171	143	-28
170	92	-31
164	37	-29
136	-15	-19
72	-58	-18
-27	-94	-25
-141	-114	-22
-236	-120	-31
-281	-117	-30
-262	-109	8
-191	-106	17
-100	-99	-25
-16	-78	-33
36	-31	-33
59	44	-24
63	128	-16
69	193	-30
85	211	-15
105	181	-13
113	114	-11
90	43	-11
31	-8	-10
-50	-35	-13
-132	-54	-16
-187	-88	-19
-195	-138	-38
-166	-190	-42
-106	-209	-42
-44	-167	-41
2	-63	-50
29	77	-51
42	209	-33
58	289	-23
86	299	-27
124	244	-11
160	158	1
172	57	-8
151	-37	0
84	-121	0
-10	-191	-20
-110	-243	-16
-191	-263	-13
-237	-237	-31
-240	-168	-35
-207	-74	-28
-151	13	-30
-77	68	-62
13	81	-62
116	59	-57
226	37	-44
320	38	-4
373	79	21
357	142	24
268	202	9
127	215	18
-30	162	-6
-166	45	-28
-256	-101	-3
-303	-230	-8
-317	-298	-26
-314	-282	-21
-292	-199	-30
-241	-86	-39
-148	17	-32
-15	77	-31
127	95	-36
237	89	-44
280	87	-59
257	101	-71
191	116	-50
119	110	-32
68	60	-37
39	-31	-16
5	-134	3
-60	-206	10
-157	-215	5
-255	-160	-23
-300	-68	-11
-259	16	-3
-129	65	-16
45	77	-20
202	69	-37
287	72	-22
288	99	-10
231	137	7
157	161	-4
100	144	-17
61	85	-19
22	3	-34
-47	-77	-21
-148	-133	-15
-247	-160	-18
-302	-166	-24
-276	-160	-33
-172	-142	-41
-23	-107	-37
114	-43	-57
196	41	-54
216	132	-32
191	202	-26
154	228	0
122	205	1
95	145	1
47	74	6
-31	2	10
-135	-56	-25
-225	-108	-36
-259	-154	-24
-218	-190	-32
-121	-206	-27
-14	-185	-51
55	-129	-48
62	-48	-38
30	36	-34
8	106	-30
42	150	-36
135	166	-31
248	165	-24
319	147	-37
296	118	-30
171	70	-10
-11	7	-13
-187	-63	-8
-303	-127	-8
-332	-166	-5
-296	-175	-3
-228	-155	0
-158	-123	-15
-94	-94	-31
-25	-68	-28
59	-44	-43
159	-5	-52
252	51	-51
314	123	-30
319	192	-18
262	237	-8
161	241	-4
28	198	-6
-109	117	-15
-237	10	-26
-338	-105	-24
-394	-209	-30
-400	-282	-22
-341	-314	-12
-225	-292	4
-70	-223	-5
86	-119	-23
215	-6	-18
297	97	-27
322	174	-28
299	233	-37
238	271	-41
154	291	-33
53	279	-28
-46	215	-24
-139	93	-32
-205	-75	-17
-237	-242	-12
-229	-354	-24
-193	-368	-25
-143	-282	-30
-89	-141	-21
-32	-3	-15
37	81	-24
126	97	-27
230	72	-28
322	53	-14
370	70	-18
340	113	-34
226	148	-27
51	127	-27
-130	48	-21
-264	-64	-24
-321	-153	-26
-297	-177	-30
-227	-126	-18
-149	-41	-11
-91	24	-16
-52	36	-10
-15	-2	-9
41	-45	-25
127	-42	-30
214	24	-25
270	129	-11
261	215	10
186	233	-2
71	160	-6
-39	25	-27
-109	-110	-60
-126	-201	-62
-113	-226	-54
-104	-198	-43
-120	-151	-27
-160	-104	-19
-190	-60	-14
-175	-8	2
-96	61	-2
31	135	-13
161	188	-17
245	191	-25
258	139	-33
205	61	-22
117	-11	-23
30	-45	-42
-32	-36	-41
-70	-12	-30
-101	-3	-15
-128	-32	2
-156	-89	-6
-165	-143	-15
-148	-161	-17
-105	-127	-22
-55	-58	-24
-20	13	-40
-3	62	-32
12	84	-26
46	91	-25
114	104	-26
199	131	-14
262	156	2
260	150	-12
178	89	-12
34	-19	-23
-114	-139	-35
-213	-227	-36
-231	-243	-40
-172	-183	-44
-76	-72	-35
14	53	3
72	158	-10
97	221	-26
100	235	-10
97	208	-16
90	140	-18
69	37	-22
39	-89	-40
0	-207	-56
-36	-286	-52
-64	-300	-44
-93	-249	-28
-138	-166	-18
-212	-94	-4
-300	-64	0
-366	-76	-6
-361	-93	-21
-259	-77	-37
-71	-4	-21
147	110	-26
328	222	-18
413	284	-19
393	275	-18
297	207	-12
178	118	-24
86	49	-19
29	15	-32
-4	1	-35
-44	-18	-32
-106	-60	-17
-181	-117	2
-240	-165	7
-253	-174	12
-203	-139	-4
-101	-76	-14
25	-11	-30
141	32	-43
223	51	-33
257	56	-40
250	63	-38
209	80	-39
149	91	-41
76	81	-46
3	36	-47
-69	-35	-45
-133	-113	-40
-182	-164	-10
-208	-167	8
-208	-120	19
-178	-38	14
-121	49	-12
-43	120	-13
41	155	-18
116	150	-31
169	119	-30
195	72	-41
204	33	-43
206	10	-40
206	13	-43
186	35	-37
123	62	-6
-1	72	12
-183	43	-28
-379	-28	-32
-520	-127	-14
-545	-218	-23
-424	-263	-23
-195	-242	-26
62	-153	-18
259	-32	-12
339	78	-17
300	142	-28
194	154	-39
87	125	-40
22	84	-24
1	45	7
-2	16	10
-21	-14	4
-63	-52	-9
-112	-92	-17
-142	-117	-20
-134	-113	-25
-98	-79	-16
-53	-37	-29
-20	-14	-31
3	-25	-36
35	-56	-39
94	-77	-44
184	-48	-69
269	34	-63
314	139	-30
280	218	10
171	223	22
14	143	10
-143	13	7
-260	-105	-7
-319	-170	-31
-320	-165	-30
-276	-116	-31
-198	-65	-32
-95	-37	-37
20	-29	-30
125	-16	-16
196	24	-26
212	92	-24
178	161	-30
120	194	-25
72	171	-21
58	101	-22
67	14	-24
74	-56	-25
39	-93	-26
-43	-100	-32
-155	-100	-31
-245	-103	-27
-270	-110	-16
-209	-106	-9
-84	-76	-6
62	-20	-1
179	48	-13
236	110	-28
234	154	-43
195	178	-49
137	183	-43
72	171	-33
0	130	-24
-83	47	-29
-173	-75	-19
-248	-207	-20
-289	-308	-16
-279	-334	-14
-224	-273	-24
-141	-145	-25
-58	0	-25
5	113	-9
50	166	-18
88	168	-38
133	143	-21
192	125	-2
253	117	7
291	106	3
280	68	-12
216	-2	-27
101	-93	-41
-32	-171	-45
-150	-211	-38
-218	-206	-58
-231	-163	-62
-191	-113	-26
-125	-71	-6
-55	-37	14
4	3	12
46	63	-8
82	138	-24
107	208	-32
122	237	-30
116	206	-25
78	121	-25
7	8	-24
-82	-86	-28
-159	-137	-37
-203	-139	-34
-200	-114	-33
-165	-91	-25
-115	-87	-17
-76	-101	-3
-52	-108	-5
-36	-85	-27
-2	-17	-32
66	79	-30
163	171	-22
265	233	-22
334	237	-17
340	195	-8
269	123	-23
147	48	-24
1	-25	-23
-124	-98	-21
-206	-181	-27
-239	-270	-38
-231	-340	-14
-203	-355	-3
-168	-286	-3
-129	-134	-24
-87	68	-48
-34	268	-37
29	400	-36
104	433	-44
178	370	-50
239	243	-30
268	100	-23
245	-17	-22
167	-94	4
35	-137	9
-124	-163	10
-274	-189	3
-371	-214	7
-389	-233	-10
-325	-232	-21
-206	-196	1
-67	-133	-4
59	-45	-35
162	48	-36
242	131	-32
301	192	-52
336	221	-50
324	215	-42
241	183	-27
84	124	-17
-119	44	-16
-308	-41	-21
-415	-121	-15
-404	-176	-15
-288	-192	-31
-123	-171	-25
23	-119	-26
107	-57	-35
124	-7	-47
115	25	-65
119	40	-58
160	53	-32
221	81	-9
254	125	-19
230	171	-32
135	195	-24
3	171	-19
-122	94	12
-205	-22	21
-237	-143	-30
-232	-230	-34
-209	-257	-19
-180	-221	-20
-133	-144	-25
-64	-62	-39
30	0	-24
125	35	-17
192	57	-14
207	88	0
183	137	-7
143	202	5
122	255	5
128	265	-23
138	208	-27
121	93	-32
45	-51	-38
-77	-183	-31
-209	-264	-31
-296	-286	-27
-308	-254	-30
-247	-191	-20
-147	-119	4
-49	-50	4
20	11	-4
62	65	-21
98	106	-19
139	126	-16
186	114	-27
212	77	-19
193	25	-17
122	-21	-25
13	-46	-42
-97	-57	-46
-178	-68	-47
-208	-93	-52
-200	-125	-46
-175	-145	-24
-150	-126	-7
-130	-49	1
-104	72	6
-55	204	0
22	299	-30
120	320	-40
213	268	-31
279	165	-19
300	48	-31
268	-52	-37
191	-124	-19
85	-170	-33
-40	-192	-40
-165	-195	-30
-271	-177	-24
-338	-138	-12
-350	-91	13
-292	-49	3
-176	-28	-34
-22	-20	-35
135	-9	-38
259	22	-29
321	82	-27
313	150	-36
250	197	-41
155	191	-40
59	128	-25
-20	32	-2
-79	-63	12
-121	-125	-22
-158	-145	-11
-188	-138	-13
-211	-122	-54
-212	-109	-25
-180	-91	-9
-109	-52	-16
-6	20	-23
104	112	-31
202	195	-32
259	228	-24
266	190	-15
226	97	-15
154	-19	-19
72	-107	-30
0	-137	-30
-54	-111	-16
-95	-54	-3
-130	-6	-6
-173	12	-15
-212	-3	-2
-235	-30	-10
-218	-44	-30
-151	-27	-39
-40	15	-68
84	61	-78
179	93	-46
214	89	-27
181	55	-25
102	4	-24
10	-47	-20
-56	-90	-13
-88	-122	-8
-95	-149	-19
-103	-171	-30
-130	-181	-17
-172	-173	-6
-200	-137	1
-181	-84	-5
-99	-21	-19
34	40	-16
178	89	-12
285	131	-17
321	170	-22
282	204	-27
199	225	-24
109	215	-24
40	168	-30
-5	80	-35
-43	-25	-43
-94	-120	-35
-156	-177	-30
-214	-186	-46
-241	-156	-52
-209	-105	-23
-119	-49	-22
8	6	-39
135	65	-26
230	132	-19
270	204	-5
262	257	4
211	267	-8
131	207	-20
33	85	-1
-74	-74	-12
-173	-225	-27
-250	-322	-9
-288	-342	-3
-281	-292	-5
-237	-204	-27
-170	-114	-55
-99	-46	-48
-27	-8	-12
41	20	-15
110	58	-28
171	113	-7
221	174	-9
242	213	-19
234	208	-23
201	149	-17
150	50	-10
95	-57	-19
33	-140	-34
-31	-185	-57
-103	-184	-35
-173	-150	-14
-234	-98	-43
-262	-39	-15
-253	18	-3
-205	72	-21
-120	113	-13
-10	138	10
114	145	-21
237	137	-59
329	123	-16
355	110	-15
292	96	-10
139	66	-22
-67	19	-24
-260	-49	-6
-378	-124	-34
-385	-184	-33
-295	-213	-27
-164	-208	-32
-57	-181	-30
-5	-145	-32
2	-110	-36
4	-68	-24
40	-8	-9
115	68	-13
203	148	-15
254	195	-16
242	187	-23
162	120	-27
52	17	-27
-42	-78	-18
-93	-134	-23
-97	-142	-24
-78	-119	-24
-48	-92	-26
-24	-71	-38
-1	-56	-48
22	-17	-32
45	55	-7
54	152	-19
42	240	-33
17	275	-24
-3	244	-28
2	151	-24
36	38	-22
80	-52	-18
94	-94	-2
54	-94	-8
-40	-82	-7
-159	-82	-6
-250	-107	-17
-276	-141	-23
-228	-166	-25
-133	-154	-27
-34	-106	-33
36	-34	-40
79	45	-48
105	112	-50
136	162	-44
178	190	-19
214	194	0
216	171	-16
170	115	-18
75	33	-20
-42	-60	-11
-148	-137	-1
-214	-175	-19
-236	-166	-25
-215	-121	-26
-162	-66	-30
-87	-24	-24
6	-6	-20
109	-3	-18
205	3	-18
270	30	-37
287	80	-20
249	131	13
167	156	8
63	127	6
-39	39	-3
-129	-90	-11
-200	-224	-29
-258	-316	-45
-296	-338	-47
-312	-279	-56
-294	-166	-53
-232	-36	-38
-127	71	-26
0	130	-21
123	141	-23
215	124	-18
255	110	-9
239	117	-19
175	150	-27
91	193	-32
12	212	-42
-45	190	-38
-69	115	-21
-71	6	0
-66	-118	-7
-62	-223	-32
-63	-283	-12
-59	-288	7
-43	-232	-12
-6	-127	-25
34	1	-24
69	122	-19
85	203	-12
85	224	-11
81	180	-25
89	99	-25
114	12	-32
139	-45	-34
136	-65	-27
80	-58	-41
-28	-50	-42
-162	-63	-30
-271	-97	-8
-320	-134	-12
-287	-144	-35
-189	-112	-18
-62	-40	-29
52	48	-32
137	122	-18
184	162	-35
204	166	-30
206	150	-15
194	128	-10
164	110	-6
117	85	-9
56	40	-26
-7	-30	-37
-65	-115	-43
-115	-187	-39
-153	-225	-25
-178	-208	-26
-181	-144	-13
-152	-55	-9
-91	34	-12
-3	104	-13
85	144	-31
144	156	-36
159	138	-37
128	100	-29
69	44	-30
6	-12	-25
-49	-55	-18
-95	-69	-37
-138	-56	-26
-185	-32	-24
-223	-20	-31
-235	-36	-23
-200	-74	-25
-118	-111	-11
-8	-112	-13
102	-64	-14
181	21	4
216	113	-2
228	169	-14
223	165	-7
214	106	-2
192	23	-20
147	-52	-39
62	-104	-30
-48	-129	-15
-160	-147	-6
-236	-165	-15
-253	-181	-35
-218	-180	-34
-158	-148	-35
-101	-78	-24
-68	15	-9
-55	108	-10
-30	178	-22
27	210	-30
124	203	-38
241	163	-59
330	99	-59
355	26	-48
296	-44	-24
166	-98	-7
0	-130	1
-152	-137	-15
-260	-122	-21
-316	-93	-7
-324	-48	-14
-300	9	-9
-252	78	-24
-178	150	-24
-76	203	-16
46	215	-19
172	174	-21
269	90	-21
310	-7	-16
282	-76	-24
196	-96	-24
78	-72	-40
-41	-36	-28
-133	-26	-19
-190	-59	-28
-209	-121	-14
-200	-175	-18
-174	-186	-20
-130	-138	-18
-78	-49	-7
-13	42	-5
56	105	-19
129	124	-25
195	120	-34
241	110	-30
258	109	-20
236	109	-23
169	85	-18
66	29	-29
-53	-56	-46
-162	-142	-40
-233	-198	-30
-255	-203	-24
-234	-164	-15
-184	-104	-3
-122	-45	-12
-57	-5	-25
12	27	-18
88	61	-15
166	106	-21
232	157	-35
266	192	-32
253	193	-8
192	153	-13
98	81	-44
-2	-1	-35
-88	-80	-22
-148	-136	-39
-186	-176	-40
-208	-192	-37
-214	-183	-20
-195	-144	-5
-139	-75	-19
-49	9	-30
61	89	-19
163	140	-32
229	157	-44
245	143	-38
223	120	-37
175	109	-42
125	110	-33
74	106	-12
10	74	9
-74	-2	22
-182	-112	12
-300	-222	0
-392	-289	-7
-436	-289	-5
-402	-225	-19
-291	-124	-27
-125	-26	-25
67	41	-33
245	71	-31
373	83	-40
417	89	-29
373	106	-18
255	132	-19
106	152	-8
-26	145	-1
-104	105	-2
-128	33	-14
-122	-60	-18
-130	-159	-28
-172	-244	-35
-235	-294	-40
-270	-292	-40
-235	-230	-43
-104	-111	-61
92	37	-44
280	183	-35
390	286	-17
383	327	-20
279	301	-21
136	240	10
20	154	-5
-44	68	-19
-72	-11	-20
-101	-87	-11
-156	-163	-23
-228	-228	-33
-280	-263	-24
-269	-254	-35
-182	-192	-30
-41	-89	-25
100	25	-31
194	122	-38
226	182	-38
207	197	-27
175	181	-19
148	143	-10
130	95	-5
102	34	-12
48	-35	-16
-38	-106	-8
-139	-166	-5
-224	-192	-14
-269	-181	-22
-268	-128	-12
-228	-56	-12
-156	11	-27
-64	60	-41
41	89	-25
151	110	-25
242	133	-39
292	165	-53
280	187	-43
208	181	-10
94	130	-17
-24	38	-14
-121	-72	-12
-175	-175	-26
-193	-238	-17
-188	-251	-17
-172	-223	-22
-144	-170	-22
-103	-111	-32
-39	-57	-28
44	-6	-20
141	47	-22
234	104	-43
300	154	-35
322	188	-15
291	195	-5
196	177	6
50	135	-8
-125	83	-30
-290	24	-40
-404	-38	-33
-432	-102	-24
-375	-164	-10
-258	-207	-17
-124	-216	-19
-12	-180	-24
66	-107	-36
119	-14	-38
167	71	-35
216	124	-23
267	138	-23
285	120	-13
251	86	-12
160	47	-10
33	5	-18
-92	-41	-35
-185	-92	-36
-235	-135	-42
-245	-153	-24
-229	-129	-11
-194	-66	-21
-141	11	-9
-62	77	-10
32	106	-28
128	104	-17
196	90	-10
216	92	-6
190	117	-24
132	142	-40
77	137	-44
33	74	-30
4	-43	-13
-32	-173	-25
-89	-260	-24
-164	-268	-32
-229	-204	-31
-253	-108	-17
-208	-33	-25
-99	-11	-27
38	-24	-18
161	-33	-9
231	4	-20
242	95	-27
216	204	-23
186	275	-24
172	268	-22
178	179	-25
180	43	-1
150	-77	10
69	-151	0
-57	-170	-11
-202	-160	-28
-329	-150	-14
-405	-152	-24
-412	-154	-44
-354	-130	-40
-245	-65	-32
-107	32	-36
38	131	-34
170	198	-26
270	214	-31
326	186	-27
331	132	-25
284	84	-22
198	48	-27
90	21	-42
-25	-13	-35
-128	-66	-21
-211	-137	-15
-262	-198	-12
-273	-227	-11
-239	-199	-4
-159	-118	-6
-52	-5	-19
59	110	-24
147	189	-35
187	215	-34
172	190	-24
118	127	-14
49	48	-10
-8	-23	-15
-42	-78	-25
-58	-110	-26
-71	-121	-21
-97	-116	-31
-126	-99	-36
-150	-75	-40
-143	-49	-24
-100	-26	-37
-27	-5	-39
52	17	-21
115	42	-40
144	76	-34
148	114	-15
143	144	0
148	153	2
163	126	10
170	63	0
148	-22	-3
74	-108	3
-43	-173	-18
-172	-205	-31
-267	-200	-38
-291	-171	-43
-231	-124	-55
-100	-66	-76
59	-2	-55
205	70	-8
302	138	6
346	193	0
338	215	16
270	199	5
152	142	-20
-16	57	-6
-215	-40	-15
-407	-132	-24
-532	-204	-31
-549	-249	-36
-451	-259	-28
-273	-233	-36
-87	-171	-48
48	-84	-43
104	14	-32
103	108	-41
89	181	-26
107	225	0
164	237	-16
233	215	-40
266	174	-24
236	116	-18
150	45	-18
44	-29	-16
-35	-96	-16
-79	-151	-8
-94	-186	-21
-113	-196	-24
-147	-183	-24
-183	-147	-27
-191	-92	-21
-137	-27	-23
-23	41	-26
117	103	-32
234	150	-26
285	174	-25
263	174	-19
195	154	-19
115	118	-23
49	68	-16
1	11	-30
-48	-49	-28
-109	-108	-28
-181	-149	-31
-237	-162	-32
-255	-141	-31
-218	-94	-32
-134	-36	-30
-33	11	-16
61	34	-10
133	40	-1
180	40	-8
205	52	-21
210	85	-16
186	124	-17
129	145	-24
38	120	-9
-67	44	2
-159	-67	-8
-210	-176	-25
-210	-246	-35
-174	-253	-30
-119	-202	-38
-70	-120	-36
-30	-39	-20
14	27	-20
74	75	-41
149	115	-36
222	157	-26
259	197	-32
237	219	-30
156	208	-26
39	153	3
-70	62	6
-148	-43	-1
-181	-143	-9
-189	-218	-32
-200	-260	-38
-225	-260	-33
-252	-224	-24
-249	-150	-25
-186	-55	-35
-56	43	-44
111	128	-42
262	177	-40
346	191	-38
337	174	-24
245	142	-14
118	110	-11
-2	76	-2
-81	32	17
-115	-28	7
-126	-100	-7
-139	-175	0
-163	-229	-10
-191	-244	-27
-202	-215	-40
-172	-151	-45
-92	-69	-48
25	13	-52
155	82	-56
265	129	-39
328	150	-18
328	147	-13
269	119	-5
166	76	-3
35	34	0
-95	5	-1
-203	-4	-22
-273	-4	-27
-292	-9	-9
-269	-35	-18
-208	-81	-37
-127	-122	-38
-41	-129	-34
36	-82	-24
100	17	-30
147	135	-15
172	231	-2
184	264	0
175	233	-11
155	155	-25
122	64	-25
80	-12	-36
24	-69	-27
-43	-115	-27
-125	-162	-26
-208	-203	-24
-269	-219	-42
-280	-192	-44
-222	-120	-40
-92	-25	-27
78	55	-42
241	92	-55
350	80	-34
374	43	-12
323	24	13
211	43	18
78	90	-8
-48	126	-23
-156	107	-17
-242	17	-14
-309	-126	-6
-347	-264	-17
-347	-343	-23
-296	-322	-21
-200	-216	-35
-78	-71	-46
44	56	-39
140	137	-23
200	165	-12
229	169	-13
238	171	-38
234	187	-32
216	200	-21
175	188	-38
103	139	-42
6	57	-38
-97	-34	-14
-174	-111	3
-212	-157	-6
-198	-169	-11
-149	-157	-41
-83	-127	-46
-20	-83	-35
27	-22	-32
61	48	-10
86	115	-11
105	158	8
117	154	8
118	103	-15
99	17	-15
59	-69	-8
2	-133	-5
-63	-158	-15
-129	-151	-25
-184	-129	-32
-214	-107	-20
-215	-92	-20
-183	-85	-28
-119	-74	-39
-36	-48	-46
50	-2	-38
124	64	-28
175	150	-44
202	236	-44
207	299	-23
195	313	-17
172	261	6
136	150	-3
85	7	-3
17	-123	-1
-59	-202	-4
-139	-218	-3
-209	-192	-34
-255	-154	-24
-269	-129	-22
-245	-124	-33
-179	-112	-45
-75	-72	-46
54	7	-23
186	105	-36
291	186	-53
339	215	-40
314	187	-23
216	119	-13
84	43	-8
-59	-13	-20
-174	-50	-27
-243	-86	-14
-264	-134	-9
-250	-195	-17
-211	-240	-20
-152	-237	-33
-77	-166	-33
11	-39	-39
98	100	-37
169	204	-31
210	244	-33
216	218	-27
198	156	-11
167	89	9
131	40	-8
83	11	-26
16	-14	-14
-75	-45	-12
-175	-84	-15
-256	-114	-28
-285	-126	-60
-245	-114	-59
-148	-89	-44
-25	-63	-7
71	-50	6
117	-38	-16
115	-15	-9
92	32	-10
78	99	4
88	155	1
110	170	-17
112	114	-20
69	4	-37
-28	-127	-43
-143	-219	-50
-240	-237	-55
-269	-173	-57
-217	-60	-55
-100	48	-23
47	115	8
181	130	8
265	115	-2
283	109	-12
240	127	1
147	166	16
36	181	2
-60	139	-19
-119	28	-25
-123	-123	-18
-87	-259	-18
-37	-322	-17
-11	-292	-33
-28	-192	-53
-88	-72	-56
-158	11	-52
-195	37	-45
-177	22	-30
-94	3	-30
22	14	-20
132	64	4
202	134	-2
222	190	-3
195	202	-1
143	171	-14
80	114	-28
10	47	-30
-58	-14	-31
-126	-67	-30
-181	-121	-12
-210	-173	-22
-205	-201	-24
-168	-192	-30
-104	-136	-45
-29	-46	-56
42	51	-38
106	121	-7
152	143	-24
180	126	-14
187	89	-13
175	56	-20
156	41	-19
123	35	-22
81	25	-18
21	-3	-21
-52	-45	-32
-135	-91	-36
-206	-118	-34
-236	-118	-37
-205	-95	-24
-108	-56	-28
32	-15	-31
175	26	-11
279	67	-13
310	108	-13
261	145	-2
150	165	-12
5	151	-8
-136	98	11
-247	7	-6
-306	-99	-26
-310	-191	-20
-276	-248	-35
-228	-256	-40
-188	-218	-32
-167	-159	-23
-156	-92	-25
-123	-35	-40
-50	11	-34
69	55	-17
212	104	-19
330	156	-38
381	197	-18
344	209	-5
237	174	-1
99	102	-6
-25	6	-22
-111	-80	-15
-154	-127	-31
-169	-135	-24
-169	-115	-31
-161	-94	-44
-134	-85	-39
-86	-87	-33
-16	-79	-25
65	-40	-31
140	35	-31
203	130	-34
244	210	-24
257	243	-31
241	215	-32
182	143	-12
81	57	0
-55	-18	9
-191	-69	-4
-290	-105	-6
-319	-134	-3
-272	-164	-19
-178	-187	-30
-78	-184	-42
-8	-144	-54
17	-67	-55
16	27	-72
24	119	-57
65	186	-20
144	221	-7
234	228	19
292	205	12
290	156	-1
211	70	-14
75	-47	-16
-87	-182	-5
-230	-305	-12
-325	-376	-11
-357	-374	-18
-324	-297	-39
-234	-174	-42
-98	-43	-34
59	64	-37
212	134	-27
328	174	-31
373	197	-30
337	210	-21
221	207	-22
57	179	-20
-108	120	-14
-229	38	-13
-285	-43	-9
-277	-102	-9
-234	-127	-18
-180	-122	-11
-140	-103	-32
-118	-85	-37
-101	-76	-32
-69	-65	-41
-14	-48	-32
65	-15	-40
152	33	-16
226	82	-5
272	118	-19
280	130	-14
255	120	-22
192	90	-25
99	51	-21
-12	8	-27
-125	-37	-33
-215	-80	-27
-262	-116	-33
-252	-140	-23
-188	-149	-18
-90	-135	-21
16	-100	-24
103	-48	-21
159	12	-16
175	75	-20
162	122	-29
120	150	-30
64	152	-13
-2	126	-20
-65	80	-26
-120	26	-24
-162	-25	-17
-185	-67	-23
-195	-96	-26
-195	-107	-19
-184	-98	-15
-153	-70	-16
-96	-23	-27
-15	29	-35
83	76	-38
175	100	-20
245	97	1
280	74	12
276	45	-4
231	28	-19
160	25	-20
71	27	-31
-24	12	-25
-117	-33	-25
-191	-103	-31
-231	-178	-27
-222	-227	-39
-162	-227	-54
-70	-168	-51
26	-70	-28
100	38	-19
139	131	-21
150	195	-17
148	224	-14
151	224	-3
165	199	-7
171	154	-11
147	88	-12
77	11	-27
-38	-70	-23
-169	-148	-34
-272	-211	-41
-319	-259	-27
-298	-290	-28
-229	-297	-35
-141	-263	-18
-68	-183	-12
-18	-54	-6
20	96	-9
61	228	-31
121	298	-32
189	286	-18
245	209	-13
258	108	-12
212	31	-12
111	0	-21
-18	6	-22
-142	16	-22
-237	-6	-31
-285	-70	-25
-291	-153	-13
-256	-210	-21
-186	-208	-36
-83	-141	-42
46	-36	-35
180	65	-36
287	134	-34
338	161	-32
311	158	-32
214	145	-17
78	131	-10
-55	112	-22
-144	68	-9
-173	0	-5
-148	-82	-26
-103	-150	-17
-65	-181	-18
-56	-169	-22
-69	-121	-26
-85	-62	-27
-78	-11	-7
-31	26	-9
50	56	-18
139	90	-26
208	125	-30
227	158	-18
191	166	-15
111	136	-23
15	68	-36
-69	-23	-35
-122	-116	-27
-144	-188	-28
-141	-223	-14
-125	-218	-17
-103	-177	-27
-76	-110	-24
-38	-25	-35
8	63	-26
58	138	-27
102	185	-37
127	185	-21
132	145	-7
119	77	6
92	8	5
53	-39	-5
0	-62	-17
-72	-67	-28
-161	-79	-40
-245	-108	-36
-300	-153	-28
-303	-191	-23
-241	-192	-30
-132	-144	-27
-10	-49	-12
93	61	-28
152	153	-34
169	194	-16
159	189	-18
151	154	-27
158	112	-24
172	81	-26
175	50	-22
144	12	-30
72	-46	-38
-25	-117	-39
-120	-181	-34
-180	-209	-30
-188	-187	-44
-145	-121	-37
-75	-30	-37
-1	59	-18
57	134	1
94	189	8
118	218	2
135	224	-6
148	189	-1
144	112	-6
116	1	-10
52	-121	-23
-38	-215	-18
-140	-254	-22
-231	-229	-31
-282	-163	-48
-295	-87	-50
-262	-33	-47
-197	-11	-50
-108	-2	-28
-4	11	-24
104	45	-32
203	98	-1
275	150	12
302	182	-12
269	183	-7
188	157	-15
75	105	-21
-35	39	-17
-119	-40	-16
-170	-127	-21
-186	-210	-20
-184	-268	-11
-172	-274	-25
-151	-222	-33
-115	-113	-38
-59	13	-32
9	126	-30
80	195	-23
134	213	-25
171	196	-40
191	158	-28
202	116	-14
203	72	-8
181	31	-13
113	-11	-21
-7	-49	-18
-164	-76	-34
-311	-95	-49
-389	-109	-33
-353	-130	-23
-208	-157	-21
-6	-173	-22
175	-156	-29
278	-85	-13
280	29	-6
216	158	-26
141	252	-40
95	272	-28
78	208	-18
61	80	-12
6	-59	-12
-98	-166	-4
-223	-208	-3
-312	-192	-17
-321	-151	-20
-245	-108	-28
-120	-87	-23
-3	-77	-28
72	-66	-33
101	-32	-32
114	32	-27
137	112	-27
178	183	-22
208	224	-14
188	218	-26
104	170	-13
-20	98	-6
-134	18	-24
-193	-55	-19
-181	-110	-8
-128	-148	-23
-84	-164	-24
-79	-161	-24
-108	-134	-24
-121	-89	-23
-75	-33	-27
50	26	-28
212	76	-40
342	111	-32
380	130	-28
306	134	-26
158	126	-17
0	106	-20
-113	71	-17
-167	23	-17
-185	-33	-26
-206	-90	-25
-249	-129	-35
-297	-144	-30
-310	-133	-10
-249	-98	-15
-117	-51	-32
52	-3	-23
204	35	-30
295	66	-46
311	91	-46
275	110	-41
225	127	-26
182	136	-28
151	132	-11
113	106	6
48	53	10
-46	-22	4
-152	-114	0
-241	-202	-28
-288	-263	-52
-287	-287	-24
-247	-261	-14
-181	-195	-4
-103	-99	-9
-12	0	-7
89	89	-9
193	151	-30
276	183	-40
314	183	-34
284	147	-35
188	83	-39
50	-5	-13
-83	-92	-11
-172	-157	-31
-199	-175	-24
-173	-142	4
-126	-72	-2
-93	6	-26
-88	59	-36
-104	75	-45
-114	55	-42
-93	28	-23
-28	22	-25
62	50	-28
151	106	-30
199	162	-35
188	182	-22
117	149	-18
18	69	-7
-77	-31	-4
-140	-120	-15
-163	-173	-23
-151	-185	-22
-116	-163	-19
-76	-121	-23
-34	-72	-26
9	-16	-32
56	45	-32
109	115	-17
158	182	-24
197	227	-40
216	233	-45
219	187	-53
196	98	-30
151	-13	-8
86	-113	-12
4	-182	3
-93	-202	-2
-191	-181	-12
-276	-135	-4
-325	-90	-7
-324	-62	-11
-272	-55	-15
-177	-61	-23
-56	-64	-33
68	-51	-25
171	-18	-33
234	33	-40
245	84	-33
202	119	-31
120	123	-19
21	96	-16
-67	36	-17
-130	-35	-13
-158	-98	-19
-158	-135	-40
-143	-135	-39
-119	-101	-24
-85	-46	-28
-34	12	-26
35	58	-36
122	86	-27
205	99	-8
262	104	-14
275	106	-4
236	106	-6
153	94	-15
46	62	-35
-63	15	-42
-162	-42	-36
-236	-90	-35
-276	-110	-27
-281	-98	-15
-251	-57	-5
-191	-9	-5
-109	31	4
-17	47	-17
78	43	-38
167	25	-36
244	9	-44
294	4	-43
306	8	-36
271	16	-11
190	15	-18
76	-2	-46
-45	-32	-19
-150	-64	-16
-222	-87	-20
-256	-94	-18
-261	-84	-13
-241	-66	-3
-194	-49	-12
-123	-38	-18
-30	-29	-38
66	-14	-47
142	6	-40
175	32	-37
160	51	-23
111	57	-19
60	51	-4
27	38	6
12	32	-2
6	34	-1
-13	40	-12
-52	35	-21
-105	5	-23
-144	-50	-19
-156	-112	-18
-125	-150	-26
-65	-138	-28
9	-76	-36
93	19	-43
172	110	-39
250	170	-25
301	179	-22
300	149	-23
226	99	-27
78	48	-24
-110	6	-10
-281	-34	-4
-378	-77	-14
-378	-124	-13
-296	-164	-9
-179	-179	-19
-78	-160	-19
-15	-103	-20
22	-26	-35
60	51	-47
120	113	-37
202	151	-26
276	166	-38
314	163	-42
297	143	-40
229	110	-38
131	68	-17
27	15	-13
-76	-43	-18
-180	-97	-4
-281	-138	-12
-369	-167	-13
-410	-175	9
-378	-162	16
-262	-126	-12
-89	-69	-22
99	-3	-19
245	61	-53
314	106	-52
302	126	-42
236	121	-29
142	98	-15
51	66	-16
-20	26	-2
-80	-20	-19
-126	-76	-22
-164	-131	-18
-182	-171	-32
-173	-179	-26
-133	-143	-25
-65	-72	-30
9	9	-33
82	74	-45
134	103	-48
170	101	-46
183	86	-32
179	81	-21
162	86	-30
131	95	-32
94	81	-23
50	28	0
5	-55	8
-43	-143	-2
-94	-196	-24
-142	-192	-48
-184	-137	-49
-197	-56	-40
-170	15	-25
-91	63	-17
29	90	-10
162	112	-13
266	142	-23
306	180	-4
265	201	4
150	182	4
-6	112	1
-162	5	-4
-279	-104	3
-340	-184	-5
-345	-212	-20
-311	-196	-35
-250	-160	-28
-183	-125	-33
-118	-102	-40
-60	-79	-28
-11	-37	-28
33	35	-30
72	130	-32
109	221	-26
144	277	-36
175	274	-23
204	211	-18
214	110	-29
206	5	-28
169	-84	-29
107	-144	-24
32	-188	-31
-40	-227	-30
-97	-260	-28
-125	-278	-26
-118	-258	-21
-81	-181	-21
-16	-55	-22
60	89	-19
136	206	-18
194	261	-18
216	243	-13
196	168	-18
139	80	-16
56	4	-13
-34	-41	-22
-116	-68	-20
-178	-90	-38
-216	-115	-46
-236	-134	-28
-236	-130	-27
-217	-92	-30
-175	-25	-25
-108	45	4
-22	98	21
67	121	-7
138	120	-25
172	115	-21
169	117	-25
128	125	-30
74	123	-36
19	92	-34
-27	30	-31
-67	-49	-30
-110	-119	-15
-159	-163	-13
-199	-174	-15
-214	-166	-7
-185	-147	-14
-108	-120	-29
4	-81	-35
121	-13	-36
211	70	-32
255	157	-31
252	209	-36
214	205	-25
159	148	-25
93	56	-29
20	-32	-25
-59	-91	-32
-134	-109	-34
-188	-99	-40
-194	-82	-32
-145	-69	-12
-54	-66	1
47	-62	4
118	-48	-9
130	-17	-20
84	24	-13
7	69	8
-55	110	-4
-75	131	-15
-43	125	-13
16	80	-8
67	-1	-14
79	-102	-40
40	-192	-59
-34	-237	-62
-114	-216	-60
-168	-135	-55
-173	-29	-36
-127	60	-28
-42	102	2
54	90	14
139	55	-18
188	32	-19
186	45	-10
138	86	2
59	123	-5
-22	121	-14
-85	63	-17
-114	-28	-24
-115	-117	-24
-106	-168	-31
-109	-164	-36
-126	-121	-37
-152	-72	-39
-162	-44	-40
-132	-36	-24
-59	-32	-17
41	-8	-17
142	45	-7
216	119	-13
245	185	-27
241	211	-27
209	194	-18
166	134	-21
119	59	-25
60	-16	-32
-10	-78	-30
-86	-126	-19
-150	-159	-21
-180	-166	-18
-163	-145	7
-104	-93	-2
-32	-24	-30
24	37	-21
40	75	-28
16	79	-24
-29	66	-24
-61	58	-30
-57	72	-22
-14	104	-27
48	128	-28
89	119	-43
80	57	-38
14	-40	-30
-82	-143	-28
-166	-212	-24
-200	-231	-14
-174	-201	-2
-105	-148	-6
-26	-90	-14
31	-36	-23
65	15	-28
90	75	-34
129	136	-33
190	183	-32
251	197	-32
273	168	-29
229	101	-24
115	20	-13
-36	-47	-9
-172	-92	-5
-253	-114	-4
-267	-130	-11
-239	-150	-25
-193	-165	-33
-151	-159	-26
-106	-114	-36
-41	-30	-42
54	75	-21
169	170	-17
262	228	-34
301	237	-27
266	204	-8
180	150	-14
81	87	-3
6	15	-15
-33	-68	-4
-56	-163	9
-99	-250	-26
-175	-304	-22
-267	-297	-19
-333	-226	-34
-325	-110	-43
-229	10	-44
-71	97	-48
92	136	-48
202	140	-43
236	136	-47
205	143	-47
155	158	-39
121	162	-24
115	131	-18
117	61	-5
89	-30	-23
15	-113	-37
-93	-162	-20
-190	-169	-4
-237	-147	6
-209	-116	-11
-126	-89	1
-22	-55	-4
60	-5	-14
107	69	-4
132	153	-11
158	215	-22
197	225	-35
237	166	-26
245	56	-32
192	-62	-24
78	-151	-31
-75	-186	-36
-221	-173	-11
-316	-136	-14
-348	-109	-19
-321	-100	-33
-267	-104	-35
-195	-97	-38
-116	-59	-21
-20	12	-17
90	100	-48
196	182	-31
269	233	-27
283	235	-21
228	197	9
120	131	3
-2	55	5
-102	-21	12
-161	-87	-11
-178	-140	-23
-173	-179	-16
-162	-192	-25
-154	-182	-27
-136	-140	-28
-97	-78	-30
-26	-1	-31
68	74	-36
166	137	-39
242	180	-33
269	196	-30
253	190	-31
195	157	-30
115	99	-43
27	19	-35
-52	-75	-30
-120	-164	-35
-172	-233	-32
-202	-260	-34
-205	-235	-22
-177	-160	-16
-117	-56	-33
-34	45	-12
55	120	-11
136	154	-48
192	155	-27
219	142	-7
216	134	-32
195	134	-21
154	127	10
93	93	24
10	14	36
-96	-98	4
-211	-215	-19
-313	-296	-20
-370	-313	-38
-358	-268	-33
-277	-181	-40
-143	-84	-35
4	0	-26
131	62	-36
212	113	-31
245	163	-35
245	206	-38
226	229	-45
194	208	-36
147	141	-14
78	41	-12
-12	-59	-9
-111	-129	-8
-199	-153	-3
-255	-134	-9
-263	-104	-14
-226	-79	-12
-148	-64	-24
-48	-56	-29
54	-31	-36
141	18	-37
200	89	-30
216	155	-30
196	195	-30
151	191	-28
101	143	-35
58	70	-34
24	-6	-12
-13	-69	6
-72	-115	-4
-156	-140	-12
-245	-147	-4
-303	-138	-21
-292	-107	-30
-202	-57	-26
-52	7	-14
105	68	-21
225	109	-40
271	120	-37
256	101	-44
203	66	-39
150	32	-43
107	12	-48
74	2	-51
30	-8	-47
-34	-36	-35
-107	-89	-41
-167	-153	-25
-188	-204	-13
-165	-212	0
-105	-162	9
-35	-62	8
23	50	26
58	137	7
71	168	-6
72	138	-5
61	74	-26
44	7	-24
18	-33	-19
-17	-37	-13
-57	-17	-18
-95	8	-25
-126	20	-21
-151	14	-32
-164	-2	-46
-162	-23	-38
-136	-41	-38
-85	-59	-48
-13	-71	-43
65	-71	-31
136	-45	-17
184	15	-22
209	96	-12
214	169	-12
203	199	-26
175	165	-27
119	71	-20
34	-42	-19
-75	-130	-28
-178	-160	-35
-245	-123	-33
-251	-56	-21
-195	1	-19
-108	10	-27
-21	-24	-27
34	-77	-25
52	-103	-16
50	-79	-12
59	-4	-13
93	89	-14
144	156	-11
190	169	-7
195	123	-6
147	36	-17
48	-52	-26
-68	-119	-28
-170	-151	-30
-228	-154	-27
-234	-138	-38
-194	-113	-35
-128	-80	-32
-54	-29	-34
22	40	-38
98	118	-43
172	184	5
239	215	5
287	202	-26
297	138	3
252	50	-16
149	-37	-24
-3	-99	-8
-170	-127	-19
-312	-125	-18
-392	-107	-4
-392	-92	0
-319	-84	-13
-202	-86	-15
-85	-84	-16
6	-65	-20
58	-21	-40
93	48	-56
129	129	-58
184	202	-49
245	240	-53
287	235	-48
276	187	-30
199	106	-30
70	16	-32
-74	-63	-20
-191	-125	0
-263	-166	-2
-288	-191	4
-272	-208	6
-231	-213	0
-162	-194	-3
-69	-133	-3
43	-22	-20
158	127	-40
244	279	-34
273	379	-40
240	372	-33
165	243	-26
83	15	-21
28	-233	-17
8	-412	-11
7	-453	0
-12	-342	-18
-67	-131	-23
-158	86	-23
-250	215	-32
-303	218	-28
-281	105	-27
-186	-49	-42
-45	-165	-39
104	-188	-19
221	-110	-9
280	22	-11
285	148	-22
245	214	-25
167	202	-24
76	122	-19
-20	6	-25
-103	-107	-27
-158	-189	-30
-178	-222	-31
-165	-196	-25
-132	-122	-30
-96	-16	-44
-68	95	-43
-52	182	-33
-35	223	-25
-6	211	-10
42	160	-16
100	91	-12
148	28	-4
165	-16	-11
140	-37	1
76	-46	0
-13	-51	-2
-101	-56	6
-174	-65	1
-215	-74	-19
-226	-81	-30
-203	-78	-20
-153	-66	-16
-78	-43	-11
17	-9	-20
118	28	-42
208	60	-64
267	77	-74
283	70	-68
249	45	-63
175	8	-56
78	-27	-48
-22	-52	-34
-106	-63	-30
-162	-69	-32
-190	-74	-19
-197	-79	3
-187	-82	10
-160	-74	2
-110	-54	3
-33	-20	18
61	26	29
159	80	11
229	138	3
250	195	19
214	240	28
139	253	9
52	222	-11
-15	129	-9
-52	-5	-51
-64	-157	-107
-75	-275	-122
-101	-322	-115
-147	-283	-88
-190	-178	-76
-201	-50	-65
-156	49	-60
-55	88	-53
69	68	-53
175	22	-58
226	-14	-42
208	-14	-27
138	15	-6
56	45	2
-3	48	25
-27	5	48
-26	-66	39
-30	-138	21
-58	-175	-7
-113	-163	-5
-167	-109	-14
-189	-39	-18
-160	28	-18
-81	92	-28
15	160	-3
91	240	3
121	318	11
106	365	32
65	339	31
30	215	26
13	22	4
8	-195	-19
-4	-354	-39
-40	-410	-50
-99	-352	-54
-161	-228	-62
-197	-103	-69
-191	-25	-59
-136	-11	-44
-56	-29	-40
27	-35	-22
97	1	-27
148	79	-37
183	161	-16
204	213	2
208	210	4
182	160	-23
118	88	-51
27	27	-39
-74	-8	-30
-152	-27	-22
-182	-45	2
-160	-71	-12
-104	-102	-8
-39	-121	-7
8	-114	-19
34	-80	-23
51	-33	-43
71	7	-40
107	26	-16
148	26	-16
175	18	-19
170	17	-23
125	26	-24
51	34	-20
-33	32	-15
-105	11	-12
-156	-24	-22
-184	-63	-31
-198	-95	-33
-199	-114	-32
-187	-117	-27
-147	-108	-8
-78	-83	-19
16	-36	-42
111	33	-36
186	116	-27
225	194	-20
219	240	-22
182	237	-23
123	183	-18
57	101	-18
-12	12	-30
-82	-61	-32
-148	-106	-21
-201	-124	-30
-229	-118	-37
-222	-92	-34
-173	-47	-10
-100	4	-15
-16	48	-28
55	69	-14
105	56	-8
130	17	1
135	-28	-5
132	-48	-15
124	-37	-24
116	-6	-28
105	14	-20
89	-8	-39
60	-81	-57
18	-176	-47
-37	-242	-21
-104	-240	-14
-165	-155	-24
-203	-13	-15
-200	127	-7
-150	213	-25
-53	227	-18
60	186	-14
162	131	-11
224	93	-4
228	78	-12
184	59	-12
107	11	-31
10	-81	-33
-95	-185	-35
-200	-256	-40
-295	-253	-33
-357	-173	-34
-362	-56	-28
-295	34	-24
-156	58	-19
21	19	-7
187	-36	-10
299	-50	-16
335	11	-16
306	126	-16
245	233	-14
178	267	-15
114	200	-21
51	64	-33
-21	-82	-34
-103	-170	-35
-178	-178	-42
-224	-129	-40
-228	-68	-19
-191	-38	-18
-135	-42	-24
-82	-55	-17
-36	-44	-20
7	1	-13
64	66	-16
140	118	-25
214	129	-24
257	104	-30
240	66	-25
159	46	-18
41	49	-5
-71	58	-27
-148	40	-55
-173	-28	-32
-167	-135	-20
-150	-242	-13
-138	-291	-19
-126	-257	-29
-93	-139	-21
-27	20	-7
65	166	-1
159	261	-19
221	289	-24
229	265	-24
190	210	-23
124	144	-21
58	76	-35
1	3	-40
-55	-71	-24
-124	-139	-20
-207	-183	-37
-281	-200	-30
-318	-189	-19
-281	-162	-23
-174	-131	-28
-20	-99	-26
128	-57	-23
228	5	-27
256	89	-29
229	180	-30
176	244	-35
136	260	-16
119	209	8
115	112	5
102	6	7
58	-79	5
-19	-126	0
-114	-148	1
-204	-167	-27
-263	-201	-38
-279	-245	-38
-241	-264	-47
-156	-235	-30
-34	-135	-48
100	14	-66
216	166	-32
288	273	-21
292	299	-10
226	240	6
110	123	2
-18	-5	3
-129	-113	-17
-203	-175	-30
-240	-186	-14
-248	-162	-19
-241	-112	-42
-217	-57	-42
-170	-13	-47
-92	15	-42
14	26	-39
127	34	-33
219	53	-17
269	92	-8
266	141	-12
222	181	-33
151	183	-28
72	135	-17
-4	40	-20
-72	-71	-11
-135	-161	-2
-185	-202	-13
-212	-190	-13
-213	-137	-12
-184	-74	-18
-134	-13	-7
-69	36	-15
3	85	-18
77	135	-20
145	181	-30
197	206	-25
222	195	-26
208	142	-46
162	59	-57
93	-25	-34
26	-88	-7
-28	-118	-3
-67	-117	-25
-101	-104	-30
-136	-89	-24
-168	-78	-43
-180	-62	-36
-145	-40	-30
-61	-11	-21
54	17	-20
167	33	-9
230	31	3
224	17	-15
159	5	-19
74	5	-26
3	15	-25
-32	22	-25
-45	3	-33
-61	-44	-25
-103	-110	-25
-168	-169	-20
-226	-188	-25
-241	-159	-28
-195	-92	-23
-99	-16	-27
20	44	-23
120	77	-18
181	91	-23
197	105	-21
190	130	-25
175	164	-23
161	178	-16
135	158	-19
86	93	-26
7	0	-32
-90	-89	-44
-179	-142	-52
-236	-144	-36
-242	-106	-12
-200	-52	7
-125	-10	-4
-38	7	-17
42	0	-20
106	-21	-33
143	-37	-26
154	-40	-22
133	-28	-13
93	-8	-10
37	9	-15
-19	15	-22
-67	3	-23
-103	-17	-22
-126	-35	-28
-141	-36	-19
-144	-16	-18
-130	18	-20
-95	53	-22
-37	70	-26
30	59	-26
94	31	-19
139	9	-18
161	12	-18
162	47	-17
155	99	-22
143	134	-24
125	126	-28
90	64	-28
26	-36	-24
-62	-138	-18
-157	-205	-22
-226	-216	-30
-248	-179	-31
-214	-119	-33
-144	-64	-43
-62	-34	-56
7	-22	-58
53	-11	-52
85	22	-37
115	83	-20
149	158	-15
179	211	-3
190	209	0
160	143	-6
93	28	-12
2	-91	-9
-84	-168	-19
-139	-178	-31
-159	-127	-10
-154	-56	-14
-141	-10	-34
-131	-13	-25
-119	-53	-4
-88	-98	-7
-23	-103	-9
74	-51	-21
178	38	-24
252	125	-18
263	168	-39
206	150	-32
100	91	-23
-18	22	-37
-110	-19	-46
-161	-23	-34
-168	0	-23
-153	21	-9
-136	25	2
-125	4	2
-117	-28	13
-97	-52	3
-57	-56	-23
2	-32	-31
69	10	-33
127	58	-33
159	96	-40
153	108	-49
111	86	-47
42	28	-43
-40	-48	-32
-122	-123	-16
-188	-176	-5
-229	-188	9
-234	-168	16
-198	-127	-10
-126	-92	-34
-24	-63	-40
89	-41	-27
191	-8	-14
258	52	-14
279	131	-13
253	209	-27
199	248	-28
136	223	-18
83	130	-32
42	-3	-45
8	-135	-30
-31	-230	-27
-85	-259	-31
-145	-229	-34
-198	-157	-24
-222	-72	-18
-201	2	-20
-139	61	-9
-50	103	-7
45	132	-12
127	154	-19
182	163	-27
204	156	-27
195	131	-13
154	92	-22
89	41	-27
4	-9	-31
-87	-54	-22
-168	-86	-20
-221	-104	-24
-231	-107	-21
-195	-97	-37
-126	-83	-39
-43	-59	-31
38	-34	-18
97	1	-12
128	44	1
133	93	8
128	134	-11
120	149	-17
119	121	-15
114	47	-25
94	-53	-38
44	-154	-43
-37	-222	-38
-134	-229	-38
-223	-183	-42
-267	-101	-34
-258	-12	-30
-194	61	-23
-104	113	-27
-15	140	-14
49	150	-4
87	136	-25
113	98	-23
142	31	-24
181	-47	-21
215	-116	-19
216	-147	-20
167	-129	-14
62	-82	-29
-69	-36	-35
-191	-23	-24
-263	-44	-13
-273	-77	-14
-228	-78	-21
-158	-21	-16
-90	85	-6
-32	199	-1
24	260	-7
94	235	-16
179	131	-27
262	6	-31
308	-84	-21
296	-103	-22
216	-63	-25
97	-14	-50
-24	-6	-61
-116	-55	-42
-172	-139	-43
-202	-202	-40
-226	-204	-28
-250	-135	-26
-259	-38	-20
-229	33	-13
-141	45	-6
-7	7	3
132	-34	7
237	-31	-4
265	40	-11
225	157	-17
142	257	-29
60	282	-32
2	205	-16
-30	54	-19
-56	-114	-24
-94	-233	-23
-143	-263	-23
-187	-208	-23
-191	-105	-31
-143	-3	-23
-44	67	-24
75	97	-21
172	104	-20
223	112	-27
222	137	-33
184	171	-21
128	193	-14
69	174	-20
9	101	-5
-54	-17	2
-125	-151	-7
-187	-261	-16
-229	-315	-21
-229	-301	-34
-183	-232	-30
-108	-136	-37
-19	-40	-36
58	33	-43
114	83	-47
148	113	-30
169	132	-36
184	147	-27
187	145	-21
171	124	-15
123	81	-22
45	18	-25
-55	-46	-19
-154	-99	-21
-227	-126	-14
-255	-127	-13
-237	-105	-22
-178	-65	-36
-92	-18	-48
4	38	-36
97	96	-11
172	150	7
222	191	20
234	207	13
206	189	-11
142	131	-25
57	43	-25
-31	-61	-36
-106	-160	-24
-158	-237	-12
-187	-277	-11
-199	-281	-5
-202	-258	-18
-191	-215	-30
-167	-159	-45
-119	-89	-52
-44	-8	-54
46	78	-52
140	155	-36
212	202	-26
245	206	-15
236	168	-13
182	105	-22
100	41	-20
10	3	-9
-70	-10	-17
-132	-10	-18
-172	-14	-24
-191	-38	-27
-189	-77	-25
-169	-107	-24
-128	-111	-19
-65	-79	-24
13	-16	-18
98	53	-18
172	109	-27
223	140	-26
239	150	-22
216	141	-28
169	123	-23
101	87	-15
27	36	-18
-44	-27	-12
-106	-91	-12
-154	-137	-26
-181	-153	-31
-188	-137	-26
-172	-105	-26
-139	-68	-22
-89	-42	-28
-25	-18	-30
49	9	-34
130	49	-31
206	102	-17
260	147	-21
269	171	-21
225	161	-29
121	118	-28
-21	54	-11
-169	-18	-12
-285	-86	-14
-336	-151	-23
-316	-206	-16
-239	-251	4
-134	-268	-18
-31	-243	-50
48	-170	-31
98	-54	-6
126	71	-11
145	179	-23
163	233	-30
172	223	-25
162	155	-27
120	59	-19
49	-31	-30
-36	-91	-41
-112	-111	-29
-159	-103	-30
-168	-83	-26
-145	-70	-30
-109	-68	-35
-71	-64	-22
-39	-44	-9
-1	4	-15
48	70	-39
113	134	-33
175	170	-17
212	166	-11
206	134	9
153	93	8
64	63	7
-36	48	-2
-123	28	-13
-184	-20	-12
-215	-107	-8
-228	-208	-21
-221	-286	-37
-190	-289	-39
-135	-203	-41
-51	-55	-36
53	102	-35
162	206	-29
245	229	-27
288	186	-27
279	118	-31
226	72	-28
143	59	-19
44	68	-14
-54	61	-8
-147	20	-7
-217	-53	-10
-262	-131	-15
-269	-176	-20
-234	-169	-30
-164	-115	-38
-69	-47	-54
29	10	-56
121	35	-44
190	40	-35
232	40	-24
242	53	-22
219	80	-14
169	100	-13
96	95	-6
16	48	-3
-61	-32	-9
-120	-123	-30
-161	-196	-42
-181	-223	-34
-182	-195	-32
-165	-127	-31
-126	-43	-21
-71	30	-12
-3	77	-20
64	96	-20
123	105	-27
162	113	-19
181	129	-4
182	143	-11
170	139	-19
142	109	-27
90	52	-35
6	-7	-35
-103	-55	-15
-218	-79	-17
-308	-84	-30
-337	-86	-34
-295	-100	-36
-189	-128	-14
-51	-154	-5
74	-157	-19
160	-117	-19
192	-40	-18
184	52	-18
156	132	-23
127	177	-32
107	177	-16
86	139	-17
52	82	-8
-5	19	-1
-81	-40	-8
-156	-93	-10
-207	-138	-25
-221	-170	-34
-187	-181	-37
-123	-162	-25
-41	-116	-10
38	-47	-20
105	31	-38
157	100	-32
188	150	-38
198	169	-45
180	158	-24
132	121	-35
59	69	-39
-24	15	-20
-102	-34	-15
-164	-68	-2
-195	-83	-2
-203	-77	-8
-185	-55	-13
-148	-33	-21
-89	-20	-24
-14	-18	-31
75	-23	-31
161	-22	-17
225	-1	-11
253	47	-2
234	106	-5
176	154	-19
97	162	-22
12	119	-31
-65	32	-30
-128	-68	-38
-176	-150	-44
-209	-188	-27
-221	-178	-32
-204	-133	-35
-156	-77	-34
-80	-21	-34
12	24	-32
98	64	-27
163	101	-15
195	129	-16
194	138	-20
172	121	-24
132	72	-24
86	6	-8
29	-60	-15
-34	-108	-32
-99	-130	-21
-155	-135	-25
-188	-129	-18
-191	-119	-16
-158	-98	-23
-97	-58	-13
-20	1	-19
59	78	-28
128	153	-34
179	204	-36
210	213	-39
222	174	-43
212	106	-21
181	21	12
119	-54	32
26	-109	26
-93	-137	-2
-221	-148	-17
-333	-153	-16
-399	-161	-42
-394	-173	-55
-321	-178	-50
-191	-158	-50
-38	-99	-49
101	0	-40
191	114	-32
222	215	-27
204	272	3
156	264	9
102	200	-16
53	109	-14
18	27	-21
-15	-25	-32
-47	-43	-22
-81	-48	-15
-108	-62	-20
-119	-100	-26
-108	-149	-26
-76	-182	-20
-34	-174	-17
17	-113	-30
71	-14	-30
132	93	-29
193	171	-40
242	199	-27
262	174	-16
230	118	-22
145	55	-21
21	-3	-23
-110	-50	-23
-214	-91	-16
-267	-130	-8
-268	-154	3
-231	-155	-2
-176	-121	-18
-112	-60	-18
-43	9	-28
36	58	-34
123	74	-30
204	61	-43
257	41	-37
260	41	-30
212	67	-24
128	108	-30
34	127	-36
-47	97	-36
-110	17	-28
-152	-91	-24
-184	-180	-14
-205	-218	0
-204	-192	-16
-172	-126	-24
-106	-51	-23
-18	10	-8
68	45	-11
131	71	-26
163	101	-32
166	136	-33
156	165	-30
139	158	-32
115	108	-26
75	18	-24
10	-78	-5
-78	-149	-3
-172	-174	-20
-247	-154	-24
-287	-113	-27
-279	-74	-19
-231	-51	-11
-143	-35	-23
-31	-9	-26
93	41	-23
210	114	-18
292	186	-13
323	229	-20
284	211	-23
186	138	-44
58	29	-55
-61	-78	-36
-148	-147	-20
-186	-166	-8
-188	-144	0
-174	-111	1
-158	-90	-10
-141	-96	-23
-115	-116	-28
-64	-121	-30
10	-92	-32
98	-17	-33
182	80	-30
242	165	-27
262	210	-22
242	201	-20
184	153	-22
100	88	-18
0	38	-15
-99	8	-16
-178	-10	-31
-223	-35	-51
-225	-81	-43
-186	-139	-31
-124	-187	-8
-53	-196	-8
13	-154	-19
68	-69	-10
117	27	-27
155	103	-38
176	137	-20
172	130	-11
133	101	-16
67	64	-20
-12	33	-18
-81	4	-21
-129	-31	-15
-156	-75	-13
-168	-117	-28
-180	-144	-28
-188	-144	-33
-176	-114	-37
-126	-61	-32
-36	-3	-34
79	51	-24
184	97	-12
248	134	-22
250	157	-17
196	158	-6
117	125	-26
36	53	-24
-25	-41	-5
-72	-129	-11
-115	-175	-3
-161	-163	-15
-203	-101	-24
-223	-21	-39
-198	37	-67
-121	57	-55
-5	40	-49
124	21	-43
231	31	-22
285	84	-7
269	160	13
198	223	24
90	233	-9
-20	168	-19
-103	41	-9
-148	-112	-18
-155	-249	-24
-143	-334	-36
-134	-355	-32
-140	-319	-32
-156	-240	-36
-159	-140	-40
-123	-38	-45
-37	52	-39
81	123	-48
201	171	-38
280	195	-16
299	200	-6
251	189	0
169	164	-1
81	121	-7
9	56	-9
-44	-27	-3
-95	-112	-22
-151	-179	-21
-208	-202	-16
-245	-173	-26
-243	-101	-31
-188	-15	-35
-91	53	-36
20	89	-40
114	90	-26
172	78	-11
193	79	-9
184	97	-19
164	126	-17
131	138	-14
86	112	-20
20	37	-20
-60	-64	-25
-142	-161	-30
-205	-218	-40
-229	-217	-45
-210	-168	-32
-155	-93	-16
-77	-17	-13
7	41	-20
86	84	-21
152	117	-10
197	149	-9
213	171	-18
194	173	-13
139	136	-7
67	62	-16
-10	-33	-16
-68	-124	-13
-110	-183	-25
-134	-206	-34
-156	-198	-33
-182	-178	-37
-204	-157	-40
-204	-127	-32
-163	-84	-40
-80	-15	-39
35	63	-24
150	130	-23
234	158	-18
269	137	-12
253	90	-17
203	48	-17
132	42	-3
54	67	11
-28	92	-1
-108	70	-28
-182	-16	-30
-232	-143	-26
-247	-254	-30
-226	-281	-33
-172	-199	-35
-99	-40	-28
-20	123	-31
57	215	-30
132	214	-29
198	142	-32
242	63	-32
248	32	-23
202	60	-9
115	108	-9
8	118	-15
-82	61	-14
-126	-45	-12
-128	-142	-17
-104	-179	-16
-85	-137	-18
-93	-54	-25
-121	3	-22
-138	-5	-26
-114	-71	-40
-35	-144	-44
79	-154	-23
191	-71	-26
254	76	-37
245	211	-36
172	268	-32
65	211	-25
-41	68	-29
-125	-96	-33
-177	-213	-26
-205	-252	0
-207	-222	-2
-188	-151	-1
-140	-72	5
-68	0	-14
15	64	-16
92	118	-28
142	156	-26
162	161	-13
154	130	-26
132	74	-31
109	23	-35
83	-4	-36
45	-4	-33
-10	4	-30
-80	-12	-17
-150	-63	-9
-195	-140	-7
-205	-199	-12
-167	-204	-23
-96	-144	-18
-12	-40	-23
64	63	-23
119	131	-21
148	153	-30
157	142	-26
154	130	-30
138	131	-27
114	139	-30
78	131	-32
28	95	-34
-27	22	-31
-86	-59	-23
-137	-127	-24
-182	-166	-22
-210	-173	-21
-223	-163	-20
-209	-144	-20
-167	-118	-25
-89	-72	-22
23	-4	-22
151	76	-25
269	147	-23
344	182	-19
352	174	-18
284	132	-30
162	77	-25
18	24	-19
-106	-18	-16
-182	-55	-7
-205	-97	-9
-189	-139	-2
-161	-173	-2
-132	-182	-25
-112	-162	-40
-85	-117	-30
-37	-56	-20
33	9	-33
114	81	-49
178	160	-49
200	236	-31
171	284	-14
99	274	-17
6	187	-25
-80	29	-18
-143	-155	-10
-182	-301	-3
-201	-359	-3
-203	-309	-15
-185	-177	-5
-139	-25	-20
-63	82	-36
32	111	-26
124	70	-25
190	1	-28
208	-44	-40
184	-31	-33
138	41	-27
97	139	-29
71	210	-14
59	207	-22
34	116	-12
-23	-33	8
-117	-198	-15
-225	-312	-13
-302	-343	-21
-311	-281	-26
-235	-155	-18
-93	-13	-23
69	110	-22
196	193	-39
254	233	-43
241	240	-38
178	227	-22
105	191	-35
48	130	-43
20	47	-27
10	-40	-28
0	-104	-30
-28	-125	-32
-75	-100	-23
-129	-47	-17
-169	2	-22
-177	24	-17
-144	15	-12
-79	-5	-11
5	-11	-2
86	13	-13
150	59	-21
187	98	-18
201	104	-15
193	63	-9
165	-10	-17
115	-92	-4
41	-149	-13
-54	-169	-30
-152	-161	-25
-232	-136	-26
-268	-115	-23
-249	-97	-24
-181	-76	-25
-85	-41	-43
13	12	-46
94	77	-34
148	140	-20
179	191	-16
195	218	-31
196	215	-30
178	188	-26
130	131	-30
49	49	-35
-53	-46	-25
-161	-142	-15
-247	-214	-17
-291	-246	-19
-289	-230	-12
-240	-178	-3
-158	-112	-4
-58	-51	-6
42	-9	-22
130	19	-28
195	45	-29
231	75	-25
234	106	-19
202	122	-18
150	113	-22
80	72	-21
2	12	-24
-75	-42	-28
-145	-78	-17
-206	-84	-16
-248	-76	-23
-262	-66	-20
-240	-70	-21
-177	-80	-32
-79	-75	-37
41	-37	-43
166	38	-37
269	134	-35
329	214	-30
328	250	-21
269	225	-19
169	153	-17
54	55	-10
-43	-39	-16
-110	-120	-25
-143	-183	-13
-159	-233	-15
-172	-260	-17
-183	-254	-32
-182	-206	-30
-151	-111	-36
-72	9	-32
42	122	-20
165	194	-40
252	210	-28
269	177	-17
216	120	-18
120	70	-18
14	41	-18
-67	32	0
-114	27	9
-136	6	-1
-156	-34	-16
-176	-88	-12
-195	-135	-12
-190	-161	-31
-149	-152	-36
-66	-110	-38
34	-46	-35
125	27	-21
181	99	-25
192	152	-32
167	174	-24
121	161	-22
72	106	-21
24	20	-25
-24	-75	-31
-76	-155	-32
-126	-198	-32
-168	-201	-35
-187	-170	-39
-176	-123	-28
-136	-80	-14
-75	-40	-21
-4	1	-33
60	55	-22
111	125	-16
148	202	-11
167	260	-18
170	270	-20
159	225	-20
130	122	-22
86	-4	-26
24	-124	-27
-48	-204	-19
-125	-229	-30
-186	-204	-22
-217	-150	-8
-206	-92	-18
-152	-45	-19
-68	-21	-15
26	-6	-19
106	14	-20
159	48	-19
180	101	-22
178	154	-23
159	186	-26
128	179	-26
84	127	-18
22	43	-9
-52	-51	-15
-133	-127	-30
-199	-171	-34
-236	-177	-32
-231	-152	-30
-182	-105	-32
-107	-46	-32
-12	17	-27
83	80	-31
165	129	-21
216	151	-23
230	137	-30
198	89	-12
128	24	-9
38	-38	-14
-48	-81	-6
-109	-97	-24
-140	-96	-26
-142	-94	-18
-136	-102	-27
-127	-116	-9
-119	-127	-13
-102	-119	-14
-62	-81	-15
1	-15	-22
77	70	-19
145	158	-33
189	228	-39
197	259	-34
178	241	-23
140	169	-14
99	55	-12
50	-76	-13
-7	-190	-24
-80	-253	-27
-161	-254	-22
-229	-203	-16
-260	-124	-21
-239	-46	-34
-159	15	-51
-44	56	-63
78	88	-48
174	118	-26
229	152	-16
236	179	-16
208	190	-9
158	174	-10
94	129	-5
17	51	1
-68	-53	-16
-165	-171	-16
-255	-280	-16
-319	-345	-24
-338	-345	-30
-303	-273	-32
-221	-149	-33
-112	-14	-36
-8	89	-34
72	138	-34
127	145	-38
167	141	-34
204	152	-22
248	183	-18
283	209	-7
287	195	-9
238	122	-21
127	4	-8
-18	-115	-13
-161	-190	-19
-258	-194	-20
-281	-144	-25
-241	-81	-21
-160	-40	-21
-72	-39	-21
2	-56	-32
59	-57	-32
113	-13	-16
166	74	-19
212	169	-12
234	228	-2
211	215	-19
137	138	-16
31	23	-23
-75	-86	-35
-149	-158	-28
-175	-178	-18
-161	-153	-9
-130	-101	-24
-105	-40	-48
-95	11	-40
-90	43	-9
-71	51	-10
-28	40	-16
37	17	-23
109	-1	-28
161	4	-17
171	37	-21
139	89	-25
71	127	-19
-12	123	-20
-92	64	-26
-150	-43	-30
-176	-158	-21
-173	-237	-20
-145	-246	-41
-106	-187	-46
-63	-87	-32
-24	11	-32
16	70	-31
62	88	-23
120	77	-18
181	67	-19
229	74	-17
245	97	-15
207	116	-12
120	103	-11
2	50	-20
-115	-33	-22
-202	-118	-30
-241	-175	-35
-237	-186	-36
-203	-153	-37
-159	-92	-27
-115	-20	0
-68	45	10
-16	103	4
50	145	-7
124	171	-19
197	180	-25
252	154	-28
273	101	-31
252	26	-36
183	-50	-26
76	-111	-25
-53	-149	-32
-173	-162	-30
-256	-157	-34
-277	-138	-36
-228	-111	-30
-122	-69	-28
8	-16	-46
122	46	-53
195	106	-28
210	144	3
172	150	7
105	120	6
34	68	4
-24	9	-6
-60	-42	-4
-80	-79	-6
-95	-103	-12
-114	-120	-14
-138	-134	-17
-159	-139	-30
-165	-127	-28
-141	-95	-20
-87	-38	-49
-10	35	-54
66	118	-37
120	194	-33
142	251	-21
132	274	-20
105	251	-22
74	182	-24
51	74	-28
32	-49	-33
7	-159	-21
-32	-228	-11
-89	-243	-13
-141	-217	-14
-174	-173	-35
-168	-134	-51
-120	-109	-54
-44	-88	-48
38	-51	-33
107	15	-32
159	106	-18
184	203	-1
201	268	2
201	279	2
184	228	-19
143	128	-19
71	8	-5
-29	-108	-22
-138	-198	-19
-234	-253	-16
-291	-261	-24
-300	-226	-30
-256	-154	-27
-173	-60	-24
-67	28	-44
38	96	-36
125	134	-15
182	149	-20
203	155	-13
190	160	-18
151	158	-19
97	136	-15
41	79	-14
-12	-12	-23
-60	-114	-31
-107	-192	-15
-149	-224	-19
-180	-200	-15
-191	-142	-20
-173	-82	-20
-119	-37	-21
-33	-12	-24
65	13	-27
154	54	-39
211	116	-21
225	177	-18
201	211	-16
150	194	-13
90	128	-22
30	33	-22
-22	-57	-20
-72	-119	-25
-122	-148	-28
-169	-152	-23
-203	-147	-24
-215	-140	-25
-193	-125	-43
-131	-94	-39
-42	-38	-19
62	34	-24
158	106	-22
228	161	-20
253	183	-27
239	175	-27
190	149	-14
120	109	-30
46	62	-48
-27	10	-28
-96	-51	-5
-164	-117	-8
-224	-175	-13
-262	-210	-11
-267	-210	-27
-222	-177	-19
-128	-118	-21
-5	-46	-18
112	21	-17
194	81	-24
222	128	-6
201	162	-10
156	174	-15
111	160	-19
82	117	-25
63	49	-17
42	-28	-30
4	-101	-37
-56	-151	-13
-132	-174	-13
-191	-168	-19
-221	-139	-28
-200	-96	-36
-138	-37	-28
-51	24	-24
38	84	-12
109	129	-14
156	150	-18
176	147	-30
181	118	-30
169	78	-17
136	34	-26
81	-7	-35
-3	-47	-34
-103	-89	-31
-200	-129	-28
-267	-161	-25
-281	-166	-29
-236	-133	-28
-141	-60	-26
-28	32	-30
78	120	-21
155	174	-9
203	183	-7
226	153	-8
232	104	-11
215	57	-12
169	21	-5
78	-14	-25
-47	-64	-36
-182	-137	-23
-288	-223	-32
-329	-286	-47
-292	-292	-45
-198	-222	-32
-85	-89	-19
9	59	-21
63	170	-36
86	209	-42
106	178	-27
141	113	13
198	59	18
249	47	-15
262	79	-26
216	120	-34
104	133	-34
-43	93	-15
-177	5	-19
-260	-102	-32
-276	-187	-37
-234	-218	-27
-166	-190	-37
-98	-117	-44
-47	-35	-19
-10	27	-7
31	59	-23
85	67	-34
151	72	-24
208	93	-19
234	129	-17
210	161	-22
131	154	-26
13	84	-24
-112	-41	-19
-216	-183	-17
-274	-282	-18
-279	-294	-17
-236	-213	-20
-162	-78	-16
-72	51	-24
16	119	-22
97	116	-22
161	74	-19
207	46	-10
236	62	-17
240	118	-22
215	171	-27
162	174	-27
80	107	-24
-20	-12	-13
-123	-131	-16
-206	-204	-27
-255	-210	-28
-257	-165	-25
-216	-106	-16
-147	-61	-18
-64	-36	-22
12	-11	-17
77	31	-21
127	93	-27
169	155	-22
196	187	-26
208	169	-31
196	108	-26
151	29	-28
80	-35	-30
-10	-70	-35
-92	-79	-28
-153	-80	-36
-178	-86	-45
-169	-100	-27
-136	-108	-28
-97	-94	-19
-59	-52	-12
-26	10	-15
3	66	-11
35	104	-14
68	119	-18
98	121	-1
111	118	21
104	106	9
71	77	-9
17	12	-17
-46	-86	-2
-113	-195	0
-172	-276	-24
-212	-296	-38
-223	-244	-43
-195	-140	-36
-129	-29	-43
-30	51	-49
77	91	-44
170	103	-42
230	114	-38
251	142	-36
238	183	-25
209	208	-20
172	191	-31
128	122	-30
66	23	-12
-20	-72	-4
-121	-137	-8
-216	-158	-3
-273	-149	-4
-272	-131	-19
-212	-117	-23
-118	-107	-30
-21	-81	-40
54	-32	-33
100	38	-17
127	112	-18
149	162	-27
170	171	-19
178	143	-5
160	92	-14
99	35	-23
5	-10	-8
-101	-45	-4
-190	-79	-18
-237	-112	-25
-237	-145	-20
-197	-165	-34
-135	-161	-41
-60	-125	-47
16	-59	-47
93	23	-30
165	106	-31
221	171	-42
245	208	-41
229	202	-24
172	158	-27
84	84	-38
-14	2	-26
-104	-67	-21
-170	-107	-16
-211	-110	-8
-229	-86	-10
-222	-54	-4
-195	-38	7
-144	-47	7
-72	-74	8
16	-98	-17
106	-96	-48
179	-52	-48
221	31	-41
221	129	-32
183	208	-28
123	233	-32
61	183	-26
7	78	-5
-35	-56	-8
-77	-173	-21
-124	-233	-8
-172	-223	-8
-209	-157	-22
-211	-71	-37
-164	-5	-47
-70	20	-23
41	11	-16
135	-5	-21
181	-4	-10
170	30	-27
123	84	-34
69	126	-23
34	128	-18
17	82	-12
0	3	-17
-40	-78	-30
-111	-126	-30
-190	-137	-26
-243	-120	-22
-233	-99	-14
-156	-87	-8
-33	-79	-2
89	-52	-12
175	10	-18
210	101	-25
210	195	-21
198	252	-17
191	243	-21
186	170	-24
159	63	-37
93	-32	-30
-16	-89	-30
-143	-106	-25
-251	-108	-32
-304	-115	-41
-290	-136	-31
-222	-154	-36
-123	-137	-30
-23	-66	-27
68	45	-30
148	166	-16
216	248	-9
269	261	-30
288	210	-19
261	117	-8
178	19	-12
52	-55	-8
-85	-105	-14
-200	-140	-19
-266	-171	-24
-273	-192	-19
-237	-196	-32
-176	-173	-30
-113	-116	-4
-61	-45	-11
-19	16	-30
20	55	-19
62	70	-22
104	76	-25
139	85	-20
156	102	-24
143	115	-14
107	110	-12
51	77	-23
-8	18	-33
-65	-46	-33
-111	-101	-30
-148	-131	-36
-170	-143	-39
-176	-144	-37
-153	-133	-32
-98	-109	-28
-10	-53	-32
94	36	-24
188	150	-13
245	256	-6
253	313	-13
214	294	-25
145	194	-21
69	49	-12
4	-95	-8
-52	-190	-23
-102	-216	-24
-154	-185	-13
-203	-125	-21
-236	-75	-33
-232	-53	-35
-180	-55	-37
-87	-60	-40
28	-42	-23
131	0	-24
200	53	-27
216	93	-21
195	98	-22
143	68	-14
84	23	-11
26	-19	-21
-21	-41	-18
-60	-44	-22
-96	-44	-23
-125	-53	-13
-147	-74	-26
-153	-95	-35
-139	-97	-32
-104	-70	-21
-52	-13	-15
12	52	-15
75	115	-12
126	156	-21
159	174	-10
163	174	-16
141	161	-21
98	136	-9
39	95	-19
-28	32	-20
-95	-54	-28
-152	-154	-28
-191	-248	-30
-209	-309	-31
-197	-314	-30
-155	-258	-35
-84	-149	-30
8	-13	-31
104	110	-34
187	198	-26
242	233	-14
256	218	-7
232	177	-15
172	127	-27
99	84	-18
16	41	-23
-60	-6	-24
-128	-63	-24
-181	-120	-24
-217	-163	-19
-228	-173	-18
-205	-143	-10
-151	-92	-19
-70	-30	-24
19	24	-28
102	67	-36
164	104	-39
197	140	-30
202	174	-20
181	191	-31
142	174	-30
88	116	-20
24	29	-13
-46	-63	-18
-112	-138	-25
-166	-181	-11
-197	-192	-2
-204	-185	-12
-185	-174	-13
-141	-151	-10
-76	-109	-24
6	-38	-45
92	56	-38
169	150	-22
216	211	-22
221	215	-16
180	158	-16
105	59	-25
19	-37	-30
-61	-103	-37
-118	-125	-23
-153	-113	-12
-167	-93	-7
-165	-82	-8
-144	-87	-15
-104	-92	-20
-44	-81	-36
23	-42	-38
76	19	-38
106	81	-23
107	125	-28
97	140	-46
97	132	-40
117	113	-28
149	88	-22
161	57	-38
123	9	-33
23	-58	-1
-114	-139	9
-245	-208	-18
-316	-232	-21
-306	-194	-11
-221	-99	-18
-94	16	-20
22	113	-15
104	157	-18
144	143	-19
159	98	-18
163	49	-20
162	30	-21
139	33	-28
92	46	-28
14	43	-19
-75	15	-26
-148	-29	-41
-182	-68	-42
-170	-83	-25
-130	-70	-8
-87	-49	-8
-58	-36	-10
-41	-33	-16
-20	-29	-17
24	-1	-15
99	61	-21
182	137	-21
242	190	-35
245	179	-31
184	89	-19
74	-50	-30
-51	-182	-24
-152	-249	-12
-208	-229	-24
-217	-148	-26
-199	-57	-21
-170	-12	-34
-137	-21	-29
-94	-55	-32
-30	-66	-37
54	-23	-33
151	72	-28
228	181	-26
257	249	-24
229	248	-13
158	183	-21
69	90	-9
-4	7	-23
-50	-47	-44
-70	-79	-31
-86	-106	-28
-112	-140	-21
-154	-175	-15
-191	-185	-15
-193	-152	-24
-141	-76	-30
-30	24	-7
107	112	1
234	166	-15
300	178	-17
292	160	-4
225	124	4
123	74	-7
26	6	-28
-50	-85	-34
-107	-183	-36
-159	-261	-32
-217	-282	-30
-274	-233	-33
-310	-127	-26
-296	-8	-15
-217	74	-18
-89	100	-25
55	80	-25
177	54	-23
245	62	-28
257	106	-28
229	165	-19
183	188	-33
139	147	-28
97	42	-19
46	-79	-29
-22	-168	-19
-106	-192	-23
-187	-149	-14
-244	-71	-16
-253	1	-32
-215	45	-20
-136	71	-21
-41	97	-28
50	132	-19
124	178	-23
172	202	-25
197	183	-15
200	110	-14
184	6	-9
150	-100	-16
97	-176	-22
28	-210	-31
-50	-212	-50
-130	-195	-45
-193	-172	-22
-233	-145	-20
-237	-104	-16
-205	-49	-7
-141	13	-4
-58	64	1
29	98	-9
110	106	-9
169	100	-3
196	95	-12
182	88	-13
131	74	-8
50	41	-16
-39	-13	-35
-113	-78	-40
-156	-133	-47
-161	-157	-46
-142	-143	-43
-115	-104	-36
-94	-55	-34
-78	-16	-34
-51	15	-29
2	43	-28
89	83	-24
192	127	-27
277	168	-30
308	183	-22
268	164	-14
169	112	-13
44	40	-21
-65	-29	-25
-135	-86	-20
-162	-122	-18
-165	-140	-30
-160	-137	-19
-157	-111	-12
-140	-62	-19
-93	3	-32
-4	70	-43
113	119	-40
228	130	-44
302	104	-30
312	55	-30
255	5	-42
145	-22	-9
16	-23	-5
-108	-9	-4
-208	-7	12
-274	-33	-1
-307	-89	-11
-307	-157	-20
-277	-204	-19
-226	-210	-23
-157	-164	-30
-78	-84	-31
7	4	-31
97	74	-25
183	113	-26
253	128	-25
288	131	-26
274	133	-17
203	131	-4
89	114	4
-38	76	12
-150	16	5
-214	-45	-17
-227	-93	-36
-201	-117	-32
-156	-124	-30
-113	-129	-39
-71	-138	-44
-23	-144	-47
46	-122	-38
148	-52	-25
266	65	-34
373	202	-49
419	301	-51
373	325	-33
219	251	-28
-14	105	-28
-269	-61	16
-459	-196	11
-535	-273	-5
-459	-288	-7
-273	-259	-25
-57	-207	-11
101	-137	-2
150	-52	-10
94	45	-22
-5	140	-24
-67	207	-31
-39	230	-33
76	208	-31
216	165	-37
302	120	-36
284	91	-41
159	70	-35
-14	38	-23
-166	-16	-19
-242	-90	-21
-237	-154	-13
-178	-182	8
-110	-160	3
-60	-102	-11
-24	-41	-26
13	-2	-27
71	8	-22
139	6	-23
202	18	-20
229	56	-24
209	106	-31
158	132	-28
91	114	-19
30	43	-24
-24	-51	-32
-77	-132	-35
-135	-169	-32
-194	-153	-25
-234	-107	-24
-232	-56	-30
-177	-25	-33
-81	-8	-25
32	8	-23
128	37	-19
187	81	-19
202	120	-23
186	139	-21
151	123	-20
104	82	-14
50	28	-24
-8	-20	-41
-68	-55	-36
-122	-81	-28
-159	-103	-25
-175	-121	-15
-168	-127	-21
-142	-111	-24
-99	-71	-13
-40	-13	-21
28	44	-26
101	86	-23
163	105	-21
199	106	-21
201	101	-23
171	92	-20
119	79	-12
59	51	-8
-3	7	-15
-68	-49	-30
-138	-99	-35
-208	-124	-23
-258	-120	-30
-269	-98	-19
-224	-77	-20
-124	-68	-9
3	-72	7
124	-71	-15
209	-43	-22
244	17	-15
227	95	-11
172	154	-18
95	168	-16
6	123	-27
-89	44	-25
-172	-32	-24
-230	-78	-35
-248	-80	-19
-222	-60	-21
-162	-49	-27
-93	-70	-35
-32	-116	-31
15	-156	-35
58	-153	-44
113	-86	-30
184	29	-32
257	154	-44
302	238	-35
288	255	-12
208	207	-14
75	123	-18
-76	46	5
-205	-3	5
-285	-28	-9
-310	-51	-5
-285	-97	-5
-230	-165	-25
-156	-235	-35
-63	-264	-33
37	-230	-36
142	-120	-32
236	31	-30
299	174	-26
312	261	-15
274	268	-23
195	210	-26
87	115	-11
-24	29	-13
-124	-33	-9
-195	-70	-18
-237	-96	-25
-244	-122	-25
-223	-145	-42
-178	-158	-33
-117	-136	-41
-49	-77	-35
20	7	-26
86	95	-42
139	154	-35
181	177	-16
206	160	-8
210	120	-16
188	74	-11
139	34	-1
63	3	-2
-29	-34	-23
-125	-77	-19
-201	-129	-11
-247	-179	-8
-247	-210	-17
-206	-210	-32
-135	-166	-32
-50	-91	-30
31	2	-34
100	86	-51
148	143	-35
172	165	-25
180	153	-27
166	122	-28
130	85	-30
72	50	-22
1	17	-22
-72	-23	-16
-134	-66	-19
-176	-111	-21
-188	-141	-17
-176	-143	-13
-141	-110	-15
-96	-47	-23
-39	24	-23
27	90	-22
102	134	-26
178	159	-32
245	166	-26
285	164	-28
277	150	-41
215	118	-23
100	58	0
-46	-29	-3
-191	-131	-7
-300	-226	-9
-345	-280	-26
-324	-280	-26
-246	-225	-23
-143	-129	-39
-46	-27	-24
27	57	-17
71	106	-26
104	123	-23
138	124	-33
182	123	-32
223	129	-32
242	132	-21
216	120	-15
139	75	-39
22	0	-29
-108	-86	-9
-215	-155	3
-280	-178	3
-288	-152	-10
-250	-87	-12
-176	-17	-18
-83	27	-25
20	34	-32
117	15	-20
196	-4	-22
245	3	-33
258	44	-25
234	103	-29
176	144	-26
103	141	-16
14	82	-7
-80	-16	-13
-174	-121	-15
-253	-196	-32
-304	-229	-21
-305	-216	-16
-247	-173	-34
-139	-117	-26
-10	-54	-30
110	11	-36
191	80	-43
226	145	-35
215	197	-29
180	221	-30
129	205	-32
74	157	-26
12	81	-22
-49	0	-17
-102	-75	-14
-135	-130	-4
-142	-162	4
-130	-167	-13
-106	-149	-13
-85	-115	-20
-62	-72	-30
-32	-32	-31
19	2	-30
94	35	-29
178	70	-28
244	108	-26
257	142	-34
210	160	-28
110	141	-28
-4	84	-40
-105	-4	-42
-165	-96	-36
-190	-162	-40
-189	-183	-19
-177	-159	0
-156	-105	-10
-115	-45	-5
-47	8	-11
42	51	-20
136	93	-24
208	132	-25
234	169	-22
207	183	-31
144	166	-22
66	110	-16
-5	30	-16
-65	-50	-16
-116	-111	-23
-165	-139	-13
-204	-136	-11
-224	-116	-19
-208	-91	-15
-151	-67	-30
-62	-44	-17
34	-18	-10
111	9	-19
156	35	-7
163	48	-15
142	50	-21
115	43	-28
90	33	-33
68	27	-34
40	19	-36
-1	4	-43
-57	-29	-49
-116	-79	-30
-161	-134	-16
-175	-174	-35
-159	-180	-44
-116	-145	-21
-64	-67	-8
-19	31	-8
19	131	-15
52	210	-16
91	252	-24
136	252	-25
183	211	-19
211	145	-26
196	61	-35
132	-22	-16
24	-100	-4
-100	-166	-27
-203	-219	-15
-255	-258	-14
-243	-263	-10
-180	-231	-13
-94	-153	-30
-18	-44	-34
34	64	-36
60	143	-28
82	166	-32
111	143	-28
161	98	-22
214	64	-8
249	58	-13
234	75	-37
150	81	-34
4	49	-15
-167	-25	-11
-316	-121	-6
-397	-195	-3
-386	-209	-8
-291	-158	-13
-150	-63	-17
-4	29	-27
103	93	-34
163	117	-33
183	121	-34
186	123	-35
188	134	-23
187	143	-36
165	125	-28
111	75	-4
22	-7	-20
-81	-93	-28
-163	-151	-46
-199	-171	-51
-180	-157	-39
-126	-122	-30
-65	-89	-24
-21	-58	-28
9	-24	-22
37	23	-25
81	83	-25
141	141	-22
201	179	-26
228	179	-21
197	142	-13
115	87	-5
3	25	-9
-101	-31	-17
-172	-80	3
-202	-126	-1
-211	-170	-13
-214	-201	-12
-214	-205	-29
-195	-170	-32
-134	-100	-30
-26	-9	-32
117	77	-32
253	142	-40
341	175	-38
355	182	-4
300	165	-17
204	127	-50
95	75	-24
-10	5	-11
-107	-67	-19
-202	-133	-20
-296	-171	-17
-366	-174	-12
-389	-147	-11
-347	-99	-14
-237	-47	-13
-87	3	-18
69	45	-20
206	84	-31
302	112	-24
359	120	-13
370	101	-38
328	49	-35
231	-19	-27
94	-85	-21
-57	-124	-18
-180	-125	-26
-242	-96	-11
-237	-57	-18
-193	-33	-28
-154	-28	-16
-144	-33	-24
-160	-29	-42
-166	2	-28
-120	58	-11
-8	127	-22
141	180	-23
273	192	-8
326	160	-6
274	90	-16
141	12	-25
-13	-55	-20
-133	-96	-31
-190	-113	-36
-191	-115	-32
-169	-118	-28
-148	-127	-25
-130	-134	-23
-104	-124	-24
-45	-82	-37
44	-5	-26
145	95	-10
222	188	-19
249	240	-29
224	233	-20
163	165	-25
94	63	-32
32	-37	-20
-17	-109	-13
-67	-139	-16
-123	-141	-29
-180	-130	-20
-217	-125	-23
-222	-124	-29
-180	-117	-26
-101	-85	-27
-7	-23	-22
85	53	-26
163	128	-23
219	171	-30
253	182	-32
262	164	-27
239	135	-17
178	110	-8
81	89	-30
-36	58	-34
-148	3	-14
-235	-80	-6
-282	-176	1
-291	-253	2
-262	-279	-9
-208	-240	-30
-132	-143	-41
-41	-24	-38
53	81	-32
139	138	-23
201	140	-24
225	104	-23
207	49	-15
162	7	-21
97	-13	-23
27	-13	-17
-38	-9	-4
-98	-16	-13
-149	-40	-36
-183	-78	-35
-195	-111	-27
-182	-129	-25
-138	-118	-27
-76	-77	-20
-5	-14	-7
63	62	-25
126	135	-32
180	195	-17
222	229	-22
242	225	-24
223	181	-21
158	101	-10
47	3	-4
-83	-87	-7
-199	-148	-15
-271	-166	-27
-280	-143	-32
-237	-100	-32
-165	-56	-35
-85	-33	-30
-12	-35	-38
60	-48	-55
141	-54	-40
234	-34	-30
318	16	-33
358	82	-16
322	132	-8
201	143	-4
20	103	1
-167	21	-17
-306	-69	-20
-360	-137	-14
-333	-160	-15
-256	-135	-9
-166	-89	-30
-85	-43	-36
-14	-15	-32
62	3	-28
151	23	-22
241	57	-26
300	105	-30
297	143	-32
216	150	-12
82	116	-15
-65	51	-15
-177	-16	-24
-232	-64	-27
-231	-86	-16
-208	-89	-27
-189	-94	-22
-186	-111	-25
-181	-131	-44
-147	-131	-46
-67	-93	-7
48	-11	-7
167	91	-12
250	174	3
269	211	-5
229	193	-11
153	132	-26
75	56	-32
18	-9	-32
-18	-59	-33
-45	-97	-23
-75	-127	-27
-104	-149	-38
-128	-151	-43
-126	-124	-30
-97	-68	-13
-44	-1	-21
16	62	-24
68	101	-23
107	110	-21
132	98	-19
154	76	-13
163	58	-16
159	45	-27
128	35	-23
66	22	-21
-17	4	-18
-105	-17	-13
-177	-39	-24
-218	-60	-40
-223	-85	-51
-197	-108	-49
-151	-121	-16
-93	-112	-1
-27	-68	-7
38	-1	-19
96	71	-27
132	119	-20
137	117	-25
103	68	-25
35	-3	-12
-44	-60	-4
-112	-80	-12
-144	-60	-25
-136	-29	-37
-100	-21	-35
-54	-49	-30
-22	-103	-52
-11	-142	-23
-12	-133	3
0	-59	-17
39	51	-18
110	155	-18
194	211	-21
257	201	-24
269	143	-12
222	75	3
129	25	-3
25	3	-21
-54	-6	-27
-96	-21	-25
-104	-52	-31
-99	-87	-34
-105	-109	-30
-123	-101	-22
-147	-71	-13
-149	-37	-25
-115	-17	-61
-46	-16	-63
35	-14	-52
99	5	-41
126	53	-33
111	119	-20
72	168	7
31	168	-3
5	105	-11
-12	-2	-5
-33	-118	-17
-75	-203	-15
-136	-236	-3
-198	-215	-15
-232	-154	-28
-212	-79	-20
-136	0	-21
-23	68	-35
96	123	-18
192	158	-13
251	170	-32
269	162	-30
258	142	-29
222	126	-23
164	108	-25
79	83	-24
-26	32	-8
-136	-53	-3
-228	-162	-9
-279	-263	-16
-274	-316	-17
-222	-298	-28
-137	-214	-37
-43	-95	-45
39	14	-46
105	88	-32
147	121	-34
166	136	-31
164	152	-25
141	170	-28
106	174	-24
58	141	-23
8	63	-6
-45	-43	8
-97	-141	1
-147	-195	-19
-180	-191	-32
-185	-137	-27
-150	-68	-23
-70	-8	-30
35	32	-33
142	64	-15
221	102	-25
253	145	-36
234	183	-29
179	189	-16
107	143	-13
32	48	-18
-43	-68	-7
-118	-175	-10
-188	-238	-9
-245	-248	-16
-269	-212	-24
-255	-152	-23
-204	-88	-28
-129	-31	-34
-50	17	-42
22	58	-43
85	95	-33
141	125	-23
192	145	-26
233	151	-32
251	142	-30
238	123	-28
194	94	-25
130	57	-28
59	12	-21
-13	-40	-13
-87	-98	-13
-164	-143	-12
-239	-167	-7
-292	-156	-2
-300	-108	-16
-241	-37	-17
-125	38	-18
16	92	-29
133	110	-18
195	93	-23
188	51	-12
131	12	-24
61	-12	-25
6	-9	-20
-31	11	-31
-63	27	-38
-101	20	-53
-147	-24	-43
-176	-95	-35
-169	-168	-15
-111	-204	-5
-15	-179	-2
85	-94	-3
156	28	-22
180	140	-10
171	206	-10
145	203	-20
124	147	-19
105	64	-32
78	-4	-32
28	-37	-27
-42	-41	-24
-115	-32	-25
-166	-37	-25
-175	-63	-17
-153	-106	-24
-115	-143	-35
-85	-159	-30
-64	-140	-28
-40	-94	-24
9	-29	-18
89	38	-24
184	97	-32
269	140	-25
302	160	-19
270	150	-18
179	108	-13
57	45	-11
-64	-21	-17
-162	-75	-24
-229	-103	-16
-262	-106	-19
-262	-95	-35
-234	-81	-26
-172	-67	-26
-86	-47	-28
7	-9	-22
86	49	-22
139	122	-23
163	183	-19
165	213	-9
156	191	-13
136	125	-21
101	38	-18
40	-44	-20
-47	-102	-21
-152	-131	-24
-241	-136	-28
-287	-130	-33
-267	-119	-42
-180	-99	-44
-50	-67	-54
87	-18	-47
200	39	-24
266	98	-12
288	138	-19
271	151	-14
234	131	-13
180	84	-19
115	22	-9
35	-42	-17
-55	-96	-5
-156	-129	-8
-248	-147	-11
-315	-152	-17
-339	-152	-19
-312	-149	-15
-236	-137	-42
-123	-108	-40
2	-48	-45
111	33	-42
190	124	-32
221	197	3
211	228	10
172	205	-15
123	145	-13
78	71	-11
36	11	-12
-6	-28	-30
-56	-51	-40
-114	-70	-30
-165	-102	-34
-193	-137	-44
-181	-162	-25
-126	-157	-10
-41	-109	-8
52	-25	-3
136	74	1
192	169	-16
216	236	-30
206	261	-24
161	233	-27
85	153	-14
-12	22	-19
-111	-129	-21
-189	-265	-25
-228	-348	-34
-216	-342	-32
-174	-257	-24
-122	-125	-23
-83	-2	-26
-53	74	-11
-19	95	-23
37	87	-24
121	92	-38
210	129	-38
269	192	-24
268	237	-32
199	223	-24
90	134	-32
-15	-6	-30
-86	-143	-26
-115	-233	-25
-122	-246	-19
-138	-202	-23
-176	-137	-25
-221	-86	-14
-232	-56	-6
-180	-36	-25
-54	4	-33
109	77	-30
257	165	-23
341	238	-25
337	261	-28
265	219	-24
163	127	-16
69	14	-17
2	-83	-28
-40	-145	-16
-79	-174	-12
-128	-176	-22
-187	-163	-30
-241	-137	-12
-264	-97	-5
-250	-45	-15
-189	8	-16
-97	50	-34
9	75	-39
111	82	-41
192	88	-60
241	100	-42
244	119	-24
197	131	-27
106	112	-33
-11	51	-20
-128	-45	12
-213	-142	13
-250	-208	16
-237	-219	7
-186	-182	-1
-114	-122	-2
-39	-64	-35
28	-26	-39
87	4	-34
135	40	-39
170	97	-21
184	162	-28
179	212	-25
155	223	-16
116	174	-26
69	88	-32
11	-17	-36
-62	-109	-25
-151	-171	-20
-241	-204	-30
-306	-210	-42
-314	-191	-28
-241	-144	-21
-99	-67	-24
78	31	-28
232	129	-45
322	195	-35
326	215	-35
263	191	-15
175	147	-10
97	106	-20
46	84	-5
16	66	3
-17	27	-11
-71	-49	-17
-143	-159	-12
-209	-259	-9
-241	-311	-28
-223	-282	-46
-163	-182	-26
-89	-50	-30
-21	60	-36
26	118	-14
60	122	-2
100	103	-4
143	92	-9
184	99	-15
199	106	-19
163	90	-18
79	24	-22
-32	-77	-23
-132	-173	-19
-193	-217	-28
-206	-186	-35
-183	-96	-30
-150	13	-26
-114	91	-30
-78	116	-34
-23	98	-50
59	74	-57
162	68	-31
253	92	-3
299	122	5
273	126	-14
186	89	-5
65	19	-4
-51	-50	-35
-130	-91	-43
-174	-97	-24
-187	-89	-21
-188	-94	-40
-181	-122	-38
-162	-161	-24
-121	-175	-24
-59	-131	-4
11	-33	-3
71	90	-17
110	189	-10
124	225	-9
129	195	-13
130	124	-20
126	51	-35
103	-2	-37
44	-35	-30
-46	-68	-30
-148	-110	-32
-225	-158	-30
-243	-186	-25
-197	-173	-32
-103	-114	-29
1	-27	-29
82	51	-21
129	102	-9
150	120	-17
162	120	-17
175	126	-10
184	138	-6
167	147	-10
110	123	-21
17	54	-33
-92	-51	-37
-183	-161	-36
-236	-236	-35
-239	-254	-27
-204	-213	-25
-148	-138	-25
-82	-60	-40
-10	-1	-28
70	39	-13
155	71	-19
234	105	-14
285	147	-30
290	186	-12
237	205	13
133	192	0
3	136	-5
-123	44	-27
-224	-68	-31
-277	-175	-20
-285	-253	-27
-258	-280	-30
-205	-248	-40
-142	-165	-42
-77	-50	-44
-6	61	-44
69	152	-33
155	205	-14
234	227	-2
292	224	-19
306	199	-19
261	150	-20
159	67	-32
20	-43	-11
-120	-164	-8
-232	-261	-14
-296	-298	-25
-314	-263	-31
-291	-174	-24
-247	-68	-26
-181	12	-16
-95	49	-19
12	52	-23
127	52	-22
230	74	-25
292	123	-23
300	174	-21
254	197	-23
179	169	-20
98	91	-18
30	-3	-24
-22	-81	-19
-72	-118	-16
-129	-121	-13
-188	-109	-24
-228	-101	-41
-221	-99	-38
-153	-86	-13
-39	-41	-1
83	37	-6
169	130	-15
190	195	-19
144	197	-25
65	123	-28
-10	4	-25
-51	-116	-47
-57	-183	-43
-46	-183	-20
-47	-125	-23
-78	-60	-37
-133	-26	-43
-186	-40	-36
-202	-88	-24
-159	-126	-15
-60	-120	-12
68	-58	-9
190	38	-5
268	128	-12
291	179	-25
262	174	-38
203	131	-31
135	76	-24
68	32	-38
6	10	-32
-52	-6	-18
-107	-30	-28
-149	-71	-24
-170	-116	-16
-170	-144	-15
-152	-134	-1
-127	-81	-8
-103	-2	-14
-77	76	-21
-38	128	-26
21	147	-6
93	139	-6
162	124	-21
194	112	-28
171	99	-34
96	67	-30
-7	2	-31
-104	-95	-27
-162	-199	-16
-172	-274	-9
-137	-283	-19
-84	-226	-28
-28	-115	-38
16	1	-38
48	84	-19
70	118	-35
86	114	-26
94	104	-1
95	108	-4
89	131	-12
80	154	-18
63	141	-27
36	80	-32
-6	-19	-19
-65	-119	-19
-128	-186	-35
-181	-194	-34
-206	-157	-30
-209	-95	-33
-193	-37	-30
-173	3	-18
-145	36	-18
-101	71	-6
-22	114	-12
97	153	-27
237	165	-11
351	138	-19
389	75	-20
328	-1	-22
183	-66	-22
12	-105	-18
-126	-118	-32
-195	-121	-28
-191	-125	-33
-152	-133	-32
-113	-131	-38
-94	-102	-57
-83	-40	-56
-51	39	-32
19	110	-18
124	155	-13
225	159	-2
280	135	3
269	98	16
192	62	-3
81	27	-17
-27	-13	-19
-110	-59	-29
-162	-111	-35
-195	-150	-64
-221	-160	-48
-232	-134	-20
-225	-83	-23
-181	-27	-18
-101	17	-14
5	40	2
113	54	10
198	68	-11
241	90	-18
230	110	-22
175	110	-29
93	80	-20
6	16	-30
-67	-58	-36
-114	-121	-41
-134	-153	-35
-134	-153	-11
-125	-133	-13
-115	-108	-24
-101	-87	-16
-76	-62	-14
-32	-24	-17
29	35	-16
96	116	-27
149	191	-24
170	239	-27
155	238	-27
111	191	-21
52	113	-33
-5	28	-33
-56	-43	-32
-102	-97	-21
-144	-133	-17
-182	-162	-20
-205	-179	-32
-195	-184	-48
-148	-166	-35
-60	-116	-24
44	-40	-20
151	48	-25
229	127	-44
266	174	-32
257	186	-11
209	158	-3
131	110	-1
36	53	-2
-57	3	1
-140	-44	-11
-198	-86	-17
-226	-124	-21
-221	-154	-39
-187	-163	-32
-134	-144	-18
-70	-93	-11
-3	-19	-11
63	58	-18
126	121	-38
180	157	-42
212	166	-37
221	154	-43
196	129	-21
141	93	-8
68	47	-3
-12	-10	-19
-82	-72	-30
-130	-130	-16
-149	-174	-15
-145	-188	-17
-129	-175	-11
-114	-134	3
-110	-72	-14
-109	-6	-31
-102	55	-36
-67	97	-35
-1	106	-36
85	79	-42
164	30	-35
204	-17	-32
184	-41	-30
107	-26	-27
1	19	-22
-101	65	-22
-170	78	-20
-191	41	-26
-173	-37	-27
-126	-127	-18
-66	-186	-35
-5	-187	-44
54	-127	-35
105	-28	-30
137	74	-7
148	151	2
135	183	6
107	178	9
74	138	-10
42	81	-14
12	12	-22
-24	-55	-39
-70	-112	-40
-125	-149	-40
-170	-154	-27
-190	-131	-15
-170	-92	-20
-114	-42	-17
-34	3	-19
46	43	-20
115	80	-24
164	111	-30
189	137	-17
195	150	-22
179	139	-32
140	103	-24
81	48	-23
10	-11	-27
-60	-58	-33
-121	-89	-30
-172	-100	-8
-212	-99	-26
-239	-99	-45
-242	-102	-30
-200	-107	-33
-104	-100	-7
39	-77	13
194	-31	0
311	29	-11
350	90	-25
296	135	-32
175	150	-38
40	127	-21
-59	66	-7
-106	-16	-30
-107	-103	-43
-99	-170	-27
-111	-197	-30
-145	-178	-33
-187	-116	-27
-199	-32	-21
-161	51	-11
-72	115	-13
37	150	-12
138	160	-19
201	151	-21
219	135	-22
200	116	-18
158	86	-28
100	47	-33
29	-5	-35
-50	-58	-32
-134	-108	-24
-207	-142	-26
-252	-159	-12
-253	-159	-22
-212	-141	-23
-137	-112	-17
-45	-69	-20
44	-15	-10
123	45	-10
182	105	-17
222	143	-21
234	158	-28
215	142	-32
167	105	-40
91	52	-42
1	1	-25
-93	-47	-15
-169	-91	-18
-216	-127	-31
-228	-152	-31
-199	-153	-24
-141	-128	-11
-65	-77	-15
12	-6	-25
80	66	-15
123	127	-20
145	163	-27
145	171	-33
133	158	-31
113	126	-28
85	81	-17
42	26	-20
-13	-29	-19
-75	-84	-31
-126	-127	-51
-154	-160	-28
-145	-176	-11
-108	-180	4
-58	-170	13
-20	-140	4
-1	-88	-14
2	-9	-28
12	85	-30
42	171	-35
98	225	-44
158	221	-46
192	162	-33
175	65	-50
105	-31	-55
-4	-102	-20
-120	-130	-6
-210	-123	-14
-262	-102	-4
-270	-85	7
-236	-75	-16
-164	-63	-19
-59	-37	-11
60	10	-15
172	70	-13
245	122	-14
262	147	-24
223	134	-29
156	93	-17
96	39	-18
61	-14	-18
44	-53	-20
18	-84	-27
-43	-106	-31
-139	-125	-43
-235	-131	-26
-286	-117	-15
-257	-79	-24
-153	-17	-20
-18	47	-27
96	103	-39
154	131	-24
159	136	-4
140	121	-26
131	96	-37
137	65	-33
144	31	-28
118	-5	-8
44	-49	-5
-67	-94	-23
-178	-130	-36
-246	-153	-18
-253	-155	-17
-202	-138	-35
-128	-104	-12
-56	-58	-17
0	-5	-31
44	51	-27
90	106	-25
135	153	-27
170	181	-38
170	183	-31
132	157	-14
62	105	-7
-13	39	-21
-70	-29	-12
-96	-86	-6
-99	-127	-17
-96	-150	-11
-101	-152	-29
-111	-135	-43
-109	-105	-11
-80	-63	-3
-14	-17	-54
72	28	-57
156	67	-28
206	96	-24
212	106	-13
180	106	20
124	89	5
62	61	-20
1	20	-11
-58	-30	-21
-123	-86	-5
-183	-139	-23
-226	-176	-34
-236	-186	-32
-201	-159	-34
-127	-97	-19
-26	-14	-45
78	71	-72
163	138	-39
214	177	21
232	182	-3
210	160	-5
161	123	-8
89	83	-28
1	43	-51
-89	5	-65
-168	-38	-38
-222	-88	-30
-244	-130	-7
-226	-160	2
-177	-159	-18
-106	-128	-32
-29	-76	-40
38	-13	-41
93	41	-15
130	79	-10
162	96	-11
184	99	-6
202	97	-27
203	89	-9
172	72	-32
103	41	-33
-3	-5	-25
-121	-64	-32
-225	-119	-7
-281	-154	-24
-286	-158	-22
-237	-126	-23
-159	-69	-37
-69	-1	-57
12	65	-56
86	121	-37
151	158	-27
206	168	-7
244	150	8
245	101	11
200	24	1
113	-64	15
6	-149	-3
-92	-204	-26
-158	-222	-35
-182	-198	-26
-172	-150	14
-149	-94	3
-126	-47	-6
-102	-17	-18
-69	7	-52
-14	31	-35
66	71	-37
156	122	-44
228	174	-48
252	205	-43
221	201	-39
142	156	-49
44	80	-35
-49	-2	-30
-123	-70	-8
-181	-109	2
-225	-118	-9
-256	-109	-14
-264	-92	-13
-232	-76	-19
-142	-57	-18
-8	-36	-18
138	-4	-41
253	34	-40
306	71	-35
283	98	-28
210	108	-12
114	102	-10
33	80	-2
-25	45	-8
-61	2	-41
-96	-50	-44
-131	-107	-27
-167	-157	-20
-188	-184	-39
-179	-177	-38
-136	-129	-2
-63	-52	-13
20	32	-32
101	106	-34
164	153	-27
201	166	-19
208	154	-33
181	127	-34
126	93	-32
46	48	-34
-39	-1	-1
-119	-58	-11
-181	-113	-32
-222	-151	16
-243	-165	19
-243	-151	-2
-218	-116	-10
-164	-68	-30
-78	-20	-23
29	30	-13
133	80	-24
214	131	-30
258	178	-30
266	203	-29
250	195	-11
216	144	-44
169	58	-52
94	-43	-2
-13	-136	-5
-148	-198	-46
-276	-227	-49
-354	-217	-16
-355	-189	-11
-272	-149	-9
-136	-102	-20
4	-52	-37
103	3	-43
150	60	-39
157	114	-16
151	154	-20
151	168	-23
155	155	-28
144	116	-17
99	58	15
16	-7	13
-89	-69	1
-177	-122	-26
-221	-152	-40
-207	-157	-23
-150	-136	-35
-68	-93	-43
13	-33	-20
81	32	-22
131	96	-32
167	149	-30
192	185	-35
201	197	-35
194	183	-52
164	142	-42
110	80	-22
36	4	-14
-53	-70	3
-147	-134	0
-229	-179	15
-278	-201	-11
-281	-201	-30
-234	-180	-15
-148	-139	-23
-40	-78	-22
60	0	-30
138	80	-28
187	150	-24
208	190	-30
206	195	-20
184	162	-28
141	106	-26
81	45	-37
6	-7	-58
-71	-46	-48
-141	-83	-67
-195	-121	-42
-236	-163	1
-258	-198	-10
-262	-203	-2
-233	-165	-1
-161	-79	-21
-42	35	-18
106	144	-8
245	215	-11
336	230	-6
344	195	-8
273	131	-16
148	65	-11
17	12	-10
-86	-28	-21
-145	-64	-25
-168	-106	-32
-176	-149	-36
-177	-177	-40
-172	-173	-53
-143	-131	-46
-89	-57	-53
-6	27	-25
80	99	4
148	143	-1
184	161	-2
191	158	-15
182	139	0
161	110	-3
130	61	-25
78	-8	-27
-5	-88	-24
-111	-164	-31
-211	-209	-31
-270	-210	-28
-263	-170	-33
-197	-102	-28
-94	-29	-26
11	33	-46
87	80	-46
130	117	-33
148	149	-25
156	171	8
161	182	12
158	158	-3
136	102	-8
86	17	-5
16	-74	-23
-60	-154	-33
-130	-209	-28
-185	-230	-36
-225	-223	-10
-245	-192	2
-241	-150	-6
-199	-95	-27
-105	-35	-13
30	23	-25
181	81	-64
302	126	-76
359	160	-69
332	174	-8
234	169	-17
102	141	-32
-20	89	-8
-107	19	-8
-156	-58	-7
-180	-125	-15
-195	-167	-16
-206	-174	-13
-200	-143	-19
-162	-92	-34
-85	-27	-56
20	33	-46
123	85	-35
198	122	-44
222	148	-16
195	157	-6
136	147	4
68	118	15
10	71	8
-34	13	0
-71	-49	-12
-110	-104	-17
-152	-141	-41
-185	-159	-43
-191	-147	-65
-159	-111	-63
-87	-54	-19
5	10	-19
86	70	5
133	115	26
139	137	-4
118	135	-36
93	112	-34
82	72	-28
86	19	-31
85	-41	-35
56	-102	-22
-15	-152	-1
-116	-179	-6
-214	-182	-16
-268	-159	-21
-258	-118	-15
-182	-76	-34
-71	-33	-46
36	6	-34
118	51	-37
169	102	-34
198	155	-35
216	193	-23
224	199	-17
211	168	-22
166	99	-19
83	14	-26
-22	-68	-16
-126	-126	-6
-203	-153	-26
-239	-154	-22
-235	-131	-17
-201	-101	-23
-151	-60	-32
-88	-16	-41
-15	33	-36
64	81	-40
140	120	-21
198	145	-7
222	150	-12
202	136	-6
151	105	4
79	60	-17
0	5	-38
-76	-56	-38
-145	-113	-16
-205	-159	4
-247	-179	-18
-252	-175	-30
-212	-143	-30
-125	-95	-54
-9	-41	-68
107	11	-46
191	56	-32
229	96	-4
221	129	0
186	155	-7
148	168	-19
111	152	-33
78	110	-42
33	43	-40
-28	-32	-4
-102	-102	-9
-170	-150	-19
-212	-167	-7
-215	-160	-22
-183	-135	-37
-130	-101	-33
-69	-57	-15
-12	-8	-10
42	50	-29
102	111	-40
163	159	-38
212	180	-30
229	158	8
196	96	28
107	6	15
-20	-90	-7
-154	-166	-15
-255	-208	4
-300	-214	-12
-277	-192	-37
-204	-159	-31
-103	-119	-32
3	-71	-34
91	-12	-48
156	60	-54
197	139	-38
214	206	0
210	244	1
188	238	-37
147	190	-47
90	115	-51
27	34	-46
-38	-34	-35
-99	-84	-7
-151	-113	1
-186	-129	-15
-207	-137	-3
-206	-129	-7
-180	-107	-19
-128	-66	-40
-53	-16	-45
34	36	-22
121	77	-31
190	98	-23
226	103	1
221	93	-5
175	74	-11
109	45	-14
33	7	-32
-30	-44	-44
-72	-101	-48
-95	-151	-41
-103	-178	-37
-111	-169	-33
-126	-123	-4
-141	-47	10
-145	39	-6
-118	116	-17
-50	166	-18
48	179	-33
151	159	-21
216	112	-32
226	55	-47
164	3	-8
55	-36	7
-64	-59	-2
-162	-76	-17
-215	-90	-27
-229	-111	-23
-212	-131	-33
-180	-143	-25
-131	-131	-25
-63	-89	-37
26	-17	-22
131	65	-23
228	137	-43
287	182	-34
289	192	-37
239	170	-46
151	129	-42
52	78	-40
-31	22	-3
-96	-36	14
-145	-95	-1
-187	-147	-18
-216	-182	-23
-227	-190	-18
-202	-167	-15
-139	-117	-12
-43	-50	-33
65	19	-42
163	85	-51
234	141	-76
269	183	-42
266	205	-13
226	205	-4
150	174	9
41	117	17
-81	36	21
-195	-54	33
-275	-137	32
-300	-203	-28
-271	-240	-54
-201	-248	-44
-119	-229	-39
-46	-183	-48
9	-119	-50
52	-40	-37
98	39	-28
150	106	-18
199	148	-28
228	157	-51
214	136	-30
160	94	24
71	45	0
-25	-5	-13
-102	-49	-26
-150	-86	-44
-169	-112	-40
-167	-123	-27
-152	-116	-9
-120	-81	-21
-69	-21	-15
7	54	-37
96	126	-46
178	178	-28
228	199	-27
228	190	-31
182	158	-38
105	116	-7
23	72	-5
-44	27	-25
-94	-26	-17
-134	-89	-4
-174	-162	-12
-214	-229	-28
-243	-272	-19
-242	-276	-2
-198	-231	-4
-110	-145	-18
3	-39	-17
113	62	-26
197	140	-24
241	186	-24
242	196	-38
209	182	4
156	148	-3
89	100	-54
16	40	-40
-59	-24	-38
-125	-87	-50
-172	-135	-39
-187	-159	-24
-169	-154	-38
-126	-124	-24
-74	-79	-11
-28	-23	-23
8	35	-19
30	96	-24
49	150	-7
71	189	-12
97	201	-16
122	174	-3
128	112	-7
107	27	-17
50	-57	-10
-33	-119	7
-126	-149	-17
-200	-151	-38
-237	-140	-34
-221	-127	-27
-156	-117	-44
-60	-100	-43
42	-61	-33
132	3	-45
200	81	-42
242	152	-33
260	192	-25
249	189	-38
206	143	-33
130	77	-19
25	8	2
-87	-45	-7
-181	-84	-25
-231	-110	-3
-231	-131	-16
-190	-144	-28
-130	-144	-26
-78	-122	-6
-36	-74	-8
-6	-9	-1
30	55	-12
77	108	-25
130	135	-37
175	138	-39
194	116	-3
172	76	-32
117	21	-22
35	-44	-10
-55	-105	-21
-137	-154	-17
-197	-177	-38
-224	-170	-32
-214	-135	-30
-164	-86	-26
-87	-32	-30
0	17	-62
77	58	-37
128	100	-5
154	138	-19
156	171	-23
149	188	-39
133	174	-16
110	130	3
65	58	-36
-4	-22	-34
-89	-95	-36
-172	-144	-14
-226	-164	-5
-237	-159	-21
-204	-130	0
-141	-87	-16
-67	-33	-38
0	24	-21
57	84	-8
106	131	-16
145	160	-27
175	162	-43
189	136	-32
179	91	-9
141	32	12
85	-25	30
11	-81	-11
-67	-129	-14
-143	-167	0
-208	-190	-30
-242	-195	-41
-239	-174	-52
-188	-130	-50
-99	-63	-21
10	11	-3
111	78	4
184	125	-10
222	147	-39
226	143	-32
210	123	-26
182	93	-58
138	55	-38
69	13	-18
-23	-35	-28
-130	-81	-24
-223	-118	-26
-270	-140	-18
-261	-137	-20
-198	-112	-16
-110	-68	-11
-23	-19	-21
44	32	-25
94	79	-25
133	118	-45
175	150	-51
213	168	-40
234	166	-38
216	136	-33
151	83	-34
44	10	-36
-81	-62	-12
-194	-120	0
-276	-151	15
-311	-150	20
-298	-129	-19
-245	-98	-27
-162	-65	-16
-66	-35	-26
28	-2	-24
104	34	-14
154	76	-16
175	113	-35
184	136	-42
182	131	-43
175	96	-52
155	35	-19
103	-38	-11
18	-105	-23
-91	-149	-12
-193	-160	-27
-255	-141	-33
-248	-103	-25
-174	-54	-13
-61	-8	3
54	35	-16
139	72	-36
183	106	-36
193	131	-31
184	141	-30
167	129	-7
135	86	-8
79	20	-19
-3	-56	-6
-100	-127	-21
-186	-171	-15
-241	-186	-9
-250	-171	-27
-221	-137	-21
-169	-95	-21
-107	-51	-28
-41	-7	-27
34	41	-19
117	96	-53
202	153	-63
263	195	-17
280	213	-20
245	196	-19
158	145	-7
52	72	-9
-44	-7	-16
-112	-75	-11
-149	-124	-11
-170	-152	-26
-189	-163	-40
-213	-163	-58
-231	-150	-47
-224	-122	-50
-172	-77	-50
-74	-18	9
52	51	32
178	117	7
269	162	6
302	178	-22
276	157	-23
202	106	-12
101	31	-5
-4	-47	13
-95	-112	-27
-165	-153	-35
-207	-163	-38
-223	-148	-43
-207	-115	-32
-162	-78	-24
-89	-39	2
3	-4	-12
99	27	-21
175	55	-38
212	76	-47
202	84	-25
147	75	-31
69	54	-13
-5	30	-12
-54	9	-7
-75	-5	-26
-77	-20	-48
-79	-38	-26
-96	-63	10
-129	-90	20
-162	-98	-32
-166	-79	-57
-128	-24	-59
-46	51	-44
54	126	-34
148	175	-28
207	187	-29
222	164	-21
203	119	-5
163	68	-27
114	16	-19
57	-36	-13
-11	-90	-24
-90	-142	-31
-165	-178	-27
-214	-190	-25
-222	-166	-35
-174	-116	-31
-89	-50	-44
6	13	-43
84	64	-30
133	103	-34
155	130	-16
159	150	2
153	154	2
138	137	4
106	92	-10
48	20	-35
-32	-56	-9
-125	-123	-4
-204	-164	-29
-253	-175	-25
-262	-160	-24
-228	-129	-12
-156	-88	-19
-54	-37	-33
64	23	-31
181	89	-45
269	149	-48
310	188	-50
285	192	-23
207	155	8
97	91	-29
-17	10	-37
-112	-65	-13
-184	-125	-8
-236	-166	10
-277	-186	-3
-300	-191	5
-288	-175	-16
-231	-143	-41
-121	-93	-36
14	-32	-38
140	29	-16
225	84	-31
256	120	-35
245	143	-15
221	150	-24
198	143	-27
183	120	-11
154	81	-20
94	27	-36
0	-33	-50
-113	-87	-64
-211	-125	-31
-272	-137	-20
-281	-126	-34
-252	-101	-30
-191	-64	-23
-111	-24	21
-15	18	24
94	57	-4
199	93	3
269	113	11
273	113	-12
198	97	-39
62	62	-25
-84	17	-19
-193	-32	-31
-237	-82	-18
-222	-127	-11
-178	-164	-22
-138	-176	-17
-113	-160	-21
-85	-106	-32
-32	-31	-33
56	51	-37
167	121	-35
254	159	-47
291	168	-53
262	157	-27
194	137	-24
112	113	-17
49	84	-6
5	40	-33
-33	-19	-38
-89	-87	-35
-168	-145	-29
-248	-177	-20
-295	-170	0
-281	-127	17
-202	-66	6
-79	-6	-42
58	43	-70
175	79	-58
258	106	-47
295	131	-9
287	148	-1
239	145	-4
159	113	2
59	51	-6
-40	-32	-27
-120	-111	-44
-170	-166	-44
-193	-183	-38
-202	-163	-18
-205	-119	-17
-195	-65	-35
-162	-17	-33
-86	19	-19
28	46	-24
160	68	-4
266	87	-5
310	100	-29
270	102	-23
172	84	0
54	50	-6
-47	1	-28
-116	-52	-16
-155	-99	-20
-188	-133	-2
-227	-149	-6
-262	-143	-26
-269	-122	-35
-221	-92	-35
-109	-56	-18
40	-21	-17
182	8	-5
273	36	-16
292	61	-17
251	86	-6
175	109	-17
97	123	-20
31	122	-25
-23	95	-17
-75	43	-25
-132	-28	-40
-186	-97	-43
-223	-144	-41
-223	-155	-35
-182	-121	-39
-110	-57	-32
-21	19	-26
65	90	-21
139	139	-14
194	168	-21
226	171	-31
231	160	-20
206	130	-19
155	90	-30
77	40	-41
-8	-12	-64
-93	-58	-22
-160	-94	1
-209	-115	-20
-232	-130	-3
-227	-141	9
-191	-145	0
-123	-137	-8
-30	-108	-15
70	-52	-19
158	18	-34
208	83	-31
216	121	-24
187	122	-32
132	88	-27
64	39	-10
-7	-9	-4
-88	-42	-11
-169	-66	-11
-245	-89	-6
-292	-116	-10
-295	-142	-37
-231	-152	-55
-112	-134	-48
34	-80	-38
172	-4	-32
269	75	-31
306	136	-25
287	169	-15
234	174	-37
170	161	-50
111	135	-49
61	97	-43
12	43	-36
-47	-23	-16
-118	-93	-3
-187	-151	-27
-239	-175	-28
-256	-163	-8
-230	-118	-2
-169	-53	-3
-89	13	-4
-8	70	-27
64	118	-19
125	153	1
179	174	-16
222	174	-23
242	147	-19
226	85	-23
162	1	-22
52	-84	-18
-71	-150	-31
-182	-182	-37
-249	-184	-28
-257	-163	-16
-217	-130	-12
-144	-98	-39
-64	-62	-64
12	-22	-54
82	27	-27
139	79	-30
184	122	-61
200	150	-36
182	153	18
125	128	26
46	82	7
-39	22	7
-109	-46	7
-156	-115	-12
-183	-171	-38
-195	-203	-55
-202	-205	-26
-191	-173	-9
-158	-112	-25
-91	-39	-44
0	30	-17
100	88	-1
180	130	-3
226	158	-3
229	174	-12
202	177	-21
158	160	-30
106	116	-26
49	48	-43
-21	-32	-56
-106	-107	-79
-198	-158	-59
-273	-173	-15
-307	-153	-7
-272	-110	-7
-166	-54	-12
-15	0	-16
145	48	-11
269	89	-13
326	118	-17
309	136	-30
237	138	-21
145	123	-8
63	92	-12
10	48	8
-22	-2	0
-51	-56	-18
-95	-105	-13
-154	-148	-17
-212	-174	-31
-240	-178	-39
-216	-156	-42
-141	-106	-60
-33	-39	-50
69	31	-42
139	90	-39
159	125	-32
143	133	-36
113	123	-23
89	103	-16
75	74	-24
62	43	-11
30	6	15
-31	-41	11
-117	-97	11
-203	-148	-8
-259	-176	-46
-260	-170	-47
-197	-122	-24
-86	-46	1
38	41	-24
143	119	-34
206	168	-4
222	181	-1
200	164	-23
163	126	-39
121	78	-32
78	24	-21
25	-30	-24
-43	-78	-39
-121	-115	-46
-193	-131	-42
-230	-126	-49
-215	-101	-46
-148	-63	-33
-52	-29	-7
37	-6	9
94	7	-23
110	15	-24
101	27	-6
92	42	-13
99	58	-22
114	59	-10
118	38	-14
85	-5	-35
8	-59	23
-94	-107	21
-189	-134	-37
-245	-136	-11
-247	-121	-19
-199	-96	-17
-124	-70	-23
-42	-44	-42
32	-5	-36
100	48	-47
166	113	-39
219	171	-41
255	206	-40
253	205	-38
209	164	-16
126	101	-14
28	30	-28
-66	-29	-18
-139	-78	-17
-184	-113	-11
-207	-137	-18
-209	-153	-29
-194	-149	-21
-153	-121	-21
-88	-66	-20
-3	3	-21
85	72	-30
157	127	-31
197	157	-34
201	161	-19
172	140	-13
127	106	-13
70	61	-9
6	8	-12
-61	-45	-15
-133	-95	-20
-195	-127	-18
-233	-138	-26
-232	-125	-25
-187	-96	-28
-109	-59	-31
-19	-21	-18
59	13	-27
115	45	-34
147	77	-32
167	103	-14
187	112	-14
207	98	-39
212	58	-45
181	-1	-38
97	-64	-38
-35	-115	-23
-181	-140	-4
-300	-141	-28
-353	-125	-37
-325	-101	-26
-232	-78	-24
-112	-56	15
2	-33	17
89	-4	-5
151	33	-13
198	71	-27
234	106	-21
252	129	-27
236	131	-16
172	111	-22
71	69	-27
-47	10	-10
-148	-57	-16
-208	-118	-19
-225	-160	-26
-210	-170	-34
-182	-144	-43
-148	-87	-30
-105	-11	-29
-40	64	-19
