File Name: not saved
Channel 2: 'Channel 2', 14210 values, raw ADC, no filters.
Channel 3: 'Channel 3', 14210 values, raw ADC, no filters.
Channel 4: 'Channel 4', 14210 values, raw ADC, no filters.

32	-6	-43
-69	-98	-23
-156	-158	65
-212	-173	6
-235	-156	42
-225	-124	-38
-186	-94	-7
-129	-66	-13
-55	-39	11
23	0	16
101	53	-18
167	110	105
211	152	-25
224	161	-124
202	134	-90
154	78	-97
83	12	-131
3	-47	-128
-79	-90	-137
-153	-113	-82
-213	-126	-11
-250	-130	-24
-257	-128	21
-226	-115	18
-158	-86	46
-57	-41	91
56	15	129
167	72	112
251	121	-1
292	153	-42
285	163	87
238	152	210
158	117	178
60	67	97
-37	6	-114
-123	-50	-427
-189	-99	-479
-232	-127	-204
-246	-135	-101
-233	-130	-49
-189	-116	-56
-120	-95	-133
-32	-64	-61
62	-23	-98
148	33	-49
209	96	-28
236	147	40
224	169	104
175	150	65
107	96	68
25	17	18
-54	-58	89
-125	-116	126
-180	-144	174
-213	-145	162
-221	-129	-68
-197	-100	-157
-145	-62	-9
-68	-17	-79
18	36	-265
104	91	-40
169	137	-124
207	161	-320
215	154	-145
194	121	-74
150	70	-5
87	13	32
15	-39	120
-64	-84	170
-142	-121	224
-204	-149	237
-242	-168	96
-242	-168	-64
-203	-144	-250
-128	-96	-350
-31	-27	-203
71	50	83
160	117	103
222	162	36
245	179	5
239	171	-222
198	139	-265
132	98	5
52	43	106
-33	-14	225
-115	-72	346
-184	-124	25
-229	-160	-178
-244	-174	49
-223	-161	208
-170	-126	167
-94	-74	96
-7	-20	-125
76	32	-330
143	77	-371
191	113	-368
214	139	-226
210	154	-31
182	149	10
125	115	49
45	55	62
-53	-22	29
-158	-102	-23
-246	-162	-83
-301	-188	-23
-307	-178	52
-259	-137	87
-169	-84	84
-49	-28	36
74	19	34
184	58	9
263	93	-51
306	124	-96
306	145	-41
269	151	-45
200	131	-92
110	85	10
7	20	-28
-91	-53	-50
-172	-116	49
-230	-159	30
-256	-171	-12
-252	-159	-3
-215	-125	51
-151	-79	72
-65	-24	-9
28	33	-55
117	88	-121
187	135	-82
224	165	-66
225	171	-121
190	156	76
129	110	74
55	49	-69
-20	-24	-15
-93	-91	124
-153	-144	242
-198	-170	204
-222	-166	62
-213	-138	-168
-175	-95	-382
-106	-46	-435
-20	-1	-284
69	35	-198
147	64	-194
196	89	-160
212	106	-87
198	116	33
160	106	21
102	81	-2
31	33	28
-49	-25	77
-132	-80	86
-209	-119	129
-262	-133	196
-279	-127	225
-248	-105	353
-170	-76	204
-52	-41	-31
81	2	-203
202	49	-421
290	104	-361
330	153	-142
314	180	-62
253	171	-133
162	125	-49
52	47	80
-51	-40	47
-142	-114	7
-213	-163	42
-255	-178	142
-269	-170	201
-257	-145	196
-218	-113	82
-158	-79	-123
-82	-38	-190
6	9	-72
97	63	-65
181	116	-43
245	161	-4
280	185	-22
273	182	-27
216	153	-129
122	97	-140
4	27	-139
-110	-51	-114
-199	-120	21
-247	-171	80
-247	-196	68
-208	-190	97
-145	-153	130
-71	-95	130
4	-25	98
77	43	95
141	101	70
194	138	2
224	155	-74
221	148	-59
179	121	-94
109	74	-88
18	17	-52
-77	-45	-151
-160	-101	-265
-217	-140	-424
-249	-160	-282
-248	-151	-153
-217	-118	-105
-160	-65	40
-77	-8	-19
18	45	56
115	89	209
195	115	128
245	126	119
255	121	137
226	105	3
163	81	-44
84	45	-8
-1	3	-130
-84	-46	-209
-153	-94	-99
-207	-135	-84
-236	-160	38
-237	-162	172
-205	-140	143
-139	-96	178
-50	-36	139
49	30	107
140	90	-80
208	138	-241
241	166	-138
238	171	-305
201	154	-288
141	110	-90
65	54	-116
-19	-12	81
-105	-78	106
-182	-135	167
-240	-174	181
-264	-185	76
-250	-170	116
-195	-126	150
-105	-64	183
3	5	16
107	74	-114
193	129	-432
245	168	-592
260	179	-179
238	168	101
184	125	98
111	61	90
25	-18	-48
-61	-96	-124
-141	-154	-17
-203	-183	26
-237	-178	9
-242	-149	45
-213	-106	6
-156	-63	-108
-77	-26	-151
12	12	-75
99	52	10
169	101	-1
206	147	-62
206	174	-39
166	169	112
97	130	151
18	64	137
-53	-11	123
-99	-72	113
-116	-112	207
-109	-127	110
-94	-130	-100
-78	-122	-230
-67	-108	-341
-53	-82	-266
-28	-37	-69
16	22	-12
77	85	21
138	134	124
188	158	155
205	147	99
183	107	-47
125	53	-211
44	-7	-328
-45	-62	-308
-129	-113	-128
-194	-151	10
-237	-173	49
-248	-174	52
-227	-145	69
-172	-95	-29
-91	-30	-76
6	33	134
101	84	90
178	120	28
226	142	10
239	154	-94
216	155	105
170	138	130
104	100	64
23	38	64
-61	-38	60
-142	-112	-23
-208	-163	-206
-248	-182	-295
-256	-166	-381
-226	-127	-227
-161	-75	-187
-70	-20	-68
31	29	149
127	77	149
202	113	237
245	137	287
252	140	301
222	125	124
166	90	-63
91	41	-279
10	-7	-447
-70	-54	-190
-141	-97	6
-199	-131	-57
-235	-159	-15
-243	-168	-18
-216	-154	-40
-156	-112	1
-69	-48	-17
30	22	-5
123	89	-13
195	135	57
234	160	11
236	161	-52
205	145	21
148	114	-23
72	68	-2
-12	9	80
-96	-56	37
-170	-117	44
-222	-161	46
-240	-171	15
-221	-153	-5
-165	-107	-130
-83	-51	-111
12	6	-63
105	55	-63
179	97	-54
226	130	-119
240	152	-148
219	157	-140
169	132	41
90	80	127
-3	3	69
-103	-83	29
-195	-152	-79
-264	-192	-89
-304	-194	-137
-296	-167	-109
-241	-119	-4
-140	-66	81
-14	-18	184
115	26	116
222	67	-20
285	109	-138
299	144	-270
262	169	-242
194	170	-34
105	140	175
14	85	419
-79	15	353
-161	-53	30
-229	-109	-278
-269	-136	-500
-273	-143	-365
-232	-134	-116
-151	-122	0
-45	-111	56
64	-94	107
156	-70	86
222	-26	16
253	35	-35
258	102	53
242	157	21
205	178	-68
147	156	-76
65	94	-40
-28	13	24
-125	-67	-21
-205	-125	-24
-255	-153	-55
-264	-152	-53
-240	-128	10
-180	-93	80
-98	-45	33
-6	7	82
85	65	248
162	121	168
214	161	96
231	177	-2
212	162	-44
162	122	-126
90	66	-227
8	9	-195
-70	-41	-186
-140	-84	-35
-195	-114	64
-232	-136	65
-241	-147	20
-217	-140	-15
-162	-114	-83
-79	-68	-196
16	-13	-261
106	47	-338
175	98	-111
213	131	36
216	145	26
193	134	66
143	100	-81
77	50	-66
2	-6	-52
-77	-61	27
-144	-102	63
-195	-122	-50
-221	-119	-113
-210	-101	-151
-169	-72	-79
-101	-41	119
-16	-9	397
71	24	391
150	58	464
204	92	425
228	118	170
216	127	-119
175	118	-375
110	85	-545
34	35	-549
-42	-23	-312
-112	-82	-301
-170	-131	-180
-212	-167	87
-236	-182	265
-234	-171	370
-203	-135	222
-143	-79	64
-60	-6	-260
32	63	-637
120	121	-276
192	158	87
239	169	-34
260	154	29
253	119	45
219	72	38
156	17	-28
63	-42	5
-52	-101	111
-172	-156	130
-268	-191	130
-315	-203	44
-299	-180	-45
-215	-125	-278
-94	-42	-229
37	50	-1
144	131	30
201	188	84
207	206	121
170	190	67
107	143	-19
38	83	15
-22	19	38
-68	-40	80
-99	-90	98
-114	-131	21
-117	-159	-14
-108	-171	-54
-91	-161	-55
-63	-128	-92
-33	-80	-81
6	-16	-62
52	46	-48
107	102	-29
162	142	-24
205	164	-24
222	164	-34
203	143	-50
148	106	-74
60	52	-33
-37	-8	8
-129	-72	74
-198	-125	124
-236	-159	190
-242	-169	194
-218	-150	118
-170	-108	161
-101	-48	80
-16	15	-21
76	77	16
156	126	-195
210	155	-478
226	161	-435
203	140	-292
150	103	-244
78	46	-162
5	-11	-50
-65	-65	37
-126	-108	3
-176	-131	-75
-211	-140	-80
-225	-129	-173
-207	-107	-110
-158	-75	218
-80	-31	209
13	16	-94
102	65	-157
172	109	196
212	142	209
216	152	-162
192	137	-361
135	98	-273
58	39	5
-28	-30	177
-113	-102	347
-181	-163	175
-217	-209	19
-222	-232	-71
-189	-228	-117
-134	-196	-108
-66	-137	-134
2	-62	-25
66	21	-37
123	97	-12
172	154	25
209	183	-24
222	186	-96
203	165	-96
151	127	52
74	79	205
-24	24	233
-117	-26	259
-194	-70	217
-239	-100	37
-243	-106	-95
-206	-92	-204
-132	-54	-312
-33	-8	-387
72	37	-169
163	70	221
222	88	182
237	89	75
215	80	-29
166	64	-194
105	40	-166
44	11	-189
-14	-27	-151
-71	-69	-49
-130	-108	32
-188	-131	48
-230	-130	-3
-240	-107	15
-207	-63	37
-133	-16	25
-32	29	-15
71	62	-15
156	85	-34
205	101	4
216	109	81
198	109	11
157	97	9
100	68	11
36	24	7
-32	-30	34
-103	-80	49
-165	-116	17
-213	-128	-56
-242	-122	-52
-245	-98	-81
-222	-67	-95
-172	-35	-30
-97	-5	22
1	20	26
107	45	22
212	65	-4
288	80	-39
325	86	-36
302	80	-9
231	60	6
120	25	43
-4	-19	56
-119	-68	-40
-203	-111	-153
-245	-137	-215
-248	-140	-170
-213	-117	9
-152	-74	44
-74	-23	46
8	27	56
86	70	-69
150	98	60
191	114	271
208	122	278
198	122	12
162	114	-427
104	88	-635
30	48	-575
-52	-12	-518
-133	-80	-231
-203	-141	82
-248	-182	152
-260	-187	168
-233	-157	52
-172	-94	96
-88	-18	84
5	50	162
89	100	11
151	122	-89
188	122	1
201	106	76
193	85	297
169	57	168
126	23	170
65	-19	34
-10	-69	-193
-94	-114	-313
-169	-141	-387
-218	-137	-261
-229	-106	-157
-195	-56	-90
-125	-6	8
-36	30	184
51	47	150
128	53	211
183	60	175
214	78	80
221	103	32
200	124	16
148	123	149
68	92	135
-28	27	182
-128	-53	77
-208	-126	-108
-253	-173	-266
-253	-182	-287
-214	-158	-46
-147	-108	-48
-65	-51	-92
15	4	-39
86	48	-97
143	85	-104
184	114	-100
203	131	-47
198	137	14
166	122	39
111	86	49
36	35	25
-43	-22	41
-117	-72	1
-175	-109	-5
-210	-126	-21
-218	-127	-97
-197	-117	-84
-150	-95	-101
-77	-60	-118
11	-8	-11
101	53	6
175	122	24
225	174	89
238	197	79
216	174	102
170	113	16
105	26	-82
33	-63	-21
-43	-132	102
-117	-171	196
-187	-177	151
-237	-161	9
-255	-133	-84
-230	-102	-309
-161	-68	-501
-61	-27	-384
44	22	-295
132	79	-141
184	129	-43
192	165	34
167	174	188
121	150	191
69	105	163
23	43	115
-22	-18	16
-65	-70	-208
-110	-108	-126
-148	-129	-25
-169	-140	-2
-162	-139	213
-121	-129	210
-51	-105	126
34	-67	-24
117	-13	-118
180	51	-295
210	112	-228
206	152	-92
169	156	-109
107	122	-2
30	58	-46
-55	-11	-51
-137	-68	-111
-203	-97	-72
-242	-97	-15
-247	-84	0
-216	-72	-19
-159	-80	-27
-86	-93	15
-9	-97	38
63	-74	112
123	-9	119
172	77	135
208	158	81
222	203	104
210	191	66
166	129	-168
94	41	-205
6	-38	-92
-83	-87	11
-156	-97	64
-200	-87	31
-215	-74	-45
-197	-71	-15
-156	-78	119
-94	-77	134
-18	-56	80
64	-8	16
143	57	-98
204	118	-228
238	154	-273
234	154	-190
197	117	-105
132	59	-25
52	0	-5
-32	-51	-36
-113	-85	-59
-186	-105	-57
-245	-111	-34
-279	-111	-4
-280	-104	138
-240	-87	298
-158	-57	190
-45	-14	-65
79	40	-275
189	101	-665
266	161	-523
297	199	199
278	205	255
219	163	166
130	76	69
26	-40	-90
-78	-156	-62
-170	-238	-65
-239	-267	106
-272	-237	136
-267	-167	151
-222	-81	104
-145	-6	45
-48	49	31
54	90	-27
145	122	-50
214	155	-126
245	174	-218
242	170	-159
202	127	-9
131	52	19
41	-32	-12
-50	-100	-89
-135	-126	-100
-195	-116	-100
-227	-87	50
-222	-64	105
-181	-66	18
-114	-86	85
-31	-101	22
51	-86	-29
122	-33	-156
169	41	-185
192	111	-117
194	147	-56
175	139	4
147	101	4
100	51	115
36	11	85
-41	-19	94
-125	-44	145
-200	-74	105
-246	-110	102
-251	-140	64
-212	-147	21
-138	-120	-72
-46	-60	-228
46	15	-326
124	88	-319
182	142	-267
216	169	-141
226	168	87
206	142	281
156	101	326
77	45	192
-24	-11	-83
-132	-51	-345
-234	-67	-447
-311	-50	-287
-357	-14	-138
-361	21	-206
-318	25	-35
-223	-8	84
-84	-67	164
86	-123	234
254	-143	130
388	-116	126
458	-53	77
446	12	86
363	47	136
234	35	116
94	-11	0
-28	-62	-96
-117	-94	-117
-176	-92	-183
-209	-68	-156
-224	-42	-25
-217	-30	79
-186	-29	155
-124	-26	213
-36	-1	258
59	54	196
148	121	32
205	180	-136
226	202	-286
207	178	-395
158	120	-378
87	48	-341
4	-13	-365
-85	-59	-223
-170	-88	-102
-240	-109	-34
-285	-124	60
-295	-128	81
-262	-120	91
-190	-88	77
-92	-35	49
12	28	56
109	86	97
182	126	150
225	138	213
234	122	164
214	88	63
170	40	4
107	-5	-121
35	-46	-91
-44	-77	62
-119	-98	75
-178	-114	56
-214	-121	139
-218	-122	171
-188	-110	125
-125	-81	124
-42	-33	34
47	23	-75
127	80	-230
184	121	-463
211	141	-534
202	139	-511
163	121	-439
104	93	-215
30	59	-143
-43	17	-183
-115	-37	-3
-175	-100	147
-218	-163	141
-240	-202	147
-231	-204	144
-191	-158	143
-117	-75	108
-20	26	17
90	115	30
196	171	93
280	191	41
326	178	-64
322	149	-21
268	110	-97
170	68	-89
46	18	129
-81	-41	94
-189	-104	44
-262	-159	22
-292	-189	10
-280	-190	-31
-231	-162	-16
-154	-119	76
-61	-71	52
34	-29	56
128	17	48
206	74	34
257	143	-27
267	215	-21
234	259	54
151	248	28
36	166	2
-93	28	-90
-210	-125	-365
-296	-246	-479
-336	-289	-161
-325	-249	-5
-270	-151	-54
-178	-47	22
-60	20	-7
66	34	-64
190	12	-47
289	-6	-49
350	7	-79
363	63	13
324	133	51
245	180	35
149	171	100
49	108	87
-38	14	38
-110	-69	34
-168	-116	175
-214	-125	360
-244	-113	396
-250	-108	346
-222	-114	260
-156	-121	107
-61	-105	-12
46	-53	-76
142	26	-345
206	110	-639
225	165	-688
201	171	-609
144	136	-284
69	76	-188
-10	16	-138
-82	-33	-46
-145	-71	-93
-195	-106	29
-231	-141	-64
-245	-164	-47
-232	-166	2
-186	-130	63
-107	-64	68
-6	17	-43
102	92	-84
194	145	-100
255	170	82
271	171	142
250	159	145
195	131	163
120	93	109
41	41	105
-34	-18	102
-97	-72	71
-152	-113	42
-191	-130	98
-216	-127	134
-217	-109	163
-191	-83	151
-139	-51	67
-60	-13	6
29	32	-39
119	83	-55
195	128	-109
240	154	-157
249	153	-252
216	125	-287
142	81	-157
36	31	-94
-88	-16	-21
-206	-56	38
-291	-87	28
-321	-114	-77
-282	-133	-235
-186	-142	-83
-47	-140	-6
95	-122	-25
212	-90	46
284	-41	24
302	20	7
280	90	-22
229	152	-34
159	186	-96
72	174	107
-24	110	225
-128	4	191
-224	-117	235
-291	-212	-54
-314	-256	-125
-279	-243	-226
-199	-185	-427
-91	-106	-202
21	-29	-52
115	37	-106
181	94	-143
216	144	-177
229	183	-163
216	207	-86
188	196	24
136	150	51
68	71	91
-12	-16	233
-97	-93	209
-174	-144	147
-231	-167	90
-255	-167	21
-244	-151	-18
-195	-120	-63
-122	-76	-91
-32	-17	-51
58	48	-52
137	110	-59
191	154	2
216	171	14
215	162	121
189	135	163
140	99	29
75	58	-177
-3	13	-225
-88	-37	-84
-162	-90	20
-216	-137	76
-239	-165	-30
-226	-166	-15
-177	-137	87
-103	-85	41
-15	-22	-91
75	41	-143
152	94	-126
208	131	-241
231	150	-88
221	141	232
171	106	312
97	49	177
5	-18	-92
-85	-82	-278
-165	-124	-397
-225	-137	-392
-257	-126	-209
-260	-100	-40
-228	-74	32
-159	-54	97
-59	-38	60
59	-21	-42
176	8	12
270	49	43
322	96	8
320	131	54
269	149	83
186	135	91
84	98	129
-16	41	99
-108	-18	32
-181	-67	24
-233	-105	-22
-259	-123	-92
-255	-129	-98
-221	-123	-123
-154	-111	-141
-68	-86	-120
25	-43	-55
109	18	15
171	96	41
206	168	-12
211	211	-37
191	203	31
147	130	53
86	12	55
10	-118	39
-72	-212	36
-156	-246	98
-221	-213	158
-253	-140	116
-245	-61	-23
-189	-4	-25
-100	26	-36
9	47	-264
109	76	-198
187	124	-6
226	179	-92
228	213	-47
198	198	-111
147	127	-67
83	22	-97
13	-89	-218
-55	-165	-172
-122	-195	-338
-178	-185	-230
-221	-154	-272
-235	-126	-218
-218	-104	26
-169	-82	60
-90	-44	166
5	9	127
102	75	130
179	132	176
229	163	194
242	164	155
219	136	115
166	98	124
94	54	115
10	13	143
-71	-28	180
-145	-71	217
-198	-108	268
-223	-129	249
-214	-122	69
-170	-85	-68
-99	-25	-479
-12	37	-941
75	85	-830
144	103	-195
184	92	-192
194	62	-41
172	27	17
130	-1	93
76	-19	121
16	-29	19
-39	-35	51
-95	-47	16
-142	-67	95
-184	-94	68
-208	-117	47
-206	-127	54
-170	-113	48
-103	-70	62
-11	-11	40
87	58	30
171	114	13
228	149	48
245	161	71
234	150	96
194	128	114
135	94	90
62	51	65
-20	-1	39
-103	-57	-3
-183	-112	-40
-245	-148	-133
-273	-156	-289
-262	-137	-302
-210	-101	-245
-121	-56	-246
-11	-11	-139
101	30	-45
199	72	15
264	114	20
284	144	-48
255	154	-27
184	129	-26
82	72	-3
-29	-5	39
-132	-83	117
-214	-143	213
-260	-176	222
-272	-179	194
-249	-163	119
-194	-132	61
-112	-90	-76
-13	-35	-144
88	30	-101
175	96	-219
237	150	-223
265	177	-198
262	180	-282
230	158	-200
172	123	46
95	79	187
-4	27	48
-116	-33	177
-226	-101	102
-308	-161	-155
-342	-203	-102
-315	-210	-145
-234	-182	-87
-118	-127	-129
2	-61	-23
105	-1	142
175	51	17
214	96	53
231	137	62
232	170	-92
219	180	-130
188	158	1
131	95	-2
50	6	131
-49	-88	142
-151	-156	-165
-234	-179	-261
-274	-163	-312
-267	-117	-221
-208	-65	-164
-113	-23	-71
-3	8	-41
100	35	69
175	62	228
216	92	137
216	115	87
190	120	-18
137	103	-16
72	62	45
0	12	126
-74	-36	139
-143	-76	115
-201	-104	102
-235	-121	49
-237	-126	-44
-203	-119	-196
-136	-93	-143
-44	-41	-144
56	22	-125
149	91	-80
216	147	-122
251	182	-71
244	190	-70
195	177	37
111	148	149
1	101	183
-114	38	233
-212	-42	194
-270	-131	84
-274	-215	-103
-226	-268	-227
-133	-273	-192
-24	-226	-151
78	-134	-170
151	-27	-147
192	65	-106
203	125	-86
198	148	-74
188	137	-11
172	110	22
151	77	24
106	40	68
40	2	56
-46	-40	49
-135	-81	18
-209	-113	-40
-249	-127	-74
-247	-121	9
-206	-98	99
-140	-62	58
-63	-26	15
14	11	-17
83	50	61
140	96	119
182	143	61
204	179	-35
196	191	-128
156	166	-179
86	109	-243
-4	31	-180
-97	-50	-5
-179	-116	-63
-232	-161	-90
-251	-181	-95
-235	-182	-104
-189	-163	-36
-121	-125	-36
-40	-66	-11
46	4	36
128	75	128
189	130	135
226	154	94
230	147	-7
202	114	-170
149	77	-104
79	41	31
0	15	-93
-75	-8	-20
-140	-37	115
-191	-74	-9
-217	-111	-103
-214	-134	-163
-176	-128	-121
-109	-93	-185
-19	-29	-178
77	43	-54
159	105	-10
214	142	104
234	149	175
216	129	151
169	89	31
102	39	18
20	-16	142
-64	-71	63
-149	-124	56
-225	-166	24
-275	-191	-59
-290	-196	-144
-258	-174	-282
-182	-127	-246
-72	-65	-145
45	7	-27
153	82	11
228	149	-21
265	198	-103
266	222	-117
238	210	38
186	166	150
113	91	162
24	6	149
-72	-71	101
-164	-129	82
-232	-156	65
-262	-156	47
-252	-138	-23
-201	-115	-161
-126	-87	-292
-44	-48	-351
33	0	-215
94	61	-4
133	123	90
153	170	143
154	179	150
138	144	4
115	77	-50
87	-7	-32
57	-84	-112
22	-138	-150
-23	-166	-115
-79	-174	-31
-137	-167	12
-183	-150	39
-194	-118	143
-156	-62	209
-65	12	224
50	97	224
167	168	174
245	209	45
268	210	-96
237	177	-98
169	124	-135
83	68	-283
0	20	-372
-76	-24	-421
-139	-62	-254
-195	-102	-69
-237	-133	2
-255	-149	-38
-241	-141	-85
-193	-113	-1
-117	-74	37
-26	-32	122
62	5	137
139	35	189
194	66	130
223	100	38
222	128	10
189	138	3
126	117	64
40	60	70
-52	-19	39
-135	-99	-253
-191	-153	-153
-215	-166	84
-206	-142	-12
-169	-97	2
-116	-51	-37
-51	-17	-40
18	4	-98
89	25	-132
154	57	-89
202	99	-98
224	138	-134
210	155	-80
159	131	4
80	68	-24
-13	-19	42
-103	-99	37
-175	-150	14
-218	-157	21
-232	-131	-35
-216	-92	-111
-175	-51	-100
-111	-19	-71
-30	12	-130
64	46	30
158	90	166
237	132	177
279	160	181
273	153	84
216	109	4
122	40	-147
9	-37	-236
-97	-99	-237
-180	-131	-187
-232	-134	-23
-253	-114	116
-251	-87	173
-226	-60	117
-174	-38	12
-91	-16	-119
19	9	-290
141	38	-209
250	67	10
314	90	167
324	100	213
268	90	9
172	58	-99
59	12	-75
-42	-41	71
-121	-87	136
-173	-114	41
-205	-115	-43
-218	-98	-185
-217	-71	-273
-197	-49	-276
-152	-37	-71
-87	-32	120
-5	-23	163
79	4	129
152	50	47
201	106	-20
221	154	-60
206	169	-106
158	139	-59
85	77	28
-5	-2	-88
-96	-78	-124
-174	-127	86
-223	-152	134
-237	-153	24
-215	-136	-99
-162	-107	-313
-86	-59	-215
5	6	-17
94	81	44
172	148	116
229	187	21
248	183	124
230	140	111
178	75	-3
100	5	-104
12	-46	-267
-74	-81	-194
-149	-99	-174
-205	-116	-76
-241	-135	53
-248	-149	142
-223	-144	178
-162	-114	112
-71	-54	109
35	19	112
140	89	70
222	139	-23
268	165	-47
269	165	-43
237	150	-49
172	122	-59
95	82	-101
8	25	-93
-81	-45	-113
-165	-118	-40
-232	-178	112
-271	-205	85
-271	-191	-45
-227	-139	-189
-143	-68	-163
-40	4	-52
62	60	-96
148	95	-104
200	112	-100
216	119	-64
207	117	-23
172	106	-34
121	81	-5
55	39	30
-16	-15	87
-93	-69	144
-163	-114	181
-216	-136	174
-242	-136	155
-235	-116	93
-191	-87	-19
-117	-49	-162
-24	-8	-249
76	36	-129
169	82	-103
238	120	-172
271	140	-102
262	138	-123
216	109	-161
137	67	-165
42	22	-114
-56	-16	44
-150	-44	155
-232	-68	127
-291	-91	64
-321	-115	140
-300	-129	76
-226	-124	-65
-92	-94	-53
77	-39	-17
238	26	1
351	86	-74
384	123	-170
334	133	-184
225	116	-57
97	80	-8
-14	29	72
-86	-28	149
-123	-90	37
-141	-143	-39
-160	-178	-157
-184	-187	-186
-201	-162	-144
-195	-112	-186
-154	-49	-170
-77	10	-111
23	55	-62
118	86	85
188	106	144
222	124	160
216	133	176
184	134	141
129	116	141
61	77	62
-17	22	4
-96	-37	-63
-170	-89	-130
-225	-121	-206
-248	-131	-263
-232	-122	-62
-180	-101	131
-101	-66	109
-7	-24	99
85	26	110
162	79	190
214	126	83
237	157	-212
226	162	-207
183	138	-86
113	91	-54
24	24	-30
-67	-49	-12
-152	-112	-58
-212	-160	-72
-245	-183	-84
-245	-176	-63
-218	-143	-40
-168	-89	-25
-103	-21	-24
-28	50	-40
52	113	-34
129	157	-42
199	175	3
251	168	40
276	134	29
262	79	-1
210	14	19
120	-53	32
4	-114	-9
-118	-160	-49
-224	-187	-68
-287	-189	-6
-299	-166	-45
-253	-117	-112
-162	-47	-58
-45	31	16
71	105	44
169	157	15
234	177	3
261	164	-4
252	126	55
211	78	128
144	34	152
56	4	74
-43	-14	-25
-148	-29	-251
-241	-51	-452
-310	-83	-252
-342	-118	-147
-325	-145	-38
-264	-152	27
-162	-130	-4
-26	-84	93
120	-25	3
253	34	12
346	80	17
387	106	93
363	115	211
283	106	124
169	84	8
45	49	-154
-66	6	-312
-153	-42	-234
-211	-89	97
-243	-127	89
-249	-151	78
-229	-150	104
-181	-126	30
-106	-78	6
-12	-8	-150
87	70	-228
172	147	-309
225	197	-215
236	211	-133
204	183	-103
143	122	-17
62	43	43
-23	-33	121
-103	-90	143
-169	-123	163
-212	-132	164
-231	-126	108
-216	-109	59
-176	-82	0
-113	-44	-92
-38	-1	-106
36	39	-40
100	71	-8
149	89	-19
180	95	19
193	90	-54
186	81	-99
151	66	-59
92	41	-69
7	1	42
-88	-58	4
-177	-121	-204
-239	-168	-222
-255	-179	-58
-224	-145	-14
-151	-79	115
-54	1	187
46	68	48
133	106	-7
195	116	-94
229	109	-124
230	100	-112
204	94	-89
152	87	-63
83	64	-55
0	20	-5
-80	-47	15
-152	-116	22
-203	-170	36
-232	-189	47
-233	-169	17
-208	-119	-11
-161	-63	-34
-94	-16	-34
-14	18	-24
72	41	-20
151	67	-10
207	98	-1
228	127	33
208	144	-24
155	134	-77
76	92	-95
-10	30	-85
-87	-34	58
-140	-82	186
-168	-104	216
-166	-106	188
-141	-101	149
-97	-96	139
-40	-92	-42
25	-77	-331
91	-38	-424
148	23	-447
189	95	-332
203	153	-51
188	171	80
147	143	133
88	78	64
18	0	-1
-52	-66	61
-119	-105	10
-176	-119	14
-214	-116	85
-232	-112	108
-217	-105	115
-173	-92	-28
-97	-59	-83
-3	-4	-79
93	65	-108
175	135	-14
226	179	-171
238	187	-251
211	158	-109
154	98	-96
75	23	-91
-12	-51	-123
-96	-116	-107
-166	-162	-121
-215	-183	-111
-237	-176	44
-229	-145	93
-189	-95	138
-122	-40	174
-37	13	129
57	57	12
140	95	-16
207	129	37
242	158	63
242	174	123
204	166	89
137	123	33
53	49	-41
-31	-35	-111
-103	-108	-137
-153	-151	-121
-181	-157	-75
-188	-139	-30
-181	-114	-26
-160	-96	-75
-121	-81	-88
-65	-58	-48
5	-19	-28
84	40	-16
151	105	29
192	157	51
194	171	51
153	153	3
75	105	-117
-22	43	-120
-120	-15	-45
-195	-65	-13
-239	-108	29
-236	-145	86
-188	-171	79
-109	-175	38
-12	-151	48
83	-93	-14
162	-14	-78
219	65	-100
253	129	-71
270	165	-62
269	171	6
250	155	68
202	123	54
126	82	124
23	31	78
-91	-27	-21
-198	-87	-124
-277	-137	-178
-316	-173	-195
-311	-178	-149
-267	-160	-28
-191	-119	-57
-98	-66	-128
3	-8	-189
101	46	-144
175	96	5
224	134	130
232	154	108
201	154	60
144	131	28
71	89	-84
-8	35	-117
-86	-23	-79
-159	-78	-41
-227	-123	-58
-272	-154	99
-285	-164	225
-249	-150	162
-159	-112	8
-32	-54	-307
105	15	-339
221	79	-217
287	127	-12
294	149	138
252	139	94
180	106	162
100	55	97
26	-1	-4
-39	-54	-91
-99	-97	-161
-156	-125	-117
-202	-135	-38
-233	-130	-8
-230	-108	-47
-188	-71	-30
-108	-26	-2
-6	25	47
95	72	114
179	117	85
229	148	-32
245	163	-113
229	163	2
189	142	196
131	102	225
57	41	205
-26	-28	182
-112	-99	35
-189	-155	-75
-244	-183	-190
-260	-176	-267
-239	-138	-289
-184	-82	-341
-109	-21	-331
-30	34	-311
40	80	-203
97	114	14
140	136	1
172	145	-107
196	130	65
201	89	150
183	21	126
129	-62	92
46	-143	19
-59	-200	10
-164	-218	-7
-241	-200	-12
-268	-153	-32
-237	-90	-53
-156	-27	-98
-49	30	-14
50	81	103
123	125	110
151	158	134
143	174	183
114	161	189
82	118	48
57	51	-92
39	-25	-180
21	-90	-150
-7	-127	-84
-48	-137	-50
-97	-124	11
-136	-101	-25
-152	-76	-51
-131	-52	-106
-75	-23	-93
6	14	-27
99	65	-66
183	121	-5
241	169	65
260	189	108
236	169	161
170	114	131
78	36	-70
-24	-43	-226
-118	-109	-171
-191	-150	-168
-237	-167	-161
-255	-167	-126
-248	-154	-63
-217	-132	52
-164	-98	126
-88	-51	181
8	9	161
107	72	61
194	127	-76
248	168	-282
260	181	-351
226	169	-62
159	131	171
67	76	135
-24	5	89
-113	-70	51
-184	-138	26
-233	-186	-40
-253	-198	-88
-237	-174	-133
-187	-114	-143
-107	-37	-119
-12	40	-127
82	101	-163
159	138	-268
210	155	-114
230	154	3
221	138	48
186	108	202
127	62	105
52	1	123
-34	-70	71
-119	-133	-56
-189	-177	-95
-232	-190	-132
-239	-173	-67
-210	-131	-28
-152	-83	37
-77	-33	24
11	17	-6
95	62	-48
167	110	-125
216	150	-54
231	174	152
204	174	164
140	141	56
52	80	175
-42	-2	221
-123	-79	161
-176	-140	94
-191	-173	-40
-180	-178	-215
-144	-163	-359
-102	-130	-351
-55	-88	-328
-4	-33	-278
50	25	-118
109	88	-45
163	143	-44
202	179	85
212	186	253
188	156	207
129	97	90
49	19	49
-38	-58	8
-117	-119	72
-178	-152	4
-219	-152	-124
-237	-127	-139
-237	-90	-135
-214	-48	-149
-165	-11	-76
-87	24	87
15	55	95
128	83	76
234	106	-17
302	120	-61
327	117	-69
292	95	-84
211	49	-21
101	-11	-81
-19	-77	-61
-126	-138	9
-207	-181	14
-253	-196	-42
-258	-183	-45
-228	-141	2
-168	-84	-22
-86	-19	-13
3	41	7
87	93	28
154	128	48
192	149	71
201	154	43
180	141	3
135	120	-19
79	85	-127
19	41	-179
-39	-7	57
-91	-57	185
-136	-104	152
-173	-138	198
-193	-153	87
-190	-144	-16
-156	-107	-215
-91	-47	-334
-1	24	-397
90	90	-391
165	135	-166
206	150	-23
206	134	74
172	99	106
117	51	13
55	8	-70
-5	-32	14
-65	-66	32
-125	-99	43
-181	-127	93
-224	-143	41
-234	-140	58
-200	-111	30
-123	-59	28
-17	3	-86
97	63	-149
192	109	-39
248	137	-126
260	148	-121
231	147	86
170	130	94
86	99	69
-11	45	-28
-112	-27	-150
-202	-109	-31
-263	-183	1
-284	-226	39
-252	-225	56
-177	-181	42
-79	-108	37
20	-29	17
101	39	49
150	85	16
175	113	3
182	128	-18
182	136	-46
172	138	-89
147	125	-102
97	95	-113
20	39	-122
-72	-29	-106
-167	-103	-173
-234	-159	-138
-262	-189	-9
-243	-185	85
-180	-144	54
-87	-80	-41
17	2	-110
114	83	-147
188	145	-79
230	180	62
236	179	91
206	147	89
154	92	54
85	28	3
10	-33	20
-61	-81	16
-126	-116	6
-181	-140	-27
-219	-150	-85
-234	-150	-95
-221	-132	-13
-174	-102	-45
-102	-57	-235
-12	-1	-186
81	53	26
156	104	16
206	140	29
221	162	77
198	162	62
145	143	108
69	104	53
-15	47	24
-93	-15	-18
-144	-79	-101
-162	-126	-97
-144	-153	21
-102	-155	91
-48	-131	77
-2	-95	115
32	-49	112
58	-3	36
84	41	69
115	81	24
154	112	-51
184	132	12
190	136	-136
159	119	-331
88	78	-444
-7	18	-369
-108	-51	-267
-190	-113	-211
-245	-159	-22
-262	-181	46
-249	-173	21
-206	-140	59
-140	-92	89
-55	-34	74
37	22	56
124	72	36
191	110	34
224	138	22
222	150	32
190	145	67
138	120	106
78	78	87
9	21	1
-61	-38	-82
-135	-92	-136
-199	-127	-135
-242	-140	-35
-247	-135	56
-209	-113	6
-132	-84	1
-32	-46	-5
66	-2	9
151	49	60
208	106	85
234	152	101
223	178	39
178	170	-38
102	125	-134
2	53	-193
-107	-32	-170
-205	-110	-96
-271	-167	-32
-294	-192	11
-267	-189	-51
-205	-161	-104
-112	-116	-57
-7	-62	-23
98	-4	96
193	50	183
267	100	150
310	131	66
311	147	-54
270	139	-144
194	114	-157
94	74	-102
-15	27	-180
-118	-16	-76
-202	-54	130
-260	-81	34
-287	-96	130
-280	-102	72
-241	-94	-157
-170	-71	-159
-80	-33	-218
16	19	-401
103	77	-303
171	122	52
216	136	234
244	116	249
255	57	183
250	-19	87
215	-93	-6
148	-141	-67
44	-160	-92
-80	-153	-43
-197	-133	14
-277	-111	0
-295	-92	-52
-245	-68	-97
-144	-32	-80
-28	19	-16
77	80	-48
149	137	-54
184	173	52
188	183	-5
172	166	-23
141	128	-43
97	81	-89
34	27	152
-47	-26	343
-134	-81	160
-209	-122	-39
-252	-143	-157
-253	-134	-538
-209	-93	-598
-141	-32	-145
-57	28	24
22	70	63
89	84	103
140	72	74
174	53	124
189	44	84
182	49	91
150	62	54
89	62	4
6	37	-8
-89	-22	-11
-173	-97	28
-231	-166	25
-248	-201	54
-217	-190	60
-153	-140	56
-65	-69	5
23	-1	-29
98	50	2
156	87	49
195	109	76
214	128	-10
213	139	-141
191	139	-250
142	117	-238
71	72	-124
-13	10	-30
-98	-52	-3
-172	-102	19
-223	-129	-10
-250	-132	-35
-252	-122	-26
-228	-102	-147
-174	-79	-111
-89	-52	-57
22	-18	-60
147	22	13
255	68	-7
325	110	-84
336	141	-37
284	152	90
188	133	77
66	85	-36
-53	6	40
-154	-82	106
-223	-163	-10
-260	-213	21
-264	-222	3
-240	-181	-17
-185	-111	24
-104	-33	32
-6	36	-6
94	86	-79
179	121	-123
237	144	-221
254	162	-181
234	168	-86
175	151	-4
99	105	10
9	27	-40
-80	-63	41
-156	-144	87
-214	-192	9
-244	-198	-93
-243	-167	-55
-205	-113	-72
-137	-57	-97
-48	-8	-16
46	33	-31
131	71	20
191	111	32
214	148	52
202	171	84
152	174	56
79	149	31
-4	94	-30
-76	23	-38
-124	-52	-35
-140	-120	-67
-127	-170	-50
-95	-194	-5
-58	-191	20
-29	-160	6
-6	-106	-35
15	-37	-11
46	30	8
91	89	24
143	128	102
188	143	108
203	137	-16
179	114	-106
114	77	-151
25	28	-168
-69	-24	-78
-148	-77	-163
-200	-118	-213
-225	-142	-53
-225	-144	54
-205	-125	63
-167	-93	22
-109	-48	-57
-32	-5	-184
54	38	-85
139	79	8
202	116	20
230	144	129
214	155	155
163	143	93
81	103	-42
-18	45	-192
-117	-19	-144
-205	-77	53
-269	-119	41
-300	-142	-46
-287	-150	-53
-232	-145	-9
-135	-129	-23
-13	-102	-87
119	-59	-136
239	-4	-183
324	56	-131
358	108	-64
336	138	20
267	139	80
165	114	104
53	68	62
-47	17	42
-125	-32	122
-177	-70	112
-214	-100	70
-241	-114	50
-260	-114	60
-260	-94	123
-228	-52	66
-144	5	-72
-15	70	-243
139	131	-439
280	174	-312
371	194	-24
381	185	-77
309	147	-90
181	81	-39
33	-2	10
-93	-95	125
-180	-178	40
-217	-237	65
-221	-257	134
-202	-237	87
-174	-185	38
-139	-114	78
-88	-44	96
-19	20	-7
64	74	-53
150	120	-170
216	159	-256
245	186	-197
229	191	-123
169	164	-19
81	106	38
-16	25	-15
-109	-61	-14
-183	-135	-29
-236	-180	-50
-259	-188	1
-252	-166	57
-209	-117	-14
-135	-54	-58
-38	12	26
66	76	24
156	128	40
212	164	69
226	179	68
197	171	42
138	143	-12
65	100	-112
-10	41	-190
-77	-27	-107
-126	-98	-36
-159	-163	-18
-169	-210	-10
-159	-229	-21
-129	-210	-2
-87	-160	59
-37	-88	64
11	-7	20
52	65	-22
86	124	-103
113	164	-148
134	183	-138
151	183	-69
164	162	-47
166	116	-25
151	49	45
110	-27	4
42	-101	41
-48	-158	-2
-143	-188	-74
-225	-189	-39
-264	-166	-62
-249	-125	-12
-176	-72	55
-59	-14	127
68	47	141
178	106	145
241	155	-23
249	181	-328
208	178	-302
133	147	-126
42	90	-46
-51	21	29
-138	-51	137
-215	-114	120
-267	-161	43
-287	-191	-7
-262	-196	-109
-194	-175	-181
-91	-127	-134
26	-58	-86
132	20	20
211	96	119
253	153	67
262	183	11
244	188	-77
205	168	-190
148	125	-92
72	68	18
-19	0	-25
-117	-70	7
-207	-131	-53
-274	-174	-48
-307	-185	44
-302	-164	135
-262	-115	175
-195	-49	59
-108	20	8
-4	85	-153
110	135	-314
226	168	-184
322	174	41
373	157	126
371	109	24
299	35	-90
172	-47	-92
26	-126	-15
-112	-181	32
-208	-204	44
-253	-192	44
-250	-158	104
-212	-110	181
-156	-58	29
-94	-7	-161
-32	45	-257
26	96	-340
81	142	-254
127	174	-32
163	186	17
182	168	13
183	120	54
162	54	33
113	-21	61
37	-89	37
-57	-143	-10
-162	-178	-23
-247	-187	-30
-287	-173	-16
-264	-130	-19
-185	-67	51
-67	6	68
52	78	41
143	131	30
187	160	-12
184	159	-36
159	142	-55
126	115	-51
100	85	-22
77	51	-15
42	9	11
-12	-42	68
-88	-100	71
-164	-148	1
-221	-173	-127
-233	-161	-260
-198	-116	-172
-122	-49	-25
-28	19	-62
62	68	-81
132	93	-17
172	92	38
184	76	74
166	57	123
125	39	112
65	19	15
-4	-7	-30
-81	-44	-84
-150	-88	-214
-201	-127	-268
-232	-151	-169
-228	-151	-60
-193	-123	-4
-127	-77	113
-40	-18	140
58	39	109
148	92	122
216	135	71
253	166	-11
248	181	-23
209	174	62
141	147	20
60	91	-113
-26	20	-306
-103	-58	-214
-164	-127	63
-198	-175	15
-202	-194	142
-181	-179	117
-137	-137	21
-84	-74	-32
-28	-1	-218
24	70	-298
74	129	-374
121	168	-214
169	178	36
206	158	127
226	113	83
212	51	3
162	-16	-78
79	-80	22
-21	-130	41
-116	-163	-32
-187	-179	41
-222	-175	38
-221	-154	37
-184	-117	24
-123	-66	-8
-45	-8	-9
40	55	39
123	113	69
190	157	68
226	178	54
223	171	-12
178	138	-13
101	82	-30
7	21	2
-89	-38	49
-173	-80	48
-239	-101	-26
-281	-102	-128
-300	-90	-186
-285	-67	-327
-237	-41	-243
-150	-16	29
-35	10	16
90	32	-38
206	51	12
291	62	34
331	65	22
318	58	12
260	39	43
167	7	54
58	-33	40
-50	-78	21
-138	-118	23
-194	-149	14
-212	-156	101
-195	-141	186
-156	-105	213
-98	-53	84
-35	8	-184
29	68	-332
89	124	-476
140	169	-328
175	193	-28
184	191	5
165	157	37
115	92	-5
45	8	-19
-30	-82	28
-100	-153	31
-158	-195	48
-199	-200	16
-224	-174	-27
-228	-127	-104
-204	-79	-128
-152	-30	-108
-72	16	-48
21	60	2
115	105	50
190	143	31
238	171	-32
253	174	51
238	155	81
197	110	105
129	47	213
36	-22	187
-74	-88	56
-185	-140	-32
-272	-173	-86
-308	-180	-77
-281	-159	-91
-195	-110	-153
-75	-41	-223
45	32	-353
140	97	-337
192	141	-108
202	159	-36
182	149	7
145	114	85
101	68	32
52	16	81
3	-35	141
-50	-83	116
-99	-121	4
-141	-149	-106
-169	-161	-67
-178	-152	-4
-167	-125	11
-130	-76	38
-71	-14	15
9	53	-16
101	114	-6
188	158	-92
250	174	-202
269	163	-108
245	127	-17
175	72	-7
79	13	-17
-27	-48	49
-128	-103	126
-209	-149	83
-264	-176	11
-295	-183	-95
-289	-166	-78
-256	-120	-71
-191	-53	-38
-107	23	-10
-12	98	-20
86	150	-3
171	177	-21
234	174	-3
263	154	-30
258	116	-15
214	70	29
140	20	2
50	-36	-86
-37	-94	-25
-106	-150	70
-142	-188	44
-144	-201	34
-117	-182	-10
-68	-132	-43
-9	-63	-91
54	13	-47
113	84	-11
166	137	-44
199	169	-58
211	178	-60
192	162	-25
139	123	-54
59	67	-20
-36	2	34
-130	-64	94
-212	-117	219
-262	-144	250
-282	-144	137
-264	-122	-113
-215	-84	-462
-141	-37	-505
-51	6	-210
39	41	-32
118	67	25
171	83	-8
196	85	-31
187	80	-83
154	62	-57
103	38	24
42	8	34
-22	-26	72
-89	-63	49
-153	-99	37
-206	-125	58
-235	-138	24
-229	-127	-69
-182	-95	-47
-102	-41	-64
-6	21	-88
82	79	21
149	120	0
184	142	21
194	142	79
184	126	77
160	97	43
122	56	-35
66	7	-99
-6	-44	-130
-91	-89	-136
-169	-119	-96
-226	-129	-40
-246	-119	20
-225	-94	70
-169	-64	-56
-89	-35	-99
6	-7	56
105	25	173
199	62	132
279	103	-1
325	135	-118
318	147	-279
245	129	-308
111	83	-92
-60	15	-39
-236	-61	-51
-366	-134	-48
-420	-194	42
-383	-236	131
-262	-246	95
-89	-222	79
94	-151	-20
245	-45	7
343	77	-3
373	186	-48
345	251	-40
275	257	-39
195	211	-21
115	138	-12
48	67	-45
-10	18	-49
-65	-10	-20
-126	-30	-81
-191	-56	-61
-248	-95	71
-280	-135	183
-275	-162	127
-228	-153	8
-144	-108	-79
-43	-39	-87
57	35	-99
137	96	-144
188	132	-22
208	149	-58
195	145	-202
157	123	-182
93	82	-57
14	22	8
-74	-54	34
-156	-126	91
-217	-175	30
-245	-188	17
-239	-161	42
-198	-109	49
-133	-47	84
-56	3	84
21	40	109
91	67	90
148	95	32
188	121	-105
211	147	-272
212	152	-203
187	127	-131
136	67	-140
59	-15	-72
-33	-98	-95
-130	-163	-79
-213	-192	56
-264	-186	93
-273	-154	74
-236	-107	8
-156	-60	-120
-50	-13	-138
66	33	-4
175	82	45
256	126	4
296	158	15
284	163	74
228	135	87
133	81	22
26	8	-12
-75	-59	17
-156	-108	-6
-206	-129	-52
-231	-126	-84
-233	-111	-143
-217	-90	-11
-181	-71	-44
-120	-51	-116
-32	-24	-120
74	11	-140
175	53	-9
254	92	4
283	119	76
258	128	90
188	118	122
93	95	118
-7	63	-67
-95	28	-151
-162	-8	-116
-203	-46	-21
-217	-84	5
-204	-111	62
-162	-121	91
-100	-109	66
-28	-72	62
40	-22	-78
97	32	-164
139	80	-181
172	110	-265
197	120	-169
204	108	6
186	77	36
130	28	59
41	-30	28
-67	-92	16
-161	-142	0
-213	-173	-41
-208	-176	-76
-158	-152	-94
-87	-111	-12
-24	-60	-41
15	-15	-85
39	25	46
60	61	119
93	93	49
136	126	51
172	149	49
175	157	-54
131	139	-97
42	100	49
-64	40	87
-167	-29	11
-240	-93	-14
-276	-139	-74
-279	-161	-35
-255	-157	-2
-208	-125	54
-135	-78	101
-34	-21	78
87	36	-113
211	86	-374
312	123	-311
363	142	-121
351	143	-64
280	124	41
171	83	63
45	22	47
-76	-51	121
-175	-121	76
-248	-173	-8
-288	-188	-77
-296	-166	-117
-270	-108	-248
-212	-33	-265
-126	38	-14
-23	89	-3
86	117	-13
191	126	83
276	122	24
327	111	26
329	92	-28
275	56	10
172	8	64
33	-53	43
-108	-115	46
-226	-164	-9
-291	-186	-33
-300	-179	-63
-262	-149	-34
-190	-100	12
-107	-45	81
-23	10	152
54	65	107
125	117	74
182	162	28
216	190	-177
219	194	-241
183	165	-140
111	106	-150
16	28	-70
-81	-54	-43
-162	-123	-35
-214	-164	7
-232	-170	-2
-214	-145	53
-172	-99	10
-104	-49	-24
-24	-7	-56
60	22	-85
136	38	-12
193	52	25
216	67	49
211	93	26
175	114	18
119	121	32
52	99	11
-15	45	4
-79	-29	-18
-133	-109	-34
-175	-168	-8
-199	-192	78
-201	-179	100
-178	-133	24
-130	-71	-91
-63	-7	-314
11	51	-326
83	101	-160
145	134	-131
191	153	-35
219	152	-11
226	128	-23
209	88	-16
159	35	15
79	-20	81
-28	-69	91
-143	-108	149
-247	-134	105
-312	-144	9
-321	-136	-267
-276	-107	-332
-181	-57	-71
-60	3	-21
64	64	130
171	109	162
253	128	62
302	124	51
319	102	-22
300	72	-7
237	40	-54
135	7	-20
3	-32	-11
-135	-81	-59
-253	-130	-86
-321	-167	-59
-325	-176	43
-272	-151	124
-186	-94	163
-96	-23	34
-25	43	-125
17	98	-409
37	131	-560
51	156	-242
68	168	116
90	168	247
107	138	274
107	79	201
86	-12	145
49	-110	53
9	-188	-53
-16	-222	-147
-22	-200	-215
-10	-143	-222
10	-77	-168
29	-25	-59
44	5	26
63	22	90
87	40	170
121	77	168
154	121	57
172	159	-25
163	168	-125
117	136	-194
39	77	-172
-57	4	-17
-156	-59	49
-236	-105	40
-295	-133	63
-320	-145	17
-312	-151	24
-262	-137	-13
-177	-104	-57
-59	-44	-88
72	31	-33
191	103	12
269	152	42
291	163	70
254	143	-34
172	104	-80
71	59	-81
-28	17	-102
-107	-23	2
-158	-63	143
-180	-104	94
-180	-131	-27
-162	-140	-189
-128	-117	-390
-87	-72	-382
-36	-16	-109
18	30	116
76	56	141
129	66	122
175	68	56
204	74	51
207	82	21
175	85	19
107	69	143
16	26	142
-87	-35	84
-175	-100	15
-234	-145	-190
-253	-158	-363
-237	-137	-228
-191	-93	-96
-130	-42	-95
-59	4	12
18	43	135
97	79	95
170	106	65
225	129	55
252	135	-30
239	115	-74
186	72	-123
98	12	-152
-10	-48	-163
-125	-96	-118
-226	-119	-46
-300	-120	14
-333	-109	57
-310	-92	87
-226	-75	37
-86	-53	2
88	-25	24
261	14	28
390	62	104
439	108	56
396	141	41
269	149	21
104	127	-142
-59	77	-150
-178	11	-64
-241	-62	-72
-248	-131	-93
-226	-186	5
-191	-218	82
-154	-219	16
-108	-183	-42
-38	-111	-53
52	-13	-76
159	86	-84
253	170	-99
308	215	-71
306	221	44
253	194	98
167	149	59
71	103	-57
-12	63	-272
-84	26	-161
-144	-17	96
-209	-68	96
-269	-129	169
-318	-181	98
-325	-208	15
-285	-196	40
-191	-147	29
-62	-67	2
69	20	-82
175	98	-170
242	152	-176
258	174	-116
237	171	-178
193	149	-77
136	104	-3
70	51	26
-5	-9	89
-91	-68	-34
-173	-120	-50
-239	-157	14
-269	-170	-7
-258	-163	-9
-202	-129	-12
-120	-82	-57
-31	-23	-16
48	36	7
104	89	36
139	126	117
156	140	128
162	134	90
158	106	26
151	64	-102
129	15	-62
89	-33	57
28	-77	-22
-51	-110	-116
-136	-133	-94
-209	-144	46
-245	-139	45
-232	-118	16
-172	-75	-11
-79	-15	-226
20	55	-249
97	126	-242
139	181	-349
148	210	-127
133	205	43
118	166	-18
111	100	-52
109	15	-223
103	-71	-88
76	-152	38
22	-208	104
-52	-241	118
-126	-241	57
-173	-208	84
-172	-148	18
-117	-66	70
-23	22	71
85	103	155
175	163	204
228	195	118
226	195	14
176	170	-163
98	129	-228
7	77	-116
-82	15	-41
-159	-52	-66
-223	-121	3
-267	-179	30
-291	-213	-38
-285	-210	-33
-236	-163	-38
-143	-83	-16
-16	13	-7
118	101	-11
232	162	-25
292	190	-57
295	189	14
240	165	24
154	130	31
60	84	35
-14	27	-33
-63	-38	-2
-92	-106	-1
-108	-160	-127
-121	-192	-151
-134	-188	-60
-141	-155	10
-132	-102	7
-97	-41	11
-32	17	29
51	69	-4
135	114	-9
201	152	2
229	171	67
210	169	60
148	133	51
57	68	-37
-44	-13	-156
-136	-94	-70
-208	-152	-82
-248	-176	-89
-259	-166	-41
-245	-130	-9
-209	-83	-35
-157	-35	-71
-90	7	-89
-15	41	-114
66	71	9
150	97	48
229	116	39
291	123	31
323	116	-69
311	88	-208
245	41	-227
135	-20	-149
-5	-85	-102
-144	-144	-47
-253	-184	-41
-303	-195	60
-287	-177	128
-217	-127	101
-112	-59	48
-2	17	-17
95	85	-100
161	135	-84
197	161	12
203	160	24
184	135	16
140	94	-44
77	48	-13
-3	2	55
-93	-35	74
-178	-60	87
-248	-81	130
-291	-92	106
-302	-100	21
-269	-99	-54
-193	-86	-241
-74	-55	-205
71	-5	-199
221	55	-129
340	116	34
399	158	-111
383	168	34
299	137	147
170	76	103
32	-2	65
-83	-79	-30
-166	-134	-50
-216	-163	-96
-247	-163	71
-263	-143	94
-263	-114	-173
-241	-84	-199
-176	-54	-41
-72	-23	-98
53	15	-31
175	61	37
262	109	-30
299	150	4
278	170	28
221	165	47
139	133	-25
52	84	24
-33	26	77
-118	-32	66
-198	-81	32
-262	-123	-17
-295	-158	-62
-280	-177	-81
-212	-178	-28
-100	-151	-32
33	-96	8
156	-17	52
244	67	12
280	138	-6
270	179	2
223	182	-65
150	154	-89
64	101	-102
-30	44	-90
-124	-8	-54
-211	-45	-12
-273	-69	-10
-295	-85	-134
-260	-92	-250
-174	-99	-336
-50	-102	-170
79	-97	57
183	-72	152
242	-29	192
253	29	81
229	96	-76
187	145	-33
144	163	30
104	138	-81
60	79	-50
2	-5	-58
-76	-89	-140
-162	-150	-74
-239	-178	-11
-281	-172	-4
-279	-140	32
-231	-96	77
-147	-48	66
-50	-6	52
42	37	52
121	78	83
180	117	98
215	148	76
225	161	-2
198	150	-46
132	110	-41
29	53	36
-95	-14	80
-217	-74	152
-303	-116	36
-325	-134	-203
-279	-127	-226
-173	-104	-352
-35	-65	-193
99	-25	19
201	14	-20
257	42	22
269	59	1
253	66	-46
226	65	-48
193	63	-93
148	59	-127
77	53	-114
-20	37	-50
-139	9	39
-248	-32	123
-318	-80	129
-321	-117	64
-255	-135	-4
-139	-126	-184
-10	-94	-243
97	-50	-35
163	-5	-1
184	30	-11
183	60	74
172	86	-12
166	109	43
159	123	108
139	121	61
97	93	51
25	36	-4
-67	-34	-20
-164	-106	-45
-241	-153	-25
-281	-168	38
-279	-148	39
-235	-102	-15
-158	-48	-83
-65	7	-45
21	51	-46
91	89	-61
133	118	-17
154	136	-27
154	138	-41
149	122	-80
138	85	-36
123	33	-7
91	-24	-39
34	-82	26
-48	-126	53
-141	-157	47
-215	-167	32
-245	-154	-81
-213	-120	-217
-126	-68	-174
-9	-6	-104
105	57	-36
187	111	63
225	145	5
216	157	-75
182	143	-105
130	113	-65
74	66	35
9	11	41
-60	-47	-37
-135	-101	-164
-204	-137	-113
-255	-154	-53
-276	-148	-92
-262	-120	91
-226	-80	196
-163	-32	147
-88	14	94
0	58	116
100	93	25
206	120	21
306	130	74
374	123	29
396	98	43
344	56	-128
226	5	-267
64	-47	-331
-104	-93	-276
-237	-129	-282
-308	-154	-257
-308	-164	-60
-251	-157	9
-162	-127	150
-65	-80	187
19	-13	164
87	57	191
140	119	120
175	164	-27
191	182	-170
175	171	-89
131	137	-54
57	83	-32
-27	17	-25
-106	-49	-34
-166	-108	32
-193	-144	-76
-195	-153	-6
-176	-136	74
-142	-98	27
-94	-49	30
-31	2	34
46	53	26
132	100	25
205	141	91
248	171	13
245	178	46
196	152	49
110	90	-14
7	3	-20
-93	-90	-98
-170	-166	-211
-222	-206	-275
-245	-203	-186
-243	-172	-154
-218	-124	-77
-171	-76	-14
-103	-31	29
-19	8	24
68	45	42
143	89	122
192	131	134
202	162	204
175	169	152
122	150	11
57	103	-72
-4	36	-230
-48	-34	-248
-77	-102	43
-90	-155	106
-97	-190	27
-99	-199	-13
-95	-178	-352
-76	-126	-565
-34	-45	-172
25	47	152
95	131	80
151	188	89
182	202	26
172	174	-9
133	117	-17
79	54	-44
24	-4	-52
-18	-47	-59
-52	-83	-14
-88	-115	12
-132	-149	68
-177	-177	-24
-207	-184	-1
-195	-160	137
-134	-98	79
-31	-11	69
89	77	-21
186	149	-9
234	182	81
216	183	-93
159	160	-261
82	124	-295
17	81	-178
-26	35	-20
-47	-17	152
-63	-77	300
-90	-131	290
-125	-171	237
-159	-181	72
-169	-157	-144
-140	-101	-205
-70	-27	-340
24	45	-410
118	110	-310
183	152	-172
204	169	-27
182	158	6
128	120	106
64	60	194
4	-8	187
-46	-72	133
-93	-118	133
-136	-135	79
-184	-127	-97
-229	-106	-250
-256	-84	-241
-247	-66	-116
-190	-55	27
-85	-44	91
50	-21	16
184	14	-10
280	57	-45
314	97	-30
279	122	-78
188	124	-119
74	101	-49
-28	59	-51
-93	7	-40
-118	-47	13
-117	-100	55
-110	-141	86
-111	-163	105
-120	-160	87
-122	-129	86
-97	-78	54
-36	-12	54
52	49	62
147	100	-19
216	134	-80
245	149	-87
226	149	-104
167	134	-76
89	106	-67
9	62	-37
-63	10	-112
-128	-46	-228
-185	-96	55
-228	-125	190
-245	-131	152
-229	-115	76
-176	-85	-28
-92	-44	-35
4	-4	-170
94	33	-136
159	68	-157
200	97	-87
211	116	-30
203	120	-88
172	103	-70
122	67	-48
49	16	91
-40	-42	62
-136	-101	66
-218	-145	164
-269	-171	-12
-272	-171	-102
-225	-143	81
-142	-92	174
-43	-23	243
49	49	-72
117	112	-479
151	154	-666
155	174	-706
137	171	-279
110	147	75
82	108	168
54	55	135
27	-9	-60
-6	-83	-66
-47	-149	94
-89	-198	100
-118	-214	108
-128	-192	137
-107	-139	111
-56	-69	118
7	6	52
69	74	45
108	127	45
120	165	20
107	181	111
87	170	189
75	129	13
81	60	-54
93	-25	-94
89	-106	-261
49	-163	-32
-35	-184	68
-145	-174	-113
-252	-144	-155
-311	-114	-222
-299	-89	-149
-215	-68	3
-92	-44	-7
34	-8	66
131	36	57
184	88	-27
209	129	-1
216	154	-7
222	157	-9
212	140	-38
170	110	-30
71	65	-37
-83	15	-60
-264	-37	-48
-431	-79	-31
-524	-98	2
-507	-87	32
-374	-47	52
-153	2	49
107	45	34
355	68	37
537	67	61
625	53	45
602	35	33
484	24	54
300	16	110
93	7	75
-90	-11	31
-215	-38	-60
-278	-65	-230
-287	-84	-252
-270	-90	-281
-248	-86	-210
-231	-80	-139
-204	-78	-67
-152	-77	-6
-65	-65	-50
46	-35	-31
157	14	-25
230	71	-15
241	116	-9
191	129	41
99	106	155
-6	57	263
-96	2	121
-160	-40	-124
-200	-61	-148
-221	-65	-294
-222	-66	-234
-199	-69	178
-145	-82	161
-59	-87	163
44	-72	140
147	-33	-17
221	29	-48
254	100	-111
244	154	-68
199	174	-96
130	155	-68
50	100	-119
-35	24	-188
-121	-48	-149
-195	-108	-134
-252	-144	-42
-270	-159	-66
-248	-151	-132
-183	-127	-13
-88	-92	133
22	-43	224
127	11	178
212	64	20
267	110	-155
285	143	-170
268	160	-119
212	156	-117
131	134	-23
32	91	-112
-72	29	-227
-172	-49	-5
-252	-125	87
-305	-189	77
-325	-218	112
-303	-203	44
-235	-144	31
-124	-56	40
17	35	11
167	106	4
299	142	123
383	145	116
401	123	116
346	95	123
238	67	47
88	41	-56
-70	10	-226
-215	-36	-287
-317	-93	-201
-361	-151	19
-339	-189	45
-253	-191	74
-119	-152	45
36	-75	-24
180	14	24
283	95	1
330	154	-14
319	179	-54
260	180	-47
175	162	-64
86	134	-54
7	99	40
-55	51	102
-104	-8	112
-139	-78	66
-166	-142	-1
-183	-190	-69
-194	-207	-139
-195	-188	-149
-186	-140	-105
-156	-78	-138
-102	-16	-226
-24	33	-306
68	71	-243
159	105	-117
228	131	-118
249	150	38
216	151	164
140	123	72
36	63	13
-75	-20	-27
-166	-106	-2
-229	-171	-15
-257	-198	55
-252	-183	65
-221	-137	32
-162	-78	80
-85	-21	11
7	27	-25
102	65	-30
182	100	69
234	131	154
245	151	176
216	156	187
152	135	149
69	90	76
-13	31	-60
-81	-27	-167
-126	-76	-319
-149	-109	-374
-151	-124	-140
-138	-127	-95
-116	-120	-102
-85	-101	87
-40	-66	-15
17	-21	-44
85	29	51
154	78	-29
209	110	-54
234	123	-101
216	112	40
163	81	22
75	37	-62
-24	-14	-47
-118	-60	-150
-188	-99	-105
-228	-121	-106
-235	-128	-31
-215	-118	-19
-173	-95	-63
-111	-60	-18
-32	-20	-16
55	24	57
140	72	61
209	115	98
242	148	190
231	163	185
171	153	181
71	116	127
-52	58	22
-176	-6	-72
-273	-69	-165
-325	-115	-282
-315	-141	-335
-247	-147	-190
-136	-133	-34
-16	-108	18
93	-72	155
169	-39	104
211	-7	-145
236	20	-5
257	41	55
283	59	-91
302	71	-118
297	80	-69
236	74	12
116	51	-20
-41	11	20
-195	-41	-71
-305	-90	-224
-347	-116	-103
-325	-110	30
-273	-74	25
-223	-17	90
-193	41	120
-172	86	104
-132	112	86
-42	120	-30
101	121	-122
273	112	-121
420	98	15
486	69	16
446	22	27
299	-41	65
91	-112	16
-122	-169	28
-280	-199	-13
-355	-196	-47
-342	-166	-113
-260	-118	-116
-145	-63	-97
-28	-13	-71
67	35	10
133	81	-41
170	123	-94
184	157	-61
180	174	-71
159	171	-114
116	140	-74
49	89	65
-35	20	184
-133	-49	191
-224	-111	160
-289	-154	84
-315	-169	9
-291	-157	4
-225	-115	68
-118	-61	138
11	-5	56
143	42	-23
253	74	-211
324	89	-542
333	93	-572
284	93	-292
186	83	-38
66	63	12
-47	25	-39
-133	-28	-44
-184	-86	-76
-202	-134	-25
-205	-153	97
-199	-141	109
-182	-102	71
-153	-50	85
-100	-3	61
-28	37	-22
50	71	-38
111	110	-72
142	153	-47
139	189	12
111	199	5
82	168	16
61	87	60
59	-26	6
58	-141	32
46	-230	72
8	-268	-33
-51	-254	7
-114	-200	-7
-155	-129	-6
-149	-61	8
-93	-3	-33
3	43	-21
107	87	-45
193	123	-40
234	151	-33
226	165	-25
175	155	-34
98	125	-66
8	80	-81
-81	27	-40
-162	-29	4
-235	-77	19
-285	-113	61
-303	-136	109
-272	-137	39
-190	-118	-3
-65	-77	63
75	-24	-14
198	32	-179
275	81	-264
292	113	-192
257	125	34
186	116	26
110	91	-93
42	50	-56
-14	1	-16
-65	-52	66
-120	-98	71
-175	-129	87
-221	-142	43
-235	-135	-108
-213	-109	-59
-151	-72	19
-61	-30	-44
31	17	-83
111	68	-185
167	119	-251
196	161	-154
203	180	-134
187	168	-84
151	120	48
91	47	155
12	-33	178
-76	-104	107
-161	-147	70
-225	-160	23
-256	-145	-26
-251	-118	-81
-209	-83	-21
-140	-43	85
-55	0	134
35	50	100
120	100	-38
184	143	-112
222	166	-193
223	161	-154
192	125	-99
138	61	-33
71	-14	19
4	-88	-12
-62	-143	-89
-124	-174	-242
-181	-176	-153
-221	-156	-21
-232	-124	-59
-200	-90	-49
-119	-61	15
5	-33	20
153	-4	21
292	33	38
390	77	51
417	116	80
370	139	71
257	134	58
107	101	27
-39	45	-2
-159	-9	-23
-229	-51	-36
-253	-75	-46
-246	-78	-32
-226	-72	2
-203	-66	34
-178	-60	57
-139	-45	19
-77	-12	-18
9	39	-54
104	100	-56
180	147	-19
215	164	-6
198	138	-25
135	83	-60
46	15	-165
-39	-45	-268
-113	-83	-106
-170	-99	-14
-209	-104	-31
-234	-109	70
-241	-116	103
-219	-117	130
-160	-102	102
-63	-58	22
55	6	-19
175	81	-79
266	142	-105
314	174	-64
302	171	-1
251	135	-27
160	80	-71
54	15	-88
-50	-48	-62
-136	-103	-59
-195	-143	-47
-226	-167	8
-222	-170	-129
-191	-150	-91
-142	-111	9
-79	-59	40
-4	-2	142
70	54	91
139	106	70
190	148	-27
208	177	-80
190	183	27
137	164	78
65	106	8
-13	22	-192
-78	-75	-281
-127	-162	-269
-157	-217	-247
-174	-227	-121
-177	-191	-15
-161	-125	72
-116	-50	101
-39	16	107
58	62	141
161	94	135
236	112	152
260	126	97
226	132	-18
143	129	-152
36	106	-275
-66	64	-283
-140	7	-167
-178	-53	-69
-181	-105	10
-162	-142	44
-132	-157	29
-101	-155	25
-66	-136	16
-31	-105	22
14	-61	0
68	-4	28
132	58	52
197	117	74
248	155	101
269	168	121
249	148	125
182	102	25
75	41	-120
-54	-21	-88
-187	-76	-63
-300	-120	-128
-385	-151	-67
-434	-164	-80
-445	-160	-46
-412	-136	-34
-320	-96	-50
-165	-42	-19
51	17	-25
300	75	-62
528	127	-42
679	168	7
705	194	-31
592	195	1
373	166	-40
111	103	-71
-124	17	-76
-279	-76	-98
-340	-150	-61
-325	-183	-61
-269	-173	24
-207	-125	117
-154	-61	115
-105	-1	178
-42	49	113
36	88	-95
124	123	-122
194	150	-163
222	166	-241
191	154	-19
111	108	45
5	29	-52
-102	-63	16
-184	-147	-31
-236	-198	25
-255	-209	45
-251	-183	32
-229	-135	-33
-191	-80	-108
-136	-27	-93
-68	22	-197
8	67	-92
86	110	-3
157	139	6
215	149	63
254	131	-13
268	88	-65
242	27	-12
175	-37	6
64	-94	6
-76	-133	57
-222	-155	29
-337	-158	30
-393	-142	24
-386	-111	-35
-304	-67	-41
-167	-15	-21
-1	37	-30
169	81	-120
318	111	-55
423	124	23
468	122	18
439	106	82
344	81	61
199	41	42
31	0	-71
-122	-46	-104
-239	-87	-30
-304	-116	-112
-321	-131	-153
-304	-129	-222
-256	-116	-136
-184	-93	-24
-86	-57	31
35	-11	104
162	50	95
266	116	120
320	174	34
302	202	-46
222	190	2
105	133	-62
-13	51	-183
-102	-32	-43
-156	-98	-8
-181	-132	-27
-195	-139	24
-208	-127	13
-215	-111	29
-198	-89	-23
-148	-59	-62
-61	-16	-104
41	41	-108
130	104	-110
184	154	-77
197	173	-48
180	157	-50
147	109	16
112	40	51
76	-28	97
28	-86	144
-36	-126	107
-114	-151	64
-184	-158	70
-226	-147	-11
-223	-118	-108
-174	-74	-137
-99	-22	-169
-18	33	-102
50	81	-36
102	113	-4
139	131	-2
172	131	-28
200	119	8
211	93	18
192	52	51
131	2	51
35	-53	44
-83	-102	41
-194	-133	11
-273	-139	-45
-303	-121	-114
-277	-83	-155
-202	-37	-128
-95	8	-17
27	43	-48
144	66	-102
242	81	-111
302	84	-155
318	81	-69
284	66	26
207	45	29
102	18	35
-13	-18	42
-117	-55	57
-195	-93	35
-237	-119	8
-245	-135	-31
-221	-131	13
-173	-108	108
-115	-68	72
-48	-15	61
20	45	-1
88	102	-169
153	145	-210
203	171	-76
228	177	6
212	157	72
154	112	89
59	48	24
-53	-25	-152
-162	-102	-228
-239	-164	-51
-271	-196	-85
-253	-192	-140
-199	-152	-127
-123	-87	-134
-37	-14	-25
48	47	8
128	85	30
192	96	45
234	88	31
245	72	95
214	53	68
147	40	-6
54	21	-41
-42	-7	-37
-125	-49	-44
-182	-95	22
-212	-133	11
-221	-150	-19
-208	-136	9
-178	-96	-74
-128	-37	79
-55	19	14
31	66	-66
121	100	-12
194	120	-18
234	132	5
234	138	-133
197	131	-77
135	104	-48
60	57	-49
-15	-5	-50
-91	-69	-81
-161	-120	4
-225	-145	65
-269	-142	19
-282	-119	-53
-260	-82	-63
-191	-39	-46
-85	1	-13
50	41	4
188	78	22
306	109	32
380	127	86
392	130	103
336	113	103
228	77	76
84	27	-6
-64	-28	-50
-186	-79	-84
-262	-117	-56
-290	-133	-56
-275	-129	-77
-235	-106	-179
-181	-66	-236
-119	-24	-127
-47	17	-53
36	49	35
130	71	124
221	84	138
288	89	97
314	89	-84
291	80	-273
215	59	-252
105	26	-173
-24	-19	-96
-152	-66	35
-259	-109	59
-332	-137	112
-358	-142	116
-331	-122	50
-245	-83	112
-113	-32	44
39	15	-5
184	48	-7
289	66	-62
339	67	-110
324	60	-164
258	49	-114
159	38	-12
47	21	40
-59	-9	9
-151	-48	25
-221	-94	8
-260	-129	-27
-269	-143	61
-247	-123	38
-191	-72	-120
-109	-8	-158
-12	54	-79
86	99	-21
172	122	34
238	131	-36
269	131	-105
262	129	-12
216	121	55
139	99	26
41	55	-83
-59	-7	-72
-153	-80	-68
-225	-140	0
-267	-179	134
-272	-186	65
-242	-161	58
-176	-114	-4
-83	-54	-92
21	4	-37
120	59	101
196	103	174
240	131	150
244	147	56
212	143	-98
158	125	-259
87	94	-483
12	50	-345
-63	-1	-80
-135	-57	-106
-195	-111	-44
-234	-153	-52
-245	-171	-44
-217	-159	46
-156	-118	55
-68	-56	65
29	10	56
119	68	110
189	110	59
229	133	0
236	139	-32
212	137	-4
159	123	83
79	97	117
-18	53	127
-118	-8	130
-202	-79	33
-251	-147	-227
-253	-192	-203
-208	-209	-104
-136	-190	-81
-56	-141	-125
10	-79	-246
55	-12	-125
85	43	-117
111	85	-18
144	106	111
182	109	40
209	94	83
201	63	12
144	23	-27
40	-21	55
-92	-60	86
-217	-92	69
-300	-106	105
-319	-105	60
-267	-88	12
-162	-53	84
-31	-7	23
97	48	-108
195	103	-164
252	149	-115
262	174	-149
234	170	-147
182	139	-43
124	84	-48
74	15	34
34	-55	76
0	-114	-28
-42	-157	-129
-99	-175	-145
-166	-173	-54
-223	-152	56
-243	-116	106
-210	-71	53
-125	-21	-74
-14	31	-243
91	83	-204
158	127	2
180	159	51
165	174	39
133	161	40
103	121	7
69	57	90
21	-17	99
-52	-86	-26
-143	-135	-40
-231	-153	-22
-269	-145	-32
-240	-117	24
-140	-79	26
-7	-41	33
115	-5	52
191	31	-44
208	74	-88
183	116	-67
145	151	-43
120	162	-14
104	138	-30
85	83	-68
37	5	-176
-41	-76	-207
-139	-138	-157
-226	-169	-87
-271	-169	1
-266	-143	20
-215	-105	55
-138	-62	80
-56	-18	45
18	28	37
81	80	9
127	131	-129
156	174	-123
156	194	-107
125	181	-68
72	134	29
12	55	3
-30	-37	56
-46	-125	42
-40	-192	26
-35	-223	16
-46	-222	1
-84	-187	5
-127	-136	-23
-150	-77	19
-122	-19	34
-38	34	16
82	82	-56
200	119	-66
273	147	-13
281	155	-81
228	139	-74
138	102	2
45	45	6
-27	-17	-20
-71	-74	-41
-105	-115	-15
-137	-139	11
-178	-143	-24
-217	-131	-42
-236	-106	-72
-206	-63	-69
-120	-7	28
17	55	56
172	114	38
306	156	-39
375	169	-92
371	149	-106
288	106	-75
161	53	-45
22	3	-61
-97	-39	46
-181	-72	32
-231	-101	62
-253	-122	118
-258	-135	47
-244	-131	-29
-204	-105	-113
-134	-57	-39
-39	5	18
63	66	77
154	114	7
210	140	-64
219	143	-12
188	126	-176
125	95	-335
50	53	-364
-26	3	-201
-98	-51	-137
-162	-106	-50
-213	-151	119
-247	-175	75
-249	-171	61
-215	-138	57
-147	-86	104
-52	-24	108
49	36	104
140	85	95
206	123	20
245	149	-16
253	162	-59
231	158	-2
182	134	51
107	86	11
13	17	-86
-91	-61	-194
-185	-133	-153
-255	-182	-48
-285	-199	-19
-272	-185	5
-229	-145	0
-172	-93	-8
-120	-29	-8
-79	38	11
-46	110	22
-6	177	8
54	223	-26
148	230	-82
257	186	-50
357	93	14
411	-30	24
394	-153	51
295	-243	74
133	-278	49
-46	-257	40
-195	-200	5
-273	-126	-53
-262	-57	-80
-173	-3	-79
-39	43	-36
98	88	-12
201	132	-48
245	174	-102
230	204	-160
162	205	-188
63	178	-94
-45	123	-34
-147	56	-120
-228	-10	-114
-276	-68	-96
-285	-113	0
-253	-143	127
-185	-157	241
-92	-150	234
8	-117	108
93	-62	38
150	6	-263
170	75	-249
162	124	-6
139	150	13
115	142	114
96	110	119
75	63	40
41	10	1
-20	-43	-69
-104	-92	-164
-204	-127	-190
-291	-151	-114
-347	-153	-18
-341	-137	48
-273	-105	-11
-154	-62	-78
-3	-18	-80
148	26	-94
273	65	-13
346	104	15
359	131	-74
314	145	-7
224	134	50
111	95	78
7	35	185
-79	-35	173
-136	-96	32
-170	-139	-202
-188	-155	-282
-191	-144	-147
-184	-115	-99
-156	-71	-79
-104	-23	-66
-30	27	-63
56	71	30
136	105	-3
198	120	-18
226	118	45
219	101	24
184	71	21
123	34	45
44	-4	64
-40	-45	145
-126	-87	141
-201	-127	149
-249	-158	149
-261	-170	-5
-232	-155	-103
-166	-112	-359
-79	-44	-449
11	38	-173
87	121	-97
136	190	-124
156	232	-75
147	241	4
117	210	98
78	144	101
36	54	89
3	-43	41
-20	-126	-113
-32	-184	-149
-40	-206	-130
-44	-198	-52
-51	-174	119
-57	-142	161
-56	-112	176
-42	-75	100
-8	-25	-6
44	43	-70
107	121	-86
166	194	-77
202	236	-89
203	228	-32
166	168	1
92	67	22
-4	-40	36
-102	-129	35
-182	-176	-58
-229	-177	-102
-236	-140	15
-205	-84	-54
-148	-26	-103
-82	22	62
-20	54	164
26	76	194
56	85	187
72	90	68
84	90	-215
93	85	-457
100	74	-507
98	51	-365
81	14	-36
38	-35	143
-24	-94	216
-93	-148	229
-145	-186	144
-162	-196	-4
-135	-176	-227
-65	-127	-155
24	-60	-99
107	7	-143
166	64	22
189	106	135
181	128	147
155	137	112
122	131	20
84	113	-105
38	77	-229
-26	30	-230
-104	-28	-181
-189	-83	-39
-258	-124	112
-288	-142	65
-271	-133	52
-205	-100	90
-107	-48	145
1	10	130
99	64	135
172	108	138
216	137	-72
234	150	-259
222	142	-165
181	117	-152
117	75	-161
31	19	-17
-63	-43	-25
-157	-103	8
-231	-154	-109
-278	-183	-328
-288	-184	-222
-262	-159	-19
-202	-106	2
-116	-43	44
-15	19	37
91	68	32
191	98	103
269	109	160
316	105	285
321	95	343
279	79	326
195	54	255
75	20	95
-59	-25	-124
-190	-71	-260
-300	-111	-407
-371	-127	-319
-392	-117	-133
-355	-83	-80
-258	-35	-13
-101	13	-118
93	56	-134
292	95	-137
454	129	-181
532	155	-171
503	166	-115
373	147	-90
184	92	-9
-10	7	48
-156	-89	-32
-228	-166	-84
-236	-205	-80
-212	-198	-1
-189	-159	112
-182	-107	183
-179	-59	38
-156	-28	-23
-93	-2	90
6	22	190
113	54	155
193	90	135
216	115	90
187	122	-76
123	104	-155
49	68	-89
-10	29	-34
-55	-8	-99
-96	-36	-102
-142	-58	-59
-191	-79	-43
-226	-95	-96
-225	-100	-81
-174	-89	-43
-84	-54	-53
27	-5	-21
125	48	61
193	97	56
222	123	-24
216	131	-36
191	121	46
149	97	109
90	61	96
11	14	47
-82	-37	-112
-182	-89	-105
-273	-126	-207
-341	-143	-161
-370	-131	13
-351	-101	-23
-279	-58	22
-154	-20	9
15	8	12
212	27	-22
398	41	-54
534	61	-104
575	81	-55
506	93	39
345	86	54
126	48	84
-89	-16	39
-250	-92	-42
-331	-154	-112
-331	-183	-66
-273	-170	-87
-186	-121	-46
-92	-53	129
-2	14	150
81	67	180
148	105	124
189	129	-151
189	145	-276
143	154	-125
61	149	-214
-34	122	-261
-110	68	-79
-148	-2	52
-143	-80	83
-115	-142	-7
-86	-179	-61
-79	-185	-100
-92	-166	30
-111	-131	16
-113	-89	1
-75	-41	79
3	11	80
101	66	134
194	123	39
254	170	-82
263	191	-13
226	179	65
149	133	-63
54	66	-102
-42	-5	-219
-129	-66	-277
-198	-109	-229
-247	-131	-202
-268	-138	-50
-261	-136	44
-222	-122	204
-147	-95	195
-50	-50	136
55	7	97
151	66	-21
224	117	25
254	147	81
245	150	25
198	127	-36
126	84	-108
41	26	-192
-46	-40	-107
-127	-102	-138
-194	-153	-244
-239	-179	-226
-253	-175	-80
-230	-137	109
-169	-76	87
-79	-7	74
24	50	67
120	91	116
189	116	110
216	131	56
208	150	32
166	168	18
110	171	13
50	147	-9
2	83	60
-35	-12	67
-60	-118	17
-78	-202	-49
-93	-242	-40
-104	-233	-122
-108	-179	-176
-97	-106	-103
-64	-34	-131
-10	20	-112
59	58	-58
129	83	-56
181	99	-33
199	109	90
179	109	129
123	93	60
49	56	-68
-29	6	-181
-97	-47	-241
-149	-94	-289
-181	-122	-217
-198	-132	-11
-202	-124	87
-189	-104	45
-156	-75	-6
-96	-37	-55
-13	10	81
87	68	101
184	129	34
262	181	49
300	202	119
283	182	225
212	119	218
102	30	137
-26	-62	1
-148	-136	-47
-239	-171	-48
-289	-174	-96
-289	-153	-158
-250	-122	-203
-180	-90	-249
-92	-53	-235
0	-11	-99
84	40	-11
147	93	24
180	137	-33
179	155	-89
147	142	-81
87	103	-21
20	43	-20
-42	-15	9
-83	-67	137
-97	-104	107
-85	-122	68
-56	-120	51
-22	-96	22
6	-60	26
21	-20	75
32	14	53
42	38	-3
67	51	-115
107	62	-215
155	81	-226
192	104	-230
201	128	-96
170	131	-133
95	104	-113
-5	41	37
-113	-39	87
-204	-118	151
-266	-174	91
-291	-194	49
-285	-182	-35
-247	-145	-23
-183	-99	-32
-100	-45	-40
-2	11	19
95	65	-18
175	117	-5
221	153	-45
226	165	-38
194	150	-5
133	114	22
63	64	63
-7	12	185
-69	-39	196
-124	-90	133
-169	-132	134
-201	-164	49
-205	-175	61
-173	-157	-68
-103	-107	-242
-1	-35	-378
111	39	-406
207	104	-210
265	143	-108
270	156	-231
234	143	-287
162	110	-68
78	63	-114
-3	4	-155
-69	-62	70
-124	-127	124
-164	-176	134
-186	-196	105
-187	-183	57
-162	-134	62
-111	-64	44
-40	12	74
34	78	72
100	123	78
145	150	14
166	158	-72
162	153	-32
139	132	-41
101	100	-84
52	51	-24
-5	-4	44
-67	-61	92
-130	-108	91
-186	-137	2
-223	-145	-87
-231	-132	-72
-203	-107	-72
-140	-69	-71
-51	-24	-11
54	23	-23
155	74	8
231	120	-12
266	150	-49
256	159	-78
204	139	-95
126	97	-38
33	34	13
-55	-33	18
-136	-97	-35
-199	-143	-9
-243	-171	1
-258	-177	-2
-240	-159	-9
-185	-121	-50
-99	-66	-24
5	-4	53
106	59	160
182	111	163
223	144	115
225	154	1
196	137	-147
147	104	-198
89	56	-265
24	7	-265
-44	-42	-131
-119	-84	-20
-191	-117	-7
-251	-136	-23
-281	-138	-51
-267	-121	0
-204	-85	26
-95	-32	-13
40	25	-28
172	76	-157
276	110	-129
332	127	9
333	127	-38
283	115	34
200	95	46
99	64	33
-4	22	52
-101	-32	-14
-184	-93	-51
-248	-153	-137
-287	-189	38
-289	-194	159
-258	-160	225
-186	-96	215
-88	-15	5
28	65	-100
144	130	-202
241	174	-180
302	195	-131
314	193	-125
267	170	-99
166	124	-106
30	61	-149
-112	-19	-61
-225	-102	19
-281	-177	63
-273	-227	25
-214	-247	-18
-129	-235	12
-49	-195	32
11	-138	77
53	-69	47
93	3	34
143	75	6
203	132	42
253	174	58
269	187	37
231	169	44
135	123	41
5	57	46
-126	-13	-2
-227	-76	-51
-276	-121	-115
-278	-142	-130
-242	-138	-108
-185	-112	-100
-117	-68	-59
-40	-16	-55
42	37	-137
126	85	-95
194	119	-1
234	138	37
234	142	122
196	131	48
128	106	-126
48	65	-111
-31	12	-101
-104	-48	-190
-166	-106	-135
-215	-147	7
-243	-163	127
-244	-151	56
-206	-116	16
-134	-71	82
-36	-24	-49
66	15	-127
155	51	-82
215	88	41
237	122	145
222	150	97
172	162	64
96	145	-88
-4	96	-221
-112	25	-109
-211	-53	-22
-271	-119	-11
-272	-160	-6
-209	-169	-13
-95	-151	8
39	-116	38
156	-68	63
226	-16	40
242	37	-35
219	89	-140
184	130	-233
155	155	-214
138	155	-116
120	130	-28
76	82	46
-8	20	68
-126	-45	55
-250	-106	87
-342	-155	155
-369	-188	152
-321	-196	72
-213	-181	-30
-78	-135	-111
48	-71	-102
141	3	-56
191	74	-19
205	123	-65
198	149	-80
182	143	-88
160	118	-28
128	79	-85
81	30	-103
14	-23	91
-64	-76	43
-145	-121	-30
-210	-151	-90
-245	-155	-147
-235	-131	-62
-186	-84	7
-106	-19	-16
-13	45	-17
72	103	-46
137	144	-12
170	171	108
172	183	-30
154	174	-172
122	140	-76
86	81	-5
50	-2	9
12	-93	24
-31	-173	7
-80	-223	57
-130	-235	96
-173	-207	58
-199	-154	1
-195	-87	-46
-161	-17	-102
-92	51	-187
-1	110	-127
98	155	1
188	173	51
251	161	107
275	114	100
252	41	86
192	-33	66
103	-92	-43
5	-115	-43
-85	-106	-85
-152	-77	-134
-191	-48	-59
-202	-38	-32
-188	-44	-20
-153	-57	-14
-101	-57	-12
-33	-27	-8
44	36	-44
121	120	-132
184	199	-123
223	244	-56
226	244	-35
191	191	33
120	100	67
29	-7	51
-69	-106	9
-158	-175	-31
-226	-208	-30
-259	-206	-63
-255	-175	-42
-214	-129	5
-141	-78	-8
-49	-26	-24
48	23	57
135	72	225
202	114	280
234	145	181
231	157	-74
192	139	-443
128	98	-598
47	37	-363
-38	-26	-76
-120	-80	29
-191	-113	121
-242	-127	63
-271	-125	68
-269	-115	172
-236	-99	126
-169	-76	110
-79	-47	2
23	-9	-131
123	30	-179
204	69	-173
257	99	-128
270	109	-119
245	98	-127
176	62	-157
76	9	-108
-48	-56	-28
-174	-118	16
-274	-164	46
-324	-179	39
-303	-163	21
-214	-118	66
-74	-58	128
86	0	84
231	50	86
331	90	64
371	123	52
354	155	77
292	182	60
205	195	69
106	179	41
8	125	-7
-84	40	-158
-160	-57	-210
-218	-142	-218
-249	-192	-340
-251	-196	-222
-223	-160	18
-167	-104	16
-100	-48	-98
-26	-4	-42
38	29	53
91	55	66
127	80	167
147	103	201
148	120	159
131	122	116
94	99	20
36	55	-7
-34	-3	-34
-109	-66	-132
-176	-121	-268
-218	-152	-248
-229	-154	-86
-202	-129	-26
-141	-81	78
-58	-20	86
33	38	8
119	85	-11
184	112	-105
224	120	-91
229	113	-30
202	100	24
143	80	-40
59	54	-72
-44	16	-65
-152	-32	-142
-243	-88	-28
-296	-138	-7
-290	-168	-5
-226	-171	34
-110	-140	35
24	-87	60
141	-21	-7
212	43	104
226	99	112
190	137	-40
129	156	-72
75	153	-37
44	126	114
40	76	-19
42	9	-87
31	-62	-127
-12	-127	-225
-87	-177	-114
-176	-200	-55
-248	-199	-62
-275	-171	-114
-240	-124	-9
-141	-58	49
-1	19	52
148	96	-39
271	161	-100
346	199	-13
363	208	-8
325	183	111
253	136	150
159	76	101
59	11	-9
-44	-48	-177
-144	-101	-249
-236	-143	-256
-303	-173	-77
-330	-182	78
-305	-169	139
-229	-131	192
-118	-72	163
4	-4	191
107	68	107
172	136	-99
194	190	-179
175	221	-154
128	215	-154
66	174	-59
4	100	42
-50	8	83
-92	-84	133
-115	-151	102
-122	-181	42
-118	-175	-170
-108	-145	-295
-96	-108	-189
-81	-71	-226
-56	-41	-96
-19	-9	71
35	30	41
98	72	123
158	110	91
196	129	57
208	123	-34
187	90	-202
137	41	-261
64	-9	-215
-21	-54	-70
-115	-88	4
-202	-114	-22
-263	-129	-9
-285	-137	40
-248	-126	39
-160	-94	98
-35	-40	34
88	28	-80
186	96	-91
237	149	-35
239	174	101
207	174	185
154	145	152
91	93	101
24	28	19
-46	-42	-17
-116	-103	24
-174	-144	-29
-206	-157	-101
-205	-139	-157
-172	-104	-172
-116	-61	-194
-52	-30	-126
7	-8	-5
63	7	-21
113	28	30
157	64	64
184	112	74
187	160	102
153	182	59
85	168	12
-4	106	3
-95	13	-89
-164	-84	-169
-199	-162	-8
-199	-201	26
-177	-199	-45
-136	-165	-117
-85	-113	-153
-20	-57	-148
56	-4	-153
137	44	-20
211	88	-42
257	122	-67
258	142	-7
205	137	12
111	106	104
-5	51	122
-112	-21	120
-185	-90	67
-207	-140	-16
-181	-159	-3
-121	-140	8
-47	-91	12
18	-25	24
63	38	26
85	83	62
90	101	101
90	98	-43
96	80	-151
105	61	-270
110	48	-306
103	41	-131
68	29	-115
9	4	-63
-75	-36	-65
-163	-87	-21
-240	-131	-21
-285	-157	-112
-281	-150	-12
-234	-112	46
-147	-61	19
-38	-8	91
74	32	136
167	59	43
227	77	74
251	92	93
244	106	2
208	116	-172
156	113	-257
91	86	-179
15	36	-47
-66	-29	57
-150	-92	120
-217	-140	144
-260	-164	98
-262	-159	86
-228	-129	76
-156	-82	85
-60	-25	-6
38	34	-215
128	90	-412
195	131	-323
232	158	20
236	158	57
206	135	81
149	91	65
69	36	-5
-18	-22	-23
-104	-76	-89
-178	-116	-104
-229	-140	-170
-253	-141	-138
-247	-121	-68
-211	-81	-4
-150	-28	-1
-65	23	4
30	67	-9
127	95	39
210	106	147
266	109	135
289	102	98
276	88	45
231	61	30
156	21	-6
63	-32	-11
-38	-92	4
-140	-149	-14
-228	-187	-28
-289	-200	-37
-311	-186	-50
-284	-147	-100
-208	-90	-60
-93	-19	-55
44	57	-67
184	131	-37
301	192	-63
373	223	-40
383	215	-21
322	171	30
192	98	109
17	15	113
-168	-53	111
-316	-98	114
-389	-116	24
-370	-119	-47
-269	-117	-100
-120	-113	-176
34	-106	-126
152	-83	-80
222	-38	-117
244	24	-140
234	88	-182
208	131	-156
175	147	-19
134	126	32
81	85	9
14	41	7
-62	1	47
-140	-34	0
-208	-69	-80
-257	-108	-62
-282	-147	-32
-279	-169	29
-241	-160	61
-172	-111	107
-77	-31	130
28	57	140
118	134	111
178	179	-64
201	190	-204
188	171	-173
151	133	-102
103	82	-79
48	16	-82
-12	-60	-135
-76	-142	-163
-137	-214	-202
-188	-256	-147
-209	-251	-78
-193	-198	-52
-135	-113	7
-51	-17	49
44	64	67
131	121	20
197	153	-17
236	168	-25
244	171	10
223	166	-38
172	150	14
98	109	48
4	47	21
-95	-29	125
-185	-108	54
-247	-169	51
-274	-202	46
-260	-196	16
-208	-162	50
-128	-102	32
-28	-31	17
74	40	-78
166	103	-108
231	143	-113
257	164	0
238	155	87
180	125	15
92	79	34
-11	26	30
-110	-25	-1
-191	-70	-115
-241	-109	-165
-253	-136	-42
-229	-150	71
-175	-142	90
-104	-115	-7
-28	-63	-76
41	0	-100
101	70	-127
151	128	-93
193	169	-32
228	180	3
250	163	-50
253	122	-79
229	64	-12
172	-3	-54
90	-72	-66
-9	-134	-26
-112	-181	36
-204	-204	46
-272	-202	-23
-304	-177	-19
-291	-130	-59
-230	-71	-78
-124	-6	-8
7	57	32
138	114	-2
239	159	-19
290	183	3
280	188	-64
226	166	-81
137	120	-91
36	56	-71
-65	-16	19
-159	-86	-2
-237	-140	-17
-289	-169	108
-300	-168	117
-262	-138	-4
-172	-88	-13
-47	-28	-35
85	30	-62
191	76	-136
253	106	-97
262	120	57
234	122	70
175	112	87
107	88	-88
36	47	-224
-37	-6	-162
-112	-65	-141
-182	-123	-89
-237	-162	-51
-263	-175	93
-253	-160	135
-205	-120	62
-126	-66	78
-33	-4	-18
61	55	-111
148	110	-102
216	151	-125
258	174	-127
266	174	-60
234	143	-86
158	89	-37
51	14	44
-66	-62	74
-175	-127	85
-250	-166	63
-281	-174	55
-262	-153	25
-203	-113	-4
-112	-63	-57
-5	-15	-128
107	29	-137
211	69	-48
285	104	-20
319	131	-13
299	145	-9
226	139	-25
111	112	2
-17	58	16
-140	-11	39
-233	-87	62
-285	-153	80
-295	-194	33
-258	-205	-36
-190	-182	-55
-100	-134	-63
-4	-67	-86
81	5	-68
139	75	-90
169	131	-12
170	169	82
159	180	45
151	165	32
145	127	-6
136	72	8
105	14	-113
36	-39	-169
-72	-84	-168
-201	-116	-167
-321	-137	-57
-400	-147	-40
-412	-145	30
-352	-129	16
-231	-101	57
-68	-59	104
110	-7	124
282	49	176
425	106	167
516	158	87
529	197	-50
458	213	-183
306	197	-359
105	145	-316
-106	60	-181
-274	-41	0
-372	-137	155
-382	-204	133
-320	-228	92
-215	-207	-11
-100	-154	-68
3	-86	-55
83	-17	-85
136	41	-102
171	90	-40
187	125	58
182	145	141
156	144	85
107	119	65
41	68	-14
-34	0	-238
-112	-68	-292
-182	-121	-369
-237	-151	-145
-263	-149	61
-259	-126	91
-217	-91	196
-142	-51	20
-45	-11	-89
58	30	-13
147	69	20
206	104	-83
231	127	-62
216	135	20
175	121	46
112	89	32
34	41	-3
-49	-11	11
-129	-61	-21
-191	-105	-6
-225	-135	-11
-219	-150	-6
-177	-140	13
-108	-109	57
-24	-61	98
58	-4	46
125	50	-12
172	93	-119
201	120	-153
211	130	-128
202	129	-97
172	114	-42
118	89	-42
36	50	-19
-63	2	10
-174	-51	46
-268	-101	81
-325	-135	91
-325	-151	76
-262	-141	-10
-143	-114	-108
6	-75	-178
150	-30	-155
254	19	-88
302	65	0
291	104	96
239	128	74
169	130	13
101	106	-31
42	59	-60
-14	0	-98
-76	-60	-88
-144	-110	-133
-215	-140	-181
-263	-152	13
-275	-140	139
-236	-113	190
-157	-67	141
-56	-13	53
37	49	-92
111	110	-234
163	158	-169
195	183	-148
214	174	-104
216	132	-37
194	63	5
128	-16	-15
21	-88	-122
-111	-140	-81
-236	-162	48
-315	-159	31
-321	-137	91
-248	-106	150
-114	-71	72
44	-32	105
186	13	84
276	67	-44
300	123	-37
261	168	-23
181	181	-84
90	158	32
12	101	55
-38	25	2
-61	-43	-4
-71	-95	-110
-84	-118	-106
-112	-125	-94
-153	-127	-83
-195	-127	-81
-218	-124	-118
-212	-102	-158
-177	-55	-211
-125	14	-92
-70	90	56
-20	145	150
29	169	190
94	153	70
178	113	-37
273	67	-142
351	29	-125
373	1	-44
311	-25	1
167	-57	37
-19	-97	18
-194	-132	-6
-299	-151	-61
-302	-136	-70
-213	-92	-23
-68	-25	22
79	42	7
188	97	-15
237	130	-37
231	147	-84
184	147	-101
116	132	-68
39	104	-18
-41	55	-56
-122	-12	-13
-198	-86	46
-259	-154	67
-289	-192	83
-285	-200	69
-243	-171	36
-170	-117	-35
-81	-55	-9
12	5	-11
90	54	-46
150	96	-15
183	125	-41
193	142	-67
184	139	7
158	112	-80
119	59	-150
67	-11	17
1	-84	-11
-78	-140	-46
-158	-168	-56
-226	-162	-71
-262	-127	-21
-256	-76	-45
-201	-21	44
-112	25	45
-15	61	-8
66	88	-4
113	106	-31
128	121	-44
125	126	-129
127	115	-196
148	89	-76
181	43	161
206	-10	210
196	-65	228
136	-113	196
29	-144	44
-92	-158	-37
-191	-150	-5
-232	-126	-9
-198	-87	-53
-107	-36	-31
11	22	-169
117	84	-218
186	135	-311
206	171	-445
184	174	-368
135	151	-202
69	97	-52
-3	24	42
-84	-53	128
-163	-122	102
-232	-170	109
-276	-189	55
-280	-175	24
-241	-133	2
-162	-71	-18
-59	-3	54
46	59	87
137	108	101
204	138	118
239	153	94
245	154	7
216	140	-24
163	114	-16
81	67	-60
-17	4	-132
-120	-71	-85
-211	-141	-88
-274	-190	-149
-303	-201	-47
-292	-171	-60
-250	-111	-47
-184	-37	-10
-101	26	-32
-8	70	8
85	91	33
170	97	93
234	97	110
263	92	104
257	82	91
216	54	39
163	10	-30
105	-51	-11
59	-111	-92
23	-151	-180
-7	-157	-86
-45	-129	-88
-91	-85	-74
-131	-35	-53
-147	1	-36
-118	27	-48
-44	51	-44
58	82	10
158	122	-9
219	162	3
224	183	24
171	168	29
81	110	27
-20	29	-31
-107	-56	-106
-174	-121	-117
-217	-157	-108
-245	-158	-52
-252	-139	14
-235	-113	60
-188	-86	84
-111	-59	87
-14	-24	129
86	21	112
170	74	13
219	124	-119
230	158	-275
206	168	-279
154	144	-80
79	98	14
-11	33	-104
-108	-36	-175
-198	-101	-31
-271	-149	-92
-308	-174	-102
-304	-174	60
-256	-153	12
-175	-115	103
-69	-66	168
50	-16	186
175	36	134
292	85	108
386	123	89
432	147	-59
415	143	-108
330	110	-93
192	51	-116
31	-19	-213
-115	-87	-218
-215	-134	-176
-262	-157	-150
-262	-152	-102
-232	-127	27
-189	-92	108
-136	-48	84
-76	1	24
-4	57	-48
68	114	-133
130	161	-162
163	187	-38
158	183	6
120	150	41
67	95	48
18	28	31
-22	-36	79
-54	-94	59
-95	-142	87
-144	-178	57
-194	-194	13
-214	-187	-9
-185	-150	-56
-100	-86	-16
25	-6	50
147	74	78
230	135	28
253	171	-48
224	175	11
166	160	141
107	128	32
62	86	-66
19	38	-125
-36	-18	-298
-113	-76	-345
-201	-130	-320
-276	-166	-84
-307	-177	129
-278	-160	87
-191	-120	93
-77	-66	34
40	-9	-64
133	43	-60
194	89	-46
225	123	-22
226	141	-38
202	140	-54
153	116	-45
82	70	-20
-2	11	15
-86	-52	40
-153	-104	65
-191	-139	112
-202	-150	163
-191	-142	176
-161	-119	110
-113	-83	-89
-52	-32	-231
20	27	-236
97	88	-189
158	141	-108
187	174	-62
172	183	-63
121	162	-55
44	121	-48
-31	67	-69
-87	10	-32
-117	-43	4
-120	-93	21
-103	-133	48
-72	-162	47
-36	-173	-1
8	-160	-47
56	-123	-76
107	-68	-80
159	-9	-55
200	43	-27
226	81	26
229	104	97
206	113	111
151	106	42
65	87	37
-44	45	112
-159	-14	39
-255	-86	-47
-308	-145	-45
-303	-174	-103
-243	-157	-107
-145	-95	-17
-42	-11	-4
38	70	-62
82	126	-19
89	153	-36
75	157	-113
57	153	-98
49	150	-151
48	143	-230
47	119	-77
30	59	63
-12	-32	82
-75	-143	93
-137	-245	61
-176	-309	-5
-172	-316	-47
-115	-265	-46
-22	-179	0
82	-72	76
169	28	81
219	105	70
231	154	142
216	174	187
198	171	112
179	156	-52
159	130	-230
118	100	-233
43	60	-156
-69	13	-157
-206	-45	-145
-336	-103	-102
-426	-149	-35
-459	-166	-12
-422	-151	-63
-320	-108	-101
-164	-48	-112
24	13	-178
222	64	-117
392	105	-24
498	133	-14
517	151	34
433	153	30
274	134	76
84	87	104
-88	20	77
-198	-52	53
-243	-113	9
-239	-149	-6
-218	-153	-5
-205	-135	-14
-197	-105	-17
-178	-71	-5
-126	-38	11
-36	0	5
78	44	-28
175	93	-40
229	132	-27
214	155	-37
148	155	-66
49	126	-84
-51	81	-35
-134	26	34
-190	-29	100
-221	-77	110
-223	-114	47
-189	-135	-39
-123	-138	-163
-22	-122	-240
97	-91	-170
209	-51	39
288	-12	107
318	16	87
295	35	119
233	43	102
152	44	178
74	43	233
9	38	222
-44	26	74
-88	4	-207
-128	-25	-554
-170	-60	-741
-206	-92	-430
-232	-113	-15
-234	-117	98
-205	-102	54
-148	-68	-14
-65	-19	-19
25	39	-61
109	102	-100
170	154	-77
198	183	9
190	187	105
151	154	142
88	94	155
11	15	83
-70	-63	32
-149	-129	-9
-212	-167	-33
-248	-176	15
-244	-161	21
-198	-126	95
-112	-83	93
-4	-34	-67
110	13	-88
201	60	-72
253	103	-52
260	134	32
228	149	56
172	142	12
107	113	-89
48	63	-166
-10	4	-206
-65	-53	-153
-129	-103	-98
-195	-135	-103
-256	-152	-53
-287	-148	-35
-273	-127	-25
-204	-91	-21
-84	-38	11
63	27	100
210	98	48
320	158	15
373	195	22
358	196	13
283	160	-15
166	91	11
35	8	155
-86	-70	208
-176	-129	138
-224	-160	54
-231	-163	-89
-202	-145	-214
-156	-118	-144
-98	-85	-50
-39	-46	-93
18	-5	-109
74	41	-134
124	90	-128
167	133	-12
190	162	20
184	166	-19
145	142	-25
78	95	-82
-12	32	-94
-102	-38	-99
-180	-99	-53
-231	-145	-11
-253	-169	-31
-250	-166	23
-223	-141	71
-176	-95	135
-112	-38	65
-34	21	50
53	80	52
142	125	4
216	154	27
262	161	30
266	142	6
226	103	-96
142	49	-150
34	-12	-193
-78	-70	-261
-167	-120	-101
-215	-160	62
-214	-180	41
-172	-185	35
-102	-170	-47
-25	-134	-52
41	-80	-19
97	-9	-19
139	65	29
182	132	87
215	174	130
238	183	95
234	159	85
192	113	29
107	57	-169
-5	1	-273
-129	-51	-210
-241	-101	-114
-314	-144	-62
-339	-181	-21
-312	-192	-17
-243	-174	2
-142	-118	17
-30	-34	-19
78	59	-28
166	138	4
216	185	43
216	196	66
164	180	101
59	145	-12
-85	103	-126
-243	51	-143
-379	-11	-151
-450	-82	-41
-419	-147	34
-272	-187	39
-31	-187	151
245	-140	155
484	-62	99
617	17	52
606	70	-88
476	86	-131
290	76	-160
125	56	-127
35	51	-33
26	63	-5
53	82	-79
61	79	-179
5	41	-116
-115	-29	26
-259	-110	116
-366	-168	57
-392	-183	8
-336	-151	48
-227	-87	-19
-111	-19	-55
-21	36	-100
34	71	-166
75	95	-24
115	115	34
159	134	-12
189	140	0
180	123	-32
115	79	-100
7	11	-100
-117	-60	-44
-218	-119	24
-267	-148	121
-260	-148	115
-207	-124	87
-134	-88	68
-58	-45	-42
7	4	-123
60	53	-56
105	99	85
136	127	59
159	133	-1
169	110	-51
166	62	-138
150	4	-159
118	-54	-160
64	-102	-60
-10	-133	-2
-98	-144	5
-186	-137	29
-252	-115	6
-275	-78	-26
-248	-35	-80
-177	4	-93
-77	32	1
36	51	97
145	66	97
242	85	41
314	114	-30
351	148	-104
339	171	-148
269	161	-110
150	108	-17
8	15	8
-125	-98	-45
-216	-195	-61
-250	-251	-108
-231	-249	-95
-185	-200	-20
-139	-122	17
-105	-40	76
-82	28	129
-48	80	32
9	114	-44
93	140	14
184	160	45
249	169	82
256	158	87
195	117	19
78	46	-78
-57	-43	-155
-167	-133	-195
-223	-202	-203
-213	-230	-138
-161	-209	-62
-99	-150	-2
-51	-66	37
-26	12	-2
-12	76	-75
11	109	-10
59	124	71
127	131	72
192	136	94
221	140	48
191	131	43
105	98	-124
-13	35	-325
-127	-45	-67
-211	-127	115
-248	-187	15
-247	-208	-48
-216	-189	-40
-173	-138	8
-114	-76	-13
-41	-14	4
46	37	-2
137	80	-11
211	113	91
251	132	93
241	141	64
190	129	2
114	98	-80
35	47	-118
-36	-9	-182
-95	-63	-119
-148	-108	-36
-190	-133	-34
-221	-144	-53
-221	-133	-51
-182	-104	-62
-110	-55	-72
-15	6	-50
74	69	-24
135	125	8
162	159	38
156	166	46
137	142	39
117	99	84
104	40	95
84	-26	57
47	-90	43
-15	-141	33
-95	-175	-15
-173	-183	-86
-224	-164	-151
-224	-123	-201
-170	-71	-126
-71	-16	-37
39	29	-22
140	67	-38
211	95	-47
245	114	-32
239	123	-82
204	118	-68
141	95	-48
54	51	-7
-48	-2	65
-156	-59	84
-243	-106	76
-288	-135	46
-274	-144	80
-206	-132	96
-100	-105	51
8	-59	-13
93	-2	-132
135	62	-188
138	123	-153
120	166	-124
99	181	-28
85	166	9
68	130	44
37	85	99
-28	43	79
-124	9	55
-226	-24	-57
-291	-64	-182
-285	-118	-301
-189	-171	-266
-14	-210	-41
191	-209	4
366	-160	-45
458	-71	8
446	28	2
346	106	20
211	147	24
89	140	65
12	109	150
-9	70	152
-6	43	166
-14	27	122
-61	6	-1
-147	-26	-86
-247	-72	-115
-321	-117	-125
-345	-137	-121
-310	-118	-198
-231	-61	-249
-133	13	-155
-42	76	-9
35	103	-13
103	95	-26
163	61	37
214	29	11
238	10	56
216	4	48
144	4	25
29	-8	34
-97	-34	16
-201	-76	-7
-256	-115	-43
-255	-137	24
-211	-137	28
-149	-109	7
-80	-62	28
-12	-4	-19
52	53	13
121	106	43
183	145	-37
227	163	-108
234	155	-108
199	122	-117
121	71	-122
16	11	-45
-97	-46	-47
-203	-93	-31
-285	-126	-7
-333	-141	-24
-331	-138	-3
-267	-117	3
-144	-80	-2
21	-27	-44
196	33	-38
342	90	14
425	132	-18
428	153	13
363	150	60
257	127	26
139	89	38
33	45	34
-59	2	-18
-148	-37	-96
-235	-77	-86
-321	-112	-111
-386	-141	-202
-399	-159	-105
-340	-156	0
-206	-131	5
-16	-85	80
184	-20	74
351	54	56
439	123	15
435	171	-127
353	195	-192
226	182	-88
92	139	77
-20	72	63
-100	-5	65
-154	-82	90
-191	-145	60
-228	-189	-20
-253	-210	-54
-262	-204	-65
-239	-175	-82
-178	-122	-107
-86	-55	-154
20	20	-93
111	92	-8
172	149	46
190	183	13
167	190	-21
118	170	-35
60	124	-75
8	66	14
-30	-1	149
-53	-69	57
-70	-127	-74
-89	-168	-120
-116	-185	-147
-141	-175	-139
-157	-139	-130
-138	-86	-20
-81	-20	20
18	47	19
135	106	40
237	153	-68
288	177	-86
272	182	-67
195	166	-123
80	128	-58
-39	75	38
-136	7	72
-195	-63	74
-222	-133	68
-223	-188	97
-204	-222	60
-166	-224	39
-103	-189	21
-12	-123	49
97	-33	59
204	60	28
283	139	12
313	188	-62
284	194	-56
212	165	-28
110	110	-72
3	50	-50
-99	-9	-55
-185	-58	-77
-255	-99	-57
-300	-127	-83
-310	-147	-75
-276	-147	-75
-194	-122	-84
-77	-76	-45
53	-11	-30
164	58	-50
234	116	-105
254	151	-87
239	160	-12
210	149	56
180	120	140
153	84	111
114	39	-9
46	-13	-47
-53	-68	2
-173	-125	3
-281	-167	5
-345	-182	-33
-344	-165	-124
-274	-118	-159
-163	-51	-186
-42	20	-231
61	80	-221
133	120	-54
172	137	112
180	137	155
162	122	225
119	97	291
57	60	325
-17	12	221
-85	-45	-57
-128	-110	-306
-136	-169	-507
-104	-209	-436
-44	-217	-166
30	-187	-20
98	-120	127
151	-34	209
179	48	189
184	112	137
172	143	-20
152	149	-87
129	138	-61
106	124	-96
81	111	-39
41	90	64
-20	50	39
-106	-14	26
-206	-92	-52
-292	-162	-142
-342	-199	-59
-329	-188	-8
-257	-137	-59
-144	-61	-147
-23	13	-124
75	70	-44
132	110	-60
154	142	-127
147	171	-112
132	194	2
120	194	-1
106	153	52
89	72	140
57	-33	90
12	-136	108
-46	-207	101
-107	-232	47
-164	-214	7
-197	-175	-31
-195	-130	-268
-155	-86	-402
-72	-35	-150
29	27	42
127	100	110
194	169	95
211	210	60
184	208	77
132	158	81
77	80	43
32	-2	-30
-2	-69	-25
-42	-112	-25
-93	-135	-23
-156	-151	-28
-206	-159	-155
-222	-157	-112
-180	-132	116
-87	-86	145
33	-16	103
142	57	50
211	118	-60
231	155	-122
211	161	-123
171	143	-31
123	110	-43
72	68	-197
9	19	-235
-71	-32	-140
-165	-82	-65
-251	-120	64
-307	-135	151
-318	-126	184
-277	-95	101
-198	-56	-55
-96	-16	-127
16	16	-55
128	43	76
234	66	-56
317	86	-109
357	101	-179
336	101	-192
248	79	-24
111	33	19
-36	-26	2
-154	-86	4
-208	-131	7
-200	-152	-36
-150	-145	-9
-92	-116	-129
-54	-74	-92
-38	-24	-19
-28	27	-35
-1	77	6
52	119	-32
124	148	12
184	162	10
206	154	44
171	131	102
86	97	87
-22	53	32
-129	8	-13
-209	-43	-13
-256	-92	-46
-274	-133	-107
-267	-157	59
-232	-153	224
-169	-121	129
-81	-62	81
18	6	9
100	68	3
142	114	-119
135	137	-156
94	136	-238
51	113	-306
46	74	-150
96	21	-139
183	-41	-89
262	-107	-136
274	-168	-75
189	-216	5
14	-246	6
-191	-249	32
-345	-230	-10
-378	-177	-17
-260	-97	-8
-27	10	115
239	128	144
439	233	109
506	298	32
436	301	-17
261	241	107
56	134	126
-110	21	23
-208	-69	-1
-245	-117	-34
-257	-122	-113
-273	-106	-182
-300	-89	-184
-318	-80	-127
-291	-69	-89
-208	-49	-24
-67	-11	-24
89	43	-54
216	96	1
284	128	39
280	131	39
228	110	25
149	76	-51
67	38	-84
-8	4	-120
-79	-32	-126
-148	-75	-80
-207	-121	-24
-249	-161	45
-258	-175	77
-234	-156	86
-191	-98	47
-149	-21	51
-127	57	95
-128	116	168
-133	147	230
-111	149	158
-33	130	-15
107	101	-214
288	65	-391
462	31	-421
575	-2	-291
581	-30	-164
472	-55	-28
268	-80	64
30	-104	115
-178	-129	144
-300	-144	152
-310	-145	126
-222	-113	44
-75	-48	-6
68	39	-156
159	126	-251
152	187	-172
41	209	-40
-156	191	85
-386	147	70
-581	90	-40
-669	29	-52
-603	-40	16
-375	-124	-48
-35	-215	-116
321	-299	-165
592	-341	-135
696	-316	-67
632	-218	-21
454	-71	98
262	81	86
140	193	82
127	239	68
189	223	29
252	170	25
245	117	-36
144	80	-90
-27	57	-96
-208	33	-42
-333	-8	-32
-386	-64	-19
-372	-122	16
-333	-151	106
-298	-137	176
-262	-89	164
-218	-19	199
-136	42	207
-22	84	143
103	98	65
197	103	-127
231	104	-371
201	103	-536
122	96	-536
28	67	-360
-61	16	-179
-134	-48	-62
-191	-106	38
-232	-140	105
-250	-143	155
-233	-116	188
-176	-74	163
-85	-30	69
20	6	-76
118	38	-64
197	67	3
253	92	56
291	108	185
313	105	127
302	78	-63
254	27	-177
154	-33	-235
14	-91	-208
-136	-133	-160
-258	-154	-51
-325	-153	21
-324	-131	48
-274	-99	51
-199	-54	51
-122	-3	81
-50	47	57
20	92	61
94	121	20
172	138	-34
238	142	-97
278	139	-211
270	127	-222
214	101	-133
114	50	4
-18	-26	100
-166	-119	43
-313	-211	10
-444	-268	24
-534	-271	-15
-554	-214	-56
-481	-108	-34
-304	18	26
-43	134	48
257	215	77
531	257	95
715	256	96
768	215	66
689	159	-19
519	85	-84
306	11	-113
115	-60	-119
-28	-117	-117
-117	-157	-114
-175	-178	-74
-225	-181	-30
-277	-173	14
-321	-154	60
-336	-125	65
-291	-86	87
-181	-34	76
-26	22	14
138	77	-20
263	117	-43
321	135	-71
292	128	-78
197	99	-15
61	50	30
-80	-3	-28
-199	-55	-68
-277	-100	-99
-311	-122	-133
-300	-125	-8
-256	-105	62
-189	-67	-17
-115	-22	-9
-42	25	-33
22	68	-187
77	110	-249
122	143	-92
165	169	-24
201	174	-40
221	158	-39
208	110	-87
155	36	-122
57	-46	-141
-69	-123	27
-198	-177	116
-297	-196	135
-335	-187	158
-303	-153	22
-206	-103	-128
-74	-43	-101
63	21	-20
174	84	-83
239	135	3
257	166	45
234	166	-31
189	132	-50
127	80	7
60	14	88
-15	-47	61
-90	-97	9
-162	-130	-1
-217	-149	6
-248	-152	-53
-245	-135	-56
-216	-105	-51
-173	-56	-64
-122	1	-47
-67	55	-14
1	96	8
90	119	8
203	127	-5
325	122	-53
415	110	-92
438	88	-36
369	50	99
216	-3	185
18	-66	189
-165	-121	107
-287	-149	4
-324	-135	-125
-291	-87	-239
-222	-21	-207
-148	35	-196
-83	67	-189
-14	75	-7
76	63	91
191	54	117
310	55	116
389	61	61
386	56	-28
282	24	-99
103	-31	-17
-99	-99	-86
-264	-153	-137
-358	-174	-178
-369	-157	-189
-316	-110	-42
-232	-58	-23
-137	-17	0
-46	9	45
44	29	48
128	52	-28
196	86	-65
229	124	-19
218	149	8
170	147	76
100	112	130
29	53	86
-30	-13	-1
-80	-76	-123
-127	-122	-199
-181	-157	-89
-230	-171	-6
-256	-169	54
-237	-144	84
-168	-99	0
-59	-33	-71
56	41	-68
149	110	-23
197	161	-90
199	185	-102
170	186	36
124	166	29
75	127	23
27	71	72
-27	-3	-7
-81	-86	-91
-134	-163	-102
-173	-211	100
-194	-218	174
-187	-179	100
-153	-108	8
-95	-30	-201
-7	33	-275
101	77	-326
214	105	-294
311	125	-158
359	144	-15
339	153	98
245	135	97
107	85	152
-38	1	119
-158	-90	68
-225	-163	-9
-243	-194	-82
-231	-179	-35
-208	-127	-70
-188	-61	-119
-168	-2	8
-140	46	209
-97	83	160
-38	110	130
28	130	94
101	141	23
175	137	-21
253	113	-35
318	70	21
346	14	-169
320	-48	-164
212	-116	-59
40	-175	-165
-156	-216	-176
-308	-226	-98
-366	-189	-25
-318	-110	-51
-187	-1	-51
-36	105	-5
78	181	-31
121	207	-123
109	187	-126
79	140	79
72	89	111
96	49	41
131	21	54
133	-5	-16
71	-43	-1
-64	-95	-7
-235	-143	-65
-389	-171	-2
-459	-163	27
-425	-121	-48
-280	-56	65
-61	4	127
174	45	-30
368	68	-53
476	80	-113
481	86	-173
385	90	-106
225	84	-125
46	53	-131
-105	-1	-101
-199	-68	74
-228	-125	129
-206	-148	55
-162	-127	28
-119	-82	-43
-90	-36	-105
-67	-14	-91
-44	-20	11
-8	-35	-38
40	-34	-48
90	5	16
129	82	54
152	168	16
159	223	43
150	222	68
127	160	66
87	60	169
26	-46	149
-54	-125	149
-143	-163	58
-217	-166	-243
-256	-143	-501
-248	-112	-570
-197	-74	-422
-122	-34	-130
-46	9	181
20	49	319
71	79	196
116	95	87
161	96	-42
202	88	-145
227	76	-150
214	58	-134
157	31	-26
54	-13	42
-66	-68	32
-181	-128	22
-258	-170	31
-280	-177	81
-250	-142	124
-178	-76	117
-87	4	143
6	74	270
90	119	259
160	144	112
210	154	54
242	155	-55
245	150	-287
212	132	-441
142	95	-447
35	33	-332
-96	-42	-265
-231	-117	-189
-339	-169	-42
-403	-191	15
-403	-179	-59
-339	-141	-111
-214	-92	16
-47	-39	-8
135	7	-27
301	48	93
417	85	66
454	110	98
403	121	138
279	106	84
121	71	90
-25	17	137
-127	-40	89
-178	-88	-46
-199	-116	-9
-233	-122	57
-308	-116	-18
-420	-106	27
-523	-97	48
-545	-80	23
-419	-48	65
-131	8	84
268	87	150
681	166	110
989	221	-19
1096	222	-153
979	165	-283
689	60	-282
314	-55	-261
-34	-150	-211
-282	-196	-190
-407	-192	-171
-425	-157	-142
-388	-109	-95
-330	-68	27
-277	-36	67
-221	-9	4
-150	27	-8
-60	75	31
32	124	22
107	164	4
140	171	-14
121	153	61
57	106	58
-29	45	-12
-111	-13	12
-178	-64	-23
-225	-105	-26
-253	-137	0
-270	-157	6
-266	-159	45
-236	-139	46
-169	-95	53
-71	-36	90
40	25	133
141	76	119
215	110	46
250	131	-5
245	143	-23
215	150	-108
166	142	-224
104	115	-294
30	62	-262
-51	-11	-132
-134	-90	-2
-201	-156	142
-236	-186	94
-228	-181	-17
-178	-142	-140
-96	-89	-273
1	-31	-189
92	22	-43
169	65	-8
216	100	45
239	122	109
229	128	75
188	108	37
122	66	-20
42	9	-82
-42	-51	-105
-117	-97	-104
-174	-122	-36
-210	-124	105
-222	-110	168
-218	-86	84
-200	-53	-19
-174	-19	-40
-134	22	93
-80	62	141
-4	96	79
94	115	55
206	118	-57
310	106	-71
374	79	-28
373	43	-29
290	-2	-68
143	-57	-189
-28	-124	-268
-166	-184	-211
-224	-222	-107
-191	-216	-90
-96	-162	-32
8	-69	49
72	37	79
72	125	76
20	177	122
-45	188	-7
-83	169	-103
-71	140	24
-23	114	-51
37	91	-119
81	59	-84
94	12	-58
77	-49	-127
39	-117	-135
-10	-170	-48
-65	-198	-30
-126	-195	79
-176	-171	141
-191	-131	111
-152	-82	96
-51	-21	-22
82	51	-108
206	129	-45
275	192	53
262	218	87
179	197	72
63	127	43
-44	33	-15
-122	-56	-103
-167	-121	-190
-197	-147	-255
-226	-143	-209
-248	-123	-62
-247	-102	31
-198	-76	72
-103	-41	54
22	3	37
139	57	69
219	109	97
245	144	98
230	154	105
188	139	66
141	108	-12
91	67	-18
31	25	-55
-45	-21	-198
-130	-69	-159
-208	-117	-147
-256	-154	-219
-256	-168	-114
-208	-149	-115
-129	-101	-28
-39	-35	9
42	30	32
109	82	101
156	115	137
181	129	181
184	129	102
170	119	38
130	96	-22
78	60	20
18	12	22
-38	-43	39
-89	-95	-57
-126	-134	-320
-153	-149	-356
-162	-140	-252
-149	-109	-116
-108	-65	28
-41	-16	115
36	32	174
110	69	170
159	93	138
172	97	29
158	85	-119
117	61	-249
66	35	-179
9	10	-31
-45	-16	10
-94	-43	-39
-126	-78	-100
-138	-116	9
-118	-150	-30
-72	-165	-14
-15	-147	-42
40	-97	-89
77	-17	-77
93	67	-115
90	138	-51
66	183	-12
20	198	124
-54	185	248
-154	149	222
-247	99	71
-296	38	-30
-253	-29	-74
-106	-90	-163
109	-133	-32
323	-153	70
445	-150	-74
423	-133	4
269	-120	-42
60	-109	-136
-101	-97	-60
-136	-63	-64
-37	-1	-21
130	85	-9
270	174	-50
300	233	-88
198	230	-40
7	157	-115
-188	38	-14
-321	-86	195
-364	-181	130
-339	-221	52
-291	-210	-51
-248	-163	-106
-210	-102	-145
-156	-39	-164
-64	23	-114
61	85	-105
188	148	-64
273	195	24
285	215	92
231	194	112
139	138	130
50	59	50
-10	-18	-37
-46	-78	-12
-79	-116	5
-126	-136	58
-188	-145	-40
-244	-148	-187
-259	-141	-178
-213	-118	-173
-115	-74	-108
14	-12	-76
132	57	-62
214	115	-12
245	152	-12
237	159	3
198	140	35
144	102	2
81	53	-19
11	4	-23
-63	-43	17
-136	-83	110
-191	-114	138
-224	-131	112
-221	-133	57
-186	-120	64
-126	-90	191
-56	-48	196
14	0	24
76	48	19
118	92	11
141	126	-102
144	147	-251
132	152	-328
107	137	-412
72	104	-511
32	44	-234
-9	-31	4
-46	-114	18
-75	-187	91
-85	-226	76
-77	-217	38
-49	-164	-9
-13	-79	-48
24	11	95
52	82	199
66	120	133
67	132	160
52	129	196
26	122	93
-12	113	62
-53	95	0
-90	53	-91
-100	-19	-196
-75	-106	-315
-11	-186	-294
71	-226	-267
140	-213	-300
167	-152	-296
132	-69	-102
54	4	14
-31	50	70
-79	67	100
-65	71	83
8	77	147
106	96	134
187	118	109
213	126	134
172	106	84
85	58	19
-27	-7	13
-133	-71	22
-218	-115	77
-274	-131	147
-300	-127	241
-286	-106	194
-231	-75	8
-134	-33	-183
-7	18	-472
121	80	-457
219	138	-40
261	171	160
241	170	102
169	123	108
72	47	-20
-22	-36	-153
-100	-102	-193
-159	-137	-239
-203	-144	-241
-232	-135	-160
-244	-122	-137
-228	-110	-140
-178	-94	-55
-95	-64	-30
7	-17	10
107	44	51
184	106	57
231	152	77
242	171	150
222	158	207
180	124	181
123	80	155
54	30	87
-20	-21	-42
-95	-69	-124
-161	-111	-89
-203	-137	-91
-214	-140	-84
-189	-117	-26
-131	-74	77
-55	-21	121
26	27	64
95	64	64
140	91	-8
161	110	-96
153	122	-134
125	121	-115
85	100	-88
40	48	-35
-3	-22	-111
-46	-98	-157
-94	-152	-117
-142	-170	-52
-191	-151	4
-225	-112	-30
-225	-81	17
-168	-62	11
-50	-57	123
110	-41	120
278	5	-11
400	84	-114
434	177	-149
360	241	-92
204	244	-128
12	179	-160
-147	65	-138
-231	-53	-74
-232	-136	-97
-178	-163	-231
-119	-140	-141
-101	-96	64
-134	-60	171
-201	-46	232
-251	-49	118
-241	-51	74
-145	-36	-41
23	-1	-98
222	43	43
397	84	108
498	108	71
498	106	9
403	88	21
237	48	-35
44	-5	-80
-126	-67	-101
-242	-134	-106
-287	-185	-86
-272	-207	-89
-226	-188	5
-179	-127	45
-151	-41	47
-136	51	22
-113	129	9
-58	182	68
39	205	63
160	205	65
259	183	43
300	138	-25
256	72	-64
142	-12	-78
-3	-95	-74
-129	-162	-28
-207	-195	-11
-226	-191	-3
-202	-157	-67
-162	-106	-182
-119	-54	-113
-75	-4	-15
-18	43	-45
47	92	-9
113	137	-2
154	169	-64
151	174	-24
104	147	-86
33	91	-92
-30	19	-107
-66	-47	-113
-69	-97	136
-59	-130	225
-58	-148	39
-82	-153	-175
-120	-150	-71
-150	-132	-66
-139	-95	-147
-78	-38	-21
24	27	-61
134	88	30
216	130	82
248	147	19
225	139	15
163	117	30
83	80	15
4	33	-67
-70	-19	-42
-137	-78	-50
-195	-130	-32
-240	-166	7
-253	-170	17
-226	-142	20
-159	-91	-10
-62	-25	-21
46	36	-14
142	89	26
212	124	32
248	150	-24
249	166	-103
221	165	-92
167	145	-120
94	101	-126
8	34	-7
-84	-44	69
-170	-119	94
-236	-172	108
-273	-195	84
-273	-182	8
-235	-144	17
-165	-90	-52
-68	-31	-144
35	24	-203
127	66	-298
190	92	-198
206	100	-53
178	92	11
118	71	87
48	46	76
-7	20	65
-33	-7	-58
-33	-38	-221
-20	-74	-161
-12	-111	-79
-22	-139	-98
-42	-147	-32
-56	-120	135
-44	-61	92
5	18	105
85	96	130
169	145	57
229	162	76
242	143	155
208	110	137
139	75	-25
58	48	-60
-17	25	-13
-81	-3	34
-134	-42	-30
-183	-93	-33
-226	-136	-124
-249	-157	-297
-243	-149	-161
-198	-110	-57
-115	-55	-37
-14	-1	63
86	41	-18
161	77	-124
199	102	-115
202	121	-98
172	130	10
121	117	82
50	80	49
-35	19	46
-129	-47	23
-221	-103	-97
-288	-131	-115
-315	-126	-100
-287	-102	-155
-212	-68	-51
-104	-41	142
9	-21	-20
106	-3	-62
180	23	56
231	61	37
271	105	82
302	139	9
319	144	-92
300	114	-98
231	48	-15
107	-34	-11
-47	-112	0
-201	-162	31
-311	-174	2
-350	-154	-21
-317	-113	-70
-232	-67	-86
-130	-29	-65
-35	3	-48
42	30	-60
104	62	-26
160	97	24
211	132	28
245	154	30
245	153	30
192	122	20
82	64	34
-64	-8	56
-216	-80	74
-333	-131	100
-381	-158	112
-343	-153	64
-228	-121	26
-63	-72	43
105	-13	-24
237	45	-90
302	97	-224
295	130	-356
229	144	-330
136	133	-243
52	97	-119
-10	43	-17
-43	-21	38
-60	-82	37
-70	-131	41
-79	-164	66
-84	-177	33
-78	-170	58
-61	-149	237
-41	-114	195
-24	-67	53
-16	-13	2
-17	46	-34
-17	109	-168
-11	168	-306
-5	208	-109
-10	221	-154
-26	202	-289
-53	145	-92
-70	66	103
-56	-22	94
-7	-104	60
62	-162	-89
115	-191	-139
114	-192	-56
55	-174	-120
-33	-144	-34
-95	-109	-36
-87	-63	-48
4	-8	-92
141	57	-86
261	126	-21
301	178	32
245	197	175
123	175	195
-16	116	196
-117	34	129
-165	-46	-43
-176	-106	-155
-185	-138	56
-210	-147	195
-246	-137	112
-259	-117	81
-221	-89	37
-123	-49	-48
7	6	-111
128	66	-92
203	123	-197
222	161	-208
195	166	-158
154	138	-218
114	88	-282
78	32	-125
32	-21	54
-36	-59	87
-125	-90	127
-207	-109	70
-258	-118	34
-256	-116	8
-204	-97	-44
-120	-61	-12
-31	-12	-16
44	39	-54
100	84	7
133	114	-21
158	125	67
170	119	65
171	95	-86
154	53	-81
118	-4	-60
66	-67	-17
10	-130	-2
-48	-173	22
-102	-183	17
-145	-157	17
-175	-101	-7
-178	-37	-18
-147	19	1
-77	57	8
28	80	38
149	97	70
258	116	69
332	138	46
346	155	-14
301	148	-63
198	106	-48
54	35	-64
-96	-47	-16
-231	-122	-64
-320	-169	-96
-354	-181	-35
-331	-163	-173
-262	-129	-161
-172	-92	-110
-76	-53	-144
4	-17	-62
65	24	52
107	67	59
142	106	-66
171	134	-91
196	138	-52
205	119	-22
187	74	-67
128	17	-100
29	-46	-38
-92	-102	102
-211	-138	194
-289	-153	121
-306	-137	21
-252	-98	-164
-149	-41	-158
-29	20	41
68	76	118
126	115	49
143	135	-46
138	137	-173
137	124	-218
150	100	-182
172	64	-126
179	19	97
144	-36	190
59	-96	196
-62	-147	203
-188	-180	39
-274	-183	-213
-291	-159	-252
-237	-108	-215
-130	-44	-172
-12	20	111
87	74	155
148	110	138
169	129	198
163	131	109
143	120	21
118	97	-68
84	61	-145
34	17	-249
-36	-35	-319
-118	-84	-331
-198	-123	-257
-256	-144	-116
-276	-147	9
-251	-126	113
-182	-87	60
-84	-37	72
33	17	155
148	71	128
248	118	133
314	153	70
336	169	60
302	162	126
222	130	183
101	80	171
-36	19	62
-159	-39	-32
-248	-88	-90
-285	-120	19
-272	-137	65
-215	-145	-48
-131	-138	-97
-35	-121	-183
56	-89	-303
135	-44	-298
190	11	-277
216	69	-273
211	118	-163
175	150	-66
120	154	-108
49	131	-36
-22	81	16
-89	19	11
-147	-44	106
-199	-94	115
-248	-120	174
-286	-121	207
-304	-101	59
-277	-77	-62
-191	-54	145
-46	-36	253
139	-15	119
317	21	42
431	75	-155
439	137	-268
333	183	-328
151	186	-335
-33	131	-261
-152	29	-149
-163	-90	36
-78	-189	183
48	-236	205
139	-226	55
144	-173	23
59	-107	32
-69	-53	28
-173	-20	134
-195	3	208
-120	28	127
17	63	48
159	106	95
248	141	-39
258	155	-206
194	141	-282
90	101	-322
-24	47	-176
-132	-8	-98
-227	-54	-57
-310	-90	-88
-366	-109	-106
-378	-111	-145
-321	-97	-194
-198	-64	49
-30	-24	289
133	17	364
245	49	308
280	67	249
241	74	147
163	68	-61
90	63	-246
46	52	-351
31	34	-339
16	3	-307
-20	-42	-301
-94	-94	-294
-183	-137	-197
-259	-156	-34
-281	-143	117
-239	-101	203
-139	-39	213
-14	24	120
102	84	-33
188	130	-86
236	165	-40
250	181	93
239	177	94
207	148	46
149	90	79
65	14	38
-38	-66	3
-143	-130	-55
-231	-166	-4
-279	-168	2
-280	-141	6
-239	-102	4
-167	-61	-29
-83	-25	19
-1	8	6
70	41	7
127	76	-48
170	106	-46
192	129	-53
194	130	-80
174	106	-34
136	59	9
85	-4	20
27	-64	-18
-26	-116	-30
-69	-143	-51
-96	-149	-52
-103	-134	-34
-88	-106	-46
-53	-70	-49
-4	-29	-112
46	15	-111
94	68	-31
125	123	-21
140	170	64
135	194	202
113	179	360
75	120	410
24	25	313
-33	-82	304
-93	-171	40
-145	-227	-365
-183	-233	-583
-199	-201	-625
-191	-145	-535
-159	-84	-338
-102	-25	-230
-31	31	-315
50	83	-246
124	130	-3
180	162	221
200	169	222
180	139	99
121	82	25
40	8	-44
-46	-60	-114
-120	-107	-58
-176	-126	79
-210	-123	106
-226	-110	162
-222	-95	129
-195	-79	19
-140	-53	172
-55	-15	201
49	37	94
153	93	152
234	139	56
271	166	17
262	169	185
216	152	48
147	121	-222
62	81	-239
-26	33	-141
-120	-29	-72
-216	-99	-38
-300	-166	57
-350	-215	40
-335	-228	-92
-246	-200	-232
-92	-135	-382
93	-54	-381
260	28	-208
369	99	-96
399	148	-35
357	174	82
270	179	113
175	158	84
89	109	31
18	40	70
-48	-36	43
-121	-107	-32
-200	-151	-54
-272	-161	-85
-320	-137	-17
-321	-98	15
-271	-54	13
-176	-16	9
-52	15	57
77	44	129
194	79	169
280	116	230
325	150	248
318	163	167
254	148	116
139	99	52
-6	27	-81
-156	-51	-172
-276	-122	-282
-342	-174	-320
-347	-199	-387
-295	-196	-397
-203	-174	-248
-97	-128	-120
3	-68	17
86	1	40
151	68	30
196	124	38
234	157	76
266	160	117
296	137	149
310	96	213
292	45	272
226	-5	285
104	-52	102
-57	-93	-68
-222	-125	-267
-342	-144	-306
-383	-142	-182
-332	-114	-145
-219	-63	-11
-85	1	23
21	63	-90
79	110	-208
91	135	-230
85	139	-217
87	127	-194
106	102	-113
130	68	-57
128	23	-61
85	-29	-42
-3	-84	80
-110	-130	130
-201	-154	182
-243	-150	195
-226	-116	72
-160	-66	51
-66	-11	41
28	38	31
107	77	81
160	102	60
186	117	29
186	121	10
159	110	-24
107	82	4
36	38	-34
-40	-18	-38
-116	-77	-30
-175	-126	-14
-214	-157	128
-228	-164	60
-215	-147	-86
-175	-109	-132
-110	-55	-71
-28	7	-4
64	67	-9
150	117	-95
211	143	-19
238	144	160
228	122	-69
180	83	-319
107	37	-445
16	-4	-276
-80	-38	-76
-170	-63	17
-241	-82	195
-273	-96	151
-256	-108	61
-185	-111	-84
-77	-109	-139
45	-92	-164
151	-62	-92
219	-18	91
245	36	196
240	94	194
214	143	81
183	171	-31
147	170	-150
98	134	-172
34	72	-180
-46	-4	-109
-125	-78	-1
-187	-131	27
-215	-161	48
-206	-165	77
-167	-149	94
-111	-115	91
-48	-70	200
17	-15	215
84	47	65
150	105	24
204	153	-108
231	174	-298
216	166	-182
161	130	-49
68	77	-128
-44	17	-168
-152	-39	-209
-243	-87	-142
-304	-124	-1
-333	-151	16
-321	-165	-27
-269	-162	-35
-172	-135	-32
-37	-88	-62
111	-22	-53
241	47	-72
322	110	-51
340	151	14
295	162	56
211	147	113
115	104	112
30	47	78
-38	-16	98
-97	-74	110
-149	-117	85
-195	-139	100
-229	-134	163
-234	-102	140
-202	-51	22
-141	12	-102
-63	75	-308
8	126	-443
61	157	-206
97	163	93
124	142	90
153	100	-19
184	38	-60
206	-28	-167
204	-90	-201
162	-139	-187
77	-171	-155
-32	-185	-60
-137	-183	-57
-211	-171	-40
-230	-147	-72
-193	-110	-86
-113	-57	-35
-14	7	46
80	76	129
150	137	213
188	177	326
194	193	306
172	182	196
132	150	31
78	109	-38
14	62	5
-56	13	-4
-129	-37	-4
-197	-85	-91
-244	-125	-254
-258	-148	-301
-234	-144	-131
-173	-115	102
-89	-65	201
3	-5	130
84	51	-68
141	94	-290
172	118	-409
183	123	-357
169	105	-214
135	69	-117
82	16	-68
9	-43	37
-78	-102	106
-164	-144	32
-234	-164	-19
-271	-158	-106
-266	-127	-55
-222	-85	47
-138	-39	54
-31	2	160
86	40	187
195	81	211
280	126	175
328	174	-2
324	211	-264
269	227	-398
180	200	-207
80	128	38
-10	16	249
-72	-112	285
-108	-224	208
-126	-291	112
-137	-297	-86
-147	-246	-189
-143	-157	-275
-120	-56	-278
-65	28	-202
16	88	-119
98	122	12
154	145	90
144	162	135
56	175	145
-113	179	130
-332	153	49
-549	93	10
-691	-2	-1
-695	-113	-7
-523	-213	23
-185	-276	-40
248	-282	-45
671	-232	-75
971	-138	-92
1058	-29	-36
927	65	-52
648	123	-62
330	137	-55
85	122	-52
-36	97	-54
-44	84	13
-6	86	32
0	98	-17
-61	94	11
-187	58	120
-321	-11	145
-415	-97	242
-432	-163	274
-385	-187	1
-300	-157	-197
-212	-87	-195
-137	-3	-263
-70	67	-405
2	112	-371
82	135	-454
153	150	-345
192	159	68
183	157	290
124	129	126
33	70	-19
-67	-21	-125
-154	-119	-56
-221	-198	55
-259	-235	-63
-275	-228	99
-260	-186	97
-209	-127	11
-121	-67	-4
-3	-11	-29
116	42	21
212	98	20
262	147	55
263	174	22
226	169	30
166	129	29
97	63	16
27	-11	26
-45	-70	-8
-113	-112	-13
-174	-131	-23
-212	-136	-115
-213	-130	-108
-177	-112	96
-105	-77	83
-16	-23	45
76	41	64
154	106	-8
210	154	-46
242	174	-167
244	170	-171
216	139	-64
157	94	17
74	35	78
-26	-27	112
-118	-90	30
-190	-144	-54
-229	-174	-63
-239	-171	-147
-226	-134	-151
-204	-72	-32
-182	-4	15
-159	56	28
-125	96	49
-66	114	-12
25	112	-52
147	96	-96
281	70	-168
396	38	-109
454	2	11
430	-32	27
324	-57	34
159	-77	9
-22	-93	64
-170	-111	207
-251	-129	120
-257	-143	3
-204	-134	-41
-121	-93	-6
-40	-18	29
29	72	54
81	150	46
121	189	-38
149	174	-117
157	124	-315
130	56	-289
65	-3	-148
-32	-41	-127
-140	-67	-230
-232	-89	-311
-288	-117	-248
-300	-149	-273
-274	-167	-111
-221	-157	68
-148	-109	24
-60	-31	152
37	54	276
136	127	205
221	174	138
269	192	184
275	186	129
231	162	-143
154	124	-168
60	72	-115
-29	5	-89
-109	-67	-20
-170	-135	13
-215	-181	151
-237	-192	84
-229	-178	36
-187	-140	25
-111	-92	-63
-16	-39	-56
83	16	-42
166	72	-52
221	128	-10
242	170	51
232	185	40
193	162	44
130	105	32
51	28	64
-36	-47	105
-120	-100	77
-188	-125	91
-227	-124	94
-232	-110	-6
-206	-90	-66
-156	-64	-158
-91	-33	-256
-14	9	-316
64	58	-313
139	108	-217
202	143	-181
241	154	-110
245	138	-34
216	100	70
153	49	110
59	-5	115
-53	-56	51
-174	-105	-23
-285	-142	24
-371	-168	20
-400	-177	71
-354	-167	95
-223	-139	83
-22	-96	63
205	-44	71
404	15	29
519	74	-70
523	126	-96
421	162	-147
258	168	-79
82	141	-18
-59	86	-100
-152	18	-36
-198	-45	18
-225	-90	-48
-245	-105	-59
-263	-103	-43
-267	-89	-79
-237	-71	-153
-170	-46	-193
-72	-11	-125
24	39	13
100	98	115
142	145	187
158	165	164
167	147	85
180	95	-2
195	24	-122
192	-41	-261
144	-90	-260
44	-120	-84
-91	-137	12
-226	-149	-17
-311	-153	-30
-315	-147	59
-241	-115	155
-118	-61	196
9	7	207
107	75	172
162	124	19
178	147	-247
172	145	-251
160	126	-178
138	99	-151
99	62	-111
34	15	-173
-56	-43	-101
-153	-104	-80
-232	-156	64
-270	-178	122
-260	-167	68
-207	-126	129
-126	-66	-2
-36	-8	-20
53	43	84
131	85	-1
198	122	-74
241	155	19
254	175	16
229	178	-25
167	143	-82
72	80	-155
-36	-10	-106
-144	-97	-44
-232	-162	-17
-287	-189	-28
-300	-178	10
-268	-142	-17
-191	-95	-60
-79	-49	-33
51	-4	12
172	41	69
266	88	62
306	131	53
295	159	17
239	163	-75
156	130	-106
64	71	-83
-27	-2	-61
-116	-74	-64
-201	-127	24
-280	-160	55
-332	-168	-30
-333	-157	-25
-269	-127	-27
-127	-84	5
62	-27	15
260	33	11
409	86	57
469	125	72
423	144	42
292	143	-7
120	131	-31
-46	110	-72
-169	86	-115
-237	49	-192
-262	0	-202
-273	-66	-135
-285	-137	-56
-300	-195	-20
-295	-223	-66
-247	-208	-16
-134	-161	41
40	-91	16
245	-16	1
436	52	-13
558	108	24
580	149	98
496	171	166
336	174	235
142	154	249
-33	105	213
-162	39	79
-232	-32	-142
-260	-93	-252
-267	-131	-143
-271	-148	-181
-274	-138	-341
-263	-114	-339
-225	-76	-402
-148	-29	-243
-38	23	-37
71	76	-5
157	116	70
194	139	134
184	135	224
136	109	84
74	65	-19
5	14	-27
-58	-36	-4
-119	-84	91
-178	-120	232
-225	-147	338
-245	-154	175
-223	-140	57
-156	-102	-166
-53	-42	-408
56	24	-378
150	83	-312
211	121	-190
234	137	-22
225	131	32
190	110	34
143	79	47
83	38	-14
12	-4	-21
-66	-53	-19
-140	-98	-31
-199	-133	26
-229	-149	8
-222	-143	-20
-180	-117	-3
-112	-75	47
-28	-24	84
58	29	81
138	78	95
203	117	30
239	143	-22
245	150	18
214	136	-9
154	103	-66
72	56	-132
-25	4	-120
-120	-44	-51
-205	-84	-56
-259	-110	-142
-273	-119	-124
-240	-116	-22
-169	-97	15
-77	-63	9
11	-20	-6
66	29	74
85	71	85
75	101	109
64	104	60
84	85	-103
142	43	-93
226	-6	-80
292	-55	-76
301	-93	104
223	-114	152
68	-121	152
-116	-113	85
-270	-99	-55
-342	-77	-50
-312	-45	-168
-203	-6	-277
-68	44	-300
38	100	-282
84	147	-171
66	175	-82
13	174	14
-39	142	164
-62	80	222
-43	2	222
3	-77	133
59	-135	-16
103	-170	-128
119	-177	-162
109	-162	-92
80	-133	-57
46	-92	-35
24	-46	-119
21	6	-129
40	58	17
74	109	96
110	150	84
131	171	46
129	174	97
100	153	112
48	112	64
-19	51	70
-88	-17	14
-152	-87	-92
-202	-147	-211
-241	-178	-242
-259	-177	-80
-253	-139	-74
-214	-79	-105
-148	-10	-107
-55	47	-54
42	81	127
130	92	37
187	84	-3
204	71	-70
188	59	-99
148	49	-101
97	35	-128
42	12	24
-14	-24	155
-76	-71	281
-143	-113	161
-200	-142	-11
-236	-147	-206
-230	-122	-275
-174	-78	-28
-79	-19	122
35	39	162
137	89	215
204	122	159
225	139	-11
207	143	-176
167	131	-341
117	112	-435
67	80	-447
18	34	-265
-38	-20	-118
-102	-78	-66
-169	-131	175
-226	-171	149
-255	-191	24
-249	-188	123
-200	-160	173
-113	-112	142
-3	-50	86
111	16	44
207	83	13
262	137	-27
265	166	-18
215	165	37
122	131	41
15	76	87
-81	12	137
-141	-42	34
-159	-75	2
-139	-89	-26
-98	-86	-124
-54	-79	-142
-23	-69	-165
-14	-53	-234
-21	-23	-202
-36	32	-26
-42	105	79
-30	179	122
14	225	105
92	223	167
190	161	45
288	56	-190
346	-65	-198
342	-175	-232
253	-246	-172
94	-270	-116
-98	-257	-61
-261	-218	-57
-347	-166	-84
-325	-105	-61
-209	-40	-48
-42	31	61
117	103	137
221	170	126
250	212	151
209	227	152
130	205	38
40	152	-3
-43	77	8
-118	-11	-23
-190	-92	-78
-253	-158	-194
-303	-194	-232
-318	-196	-161
-287	-166	-257
-215	-110	-178
-116	-44	37
-12	18	86
77	66	149
143	99	111
190	119	-7
216	129	-92
226	135	-66
209	128	1
162	106	10
77	63	-10
-31	2	38
-143	-68	200
-229	-133	189
-264	-171	169
-243	-179	130
-169	-150	-100
-62	-95	-194
48	-26	-130
140	39	-68
199	91	-34
221	126	16
211	138	39
180	135	69
135	121	-11
81	98	-173
13	70	-242
-63	35	-279
-145	-9	-215
-214	-61	-115
-250	-119	-20
-240	-171	82
-180	-203	86
-86	-202	63
16	-167	-50
91	-97	-162
128	-13	-43
123	72	3
101	139	59
80	179	125
86	189	58
119	171	-23
167	134	-64
198	82	-42
188	23	-42
121	-35	-17
3	-90	-18
-139	-134	6
-263	-162	-8
-329	-171	-32
-308	-160	-15
-200	-131	0
-39	-87	55
121	-31	98
234	28	125
262	82	114
216	120	74
122	134	-55
27	124	-123
-37	88	-37
-63	38	-53
-69	-18	-138
-83	-64	-56
-120	-98	54
-178	-114	12
-231	-111	-72
-245	-96	-165
-200	-67	-224
-99	-32	-226
33	14	-272
162	63	-218
257	109	-113
302	147	-57
294	166	97
245	163	160
169	131	124
75	81	174
-23	12	115
-114	-60	42
-191	-122	48
-241	-170	-38
-263	-188	14
-258	-179	82
-226	-144	63
-172	-93	49
-102	-34	-79
-23	24	-101
59	72	-105
136	108	-152
196	127	-106
233	131	8
240	124	-20
216	104	-159
164	72	-149
88	26	-47
-6	-28	-59
-104	-89	-71
-193	-140	32
-251	-173	19
-262	-175	8
-219	-143	0
-131	-85	34
-20	-12	152
89	59	175
170	114	199
214	149	145
218	161	47
192	155	-68
138	135	-167
64	103	-201
-31	53	-200
-138	-9	-187
-241	-83	-105
-311	-151	-66
-324	-194	-40
-267	-202	24
-152	-170	-44
-6	-106	-28
129	-29	-30
226	39	-65
268	87	0
268	109	97
245	110	49
225	104	53
204	89	26
175	68	43
125	39	141
41	-2	-27
-74	-51	-186
-194	-96	-284
-299	-124	-341
-361	-125	-339
-379	-98	-112
-351	-56	138
-281	-18	225
-178	7	255
-38	13	155
129	14	6
302	19	-125
444	43	-207
506	81	-227
470	114	-147
319	122	-66
93	87	-18
-145	11	12
-329	-85	66
-410	-170	109
-377	-222	133
-256	-222	137
-96	-174	56
53	-98	24
165	-13	115
225	61	177
238	122	144
223	165	130
190	185	48
151	187	-69
106	168	-194
63	129	-277
17	78	-244
-32	23	-179
-90	-28	-123
-158	-72	-125
-232	-107	-76
-299	-133	4
-337	-143	123
-331	-137	230
-269	-107	205
-162	-55	158
-27	7	78
107	67	-16
213	111	-89
278	132	-241
294	131	-306
266	116	-289
202	89	-284
111	54	-126
9	8	-18
-89	-49	43
-172	-109	28
-226	-161	-47
-248	-188	-36
-237	-182	31
-198	-142	87
-138	-84	69
-61	-23	111
26	31	85
117	72	14
196	103	4
250	127	72
266	145	87
238	147	67
172	123	22
84	74	-62
-15	7	-111
-112	-61	-223
-195	-112	-256
-260	-135	-301
-295	-131	-311
-289	-116	-164
-241	-96	-123
-148	-79	-105
-26	-58	49
98	-29	164
198	16	186
258	71	260
266	123	230
238	155	210
184	150	271
128	112	152
71	50	66
16	-15	-105
-40	-68	-213
-94	-109	-204
-138	-131	-272
-158	-149	-231
-147	-157	-241
-105	-152	-223
-43	-123	-131
19	-69	-17
70	8	49
107	93	80
121	165	74
117	203	0
83	203	-18
13	171	14
-91	119	-37
-206	60	-31
-296	8	77
-315	-44	59
-240	-94	62
-84	-141	61
104	-179	61
259	-192	84
326	-175	14
291	-121	-94
195	-44	-170
91	35	-211
38	99	-145
54	135	-1
115	144	52
169	132	88
166	110	87
86	77	71
-53	32	54
-208	-24	24
-325	-89	39
-379	-148	59
-360	-183	8
-281	-182	-92
-172	-140	-147
-48	-68	-180
71	14	-180
172	90	-142
245	142	-58
275	168	57
260	170	67
206	154	37
132	124	72
56	82	74
-12	28	34
-68	-31	-30
-123	-91	-89
-178	-137	-79
-229	-164	-10
-262	-163	29
-256	-140	31
-207	-99	35
-119	-45	-13
-16	10	-86
76	62	-103
138	104	-121
172	132	-140
181	140	-160
178	130	-169
166	101	-109
138	56	-64
83	0	3
-4	-57	-2
-109	-109	34
-206	-149	116
-262	-167	25
-258	-163	-41
-186	-134	-72
-66	-87	-158
63	-29	-72
172	31	151
241	82	122
258	121	14
234	137	20
184	135	-89
124	117	-227
62	81	-121
-1	35	-42
-61	-17	-136
-122	-69	-88
-177	-116	8
-221	-144	31
-253	-151	149
-269	-130	238
-275	-88	149
-264	-28	48
-234	36	-116
-164	92	-277
-47	130	-211
114	143	-54
302	133	84
478	103	144
588	55	65
583	2	29
461	-52	17
236	-98	-38
-26	-131	-61
-256	-150	-41
-392	-151	-8
-415	-135	-19
-339	-106	-14
-218	-64	13
-101	-15	7
-11	38	12
44	85	31
86	125	-14
123	149	-62
155	150	-122
162	135	-111
117	103	-92
18	58	-53
-111	6	-3
-225	-50	-32
-274	-105	-32
-235	-148	-36
-123	-170	-5
17	-163	12
128	-126	18
179	-69	-3
166	-2	-36
125	57	-19
94	103	3
103	127	1
144	140	20
192	144	3
206	137	9
162	119	151
65	81	200
-58	22	120
-172	-47	64
-248	-116	-23
-281	-163	-155
-278	-181	-143
-256	-167	-168
-216	-130	-315
-163	-82	-408
-89	-33	-364
3	14	-136
101	58	-100
186	97	-17
234	131	38
238	150	-11
198	145	38
128	117	60
39	68	130
-53	12	149
-147	-42	170
-236	-90	147
-308	-127	175
-341	-159	120
-317	-180	15
-226	-185	-49
-71	-164	-168
111	-110	-168
285	-24	-179
402	72	-69
439	159	15
399	209	1
295	208	9
164	161	-49
34	85	-89
-69	5	-112
-148	-60	-54
-200	-101	-20
-241	-122	-10
-272	-130	20
-287	-131	26
-274	-125	34
-221	-103	29
-124	-59	64
3	10	116
130	93	169
227	171	175
270	233	75
261	254	-47
214	233	-190
164	171	-349
127	85	-408
110	-16	-211
97	-109	43
58	-186	-30
-17	-233	-52
-125	-248	-90
-234	-229	-139
-308	-184	-93
-317	-120	-78
-258	-47	65
-150	24	126
-24	88	140
86	135	52
172	154	-13
229	147	-16
261	110	19
262	55	65
231	-9	69
151	-67	39
28	-110	41
-112	-133	160
-234	-136	118
-300	-124	34
-296	-99	-78
-223	-61	-353
-110	-15	-409
5	43	-81
97	100	49
154	147	-28
178	171	25
179	168	-7
161	135	-34
123	87	39
64	31	98
-12	-21	87
-96	-60	20
-174	-91	4
-233	-110	-29
-263	-123	-197
-264	-127	-249
-234	-120	-227
-172	-99	-176
-79	-61	-12
36	-16	34
159	35	39
262	81	55
319	116	56
313	136	87
245	142	79
135	131	60
14	102	12
-92	54	-43
-169	-6	-87
-209	-71	-138
-222	-124	-97
-204	-155	64
-162	-155	133
-92	-127	150
-1	-77	126
92	-20	57
167	34	-13
202	80	-78
194	113	-62
158	135	-29
120	142	25
103	131	-17
111	101	-111
128	53	-189
121	-5	-227
64	-61	-166
-51	-108	-108
-198	-140	-54
-333	-157	-87
-405	-158	-130
-389	-143	-84
-282	-112	-8
-124	-63	44
44	0	51
179	68	20
250	130	-20
251	170	37
193	177	76
98	147	57
-12	81	87
-108	-6	65
-169	-100	-5
-178	-177	-12
-133	-222	-17
-50	-219	-21
42	-173	-24
110	-96	-16
131	-11	53
105	59	5
57	104	-67
20	122	-106
25	129	-95
79	134	-35
163	138	-83
237	135	-67
262	106	-61
226	48	-87
121	-35	-70
-15	-120	-71
-154	-182	9
-260	-200	66
-319	-177	-1
-325	-127	-78
-288	-72	-3
-216	-26	-20
-123	9	-64
-21	36	49
81	67	61
167	99	-4
226	124	-56
248	135	12
230	125	-2
169	95	-27
72	51	106
-42	6	124
-156	-38	-3
-245	-77	-46
-288	-109	-2
-277	-133	-41
-221	-141	-48
-133	-123	-75
-45	-79	-110
28	-11	-194
83	63	-282
125	127	-277
166	164	-172
203	170	-14
229	145	71
219	100	164
167	44	160
66	-16	62
-57	-71	28
-173	-120	10
-242	-157	-18
-251	-173	-20
-206	-165	-25
-128	-135	-7
-44	-90	-22
28	-32	-57
81	26	-33
120	80	5
154	118	24
180	139	14
191	143	-35
178	127	-82
135	98	-85
65	57	12
-15	12	89
-94	-32	58
-157	-74	53
-206	-107	5
-240	-127	14
-263	-131	54
-273	-119	35
-255	-93	-39
-195	-55	-147
-85	-12	-144
66	34	-105
236	75	-105
381	112	-35
461	132	-11
447	135	2
341	108	-43
167	51	-96
-31	-24	-98
-200	-100	-129
-310	-154	-100
-341	-173	-50
-311	-151	44
-247	-99	59
-178	-37	-15
-126	19	-30
-101	61	42
-93	90	57
-85	106	137
-59	114	234
-1	110	268
102	87	175
244	48	-28
398	0	-128
520	-44	-253
554	-76	-299
468	-87	-240
262	-88	-139
-11	-89	-97
-264	-98	-85
-415	-111	-46
-407	-112	-93
-259	-88	-115
-43	-30	-44
145	45	4
238	119	-7
216	164	22
120	169	32
16	138	91
-50	89	167
-66	38	154
-66	-6	136
-85	-41	59
-149	-74	-84
-236	-108	-166
-306	-133	-192
-316	-141	-210
-249	-122	-93
-128	-72	-13
6	-6	-11
114	61	29
179	116	40
206	151	59
209	163	75
199	157	91
170	130	-12
113	87	-160
21	21	-115
-88	-58	-38
-188	-135	-6
-249	-192	-11
-259	-211	-48
-225	-190	-35
-169	-137	-75
-111	-70	-38
-62	-8	16
-16	40	-1
42	75	-41
118	102	-34
202	122	42
269	138	42
299	140	40
276	123	40
205	82	-26
100	20	-119
-17	-48	-105
-126	-112	-58
-217	-155	-89
-280	-173	-38
-313	-160	51
-316	-122	118
-290	-64	156
-235	3	99
-153	67	-48
-43	121	-128
90	154	-145
238	165	-176
381	155	-186
488	127	-149
532	88	-34
490	31	22
363	-32	22
175	-105	27
-29	-169	49
-201	-211	18
-311	-219	26
-344	-191	45
-318	-136	61
-258	-68	44
-191	-5	-11
-126	45	-19
-69	89	-48
-11	123	-111
53	157	-170
117	174	-134
170	173	-65
192	135	42
172	64	-35
107	-25	-51
3	-115	111
-120	-183	46
-234	-218	68
-304	-216	152
-303	-187	91
-227	-136	7
-89	-71	-99
78	3	-165
231	84	-157
333	157	-96
363	210	-24
329	229	-90
251	208	-219
158	153	-302
71	77	-345
-4	0	-173
-74	-65	98
-144	-114	155
-217	-147	167
-282	-166	152
-321	-169	126
-314	-156	112
-252	-114	24
-140	-53	-55
-5	21	-133
123	93	-143
216	143	-58
261	164	87
251	153	142
201	120	163
126	76	152
42	32	147
-37	-11	130
-110	-51	-4
-170	-89	-88
-214	-119	-176
-235	-137	-223
-226	-135	-251
-181	-109	-214
-109	-64	-101
-21	-9	-37
67	44	-6
138	89	-3
184	120	13
198	132	-4
186	127	-20
149	106	18
92	70	56
18	21	26
-62	-33	-30
-145	-84	-54
-211	-119	-81
-247	-133	-39
-237	-127	87
-179	-104	60
-82	-71	20
34	-35	19
139	4	-51
206	43	-79
212	85	-86
164	118	-69
71	136	-91
-32	128	-71
-114	91	-35
-148	31	-20
-119	-40	33
-43	-103	57
55	-151	70
138	-173	24
179	-175	-14
161	-163	51
102	-135	79
35	-94	74
-3	-34	59
14	39	13
84	118	-20
180	183	-75
256	219	-26
275	219	78
221	189	-30
103	138	-123
-43	86	-198
-177	36	-430
-269	-11	-472
-315	-61	-348
-316	-117	-196
-290	-170	-52
-244	-206	16
-185	-212	120
-111	-182	158
-30	-121	77
52	-46	93
123	24	59
166	82	-21
181	117	12
169	131	31
137	128	35
91	104	70
35	58	107
-33	-1	163
-111	-66	175
-186	-121	122
-245	-152	70
-267	-148	35
-253	-116	-12
-201	-67	-80
-128	-17	-123
-43	27	-129
42	65	-99
130	99	-56
216	130	-104
296	158	-166
346	171	-162
342	160	-156
275	114	-119
147	43	-56
-12	-42	-10
-165	-120	-3
-269	-174	-21
-307	-189	16
-279	-171	39
-208	-126	34
-122	-71	32
-37	-16	21
36	34	38
107	77	32
170	113	37
222	142	45
245	153	62
229	145	61
167	106	19
69	49	-18
-42	-21	-35
-144	-86	-35
-225	-133	-34
-271	-158	4
-286	-157	43
-270	-136	43
-223	-104	19
-141	-64	-88
-35	-20	-239
78	30	-280
171	81	-373
224	127	-353
226	156	-114
189	160	-48
138	131	-56
107	79	15
104	8	38
116	-66	32
116	-131	18
74	-176	51
-18	-190	50
-141	-179	52
-253	-141	97
-315	-87	102
-313	-23	87
-260	44	65
-191	100	67
-136	137	50
-110	150	22
-96	136	1
-59	101	-42
19	51	-105
137	1	-93
266	-46	15
357	-79	53
380	-97	72
323	-101	187
216	-95	184
110	-81	41
39	-58	-84
27	-31	-158
63	1	-226
123	37	-334
176	72	-327
208	103	-254
204	117	-125
170	115	-15
109	95	-4
28	58	20
-71	8	3
-177	-47	10
-273	-99	8
-345	-137	36
-375	-153	75
-363	-149	100
-314	-120	89
-242	-78	66
-161	-26	127
-76	25	116
6	70	79
79	109	65
133	137	-7
158	154	-153
139	154	-240
83	137	-345
2	99	-316
-76	43	-126
-130	-23	-100
-150	-90	-50
-140	-143	-12
-117	-175	45
-91	-178	101
-66	-154	102
-35	-112	104
14	-56	76
85	-2	35
169	47	-26
