File Name: not saved
Channel 2: 'Channel 2', 10770 values, raw ADC, no filters.
Channel 3: 'Channel 3', 10770 values, raw ADC, no filters.
Channel 4: 'Channel 4', 10770 values, raw ADC, no filters.

-262	-36	-9
-267	-44	-11
-260	-56	-14
-201	-71	-14
-57	-76	-25
159	-56	-17
389	-7	-15
560	64	-8
608	134	-15
526	169	-32
342	150	-25
120	72	-40
-89	-40	-36
-250	-155	-31
-366	-235	-27
-436	-263	-24
-459	-241	-32
-418	-180	-31
-291	-105	-26
-89	-19	-33
141	67	-36
321	153	-22
374	219	-21
280	251	-18
77	233	-8
-143	169	-4
-267	84	-2
-230	6	3
-39	-34	-1
216	-40	-14
422	-31	-13
476	-39	-17
354	-84	-24
110	-153	-25
-151	-211	-32
-325	-218	-41
-358	-158	-42
-256	-42	-38
-85	89	-30
76	188	-27
169	229	-40
172	213	-39
118	168	-25
36	115	-22
-38	71	-30
-98	31	-31
-149	-17	-16
-201	-78	-9
-259	-144	-5
-308	-190	-12
-324	-203	-21
-291	-175	-18
-209	-116	-26
-94	-49	-27
31	12	-28
136	60	-26
207	102	-25
241	133	-28
239	154	-28
209	152	-39
159	119	-35
89	58	-15
11	-19	-9
-71	-90	-8
-143	-138	-16
-191	-157	-23
-210	-149	-19
-198	-124	-25
-164	-92	-29
-117	-51	-23
-69	2	-23
-26	64	-32
16	128	-35
64	174	-27
130	190	-23
210	164	-23
294	102	-14
354	20	-10
363	-59	-19
296	-122	-23
159	-166	-21
-18	-187	-13
-184	-189	-19
-290	-176	-32
-310	-144	-30
-245	-96	-24
-129	-32	-20
-4	35	-28
91	100	-32
143	150	-33
159	179	-32
159	186	-23
150	170	-20
127	137	-23
77	88	-14
-24	30	-18
-174	-28	-21
-354	-79	-27
-511	-112	-39
-588	-127	-36
-535	-126	-28
-340	-119	-11
-43	-108	-13
280	-94	-13
541	-71	3
670	-31	-4
641	28	-10
496	97	-10
306	154	-8
154	177	-13
64	153	-19
28	84	-12
-5	-9	-27
-85	-101	-32
-218	-166	-31
-366	-190	-36
-468	-175	-33
-463	-131	-35
-350	-77	-31
-168	-14	-27
6	48	-25
121	112	-31
159	163	-30
158	192	-26
163	183	-24
211	135	-18
288	58	-22
346	-25	-26
331	-90	-21
214	-127	-23
22	-131	-30
-185	-124	-15
-336	-118	4
-389	-119	-21
-344	-120	-31
-241	-103	-23
-126	-58	-17
-37	13	-18
24	97	-23
68	165	-23
111	200	-25
156	194	-22
183	157	-19
172	102	-21
111	48	-24
14	0	-21
-95	-46	-17
-185	-90	-16
-236	-129	-20
-245	-157	-20
-221	-159	-22
-178	-133	-28
-123	-84	-32
-55	-23	-32
26	35	-32
111	81	-35
186	113	-27
237	131	-25
244	137	-27
210	129	-23
144	100	-19
65	52	-15
-17	-12	-18
-91	-80	-26
-152	-134	-34
-195	-164	-31
-221	-163	-17
-215	-138	-10
-174	-98	-19
-101	-52	-23
-5	-4	-22
91	41	-18
170	84	-16
212	117	-25
206	132	-26
151	128	-27
53	101	-27
-66	58	-21
-190	12	-20
-287	-31	-15
-333	-61	-18
-319	-80	-24
-250	-83	-24
-143	-79	-20
-20	-62	-19
101	-39	-34
216	-10	-42
321	17	-33
415	32	-21
484	34	-14
512	22	-26
484	3	-24
397	-13	-18
263	-21	-19
116	-23	-4
-20	-32	2
-129	-54	-14
-207	-97	-9
-261	-141	-13
-295	-170	-32
-310	-159	-30
-300	-103	-24
-272	-15	-23
-225	77	-37
-172	143	-35
-118	171	-35
-56	164	-39
19	139	-32
111	121	-21
206	109	-9
269	97	-13
267	60	-21
182	-5	-19
31	-93	-23
-137	-171	-35
-267	-206	-35
-318	-184	-32
-285	-115	-23
-195	-32	-21
-94	29	-21
-11	53	-22
48	50	-24
95	49	-32
142	72	-39
191	128	-37
216	185	-25
203	204	4
131	157	4
20	46	-8
-102	-92	2
-198	-204	-1
-251	-252	-6
-262	-229	-14
-253	-158	-21
-236	-81	-26
-207	-27	-39
-154	-5	-43
-60	2	-46
69	21	-45
214	67	-46
331	131	-43
385	190	-28
363	213	-22
276	189	-3
154	120	1
26	30	-17
-84	-57	-11
-169	-122	-21
-225	-163	-21
-250	-178	-20
-241	-170	-30
-191	-142	-24
-111	-90	-27
-10	-21	-40
87	51	-30
163	109	-9
203	135	-9
212	125	-11
198	92	-24
172	53	-18
147	24	-13
121	5	-23
93	-19	-9
52	-60	-12
-8	-126	-27
-97	-196	-17
-209	-241	-17
-333	-233	-27
-442	-164	-38
-496	-61	-55
-459	38	-41
-318	103	-24
-88	124	-22
192	130	-5
459	154	1
649	211	-12
716	283	-21
636	319	-35
425	268	-32
123	117	-21
-202	-100	-25
-475	-307	-34
-626	-418	-48
-611	-394	-56
-426	-257	-32
-123	-71	-26
214	82	-16
484	154	7
608	139	11
558	80	18
359	17	8
93	-15	-7
-152	-17	-5
-307	-7	-14
-347	-5	-38
-296	-17	-42
-205	-32	-32
-124	-41	-33
-84	-40	-21
-77	-39	-19
-82	-45	-42
-75	-59	-43
-46	-69	-35
-2	-54	-36
44	-7	-34
79	66	-20
101	140	-10
111	183	-13
118	180	-24
111	131	-34
85	62	-36
28	-7	-22
-54	-56	16
-145	-86	8
-221	-104	-16
-257	-115	-6
-248	-123	-19
-200	-119	-26
-133	-96	-28
-60	-52	-28
10	6	-32
78	63	-36
142	110	-31
199	136	-30
237	148	-32
240	140	-27
202	119	-17
128	84	-24
36	31	-26
-52	-32	-23
-125	-96	-20
-175	-145	-19
-202	-171	-25
-206	-168	-24
-188	-139	-22
-141	-95	-26
-68	-41	-15
25	12	-18
120	63	-26
195	108	-21
234	142	-31
226	158	-28
183	150	-22
119	117	-19
54	66	-25
-2	9	-34
-44	-47	-27
-80	-98	-25
-114	-140	-22
-145	-173	-34
-172	-191	-31
-181	-195	-22
-165	-173	-35
-121	-125	-32
-60	-58	-41
-7	18	-36
12	93	-19
-24	157	-23
-113	205	-13
-228	239	1
-307	252	6
-287	244	9
-126	198	0
159	116	7
498	-2	10
782	-134	-15
886	-248	-31
762	-313	-41
432	-312	-35
13	-248	-24
-342	-148	-28
-507	-44	-42
-439	32	-49
-195	77	-49
95	94	-45
295	103	-32
326	110	-27
198	112	-23
-10	95	-14
-199	42	-1
-312	-41	-4
-339	-136	-21
-321	-208	-23
-300	-232	-16
-291	-194	-25
-269	-106	-21
-195	7	-10
-45	122	-21
151	215	-13
340	269	-18
444	279	-28
428	233	-24
302	138	-9
128	7	-5
-28	-121	-23
-120	-213	-24
-139	-237	-25
-120	-195	-16
-99	-116	-19
-104	-40	-34
-134	-2	-34
-166	-6	-30
-169	-32	-27
-128	-40	-36
-50	-11	-40
44	59	-34
127	138	-16
175	190	-11
183	197	-19
150	156	-27
84	89	-27
3	20	-16
-83	-34	-15
-156	-74	-17
-207	-108	-16
-237	-137	-17
-236	-160	-15
-208	-159	-20
-155	-127	-26
-81	-67	-35
6	5	-39
94	71	-30
172	116	-18
228	134	-22
245	135	-37
232	126	-32
184	108	-33
114	77	-25
34	28	-23
-44	-37	-20
-117	-105	-19
-175	-160	-27
-213	-183	-24
-223	-173	-25
-197	-133	-22
-140	-83	-16
-57	-30	-12
33	17	-20
115	62	-20
172	104	-18
203	143	-28
205	169	-28
186	169	-27
148	138	-15
84	83	-10
-8	14	-12
-124	-53	-16
-247	-107	-23
-345	-139	-24
-382	-153	-21
-339	-145	-22
-226	-118	-40
-74	-69	-42
64	-9	-33
156	51	-41
190	92	-42
192	97	-34
198	63	-14
242	-4	3
314	-77	-1
389	-131	-14
410	-145	-11
346	-121	-3
202	-72	-19
11	-22	-20
-162	10	-15
-273	15	-18
-299	4	-32
-259	-2	-41
-193	17	-38
-136	67	-9
-101	145	24
-76	222	12
-40	268	3
18	260	-12
93	193	-31
154	79	-33
162	-51	-40
94	-166	-42
-48	-241	-28
-228	-264	-26
-383	-253	-26
-452	-223	-24
-399	-200	-32
-232	-200	-35
2	-219	-38
232	-233	-38
392	-201	-24
458	-96	-22
439	85	-24
394	300	-14
344	483	-17
314	565	-16
273	505	-11
188	329	-20
38	93	-24
-157	-112	-28
-344	-223	-24
-459	-228	-25
-469	-163	-25
-383	-92	-27
-251	-54	-32
-132	-59	-35
-58	-68	-42
-25	-47	-36
2	22	-30
46	117	-27
114	189	-27
172	198	-20
189	139	-16
137	40	-6
32	-53	9
-85	-109	-10
-175	-121	-16
-214	-116	-6
-209	-117	-15
-183	-133	-25
-157	-147	-20
-129	-130	-20
-89	-71	-28
-21	19	-35
74	105	-30
171	152	-24
244	142	-27
266	94	-27
238	39	-37
172	2	-35
102	-7	-23
35	-7	-18
-24	-20	-26
-82	-56	-25
-144	-100	-17
-199	-129	-30
-233	-126	-26
-222	-92	-25
-165	-53	-30
-70	-34	-35
34	-44	-19
123	-57	2
182	-41	-4
204	25	-6
196	133	-12
163	236	-24
110	272	-20
41	208	-8
-38	60	0
-119	-112	-1
-185	-236	-12
-226	-263	-16
-235	-206	-13
-207	-107	-13
-148	-27	-24
-56	0	-39
49	-19	-44
155	-43	-51
234	-29	-53
252	36	-62
195	135	-62
72	224	-38
-68	261	-18
-172	235	-24
-177	155	-9
-77	55	3
91	-35	-7
241	-99	5
284	-137	-2
184	-157	-12
-31	-166	-3
-263	-167	-15
-397	-153	-23
-345	-116	-32
-109	-52	-36
234	30	-33
549	116	-36
720	182	-21
695	203	-19
496	169	-27
212	81	-21
-61	-32	-18
-256	-139	-25
-354	-204	-21
-380	-211	-19
-371	-171	-31
-348	-106	-25
-317	-46	-26
-264	-5	-41
-183	20	-43
-81	51	-27
25	102	-6
106	168	-12
151	228	-20
156	249	-16
131	211	-25
90	117	-20
40	-3	-27
-20	-110	-21
-91	-173	-16
-160	-181	-26
-218	-153	-23
-247	-116	-27
-235	-97	-25
-185	-95	-26
-107	-97	-20
-15	-79	-21
74	-25	-23
150	54	-27
206	139	-34
236	194	-35
238	201	-30
205	162	-25
145	92	-25
62	20	-24
-23	-35	-28
-102	-68	-16
-166	-90	-26
-212	-107	-31
-241	-124	-33
-247	-134	-36
-227	-124	-15
-170	-89	-4
-76	-29	5
49	34	-5
178	86	-6
278	110	-8
324	102	-20
300	75	-36
216	41	-35
94	19	-24
-39	9	-28
-168	10	-30
-276	6	-23
-354	-12	-28
-389	-47	-15
-357	-93	-2
-242	-129	-14
-41	-141	-21
211	-111	-16
458	-44	3
628	43	-16
676	120	-43
583	158	-37
396	140	-25
169	74	-24
-34	-15	-25
-174	-95	-19
-250	-136	-36
-279	-129	-33
-291	-87	-17
-298	-35	-20
-296	-3	-35
-277	-2	-34
-244	-34	-23
-203	-74	-35
-167	-94	-25
-137	-72	-28
-100	-4	-31
-31	96	-31
91	201	-19
259	277	-1
436	301	-18
561	267	-16
575	181	-10
459	64	-12
229	-57	-12
-44	-166	-12
-279	-250	-16
-412	-298	-25
-419	-305	-28
-321	-265	-28
-178	-186	-21
-40	-71	-24
57	54	-31
103	163	-35
113	233	-33
102	247	-25
82	213	-24
50	150	-17
2	74	-13
-64	2	-17
-136	-60	-15
-202	-114	-22
-242	-158	-27
-248	-188	-24
-226	-195	-31
-177	-173	-31
-113	-119	-33
-38	-45	-26
41	31	-22
122	98	-30
192	140	-23
238	164	-21
251	165	-28
222	150	-11
163	117	-2
81	66	-24
-3	6	-28
-81	-61	-20
-142	-119	-28
-186	-159	-31
-207	-168	-30
-198	-151	-25
-159	-110	-22
-90	-57	-30
-2	-1	-36
88	58	-32
159	110	-26
195	155	-32
187	179	-12
141	178	-7
74	150	-12
2	95	-6
-52	28	-7
-81	-46	-18
-81	-111	-23
-64	-161	-13
-52	-189	-16
-59	-195	-19
-95	-183	-34
-143	-154	-47
-178	-112	-44
-163	-61	-28
-75	-7	-14
81	50	-16
265	112	-20
421	170	-22
486	215	-6
436	231	8
280	197	-4
68	106	-14
-141	-31	-21
-308	-183	-21
-416	-305	-21
-473	-351	-42
-489	-307	-40
-463	-182	-19
-371	-17	-17
-187	138	-31
72	248	-43
366	299	-40
612	301	-33
732	279	-24
700	244	-18
537	200	-11
318	126	-8
117	13	2
-20	-134	1
-99	-285	1
-155	-402	-4
-222	-449	-15
-302	-423	-20
-365	-338	-32
-371	-225	-36
-296	-113	-43
-162	-8	-37
-14	92	-28
93	191	-32
133	278	-45
113	328	-44
69	321	-35
30	250	-23
6	135	-21
-18	19	-25
-58	-62	-14
-126	-95	-24
-201	-90	-25
-257	-75	-21
-263	-74	-20
-223	-86	-20
-143	-95	-25
-52	-72	-17
31	-16	-21
101	64	-21
161	138	-14
210	179	-18
244	175	-19
245	138	-16
208	89	-20
129	40	-28
28	-2	-27
-69	-44	-20
-144	-94	-17
-187	-144	-30
-201	-182	-35
-195	-188	-30
-172	-158	-17
-125	-100	-12
-57	-28	-30
34	34	-19
131	80	-14
212	106	-16
254	125	-24
251	131	-20
206	124	-16
139	96	-11
64	41	-3
-10	-29	-33
-80	-100	-37
-152	-143	-39
-223	-153	-49
-281	-124	-43
-307	-72	-35
-281	-20	-35
-195	21	-46
-56	43	-40
109	48	-30
268	43	-34
373	32	-38
407	18	-8
346	3	15
215	-13	7
37	-29	4
-142	-36	8
-288	-34	-12
-377	-16	-32
-393	9	-32
-354	29	-55
-263	32	-34
-140	7	0
4	-39	-16
151	-87	-8
284	-107	-1
389	-74	-12
439	5	-13
446	105	-12
398	175	-12
306	179	-8
184	101	-8
51	-29	-25
-78	-157	-36
-183	-227	-39
-255	-216	-38
-288	-149	-36
-300	-64	-42
-315	-13	-46
-350	-3	-43
-402	-14	-37
-436	-8	-30
-398	44	-21
-237	133	-9
52	223	-4
418	261	-5
749	233	-5
917	143	-18
853	38	-21
561	-45	-6
148	-95	-14
-247	-125	-22
-491	-162	-20
-545	-214	-19
-436	-265	-8
-269	-280	-12
-137	-222	-15
-79	-96	-22
-71	63	-36
-63	198	-32
-12	261	-38
85	250	-40
184	183	-30
231	113	-26
200	72	-28
104	66	-36
-12	74	-33
-104	68	-21
-151	32	-25
-169	-33	-31
-182	-106	-26
-205	-169	-30
-227	-206	-24
-217	-212	-16
-152	-183	-34
-35	-121	-44
100	-27	-37
211	83	-32
263	178	-22
254	233	-23
202	218	-20
136	147	-22
76	43	-24
23	-52	6
-33	-111	5
-100	-129	-2
-169	-122	-11
-217	-114	-14
-224	-115	-4
-181	-117	-19
-102	-101	-27
-14	-53	-42
56	19	-48
95	95	-37
103	147	-35
95	166	-26
83	158	-8
72	147	-27
58	144	-27
33	147	-5
-6	134	-1
-46	76	1
-78	-33	-12
-79	-176	-28
-47	-307	-28
10	-374	-22
77	-355	-25
129	-256	-18
151	-117	-21
135	10	-45
87	90	-30
26	116	-20
-28	113	-48
-61	109	-38
-65	131	-13
-46	174	-20
-23	210	-21
-10	198	-17
-20	119	-28
-47	-13	-10
-75	-160	-9
-83	-263	-21
-54	-282	-13
4	-217	-26
78	-99	-39
141	21	-25
175	98	-2
170	113	20
141	85	12
107	46	-5
91	24	-13
86	28	-25
79	41	-26
48	41	-40
-20	13	-46
-122	-36	-36
-237	-86	-31
-329	-106	-33
-375	-92	-28
-353	-47	-26
-274	2	-30
-156	37	-26
-23	55	-30
98	59	-33
187	68	-34
234	85	-29
237	106	-20
201	114	-17
139	93	-17
62	43	-26
-15	-24	-30
-86	-89	-23
-147	-129	-14
-190	-143	-11
-214	-133	-28
-210	-112	-32
-174	-88	-20
-104	-59	-24
-12	-23	-27
86	25	-21
170	85	-27
224	137	-38
241	166	-30
222	165	-23
181	128	-14
122	68	-17
53	1	-19
-22	-61	-11
-101	-110	-7
-170	-143	-8
-217	-157	-25
-229	-145	-41
-205	-107	-39
-144	-43	-35
-68	28	-30
10	88	-26
75	112	-33
123	98	-25
155	59	-33
172	21	-34
171	3	-34
141	12	-28
81	35	-20
-22	39	-28
-156	7	-18
-299	-58	-13
-417	-131	-20
-475	-174	-14
-443	-162	24
-303	-98	34
-67	-11	-7
221	61	-24
493	90	-25
676	75	-36
709	38	-37
588	10	-35
336	6	-28
42	24	-30
-201	53	-31
-319	74	-20
-285	75	-10
-143	54	-8
33	13	-9
163	-46	-1
195	-121	0
133	-191	-19
30	-235	-31
-58	-221	-41
-90	-140	-56
-60	-18	-42
-7	102	-37
32	168	-21
33	158	-11
2	84	-28
-27	7	-20
-26	-27	-6
9	1	-10
48	63	-23
50	106	-25
-15	81	-29
-139	-14	-34
-278	-130	-33
-363	-200	-34
-353	-174	-30
-244	-56	-37
-78	96	-37
78	215	-22
175	251	-8
195	200	-8
160	104	-7
105	19	-3
60	-22	-17
29	-24	-24
-4	-13	-31
-59	-19	-27
-136	-51	-29
-212	-97	-27
-256	-131	-21
-243	-143	-21
-176	-129	-17
-75	-99	-13
24	-63	-12
98	-19	-17
140	39	-25
166	112	-31
184	183	-24
202	219	-26
207	199	-15
184	115	-27
122	-3	-48
29	-113	-36
-68	-175	-29
-147	-174	-15
-185	-129	-14
-184	-75	-15
-154	-43	-18
-112	-42	-30
-69	-60	-19
-26	-66	-10
20	-45	-28
70	4	-38
118	69	-33
151	121	-21
155	147	-20
127	131	-40
74	85	-44
10	14	-36
-49	-62	-25
-98	-124	-15
-130	-152	-14
-150	-136	-15
-148	-88	-11
-122	-29	-1
-67	4	0
4	1	-14
62	-29	-37
79	-45	-45
33	0	-26
-65	114	-20
-183	261	-28
-262	369	-31
-260	349	-34
-163	183	-26
2	-82	-10
180	-326	-6
325	-445	14
400	-379	13
414	-171	2
389	58	-14
344	190	-34
297	164	-13
241	16	4
172	-151	-22
100	-229	-37
38	-173	-23
0	-21	-28
-12	132	-21
-18	202	-24
-43	157	-30
-105	36	-35
-193	-82	-49
-280	-135	-50
-325	-110	-75
-315	-33	-59
-261	46	-20
-193	99	-20
-143	123	-26
-121	134	-10
-111	150	20
-85	166	16
-26	168	-7
57	135	-13
133	70	-9
172	-13	-5
154	-92	-8
89	-154	-19
8	-196	-15
-63	-219	-25
-113	-226	-32
-144	-203	-19
-170	-154	-18
-190	-85	-42
-191	-15	-53
-156	24	-40
-71	27	-39
46	4	-41
162	-7	-44
241	21	-51
257	96	-52
216	187	-45
143	248	-38
72	243	-43
23	161	-35
-6	39	-29
-32	-76	-19
-70	-141	-2
-121	-147	-12
-172	-114	-12
-198	-72	-1
-185	-54	-9
-130	-62	-27
-47	-81	-21
42	-78	-9
123	-30	-16
179	60	-5
204	174	11
195	265	-5
154	290	-5
80	222	4
-12	71	-8
-107	-123	-33
-184	-296	-47
-236	-387	-52
-263	-372	-37
-282	-265	-9
-307	-126	-11
-325	-5	-30
-316	61	-44
-232	80	-50
-41	85	-28
248	106	12
592	156	16
892	211	-8
1048	236	-11
1003	204	-9
749	121	-27
351	19	-34
-76	-69	-34
-424	-125	-22
-619	-154	-13
-645	-171	-26
-546	-185	-20
-378	-189	-19
-207	-158	-24
-63	-86	-7
41	16	-22
120	104	-43
176	139	-30
214	110	-14
223	31	2
195	-44	1
136	-78	-11
52	-53	-17
-40	1	-22
-135	47	-26
-221	53	-37
-291	20	-56
-336	-20	-47
-342	-38	-36
-300	-16	-55
-210	33	-72
-88	82	-85
42	106	-56
147	103	-21
208	89	-17
219	84	9
194	91	45
141	99	25
82	92	5
20	53	-4
-46	-7	-32
-115	-71	-19
-184	-126	-20
-239	-161	-30
-264	-184	-29
-253	-200	-16
-198	-208	-15
-107	-190	-19
2	-132	-16
111	-37	-40
201	78	-31
258	174	-34
275	221	-40
255	204	-30
205	139	-39
132	61	-43
51	-4	-39
-28	-44	-42
-100	-71	-53
-154	-99	-40
-183	-136	0
-180	-175	11
-149	-196	-20
-89	-178	-39
-20	-112	-38
46	-11	-41
94	97	-26
116	184	-13
120	230	-21
115	229	7
116	181	24
120	103	17
117	7	14
90	-80	-5
29	-137	-14
-65	-144	-15
-177	-93	-17
-275	4	-22
-344	112	-21
-375	187	-25
-373	200	-30
-337	148	-20
-257	60	-21
-112	-14	-23
112	-43	-32
401	-12	-41
696	44	-55
899	82	-64
918	54	-52
728	-47	-38
368	-196	-22
-52	-345	-22
-390	-433	-30
-552	-435	-16
-516	-352	-14
-348	-216	-18
-159	-72	-11
-38	44	4
-20	110	-21
-65	127	-40
-110	114	-11
-100	100	0
-28	117	4
66	182	-7
126	279	-12
110	372	-15
21	403	-24
-102	329	-28
-199	153	-46
-234	-84	-36
-191	-297	-27
-100	-416	-24
4	-407	-28
86	-289	-34
124	-133	-14
129	-1	-19
117	68	-23
107	82	-26
111	75	-38
127	79	-34
136	102	-27
121	120	2
71	103	9
-11	35	-16
-105	-67	-8
-190	-163	-7
-245	-212	-24
-260	-195	-45
-243	-129	-68
-205	-44	-62
-156	27	-41
-96	74	-30
-23	101	-12
66	123	3
164	157	8
250	192	4
294	218	-8
280	218	-16
205	179	-32
93	102	-37
-27	-3	-44
-124	-113	-41
-181	-207	-35
-201	-257	-27
-191	-251	-14
-168	-190	-31
-125	-94	-32
-65	7	-37
12	84	-54
97	121	-53
171	126	-31
212	110	8
206	93	21
152	83	22
60	67	3
-54	38	-23
-189	-7	-18
-332	-51	-20
-470	-71	-46
-561	-54	-55
-555	-3	-43
-412	57	-35
-126	98	-21
245	93	-2
606	47	9
837	-23	-19
869	-90	-26
714	-138	-13
446	-166	-27
180	-176	-36
11	-177	-35
-33	-163	-19
-1	-136	-27
28	-99	-30
-13	-62	-28
-138	-52	-28
-300	-72	-17
-424	-117	-23
-452	-151	-25
-378	-142	-27
-237	-71	-11
-89	43	-2
22	158	-8
80	229	-15
103	230	-22
113	174	-13
120	95	-16
112	34	-21
74	11	-11
-1	15	-12
-92	23	-24
-164	17	-41
-190	1	-51
-164	-7	-43
-107	15	-18
-55	63	4
-36	113	-4
-45	132	-15
-55	103	-27
-33	35	-21
37	-30	-19
140	-49	-25
241	-6	-31
294	72	-35
273	138	-23
184	140	-22
59	62	-22
-65	-70	-21
-161	-196	-22
-216	-265	-32
-234	-256	-46
-226	-184	-30
-194	-94	-3
-142	-28	-2
-69	0	-21
18	4	-35
109	15	-42
184	50	-45
227	110	-50
229	168	-41
195	194	-20
136	169	1
65	101	16
-8	10	3
-79	-78	-11
-141	-142	-9
-191	-178	-24
-221	-189	-32
-221	-184	-37
-185	-162	-30
-115	-121	-26
-20	-67	-29
83	-6	-20
172	49	-27
238	90	-36
262	113	-33
245	122	-16
192	131	-13
115	141	-21
23	144	-30
-72	123	-40
-176	68	-21
-281	-16	-1
-392	-106	-14
-480	-169	-38
-509	-184	-47
-442	-150	-25
-250	-82	24
46	-1	28
391	81	9
688	166	5
837	257	-26
794	335	-21
569	359	-27
234	282	-43
-101	83	-26
-352	-205	-36
-477	-484	-42
-486	-646	-49
-428	-619	-47
-347	-418	-39
-261	-143	-32
-158	81	-25
-24	165	-19
135	110	-11
285	-6	-9
373	-80	-7
366	-47	-7
251	70	3
60	197	-8
-151	249	-45
-328	195	-19
-435	77	8
-456	-19	-39
-385	-26	-77
-226	62	-48
7	189	-28
273	270	-16
508	249	-9
649	117	-13
639	-69	-1
484	-236	-17
256	-322	-31
49	-309	-30
-51	-212	-27
-27	-75	-25
69	59	-24
151	153	-25
135	183	-32
8	143	-34
-185	51	-16
-357	-64	-3
-445	-162	-15
-426	-204	-16
-339	-181	-30
-241	-105	-43
-169	-8	-25
-125	72	-25
-85	123	-32
-21	141	-32
71	147	-31
160	147	-25
208	147	-26
191	131	-15
117	95	-9
20	34	-11
-62	-36	-7
-111	-97	-22
-130	-135	-23
-142	-149	-17
-160	-150	-17
-181	-145	-11
-183	-137	-9
-151	-114	-7
-74	-65	-20
30	7	-28
132	90	-25
206	157	-25
238	190	-30
229	180	-28
194	137	-24
141	80	-32
80	24	-39
9	-21	-38
-67	-59	-31
-140	-93	-22
-195	-125	-13
-217	-149	-3
-202	-152	-5
-151	-130	-27
-76	-84	-35
8	-24	-1
89	40	-9
158	97	-43
209	140	-41
237	168	-36
234	170	-36
198	147	-31
132	90	-25
48	8	-17
-42	-81	-18
-122	-151	-16
-182	-183	-8
-212	-175	-12
-215	-137	-19
-187	-97	-32
-139	-69	-50
-80	-58	-44
-28	-45	-32
-8	-9	-47
-31	54	-69
-94	139	-47
-163	211	-25
-195	244	-14
-150	225	8
-16	168	18
178	93	21
366	24	27
478	-33	34
470	-91	13
346	-159	-20
162	-233	-44
-13	-294	-60
-116	-311	-55
-126	-264	-56
-66	-159	-64
20	-20	-58
96	110	-42
140	197	-8
160	224	16
162	191	15
140	115	9
91	20	2
-4	-74	-12
-136	-147	-25
-274	-183	-23
-375	-176	-10
-403	-128	-6
-345	-60	-21
-231	4	-17
-102	41	-12
4	52	-28
68	49	-32
102	55	-31
122	84	-28
148	130	-48
166	171	-65
162	181	-77
115	149	-52
27	79	-26
-83	2	-22
-182	-61	-17
-242	-95	-15
-253	-103	-6
-226	-102	-8
-177	-102	-10
-121	-101	-16
-61	-87	-11
5	-51	-5
84	7	-7
165	74	-7
232	132	-14
262	170	-20
251	174	-26
194	156	-24
111	115	-36
19	56	-47
-61	-20	-32
-124	-105	-21
-169	-182	-22
-191	-226	-23
-191	-212	-25
-165	-142	-31
-109	-40	-15
-31	58	-30
52	110	-45
124	106	-38
171	63	-46
184	20	-46
171	7	-42
135	33	-19
90	74	-10
37	89	-5
-18	53	5
-72	-33	-11
-124	-139	-18
-166	-218	-15
-189	-236	-3
-191	-190	9
-181	-106	4
-161	-21	-32
-137	44	-46
-115	92	-48
-89	138	-59
-56	202	-45
-12	274	-38
39	322	-28
98	305	-5
158	202	11
222	32	-3
278	-160	-15
324	-309	11
333	-376	2
296	-362	-19
201	-301	-32
70	-241	-50
-60	-203	-39
-147	-182	-37
-153	-141	-36
-82	-52	-35
30	89	-31
120	251	-17
138	372	-8
69	406	0
-52	332	-8
-167	179	-12
-210	2	-6
-156	-136	0
-34	-198	-7
96	-187	-20
161	-128	-35
127	-63	-44
12	-19	-43
-126	1	-34
-215	3	-18
-212	9	-13
-115	25	-19
28	52	-17
154	79	-14
206	92	-28
172	84	-38
75	58	-36
-40	32	-31
-136	7	-18
-193	-10	-11
-214	-29	-25
-221	-59	-36
-221	-99	-28
-215	-139	-12
-195	-160	-18
-144	-148	-29
-61	-92	-34
39	-9	-39
132	81	-28
198	155	-25
223	196	-37
210	202	-45
169	179	-38
110	135	-38
42	71	-27
-27	-1	-14
-99	-81	-16
-161	-152	-8
-203	-192	-16
-214	-196	-18
-188	-157	-25
-130	-96	-30
-51	-37	-23
34	3	-17
115	19	-17
178	27	-15
221	43	4
239	84	0
228	131	6
188	165	10
122	154	-6
40	88	-9
-47	-9	-24
-124	-108	-38
-183	-171	-39
-214	-183	-40
-214	-157	-39
-185	-115	-32
-130	-79	-3
-58	-50	-1
19	-17	-23
88	41	-23
132	130	-23
139	233	-24
101	313	-32
16	335	-34
-104	279	-30
-232	149	-14
-332	-22	-2
-360	-196	-30
-285	-329	-52
-98	-389	-48
167	-368	-30
439	-277	-22
642	-154	-20
699	-37	-7
597	34	-1
378	49	-12
129	22	-30
-62	-14	-38
-149	-17	-37
-139	25	-47
-95	103	-45
-83	171	-43
-136	195	-20
-235	154	8
-318	64	7
-324	-30	-2
-234	-95	-18
-79	-110	-17
76	-93	-30
170	-65	-35
180	-51	-34
132	-48	-37
80	-34	-34
60	10	-34
89	86	-17
132	165	0
150	208	2
111	188	-13
18	106	-23
-100	-3	-48
-207	-101	-58
-277	-153	-43
-311	-157	-17
-312	-127	13
-296	-87	10
-262	-45	29
-207	1	39
-121	51	5
-12	105	-20
105	135	-26
206	125	-35
269	68	-41
291	-11	-47
266	-74	-51
208	-94	-32
123	-64	-21
24	-17	-32
-80	2	-31
-168	-29	-23
-227	-104	-27
-242	-178	-39
-211	-202	-39
-148	-156	-28
-67	-56	-24
10	53	-13
78	127	-11
131	150	-21
175	141	-9
207	130	-11
222	139	-36
208	158	-32
158	154	-25
77	103	-44
-23	2	-47
-117	-118	-44
-189	-210	-43
-224	-234	-28
-221	-190	-21
-187	-103	-27
-128	-20	-44
-54	24	-27
26	25	-8
100	4	-16
162	-4	-16
196	23	-8
199	85	2
171	153	-15
121	189	-12
55	171	-2
-18	94	-11
-95	-16	-12
-172	-123	-25
-241	-190	-22
-291	-204	-20
-304	-174	-24
-267	-122	-20
-179	-76	-18
-56	-39	-11
74	-10	-20
184	30	-26
254	93	-27
288	169	-16
296	232	-26
292	251	-45
278	211	-29
242	127	-28
156	27	-28
16	-54	-24
-169	-104	-27
-352	-131	-32
-474	-163	-42
-487	-215	-26
-377	-276	-13
-172	-306	-27
61	-263	-35
257	-133	-38
365	55	-30
378	233	-24
322	334	-32
239	318	-10
165	205	4
116	53	24
85	-66	32
56	-125	-2
10	-131	-3
-51	-123	-4
-123	-137	-18
-186	-175	-16
-223	-207	-18
-225	-190	-24
-193	-102	-34
-143	36	-47
-96	178	-46
-69	268	-54
-68	279	-60
-88	228	-35
-94	151	-25
-61	87	-40
25	50	-44
153	31	-30
270	7	-21
322	-39	-13
263	-102	-10
106	-160	-9
-101	-189	-14
-267	-182	-15
-325	-140	-11
-252	-83	-22
-84	-19	-19
99	43	-25
225	104	-18
256	158	-13
206	193	-23
122	197	-18
48	157	-22
1	79	-25
-32	-21	-17
-77	-117	-12
-148	-182	-24
-228	-204	-26
-285	-181	-25
-284	-129	-38
-222	-64	-65
-117	-6	-69
-10	35	-35
72	55	-6
121	59	-8
145	62	-23
167	74	-24
186	104	-27
193	141	-27
166	169	-42
95	161	-58
-8	98	-49
-116	-9	-45
-195	-138	-27
-228	-249	-5
-211	-303	12
-166	-286	15
-108	-206	0
-49	-97	4
13	12	-6
82	90	-21
151	130	-23
206	137	-24
215	124	-10
158	106	-4
24	83	-15
-162	59	-25
-358	31	-37
-505	-1	-50
-545	-38	-39
-442	-76	-18
-200	-107	-7
130	-126	-4
473	-122	-7
732	-95	1
835	-46	-7
755	10	-12
536	56	-19
254	82	-24
12	82	-24
-130	67	-41
-162	49	-43
-130	41	-44
-101	43	-46
-121	45	-43
-197	38	-26
-281	11	-22
-321	-30	-19
-278	-76	5
-163	-109	16
-25	-124	11
81	-120	-9
121	-100	-27
105	-63	-31
74	-9	-43
67	62	-52
101	143	-35
151	210	-25
170	233	-38
124	195	-41
12	91	-35
-136	-48	-25
-263	-183	-15
-333	-268	-19
-321	-282	-9
-260	-229	-5
-177	-134	-8
-102	-38	-17
-43	30	-32
8	63	-32
64	74	-22
129	79	-12
191	93	-15
230	119	-15
226	140	-28
183	144	-36
107	117	-21
22	63	-17
-59	-3	-30
-127	-64	-38
-179	-105	-35
-212	-122	-31
-222	-117	-30
-204	-98	-33
-156	-67	-34
-80	-28	-28
10	18	-25
97	67	-23
167	106	-14
211	127	-14
224	122	-19
206	98	-24
159	62	-36
90	23	-20
8	-14	-1
-72	-53	-5
-140	-98	9
-180	-139	-13
-188	-167	-41
-170	-167	-37
-133	-130	-33
-91	-67	-40
-46	3	-53
-3	61	-48
42	93	-23
88	105	-9
130	104	-5
159	103	4
159	104	5
118	93	0
32	62	-12
-87	6	-15
-209	-64	-3
-296	-127	-8
-310	-162	-28
-231	-159	-39
-69	-125	-38
125	-79	-33
300	-36	-31
399	0	-45
401	30	-49
326	59	-27
223	90	-24
138	110	-18
99	110	-15
92	82	-15
77	30	-19
14	-34	-24
-107	-93	-13
-259	-135	-15
-392	-159	-16
-459	-163	-4
-448	-150	-2
-369	-112	-26
-264	-52	-34
-169	28	-42
-82	114	-45
20	183	-39
166	218	-44
354	208	-25
547	158	-7
671	81	-4
664	0	0
498	-71	-1
225	-125	-5
-78	-156	-13
-312	-166	-32
-420	-154	-30
-402	-126	-27
-304	-87	-25
-193	-40	-25
-109	3	-30
-60	48	-18
-26	95	-17
18	142	-20
77	183	-18
136	207	-20
163	197	-27
142	145	-20
75	60	-22
-17	-32	-42
-106	-107	-36
-177	-144	-30
-224	-143	-36
-249	-123	-23
-256	-103	-24
-240	-94	-28
-190	-94	-30
-106	-80	-35
2	-39	-31
110	34	-30
194	118	-27
234	182	-23
231	200	-23
202	163	-16
158	89	-14
105	4	-25
42	-64	-18
-32	-106	0
-117	-128	-7
-195	-138	-7
-245	-144	-21
-250	-135	-36
-208	-107	-39
-133	-49	-43
-46	28	-30
29	105	-12
85	162	-27
117	189	-24
139	183	-8
155	154	-31
170	110	-32
175	51	-20
170	-20	-9
145	-101	-17
100	-179	-28
36	-232	-34
-38	-246	-35
-120	-221	-37
-204	-166	-38
-273	-108	-26
-317	-58	-22
-305	-23	-3
-223	16	1
-65	70	2
150	148	1
371	227	-1
534	274	-1
579	264	-3
486	178	2
277	34	-6
23	-133	-17
-198	-271	-16
-325	-344	-6
-345	-336	-27
-295	-261	-38
-225	-153	-42
-177	-39	-44
-156	63	-38
-126	160	-46
-54	253	-40
74	341	-36
222	401	-34
333	397	-19
344	301	-3
250	121	4
78	-95	3
-99	-278	-13
-217	-368	-32
-250	-340	-48
-219	-232	-64
-169	-105	-60
-142	-23	-61
-143	-7	-56
-144	-33	-38
-111	-51	-24
-22	-20	-6
105	61	13
230	158	22
306	223	-5
311	215	-19
252	144	-11
157	33	-16
60	-75	-19
-25	-152	-36
-94	-188	-27
-155	-192	-19
-207	-175	-30
-245	-143	-22
-251	-98	-31
-214	-40	-23
-137	16	-9
-38	61	-12
58	83	-8
136	83	-16
182	80	-26
200	85	-20
188	110	-14
152	142	-25
93	161	-37
15	139	-36
-75	75	-28
-159	-23	-30
-224	-124	-27
-256	-195	-17
-248	-218	-11
-209	-189	-4
-141	-126	-22
-57	-51	-31
35	17	-25
124	66	-16
201	102	-25
251	123	-37
263	138	-7
239	144	-23
175	137	-38
92	108	-30
0	55	-28
-86	-19	-9
-151	-103	-22
-187	-175	-32
-194	-218	-38
-177	-219	-36
-145	-182	-25
-116	-113	-34
-94	-34	-30
-81	35	-32
-65	89	-30
-33	120	-13
28	141	-9
113	160	-14
201	177	-10
260	188	5
266	177	15
215	129	-2
127	38	-16
35	-83	-28
-30	-208	-40
-61	-301	-47
-64	-332	-33
-63	-290	-18
-69	-187	-28
-87	-57	-30
-95	59	-39
-78	135	-40
-29	160	-36
36	143	-36
97	111	-32
123	85	-24
111	68	-11
71	56	-10
27	29	-20
-4	-22	-25
-18	-93	-15
-23	-165	-13
-35	-210	-8
-59	-214	6
-88	-166	6
-100	-85	-18
-72	9	-24
-4	97	-15
91	160	-19
182	195	-24
236	198	-19
229	174	-5
163	126	-34
55	60	-37
-71	-8	-35
-191	-66	-44
-287	-101	-31
-344	-112	-33
-361	-106	-22
-333	-97	-30
-266	-95	-27
-164	-96	-32
-42	-89	-37
81	-53	-31
184	12	-28
253	98	-27
280	174	-20
266	215	-14
216	199	-35
144	130	-24
62	33	-19
-24	-61	-23
-103	-127	-32
-168	-156	-27
-210	-150	-6
-226	-124	-10
-212	-93	-13
-167	-59	-11
-98	-24	-18
-12	12	-25
81	50	-36
165	84	-40
225	110	-20
250	121	-21
234	121	-38
175	104	-35
96	75	-28
6	29	-23
-77	-29	-24
-142	-90	-9
-185	-145	-6
-207	-176	-6
-206	-169	-9
-183	-123	-12
-135	-53	-15
-62	19	-26
21	72	-20
99	89	-30
151	77	-34
162	50	-48
130	33	-49
64	40	-14
-18	66	-1
-102	91	-3
-178	91	-5
-242	53	4
-280	-19	-9
-282	-104	-30
-231	-175	-24
-113	-208	-29
63	-196	-35
262	-153	-35
426	-86	-56
495	-11	-54
433	61	-28
259	126	-25
31	177	-22
-154	206	-5
-216	205	15
-119	171	24
98	110	24
342	30	16
503	-57	-12
495	-139	-22
312	-209	-25
17	-259	-44
-269	-275	-59
-443	-254	-64
-448	-189	-55
-305	-92	-48
-96	20	-38
93	118	-40
196	179	-35
205	202	-27
145	188	-27
66	155	-21
-8	112	-22
-72	67	-21
-142	17	-18
-224	-41	-13
-303	-97	-19
-351	-140	-22
-342	-153	-16
-267	-133	-16
-143	-85	-12
-10	-23	-10
97	30	-12
162	71	-6
184	99	-9
184	121	-16
170	138	-4
151	144	-6
119	127	-14
70	80	-12
5	7	-19
-65	-74	-38
-133	-133	-42
-182	-158	-36
-213	-137	-50
-228	-91	-52
-218	-41	-43
-185	-7	-32
-117	4	-28
-18	3	-26
97	8	-12
202	32	-27
268	76	-36
279	120	-25
234	143	-22
155	129	-19
62	72	-17
-21	-11	-18
-87	-95	-15
-135	-155	-12
-169	-179	-9
-183	-163	-20
-172	-123	-22
-130	-70	-20
-62	-21	-14
16	27	-25
84	67	-46
121	101	-32
124	126	-25
103	135	-35
78	122	-13
62	86	13
61	39	7
60	-11	-13
34	-54	-21
-41	-88	-25
-170	-115	-40
-325	-145	-29
-468	-178	-8
-530	-199	-15
-465	-185	-25
-259	-117	-30
58	7	-21
415	159	-21
716	291	-23
884	356	-25
869	321	-21
695	199	-18
416	32	-24
113	-115	-2
-140	-202	19
-308	-216	17
-387	-181	-15
-392	-134	-33
-354	-102	-17
-281	-88	-49
-187	-69	-72
-74	-29	-63
40	37	-58
131	102	-46
175	132	-26
163	106	-20
107	34	-35
36	-53	-13
-12	-114	0
-26	-122	-8
-10	-86	-20
6	-30	-39
-4	10	-33
-54	15	-44
-136	-3	-55
-215	-29	-43
-259	-40	-36
-245	-36	-14
-179	-17	7
-85	12	19
3	50	34
60	106	18
77	168	-6
65	221	-17
46	233	-16
34	187	-25
41	83	-40
57	-43	-30
69	-144	-15
60	-191	-18
23	-179	-24
-39	-141	-25
-108	-110	-38
-159	-107	-37
-168	-116	-35
-124	-104	-40
-37	-44	-28
70	63	-22
169	179	-33
228	255	-44
237	256	-24
201	188	-8
133	86	-3
55	-6	-6
-21	-62	-17
-91	-90	-21
-151	-110	-25
-199	-141	-31
-229	-176	-26
-229	-195	-20
-191	-174	-35
-123	-103	-39
-36	-5	-28
46	89	-32
105	151	-38
131	180	-36
123	191	-25
97	202	-9
64	214	9
41	210	9
27	158	0
17	43	-4
2	-118	-12
-26	-286	-33
-64	-406	-41
-104	-437	-46
-121	-378	-43
-104	-259	-33
-44	-127	-37
44	-25	-34
139	34	-30
214	60	-19
248	82	6
236	120	9
187	174	3
126	225	11
68	241	-2
20	202	-24
-21	106	-30
-61	-13	-31
-104	-116	-43
-143	-163	-63
-178	-147	-54
-205	-83	-30
-227	-6	-12
-241	46	-19
-239	72	-23
-197	81	-2
-91	104	-6
85	153	-17
292	213	-19
462	247	-31
519	213	-36
411	100	-43
169	-70	-47
-124	-237	-48
-354	-344	-28
-428	-361	-8
-335	-305	-11
-142	-213	-15
40	-126	-22
117	-65	-21
63	-24	-20
-69	16	-17
-183	68	-25
-199	122	-35
-90	155	-28
102	153	-21
291	117	-26
406	71	-35
406	35	-26
305	17	-15
145	-1	-13
-22	-40	-30
-168	-108	-26
-272	-184	-11
-325	-226	-15
-318	-194	-13
-245	-86	-16
-123	67	-19
20	206	-16
141	279	-20
209	267	-16
208	194	-11
159	102	-19
90	29	-6
32	-15	12
-8	-44	0
-47	-81	-11
-96	-126	-22
-161	-165	-31
-225	-174	-21
-258	-142	-25
-237	-85	-38
-165	-31	-41
-57	-6	-35
47	-11	-24
129	-19	-40
175	5	-49
195	77	-42
195	174	-30
175	252	-15
135	256	-25
62	168	-28
-34	14	-24
-136	-148	-27
-209	-250	-11
-234	-263	-7
-204	-196	-20
-139	-92	-25
-65	3	-21
-8	56	-20
29	67	-34
51	55	-51
69	43	-41
84	40	-24
85	48	-16
56	52	-6
-6	52	-5
-91	45	-7
-162	41	-17
-191	40	-19
-154	36	-30
-58	16	-36
66	-27	-19
180	-87	-24
242	-148	-30
245	-179	-24
196	-163	-19
119	-101	-21
36	-8	-26
-39	85	-23
-104	153	-4
-152	183	-16
-169	180	-21
-135	154	-7
-35	116	-14
124	74	-26
308	22	-35
451	-41	-12
490	-120	-3
391	-201	10
175	-264	-4
-88	-292	-16
-300	-263	-33
-393	-187	-60
-352	-79	-56
-211	31	-64
-50	112	-46
63	154	-35
100	158	-38
80	139	-21
42	114	-13
24	90	-7
28	62	-9
29	25	-12
-1	-28	-7
-77	-89	-7
-172	-138	-22
-243	-164	-36
-251	-149	-37
-189	-99	-33
-84	-23	-33
24	58	-27
98	131	-16
130	186	-14
132	214	-18
127	210	-17
120	171	-7
104	104	-5
58	18	-14
-22	-67	-12
-124	-134	-8
-217	-176	-9
-269	-190	-16
-262	-183	-24
-208	-157	-37
-126	-113	-40
-41	-55	-34
33	15	-17
98	85	-17
157	138	-39
205	162	-30
230	158	-29
214	136	-28
156	110	-29
63	88	-36
-32	61	-31
-110	18	-30
-148	-51	-20
-158	-133	-25
-150	-198	-21
-140	-223	-23
-132	-187	-17
-110	-111	-15
-61	-24	-16
20	36	-4
125	60	-12
227	62	-14
291	64	-19
300	88	-15
245	120	-11
141	138	-4
17	110	-6
-109	35	-19
-209	-64	-12
-273	-152	-14
-285	-192	-28
-248	-184	-35
-172	-144	-41
-83	-102	-39
-11	-68	-34
24	-32	-48
18	23	-63
0	109	-45
5	201	-39
64	259	-43
175	243	-27
300	150	-16
374	19	-14
358	-94	-25
229	-140	-19
22	-118	-15
-191	-66	-5
-350	-44	17
-412	-77	11
-383	-151	-15
-291	-213	-25
-181	-202	-26
-75	-99	-34
24	68	-16
122	240	-16
229	345	-32
333	357	-27
417	279	-27
454	148	-15
431	-5	6
340	-157	13
194	-297	2
13	-406	-22
-174	-456	-44
-331	-412	-59
-426	-265	-48
-434	-53	-38
-347	158	-31
-185	296	-31
11	318	-43
186	241	-41
299	127	-46
322	43	-37
269	25	-27
166	56	-25
42	85	-24
-71	72	-18
-166	11	-7
-234	-70	-5
-272	-124	-7
-281	-124	2
-259	-82	-8
-212	-34	-22
-152	-15	-22
-86	-23	-21
-25	-37	-23
29	-18	-37
78	45	-34
127	131	-32
170	194	-35
194	202	-33
184	143	-30
133	49	-23
52	-36	-13
-42	-89	0
-128	-105	0
-187	-105	-7
-208	-109	-11
-198	-120	0
-165	-126	-9
-114	-109	-35
-52	-63	-39
18	-2	-19
94	50	-9
167	81	-27
222	90	-32
245	96	-32
234	108	-38
191	121	-35
123	120	-37
40	81	-35
-44	4	-36
-126	-92	-27
-194	-171	-19
-241	-208	-23
-255	-190	-28
-239	-135	-36
-191	-72	-20
-132	-20	4
-69	18	-16
-13	51	-42
41	86	-48
104	121	-11
180	145	12
263	138	-20
332	102	-11
354	41	0
302	-24	-15
178	-79	-28
1	-116	-11
-185	-139	0
-328	-153	-34
-399	-157	-25
-383	-143	-7
-300	-110	-9
-180	-51	-9
-58	19	-32
34	93	-38
92	156	-45
117	199	-46
132	221	-32
156	215	-25
204	177	-27
275	99	-19
339	-15	-8
358	-147	-24
300	-260	-32
154	-326	-33
-55	-322	-23
-264	-246	-21
-415	-127	-19
-455	0	-18
-380	104	-23
-227	170	-15
-55	200	-21
75	203	-24
126	186	-22
97	150	-16
11	99	-17
-92	34	-21
-164	-24	-7
-169	-60	-7
-89	-57	-5
63	-19	-2
253	28	-9
417	52	-21
501	24	-16
481	-53	-22
365	-157	-40
207	-232	-46
68	-240	-54
-8	-171	-43
-22	-49	-42
-1	68	-45
5	132	-43
-30	120	-33
-107	49	-30
-201	-36	-44
-280	-92	-39
-328	-94	-18
-344	-57	-16
-341	-13	-19
-325	8	-4
-290	-1	-3
-226	-21	-5
-124	-24	3
2	11	-9
123	81	-12
206	158	-6
236	210	-22
210	214	-35
156	171	-24
87	97	-17
24	14	-21
-34	-56	-19
-92	-110	-6
-148	-144	-9
-189	-163	-25
-200	-160	-20
-174	-137	-17
-113	-95	-19
-32	-40	-18
48	15	-28
112	60	-35
159	92	-35
190	110	-25
206	119	-13
208	115	-11
184	93	-28
132	55	-41
53	3	-33
-41	-49	-19
-134	-87	-25
-205	-101	-53
-240	-91	-52
-237	-72	-27
-200	-59	-2
-135	-60	-4
-46	-63	-14
45	-54	4
133	-20	-5
194	43	-13
213	117	-25
186	174	-54
117	193	-42
28	158	-35
-58	81	-28
-120	-17	-26
-147	-110	-15
-132	-176	-6
-89	-199	-33
-31	-177	-30
26	-114	-25
69	-28	-25
98	55	-34
109	106	-43
118	106	-33
130	56	-24
153	-21	-15
175	-85	-14
186	-104	0
158	-71	-1
74	-12	-16
-64	35	-18
-234	40	-28
-387	-5	-30
-472	-65	-23
-451	-99	-20
-319	-76	-13
-111	0	-18
115	87	-19
300	136	-18
396	123	-16
394	60	-9
317	-13	-9
210	-51	-20
111	-35	-35
48	20	-32
22	76	-30
17	90	-38
14	57	-37
-4	-9	-22
-47	-78	-2
-110	-123	4
-180	-138	3
-237	-135	-15
-262	-124	-19
-236	-108	-22
-156	-76	-35
-34	-17	-39
98	64	-46
202	150	-43
251	207	-39
234	215	-39
166	178	-36
69	109	-21
-23	34	-7
-103	-23	-9
-165	-66	-18
-214	-100	-19
-251	-130	-10
-268	-154	-18
-253	-157	-24
-194	-127	-17
-101	-62	-13
9	13	-18
110	77	-22
183	102	-20
216	92	-27
223	64	-25
204	43	-30
169	43	-25
118	60	-21
48	69	-32
-34	44	-24
-122	-19	-20
-194	-106	-23
-234	-181	-23
-234	-210	-25
-195	-179	-33
-130	-101	-35
-54	-9	-35
25	67	-37
104	112	-41
170	129	-35
223	135	-30
244	141	-27
229	147	-24
175	131	-11
94	85	-3
0	5	-11
-96	-92	-8
-180	-170	-20
-255	-206	-21
-312	-189	-21
-346	-136	-21
-339	-74	-7
-273	-23	-18
-143	6	-20
32	24	-18
215	41	-16
360	68	-11
421	94	-18
381	104	-32
249	93	-43
72	65	-46
-95	41	-36
-205	36	-17
-229	52	-9
-172	71	-20
-52	72	-26
85	36	-25
207	-32	-14
288	-110	-2
322	-170	-5
310	-192	-6
266	-180	-10
207	-144	-21
143	-102	-5
83	-61	2
28	-16	-20
-24	35	-28
-79	89	-50
-139	127	-52
-212	134	-46
-285	96	-54
-350	22	-50
-385	-61	-43
-375	-130	-36
-311	-160	-17
-197	-149	-7
-54	-100	-11
88	-30	-18
202	49	-19
263	132	-14
269	202	-14
224	243	-13
140	236	-10
34	171	-9
-85	61	-7
-209	-67	-21
-321	-177	-25
-403	-237	-26
-419	-238	-24
-345	-194	-17
-181	-129	-36
48	-65	-48
283	-17	-34
459	24	-26
528	63	-13
476	106	-17
344	147	-16
190	171	-9
67	169	-19
9	136	-18
1	83	-24
4	21	-23
-18	-32	-21
-85	-77	-27
-178	-111	-32
-264	-140	-30
-310	-165	-14
-292	-175	-18
-226	-159	-24
-130	-99	-25
-35	-4	-25
45	114	-35
107	221	-40
149	282	-15
165	279	-7
151	213	-23
101	103	-38
20	-13	-40
-76	-102	-29
-154	-148	-11
-193	-154	-6
-182	-141	-12
-130	-130	1
-60	-131	-5
5	-144	-23
53	-148	-31
86	-125	-47
109	-68	-51
132	19	-48
155	110	-30
166	183	-24
150	213	-20
97	196	-9
11	139	-24
-99	62	-33
-205	-12	-44
-289	-69	-43
-328	-97	-40
-308	-97	-40
-231	-75	-20
-105	-45	-1
36	-24	6
166	-17	-4
256	-26	1
302	-40	2
325	-44	0
346	-26	-13
392	17	-18
446	70	-6
470	110	-36
422	117	-19
269	77	-11
29	0	-18
-239	-90	-7
-459	-169	-30
-577	-214	-30
-581	-219	-39
-522	-194	-34
-459	-145	-22
-448	-85	-39
-484	-12	-25
-512	67	-35
-455	150	-40
-255	228	-1
82	279	6
489	298	8
852	262	11
1060	185	4
1057	71	-22
839	-58	-36
484	-179	-35
93	-274	-54
-236	-322	-59
-432	-316	-40
-474	-252	-23
-390	-151	-27
-241	-32	-32
-96	83	-18
-7	171	-30
3	237	-40
-51	272	-38
-130	287	-38
-183	274	-27
-172	228	-20
-86	138	-12
41	14	-20
154	-118	-26
199	-234	-21
144	-299	-27
8	-306	-18
-157	-265	-17
-277	-203	-22
-300	-140	-26
-212	-82	-15
-52	-19	-8
117	61	-15
234	158	-12
265	247	0
219	298	4
133	271	-12
40	171	-19
-36	21	-24
-96	-123	-22
-153	-221	-7
-210	-240	-12
-259	-192	-22
-278	-117	-17
-250	-51	-27
-173	-19	-47
-62	-13	-55
50	-11	-61
142	12	-46
201	65	-27
229	130	-19
237	180	-12
228	189	-17
199	149	-16
144	72	-23
60	-9	-31
-43	-71	-26
-144	-106	-30
-218	-110	-28
-248	-108	-25
-232	-108	-24
-180	-115	-21
-105	-120	-28
-25	-105	-36
54	-60	-30
129	13	-14
191	100	-6
226	178	-10
228	225	-7
186	229	-21
106	189	-22
3	116	-16
-107	27	-27
-202	-62	-16
-269	-139	-9
-296	-190	-7
-281	-207	-7
-237	-187	-4
-166	-133	-6
-81	-58	-26
19	18	-27
128	76	-19
250	98	-19
373	87	-34
481	55	-44
536	23	-37
508	6	-32
391	8	-30
184	15	-36
-63	9	-25
-298	-25	-27
-463	-85	-44
-536	-152	-43
-512	-192	-35
-420	-181	-1
-285	-109	5
-122	3	-3
59	120	-14
254	202	-17
433	221	-12
558	174	-32
580	88	-35
478	-4	-35
269	-65	-35
17	-82	-35
-205	-60	-35
-333	-33	-39
-353	-29	-27
-292	-67	-4
-214	-131	-9
-167	-191	-12
-162	-198	-5
-182	-136	2
-180	-17	-12
-127	118	-25
-22	215	-21
104	244	-18
206	203	-19
245	123	-25
219	51	-19
143	11	-21
44	7	-23
-44	11	-15
-116	-1	-13
-169	-41	-24
-210	-97	-36
-236	-140	-31
-240	-156	-34
-209	-131	-38
-143	-84	-41
-46	-28	-42
63	23	-34
160	75	-27
228	127	-18
253	181	-4
236	222	4
184	224	-8
109	179	-18
27	88	-30
-50	-25	-36
-112	-129	-36
-153	-201	-39
-172	-238	-38
-178	-248	-38
-178	-240	-32
-175	-219	-26
-169	-178	-12
-147	-107	-9
-98	-8	-14
-14	106	-16
100	210	-13
223	279	-14
322	305	-28
363	280	-39
325	228	-30
216	149	-6
65	57	-7
-83	-46	-23
-188	-151	-36
-232	-244	-48
-219	-301	-42
-182	-300	-38
-150	-229	-23
-125	-102	-3
-92	45	-13
-10	168	-11
135	223	4
333	194	10
517	98	5
608	-29	-11
541	-142	-17
318	-214	-23
-7	-237	-31
-321	-227	-48
-529	-196	-42
-561	-157	-33
-434	-102	-49
-223	-19	-40
-8	86	-39
135	195	-40
188	268	-30
170	279	-17
121	225	-4
78	131	-7
53	51	-5
51	17	-4
54	36	-4
54	76	-14
44	93	-18
17	56	-13
-38	-32	-25
-125	-135	-46
-237	-212	-48
-344	-232	-25
-402	-200	-19
-377	-140	-20
-258	-79	-20
-69	-27	-20
136	27	-9
302	95	2
393	174	-4
399	250	-21
342	279	-7
245	238	-15
136	126	-31
21	-19	-37
-95	-153	-41
-201	-230	-25
-280	-243	-31
-311	-204	-24
-285	-147	-26
-215	-95	-27
-121	-56	-27
-34	-23	-37
36	19	-31
90	71	-34
136	122	-37
184	159	-29
225	169	-15
236	155	-9
202	127	-24
116	96	-30
-1	62	-21
-122	17	-18
-217	-51	-18
-267	-145	-27
-272	-246	-30
-241	-317	-23
-185	-325	-12
-113	-253	-5
-26	-113	-21
67	56	-22
155	198	-19
216	277	-27
245	273	-32
229	202	-36
180	100	-31
110	6	-30
35	-56	-28
-37	-84	-24
-104	-86	-22
-164	-83	-25
-214	-83	-20
-242	-87	-13
-241	-83	-12
-205	-62	-6
-142	-24	-18
-67	26	-28
4	68	-21
62	96	-21
106	94	-20
135	76	-21
149	50	-33
132	33	-30
76	26	-28
-23	26	-31
-135	24	-27
-209	12	-22
-188	-16	-12
-38	-53	-8
212	-90	-12
486	-116	-17
671	-122	-17
689	-109	-7
523	-84	-2
239	-55	-29
-41	-31	-38
-207	-12	-32
-213	6	-26
-102	26	-23
28	48	-27
76	67	-19
-3	68	-13
-175	43	-16
-355	-12	-30
-459	-84	-26
-456	-150	-17
-361	-179	-18
-238	-162	-12
-138	-90	-21
-82	15	-34
-44	122	-32
2	205	-18
66	244	-18
132	241	-35
162	195	-25
125	122	-24
32	35	-28
-84	-50	-19
-174	-118	-16
-206	-159	-9
-175	-159	-12
-101	-123	-20
-11	-64	-24
79	-4	-19
165	39	-16
249	56	-34
326	52	-28
373	44	-31
373	43	-31
314	58	-24
203	84	-30
74	105	-30
-39	108	-35
-117	83	-39
-159	33	-34
-182	-34	-21
-202	-102	-8
-225	-157	3
-242	-185	-2
-237	-179	-14
-202	-142	-20
-141	-82	-25
-64	-16	-43
15	37	-50
86	64	-41
147	66	-42
192	55	-38
214	45	-26
200	50	-25
140	59	-20
41	58	-16
-80	31	-24
-188	-28	-16
-257	-105	-8
-267	-173	-7
-224	-198	-6
-148	-171	-16
-60	-96	-22
15	0	-25
69	89	-24
99	150	-29
109	183	-29
101	200	-26
77	209	-19
44	213	-24
11	200	-25
-12	150	-14
-22	50	-24
-22	-96	-27
-28	-260	-26
-55	-401	-16
-103	-478	-14
-151	-469	-32
-163	-372	-25
-107	-210	-18
34	-21	-12
233	154	0
429	286	-10
558	356	-13
565	358	-12
446	305	-14
245	215	-17
28	112	-22
-142	18	-30
-237	-54	-38
-267	-102	-37
-263	-127	-30
-270	-141	-23
-291	-140	-23
-315	-127	-36
-311	-90	-50
-256	-29	-41
-145	51	-47
2	132	-55
154	192	-39
280	208	-11
363	174	11
383	100	4
337	0	4
226	-98	0
62	-173	-2
-119	-212	-11
-275	-214	-8
-366	-190	-2
-361	-149	-25
-282	-105	-41
-162	-64	-46
-47	-27	-12
25	15	-4
52	60	-32
56	105	-36
66	139	-35
97	147	-31
143	123	-28
175	74	-26
170	22	-28
114	-9	-30
25	-14	-19
-76	1	-17
-159	11	-15
-219	-6	-19
-259	-57	-25
-285	-124	-22
-300	-175	-32
-278	-177	-30
-204	-116	-18
-62	-9	-17
127	111	-19
325	209	-23
470	255	-19
523	250	-19
462	202	-23
310	127	-25
111	40	-18
-80	-50	-6
-225	-137	-13
-307	-207	-22
-328	-246	-27
-307	-246	-34
-256	-204	-31
-186	-136	-21
-102	-60	-21
-4	11	-22
97	68	-20
186	117	-30
242	157	-32
251	193	-25
209	213	-25
135	207	-24
52	161	-30
-7	82	-30
-30	-16	-23
-18	-103	-23
7	-158	-19
20	-170	-18
6	-143	-21
-30	-102	-23
-61	-63	-31
-60	-42	-23
-14	-35	-18
62	-33	-18
132	-22	-25
159	6	-15
124	41	-16
46	75	-27
-41	90	-32
-106	79	-43
-144	41	-25
-178	-8	-14
-241	-61	-12
-350	-109	-14
-474	-149	-23
-556	-174	-28
-523	-183	-38
-340	-160	-32
-33	-101	-25
319	1	-25
611	120	-9
768	229	6
762	287	4
632	272	-8
446	186	-16
269	58	-17
135	-68	-28
40	-153	-34
-42	-181	-25
-135	-163	-37
-244	-127	-50
-345	-96	-46
-419	-80	-40
-443	-64	-36
-411	-33	-23
-340	30	-7
-245	112	0
-131	185	4
-3	221	2
133	198	-9
268	132	-28
368	56	-50
396	0	-40
335	-23	-36
190	-24	-55
4	-31	-59
-172	-68	-54
-285	-134	-42
-321	-206	-4
-288	-240	19
-212	-215	6
-128	-135	-7
-46	-27	-8
33	65	-1
116	117	-2
196	126	-16
257	112	-29
273	99	-16
234	97	-20
143	99	-21
23	84	-6
-95	37	-13
-189	-34	-21
-246	-104	-19
-264	-142	-18
-253	-137	-24
-208	-90	-20
-130	-29	-31
-26	18	-26
84	38	-28
175	37	-34
226	31	-24
226	39	-22
188	67	-29
136	100	-36
91	118	-30
56	104	-30
22	61	-25
-30	1	-32
-105	-56	-39
-193	-102	-29
-260	-133	-30
-280	-155	-25
-238	-173	-23
-141	-177	-31
-19	-154	-30
99	-94	-22
193	1	-33
248	105	-27
262	186	-19
234	215	-36
155	194	-24
32	132	-12
-124	68	-15
-274	27	-25
-385	12	-23
-415	14	-32
-350	7	-33
-205	-16	-19
-16	-56	-26
176	-94	-2
340	-113	11
446	-108	-1
493	-83	-13
476	-53	-14
409	-24	-45
302	6	-59
175	34	-42
43	61	-33
-79	64	-3
-187	29	0
-282	-53	15
-369	-163	26
-434	-257	19
-463	-283	6
-439	-219	-37
-341	-71	-65
-180	106	-61
11	256	-51
186	323	-49
296	291	-57
321	191	-46
269	68	-18
181	-29	-12
95	-70	-8
51	-63	-9
54	-29	-19
89	4	-14
121	10	-7
120	-15	-10
74	-59	-13
-16	-101	-16
-120	-121	-9
-201	-109	-16
-231	-68	-12
-191	-17	-4
-95	28	-9
31	53	-18
149	64	-41
216	64	-41
222	74	-32
159	90	-35
48	104	-36
-76	95	-38
-183	50	-34
-249	-21	-26
-260	-97	-22
-223	-145	-17
-150	-149	-21
-66	-113	-13
3	-62	-16
44	-33	-34
52	-32	-27
41	-47	-32
32	-40	-44
40	12	-42
72	104	-38
114	200	-20
142	243	-10
137	202	-7
85	86	-8
-1	-56	-16
-101	-166	-17
-188	-205	-25
-241	-178	-22
-255	-123	-16
-232	-84	-16
-179	-79	-20
-97	-88	-32
7	-76	-33
125	-12	-28
236	93	-8
311	201	-1
331	261	-18
284	241	-19
192	154	-17
77	40	-27
-30	-54	-21
-112	-106	-19
-167	-121	-19
-210	-120	-15
-249	-123	-21
-287	-130	-33
-308	-125	-51
-291	-93	-39
-226	-37	-37
-113	19	-51
20	52	-47
145	53	-48
234	40	-36
269	50	-13
260	104	2
222	190	-7
182	262	-21
155	265	-20
154	168	-9
167	-11	-5
175	-211	-6
159	-355	-3
104	-393	-8
10	-330	-14
-94	-206	-28
-180	-79	-36
-216	14	-22
-191	63	-7
-117	90	-5
-26	116	-15
54	147	-16
104	171	-19
121	177	-25
115	155	-28
92	115	-33
48	71	-24
-22	28	-10
-118	-21	-8
-221	-90	-20
-295	-177	-19
-300	-259	-26
-226	-294	-40
-81	-252	-40
87	-133	-45
221	22	-38
280	154	-21
252	214	-15
159	191	-14
36	115	-20
-76	35	-2
-157	-12	1
-202	-24	-14
-212	-23	-12
-195	-41	-18
-154	-83	-28
-98	-131	-38
-37	-149	-43
14	-114	-47
49	-36	-43
71	55	-35
93	121	-42
124	143	-47
167	131	-24
205	112	-8
216	104	-15
180	106	-8
93	100	5
-23	62	0
-136	-7	-12
-215	-90	-24
-251	-153	-34
-241	-171	-31
-206	-147	-36
-158	-97	-46
-101	-49	-47
-31	-12	-48
51	19	-42
139	59	-27
214	112	-16
252	161	-14
244	183	-3
192	158	7
114	86	2
30	-9	-7
-49	-90	-21
-116	-134	-24
-172	-141	-21
-216	-127	-29
-241	-116	-27
-229	-114	-28
-177	-113	-30
-88	-92	-16
20	-39	-22
118	36	-25
182	116	-18
201	171	-15
175	186	-13
111	160	-17
31	109	-22
-52	49	-26
-121	-5	-28
-158	-48	-27
-156	-83	-22
-113	-103	-19
-52	-112	-20
-4	-111	-21
6	-109	-31
-24	-114	-30
-69	-124	-20
-79	-124	-15
-7	-87	-18
150	5	-27
346	144	-26
506	287	-12
539	370	-3
409	334	-17
144	166	-21
-168	-85	-17
-420	-332	-25
-538	-472	-32
-503	-449	-32
-363	-275	-32
-180	-23	-32
-8	204	-25
130	324	-12
242	310	-11
331	194	-27
385	41	-31
373	-80	-30
281	-134	-24
119	-127	-25
-70	-90	-19
-215	-52	-18
-267	-33	-21
-216	-35	-17
-105	-48	-12
-4	-55	-13
33	-57	-18
-5	-49	-9
-89	-36	-13
-161	-16	-18
-176	11	-36
-124	45	-51
-28	88	-44
66	127	-34
125	159	-36
137	171	-42
113	161	-17
75	127	-15
36	72	-16
2	8	-4
-35	-59	-16
-81	-114	-35
-134	-152	-28
-184	-163	-26
-215	-147	-26
-213	-110	-18
-176	-58	-55
-107	-3	-51
-16	48	-28
77	85	-42
159	105	-22
213	105	-4
231	90	-12
210	70	-16
155	48	-7
80	24	9
-1	-9	7
-79	-56	1
-148	-118	-7
-206	-178	-30
-255	-211	-36
-286	-195	-32
-288	-119	-32
-248	-3	-32
-160	117	-34
-35	207	-38
107	243	-36
245	227	-33
363	181	-17
435	131	1
462	87	2
435	43	-16
354	-15	-19
216	-96	-5
40	-183	-27
-156	-249	-31
-332	-263	-31
-451	-226	-41
-486	-151	-32
-433	-75	-30
-316	-27	-21
-165	-8	-18
-15	4	-16
117	40	-20
225	109	-18
302	190	-11
361	240	-24
380	219	-32
346	125	-28
258	-14	-12
114	-140	-10
-62	-216	-14
-233	-229	-23
-366	-198	-25
-426	-167	-24
-407	-155	-39
-308	-155	-38
-151	-133	-26
28	-58	-24
188	71	-19
299	227	-16
331	345	-17
289	390	-3
193	336	-2
74	213	-13
-40	68	-17
-126	-47	-24
-177	-113	-36
-199	-131	-49
-201	-129	-49
-185	-129	-48
-147	-140	-41
-82	-153	-36
7	-144	-32
106	-104	-27
194	-28	-23
245	65	-10
257	150	6
229	196	28
178	190	26
123	136	7
72	49	-35
20	-39	-46
-50	-106	-27
-137	-140	-31
-239	-142	-28
-321	-126	-42
-358	-111	-37
-333	-103	-34
-249	-95	-40
-130	-68	-37
-10	-13	-30
82	71	-20
137	160	-22
163	221	-16
172	224	-20
175	166	-20
175	67	-20
156	-33	-6
109	-104	3
26	-127	-5
-87	-116	-27
-210	-88	-60
-321	-63	-53
-394	-45	-36
-416	-24	-15
-362	12	0
-239	63	4
-55	115	9
157	139	-4
358	125	-27
506	72	-57
569	3	-65
543	-56	-43
430	-88	-14
262	-89	2
71	-78	19
-111	-69	44
-262	-72	42
-366	-84	8
-407	-89	-38
-379	-82	-57
-287	-59	-61
-150	-33	-64
6	-9	-56
149	8	-53
258	22	-42
323	38	-21
346	49	-14
331	53	-17
275	39	-14
183	6	-17
52	-37	-22
-95	-76	-9
-234	-93	-19
-325	-87	-43
-348	-59	-51
-300	-22	-51
-205	19	-48
-100	59	-30
-11	98	-12
46	130	-7
78	150	-11
93	151	-17
96	130	-16
81	96	-26
41	60	-27
-24	32	-19
-101	12	-22
-158	-8	-14
-169	-34	-19
-117	-75	-34
-13	-117	-16
114	-153	-9
223	-173	16
277	-175	28
263	-164	24
194	-136	26
96	-89	-6
7	-15	-22
-42	83	-39
-43	183	-41
-14	247	-43
12	241	-53
-4	155	-50
-84	8	-42
-212	-136	-33
-342	-219	-28
-416	-205	-24
-388	-99	-34
-253	45	-45
-51	162	-36
151	198	-28
290	145	-21
334	38	-8
292	-70	-15
210	-127	-19
133	-116	-31
97	-52	-31
94	21	-26
102	64	-34
86	55	-25
32	6	-36
-57	-55	-34
-163	-102	-23
-255	-111	-2
-312	-94	0
-325	-65	-10
-299	-44	-5
-239	-36	-16
-165	-24	-23
-87	8	-40
-21	68	-38
26	143	-21
56	204	-23
81	218	-8
111	174	8
156	92	-18
208	4	-60
248	-55	-54
254	-77	-31
222	-70	-30
159	-69	-25
90	-99	-36
39	-153	-49
19	-206	-51
23	-224	-45
32	-181	-27
30	-86	-9
19	29	2
8	119	-15
10	158	-15
16	139	-2
-7	79	-18
-99	-3	-13
-281	-84	4
-518	-145	9
-726	-170	-6
-782	-138	-17
-610	-39	-18
-200	114	-30
346	275	-18
858	382	-10
1163	372	-5
1176	235	-11
918	17	-31
524	-192	-29
148	-303	-32
-90	-276	-25
-157	-143	-14
-117	11	-13
-74	96	-15
-102	74	-17
-212	-34	-23
-350	-153	-32
-444	-212	-32
-448	-183	-35
-373	-93	-36
-263	2	-32
-178	58	-30
-133	67	-26
-114	57	-46
-82	64	-41
-17	109	-37
69	170	-46
142	210	-36
162	202	-32
115	141	-14
24	54	-5
-69	-24	0
-135	-72	16
-163	-100	25
-167	-122	12
-169	-150	3
-170	-177	-12
-162	-179	-27
-119	-129	-38
-32	-29	-54
86	97	-61
201	196	-57
277	230	-40
295	189	-32
259	97	-34
195	-6	-32
126	-75	-30
64	-95	-13
-1	-79	-12
-76	-52	-30
-162	-44	-35
-245	-57	-30
-298	-87	-23
-296	-111	-11
-234	-116	-6
-126	-103	5
-1	-75	10
116	-41	-9
206	-4	-16
262	38	-16
287	85	-4
280	127	-8
245	147	-17
182	127	-19
97	62	-35
3	-28	-54
-88	-117	-71
-164	-171	-39
-221	-175	-11
-252	-133	-9
-259	-67	-8
-232	-4	-15
-169	40	-30
-71	71	-43
46	95	-47
159	118	-55
239	139	-50
266	148	-62
240	134	-58
170	99	-44
78	47	-23
-20	0	5
-115	-37	4
-205	-60	37
-287	-71	37
-346	-78	1
-366	-77	-7
-321	-67	-12
-209	-49	-16
-44	-29	-25
143	-14	-28
306	-11	-40
411	-14	-38
438	-12	-26
399	6	-23
320	41	-28
237	74	-25
167	82	-19
116	45	-11
68	-32	-5
8	-126	-18
-71	-202	-19
-159	-230	-15
-227	-203	-27
-250	-135	-40
-221	-51	-40
-150	25	-40
-66	89	-40
-6	142	-41
18	191	-50
12	233	-48
-2	258	-24
-3	251	-15
9	203	-10
13	124	-5
-28	33	-5
-126	-48	0
-264	-108	-6
-386	-145	5
-415	-169	-5
-299	-186	-21
-49	-192	-15
261	-183	-15
529	-148	-14
652	-90	-25
600	-27	-35
402	22	-44
150	39	-46
-65	27	-20
-187	-4	-6
-215	-34	-1
-196	-54	-3
-177	-63	-10
-189	-65	-13
-222	-65	-9
-243	-56	-17
-223	-27	-33
-151	28	-33
-42	101	-32
79	166	-33
184	196	-42
266	174	-47
314	120	-42
324	63	-41
283	37	-38
198	48	-33
76	77	-39
-53	83	-42
-160	39	-32
-223	-49	-24
-239	-151	-21
-229	-215	-21
-211	-216	-4
-200	-160	-6
-182	-76	-16
-143	-7	-21
-68	31	-21
32	43	-8
132	62	-17
202	97	-23
219	138	-6
190	157	4
127	122	-8
56	35	-6
-16	-75	-15
-86	-159	-13
-157	-181	0
-215	-141	-23
-248	-74	-54
-237	-24	-55
-180	-14	-52
-98	-35	-51
-22	-47	-38
16	-23	-22
19	46	0
14	135	-10
37	195	-23
115	204	-30
234	158	-33
346	86	-27
405	21	-22
363	-23	-17
223	-52	-12
34	-92	-5
-148	-147	-11
-267	-211	-30
-310	-252	-64
-291	-243	-67
-246	-174	-58
-199	-59	-49
-152	66	-24
-97	169	1
-11	228	16
103	240	8
222	209	6
302	150	-4
316	74	-8
249	-1	1
132	-57	-10
16	-85	-23
-55	-85	-21
-61	-78	-10
-20	-96	-3
32	-154	-13
53	-236	-31
33	-288	-32
-17	-253	-35
-64	-97	-49
-83	145	-48
-65	383	-45
-31	505	-25
-10	453	-25
-16	230	-51
-60	-62	-28
-127	-299	-9
-202	-389	-5
-264	-326	-18
-310	-188	-35
-316	-76	-35
-269	-50	-46
-156	-102	-25
26	-152	-11
245	-119	-9
446	25	1
566	231	-6
562	398	-13
439	438	-11
242	330	-11
44	131	-27
-96	-55	-31
-158	-152	-24
-168	-138	-14
-174	-68	0
-215	-13	-19
-295	-20	-24
-370	-82	-27
-389	-145	-38
-315	-161	-27
-151	-106	-30
54	-11	-19
237	75	-12
342	106	-33
352	88	-44
291	43	-24
198	17	-4
114	21	-12
52	43	-40
7	51	-42
-40	22	-23
-98	-37	-11
-160	-102	-21
-211	-136	-23
-231	-128	-11
-215	-91	-19
-172	-45	-28
-108	-16	-24
-39	-3	-20
32	6	-20
105	33	-17
172	81	-16
223	135	-8
236	169	-20
199	162	-49
118	115	-43
17	41	-36
-75	-36	-30
-137	-102	-21
-164	-153	-14
-165	-184	-12
-164	-195	-21
-176	-173	-30
-201	-104	-47
-218	11	-51
-201	143	-53
-136	244	-43
-22	265	-27
116	185	-22
242	29	-7
318	-147	-10
325	-265	-16
266	-289	-6
169	-211	2
63	-74	-6
-20	54	-15
-64	127	-17
-74	120	-24
-61	58	-31
-43	-17	-22
-28	-69	-16
-8	-78	-10
27	-45	9
83	13	-2
154	74	-19
216	121	-8
253	145	-16
241	134	-27
172	91	-29
71	15	-39
-47	-71	-33
-159	-149	-26
-251	-190	-26
-311	-184	-32
-338	-139	-29
-324	-70	-26
-263	-6	-29
-165	43	-36
-35	75	-43
92	98	-38
192	123	-43
237	145	-26
216	156	-5
151	138	-13
56	90	-21
-35	16	-15
-109	-60	-10
-151	-118	-13
-166	-142	-13
-162	-134	-2
-149	-109	0
-130	-79	-12
-108	-53	-23
-77	-33	-22
-29	-5	-23
34	33	-27
110	83	-34
181	129	-38
227	161	-32
231	160	-29
191	124	-14
117	57	5
31	-24	7
-45	-104	-5
-100	-166	-15
-134	-192	-27
-161	-183	-38
-188	-142	-55
-217	-86	-57
-236	-35	-53
-226	-2	-49
-170	6	-44
-64	3	-51
75	8	-38
221	38	-18
337	92	-28
391	153	-23
359	195	-16
245	190	-21
77	137	-7
-104	47	-15
-244	-46	-2
-305	-112	-5
-277	-138	-25
-185	-124	-34
-69	-91	-38
23	-52	-30
78	-21	-20
102	8	-4
116	37	-12
139	63	-8
167	79	18
176	64	31
144	14	8
59	-65	-17
-57	-145	-19
-165	-190	-27
-226	-179	-38
-227	-111	-50
-181	-20	-45
-115	56	-39
-44	80	-39
29	47	-40
119	-19	-45
226	-77	-41
326	-86	-47
383	-36	-53
354	59	-38
240	158	-21
67	215	-13
-105	207	0
-231	131	3
-285	25	-3
-281	-68	-12
-252	-112	-17
-217	-90	-17
-180	-23	-17
-130	47	-24
-64	80	-22
5	52	-19
49	-24	-13
59	-104	-10
41	-147	-21
37	-122	-19
87	-38	-12
195	62	-13
318	135	-9
374	141	-12
318	87	-28
130	-3	-20
-121	-87	-24
-339	-140	-45
-443	-160	-26
-410	-163	-16
-285	-163	-12
-147	-159	-30
-55	-137	-40
-27	-78	-40
-27	17	-45
-8	124	-42
52	208	-43
142	239	-42
216	211	-45
236	150	-26
187	86	-6
94	40	8
-6	16	11
-89	-7	-5
-143	-47	-14
-186	-102	-16
-221	-153	-22
-243	-167	-40
-231	-129	-33
-169	-47	-17
-52	45	-13
92	110	-31
226	131	-25
314	110	-13
340	79	-25
306	59	-18
237	62	-17
148	70	-26
54	51	-25
-33	-7	-27
-111	-104	-25
-173	-200	-21
-210	-259	-27
-223	-251	-18
-212	-186	-8
-183	-90	-23
-133	-2	-27
-62	53	-35
32	79	-52
140	92	-47
241	111	-30
300	149	-27
291	183	-28
210	196	-12
71	158	-18
-91	64	-35
-245	-63	-34
-361	-192	-25
-431	-280	-18
-444	-301	-10
-393	-242	-11
-281	-117	-8
-106	43	2
101	190	-4
294	283	-8
418	296	-16
452	225	-31
407	108	-43
341	-5	-39
302	-66	-31
318	-63	-31
353	-14	-24
346	28	-27
242	15	-13
29	-69	-15
-236	-202	-21
-459	-318	-20
-561	-358	-27
-508	-292	-18
-345	-142	-22
-156	34	-24
-16	180	-32
41	250	-36
36	250	-40
16	201	-45
18	138	-34
43	79	-25
59	26	-16
32	-20	-9
-50	-54	25
-161	-62	30
-254	-38	-5
-282	14	-3
-229	61	-15
-105	67	-15
54	14	-13
207	-86	-21
319	-182	-21
370	-223	-32
351	-179	-32
275	-67	-32
156	60	-23
31	148	-39
-64	161	-48
-109	109	-32
-98	29	-20
-56	-37	-10
-22	-68	-30
-29	-70	-50
-81	-64	-41
-158	-70	-33
-217	-80	-40
-229	-79	-33
-174	-49	-24
-74	9	-21
40	77	-9
136	131	-4
192	153	-1
212	144	-15
204	113	-16
175	80	-13
132	45	-12
68	8	-26
-18	-38	-30
-114	-94	-15
-203	-141	-27
-261	-163	-33
-270	-144	-36
-230	-94	-24
-150	-34	-4
-54	12	-18
38	31	-40
113	32	-38
166	28	-40
193	40	-42
195	68	-25
171	101	-13
119	117	-6
46	102	-19
-37	56	-24
-113	-5	-20
-169	-61	-23
-189	-100	-21
-185	-118	-26
-162	-116	-31
-133	-103	-30
-112	-74	-26
-98	-26	-26
-86	41	-30
-65	120	-26
-33	182	-13
18	208	-10
82	179	-13
149	104	-8
212	2	0
263	-93	1
296	-156	-5
291	-180	-6
242	-171	-18
132	-151	-37
-30	-134	-29
-223	-127	-38
-392	-123	-46
-480	-106	-43
-421	-60	-46
-213	19	-31
106	122	-30
439	229	-30
671	305	-36
706	325	-30
523	274	-25
189	157	-19
-176	0	7
-432	-158	7
-506	-275	16
-400	-334	12
-197	-325	-5
-5	-265	-16
93	-182	-31
84	-92	-34
12	-9	-35
-55	59	-44
-69	114	-47
-30	151	-49
28	168	-53
64	162	-48
57	143	-39
22	115	-35
-12	85	-35
-16	51	-26
5	8	7
29	-44	21
30	-97	-12
-2	-127	-30
-56	-117	-30
-103	-58	-23
-113	25	-12
-87	93	-16
-35	109	-15
22	61	-12
69	-24	-16
107	-99	-20
132	-117	-23
143	-65	-18
126	26	-6
70	100	-5
-25	105	-8
-139	32	-19
-239	-85	-35
-289	-178	-21
-281	-200	-17
-222	-135	-38
-139	-23	-30
-62	80	-5
0	126	-3
49	106	-19
93	48	-30
132	1	-30
160	-4	-32
162	35	-33
135	90	-36
87	123	-37
36	110	-40
-1	57	-54
-22	-21	-45
-35	-98	-35
-53	-157	-41
-82	-189	-35
-112	-191	-22
-123	-159	-16
-104	-85	-13
-51	24	-14
21	144	-11
90	241	-22
142	275	-22
172	241	-7
183	153	1
175	51	14
151	-25	0
101	-61	-9
24	-72	-2
-67	-89	2
-152	-127	-6
-202	-185	-6
-202	-226	-1
-155	-216	-24
-80	-142	-32
-3	-24	-38
59	89	-44
99	155	-43
116	149	-44
106	89	-48
60	18	-57
-29	-20	-51
-161	-7	-42
-306	47	-35
-412	109	-36
-426	138	-32
-315	120	-15
-90	54	8
189	-37	2
439	-127	-15
588	-192	-13
595	-222	-14
483	-209	-6
312	-164	-14
151	-95	-20
50	-13	-22
11	62	-32
3	120	-27
-10	147	-23
-55	132	-26
-126	85	-32
-194	15	-17
-229	-58	-9
-223	-114	-12
-189	-135	-30
-170	-119	-34
-187	-82	-31
-243	-38	-38
-310	-9	-30
-342	3	-24
-311	13	-32
-205	41	-36
-43	102	-21
140	188	-27
314	266	-30
451	298	-17
534	247	-5
541	123	-10
469	-39	-15
314	-186	-4
105	-275	-6
-112	-288	-15
-275	-242	-24
-339	-170	-48
-291	-102	-50
-162	-48	-30
-15	0	-37
94	52	-30
131	121	-17
106	186	0
46	228	10
-6	221	-5
-45	160	-11
-70	56	-23
-104	-61	-11
-154	-164	-16
-213	-227	-24
-259	-238	-16
-267	-201	-22
-232	-132	-16
-160	-50	-22
-71	19	-27
12	67	-34
83	88	-48
142	95	-38
191	98	-19
228	113	-23
242	133	-23
223	142	-12
171	122	-24
91	59	-21
3	-37	-12
-77	-141	-10
-137	-217	-22
-174	-242	-55
-186	-207	-54
-175	-130	-60
-144	-36	-51
-97	50	-32
-38	114	-32
21	155	-24
72	174	-13
112	177	6
139	166	-15
154	132	-18
151	83	-5
119	15	-10
48	-59	-2
-61	-127	1
-198	-179	-10
-330	-202	-32
-417	-199	-17
-428	-175	-1
-353	-140	-8
-199	-108	-14
4	-77	-6
216	-38	-2
407	24	-22
541	116	-33
598	225	-37
574	313	-38
482	340	-42
346	276	-41
192	133	-35
48	-40	-39
-70	-183	-42
-163	-249	-51
-232	-236	-45
-282	-181	-26
-312	-136	-20
-311	-134	-8
-272	-157	-4
-202	-153	-18
-121	-81	-31
-53	61	-40
-19	228	-48
-22	341	-44
-47	345	-44
-72	250	-28
-83	105	-13
-74	-16	-11
-56	-66	-15
-43	-59	-15
-30	-47	-2
-1	-82	5
62	-167	19
167	-259	24
290	-283	22
390	-204	7
422	-37	-16
363	138	-17
239	235	-25
97	205	-37
-12	72	-43
-54	-81	-49
-48	-174	-45
-32	-160	-37
-59	-63	-36
-141	45	-25
-262	103	-21
-363	76	-25
-405	-6	-19
-366	-93	-11
-263	-125	-16
-145	-90	-28
-46	-6	-36
18	86	-43
56	153	-40
88	182	-34
128	179	-23
175	161	-21
206	138	-24
203	110	-15
152	65	-15
66	2	-9
-36	-74	-16
-128	-145	-26
-191	-196	-17
-222	-216	-25
-214	-202	-28
-176	-154	-24
-106	-83	-23
-15	4	-12
82	90	-25
166	153	-37
216	171	-42
222	142	-44
182	72	-37
115	-4	-31
39	-56	-14
-25	-65	-12
-71	-38	-12
-96	-4	-9
-105	-5	-18
-107	-54	-9
-104	-137	-12
-96	-210	-15
-79	-232	-28
-48	-174	-38
-1	-53	-24
58	80	-21
125	179	-18
184	211	-20
223	182	-16
223	123	-14
170	72	-13
59	45	-31
-111	35	-41
-319	16	-14
-520	-34	-14
-642	-115	-15
-615	-195	-26
-386	-228	-30
35	-179	-28
558	-48	-20
1035	126	-12
1307	275	-13
1247	341	0
965	290	-16
476	147	-34
-10	-29	-43
-336	-174	-38
-431	-235	-30
-348	-218	-27
-215	-156	-17
-164	-103	-25
-246	-88	-28
-417	-106	-24
-564	-121	-25
-589	-91	-31
-451	-8	-24
-207	105	-15
40	189	-5
197	203	1
231	139	-11
170	41	-18
78	-29	-32
1	-26	-40
-57	48	-46
-126	143	-42
-241	183	-37
-394	122	-36
-547	-33	-29
-616	-210	-33
-548	-322	-23
-335	-309	-10
-28	-171	3
281	22	12
517	174	14
620	211	4
605	134	-15
506	-6	-25
380	-114	-33
261	-128	-26
162	-43	-26
72	85	-21
-26	174	-22
-136	168	-30
-247	57	-35
-331	-97	-40
-366	-219	-34
-343	-252	-49
-272	-186	-46
-180	-67	-26
-87	43	-24
-10	104	-24
53	106	-3
114	80	-4
172	66	-20
228	85	-13
255	123	-8
241	152	-12
172	136	-20
66	70	-15
-50	-31	-14
-149	-127	-11
-210	-189	-14
-231	-203	-20
-218	-177	-22
-188	-131	-24
-145	-82	-21
-88	-38	-17
-16	5	-24
68	50	-30
147	99	-18
198	140	-28
209	164	-40
180	163	-40
128	134	-35
76	86	-41
37	25	-54
10	-41	-42
-19	-106	-21
-64	-162	-30
-130	-199	-47
-201	-210	-33
-248	-187	-34
-248	-129	-22
-195	-48	-11
-104	44	-23
-1	130	-4
77	199	5
104	241	5
69	249	-4
-8	221	-13
-96	161	-23
-145	81	-21
-114	-6	3
23	-83	5
244	-138	-13
478	-173	-42
642	-190	-36
648	-200	-32
483	-201	-40
193	-189	-28
-108	-153	-30
-304	-90	-26
-321	-9	-36
-184	68	-44
30	120	-40
207	136	-21
268	119	2
200	84	-16
52	45	-25
-104	16	-30
-222	-9	-12
-291	-39	-4
-338	-75	-26
-379	-109	-20
-411	-124	-17
-400	-108	-10
-312	-51	-20
-145	28	-37
64	109	-23
255	168	-20
366	188	-23
373	171	-18
291	135	-22
165	91	-16
42	48	-15
-51	4	-22
-116	-42	-26
-159	-96	-25
-189	-145	-29
-206	-182	-33
-202	-182	-38
-172	-143	-41
-119	-71	-37
-55	16	-28
9	96	-18
71	147	-19
132	157	-15
184	134	-10
226	92	-15
242	45	-18
219	6	-21
155	-24	-10
63	-48	-13
-39	-74	-21
-128	-100	-14
-190	-121	-10
-221	-129	-6
-212	-116	-2
-174	-84	-6
-106	-34	-30
-18	15	-53
76	56	-67
156	87	-74
200	108	-62
196	124	-47
140	132	-38
46	129	-27
-72	99	-16
-191	38	-13
-289	-51	-12
-340	-145	-19
-324	-216	-20
-231	-242	-1
-69	-211	23
119	-139	12
285	-52	-13
373	18	-7
363	53	-20
262	62	-48
124	63	-20
16	84	-5
-12	129	-24
44	183	-16
151	215	-30
241	189	-26
258	98	-11
175	-37	-19
12	-167	-27
-181	-251	-42
-345	-257	-40
-439	-199	-32
-455	-105	-32
-401	-13	-35
-300	53	-37
-173	100	-37
-25	132	-27
131	163	-15
285	183	-8
409	174	-16
466	128	-23
423	42	-13
288	-54	-14
85	-138	-8
-129	-186	-7
-303	-202	-19
-404	-206	-29
-432	-211	-19
-415	-217	-9
-378	-198	-7
-330	-127	-13
-255	10	-24
-129	185	-19
56	339	-18
286	413	-21
508	372	-23
671	237	-25
723	68	-26
652	-61	-23
478	-122	-24
248	-122	-23
2	-106	-29
-222	-124	-50
-397	-183	-55
-507	-260	-48
-532	-297	-44
-469	-254	-29
-324	-136	9
-126	20	32
72	157	-4
229	237	-18
302	252	-19
297	235	-30
224	204	-18
123	171	-26
24	121	-30
-52	35	-27
-111	-79	-21
-155	-189	-14
-191	-249	-14
-223	-233	-21
-237	-151	-24
-225	-43	-20
-177	35	-8
-100	60	-8
-5	45	-22
89	33	-25
166	56	-30
211	118	-31
221	185	-36
195	208	-40
138	163	-36
62	60	-34
-25	-54	-43
-113	-137	-50
-189	-164	-39
-245	-149	-25
-267	-126	-32
-256	-122	-37
-208	-136	-30
-129	-141	-30
-31	-106	-19
74	-17	-15
180	108	-14
273	221	-5
344	278	-13
383	258	-8
373	171	8
302	53	4
180	-55	-6
20	-129	-9
-149	-164	-26
-284	-167	-46
-361	-157	-34
-371	-140	-19
-321	-125	-22
-236	-102	-18
-133	-68	-31
-25	-25	-39
82	28	-28
179	85	-32
254	134	-21
284	164	-21
257	163	-24
172	127	-7
60	57	-7
-44	-28	-15
-104	-107	-19
-111	-155	-16
-86	-162	-18
-57	-126	-24
-57	-67	-30
-85	-8	-32
-113	37	-30
-108	61	-24
-48	68	-10
53	70	-11
162	72	-27
232	79	-35
234	81	-33
175	76	-34
71	54	-30
-53	22	-23
-188	-21	-23
-331	-62	-21
-469	-99	-28
-572	-121	-36
-589	-124	-39
-480	-108	-32
-229	-69	-28
107	-11	-32
432	59	-20
648	130	-23
698	179	-22
600	188	-13
438	147	-10
301	60	-2
244	-53	-17
245	-159	-8
248	-228	0
181	-245	-20
23	-219	-27
-191	-174	-24
-379	-131	-6
-475	-109	-17
-454	-93	-25
-347	-59	-25
-213	6	-37
-100	105	-35
-21	211	-39
40	284	-36
102	295	-22
167	236	-17
210	132	-15
201	27	-13
118	-45	-23
-24	-81	-21
-189	-89	-11
-337	-102	-16
-436	-131	-19
-477	-168	-30
-453	-179	-32
-363	-135	-23
-204	-32	-23
17	108	-32
262	236	-43
475	305	-28
584	295	-14
566	213	-20
435	101	-17
262	-3	-17
115	-76	-14
42	-117	-9
27	-142	-3
19	-167	7
-37	-192	-1
-161	-210	-13
-308	-199	-35
-411	-149	-30
-409	-69	-35
-288	15	-51
-97	82	-40
90	110	-40
209	106	-43
234	84	-48
184	68	-40
116	69	-31
69	85	-28
58	96	-10
67	80	3
68	26	7
33	-57	7
-39	-145	2
-130	-210	-4
-211	-226	-5
-253	-182	-16
-242	-102	-23
-174	-5	-29
-62	76	-50
62	129	-48
172	150	-44
241	150	-32
253	134	-16
211	110	-30
138	75	-34
51	27	-12
-29	-24	-24
-103	-70	-43
-169	-95	-32
-229	-93	-38
-269	-74	-36
-276	-55	-31
-233	-56	-28
-139	-72	-14
-18	-93	-21
99	-87	-26
179	-33	-22
208	61	-9
194	171	-8
162	244	-16
130	244	-23
107	166	-23
80	31	-23
30	-103	-26
-48	-190	-17
-149	-205	-18
-245	-160	-17
-311	-88	-11
-321	-24	-20
-277	16	-30
-177	35	-28
-37	56	-19
122	91	-12
280	134	-9
409	168	-7
474	161	-13
451	104	-8
341	9	-5
172	-98	-8
0	-183	-5
-133	-229	-16
-193	-233	-21
-187	-207	-34
-142	-167	-42
-96	-124	-46
-75	-83	-59
-77	-37	-56
-85	10	-51
-70	61	-40
-28	113	-24
42	162	-8
119	206	-12
172	236	-20
192	239	-13
163	201	-12
93	117	-14
1	-8	-15
-95	-147	-20
-170	-259	-14
-214	-315	13
-228	-301	-11
-221	-233	-41
-206	-141	-33
-191	-61	-24
-162	-5	-9
-98	31	-15
16	71	-22
166	131	-10
309	205	-17
394	269	-21
372	289	-27
245	244	-32
58	147	-40
-119	28	-51
-234	-65	-34
-259	-113	-35
-226	-116	-40
-177	-102	-33
-150	-94	-33
-151	-104	-28
-153	-115	-30
-125	-103	-27
-46	-53	-32
66	26	-30
184	102	-20
266	139	-21
302	129	-19
288	77	-16
244	13	-12
171	-36	-16
71	-60	-9
-53	-76	-5
-189	-98	-6
-299	-133	-5
-350	-169	-14
-315	-178	-19
-201	-143	-24
-48	-62	-30
94	38	-37
188	132	-28
225	195	-23
216	215	-26
191	206	-12
158	168	-8
116	109	-6
49	29	3
-44	-62	-8
-159	-152	-18
-263	-213	-13
-329	-227	-15
-339	-190	-34
-295	-117	-59
-228	-33	-62
-161	37	-58
-114	82	-46
-82	97	-39
-42	89	-32
28	58	-13
143	19	-13
291	-20	-16
436	-36	-15
528	-13	-11
522	51	-5
399	131	-4
184	174	-12
-65	149	-7
-272	41	-23
-372	-101	-34
-347	-214	-32
-221	-233	-35
-55	-144	-38
82	2	-48
150	129	-33
154	163	-18
122	90	-9
98	-41	-8
100	-149	-18
122	-162	-11
140	-72	-9
129	66	-6
86	171	3
20	174	-6
-43	60	-15
-96	-115	-17
-134	-272	-28
-162	-338	-31
-184	-286	-43
-184	-142	-56
-150	28	-46
-72	161	-40
28	219	-28
124	210	-18
175	159	-11
160	106	-6
90	69	-4
-5	50	-10
-92	34	-26
-149	7	-36
-178	-36	-20
-199	-85	-2
-223	-116	-13
-245	-120	-23
-255	-93	-49
-236	-46	-59
-187	2	-40
-117	34	-25
-42	42	0
36	34	10
120	23	15
221	26	15
333	51	-5
422	97	-26
445	143	-36
365	166	-42
184	142	-43
-47	63	-42
-255	-52	-40
-370	-173	-38
-360	-253	-40
-256	-263	-35
-111	-203	-45
13	-91	-29
86	30	-10
116	122	-20
130	164	-19
150	158	-20
171	121	-14
180	75	-15
148	32	-27
70	-9	-25
-32	-52	-19
-131	-95	-11
-197	-125	-20
-224	-131	-42
-216	-110	-40
-195	-68	-28
-166	-26	-10
-125	1	2
-63	14	5
18	25	12
113	53	12
195	106	-1
245	171	-21
254	213	-40
223	201	-43
169	121	-29
96	-4	-26
16	-137	-27
-70	-237	-29
-158	-274	-46
-232	-260	-59
-272	-216	-56
-263	-169	-26
-216	-125	-27
-139	-78	-34
-68	-11	-19
-22	81	-19
-2	180	-9
12	257	-4
52	278	-11
136	236	-6
258	143	5
373	33	-10
433	-60	-25
393	-126	-32
244	-159	-42
18	-171	-32
-214	-170	-32
-387	-152	-25
-444	-114	-31
-378	-52	-44
-212	22	-35
0	93	-25
194	145	-13
326	174	-14
366	188	-16
320	190	-6
206	181	-7
63	149	-19
-68	79	-26
-166	-31	-19
-212	-159	-14
-217	-270	-34
-199	-322	-25
-182	-299	-16
-174	-210	-16
-169	-97	-17
-147	1	-26
-88	59	-10
14	83	-7
141	92	-12
258	106	-19
326	126	-20
321	139	-22
245	126	-33
125	75	-33
-4	4	-35
-115	-58	-34
-191	-91	-32
-243	-84	-32
-285	-56	-36
-329	-37	-29
-374	-39	-36
-399	-60	-41
-374	-77	-23
-262	-62	0
-64	-8	-6
205	75	-28
488	155	-21
706	205	-14
786	207	-7
701	161	-9
466	85	-13
148	-7	-17
-145	-98	-24
-344	-174	-18
-408	-224	-24
-362	-234	-32
-268	-204	-34
-182	-135	-27
-134	-51	-23
-112	25	-33
-79	80	-30
-10	106	-27
89	119	-28
180	126	-20
224	136	-27
197	139	-27
109	123	-25
-2	77	-25
-98	5	-25
-158	-72	-32
-185	-133	-21
-205	-160	-22
-227	-153	-34
-248	-120	-32
-239	-76	-26
-182	-24	-21
-72	30	-18
64	84	-7
186	132	9
257	161	9
262	160	9
214	122	13
148	59	10
93	-11	1
61	-80	-13
45	-131	-33
24	-171	-61
-23	-201	-66
-100	-222	-58
-197	-217	-63
-288	-179	-49
-344	-99	-35
-335	12	-28
-253	124	-28
-106	208	-24
78	237	-12
257	209	-18
396	140	-7
462	60	12
458	-1	7
398	-34	-2
310	-38	-19
212	-33	-30
107	-33	-42
-12	-52	-52
-154	-89	-40
-300	-125	-37
-420	-143	-41
-459	-126	-41
-400	-69	-44
-239	18	-49
-20	116	-35
187	193	-20
333	227	-15
387	204	-1
358	136	5
270	41	15
156	-54	21
27	-129	3
-104	-175	-16
-231	-188	-21
-329	-182	-30
-377	-158	-33
-351	-124	-24
-255	-79	-13
-117	-22	-14
20	40	-23
116	97	-27
157	138	-25
148	160	-23
117	160	-36
89	149	-35
71	131	-38
58	109	-55
33	77	-50
-16	29	-35
-85	-35	-21
-161	-107	-18
-221	-166	-11
-247	-192	-7
-228	-185	-5
-162	-140	-3
-56	-80	-16
68	-15	-22
192	35	-19
283	72	-15
323	97	-24
297	113	-29
216	120	-22
106	110	-29
-3	84	-24
-93	35	-22
-152	-25	-23
-183	-85	-21
-200	-132	-8
-200	-156	8
-184	-157	1
-140	-135	-4
-74	-99	-22
3	-51	-36
65	1	-41
93	54	-40
89	104	-35
67	140	-45
63	159	-27
96	157	-21
159	137	-33
216	110	-44
228	81	-57
152	52	-54
-1	17	-37
-189	-29	-14
-350	-92	-17
-421	-160	-23
-385	-216	-18
-259	-241	-11
-92	-216	-12
60	-144	-30
172	-45	-30
242	54	-17
288	121	-5
322	135	-2
340	93	-20
320	14	-14
241	-75	-14
99	-131	-21
-68	-134	-14
-211	-81	-10
-277	6	-15
-249	83	-25
-152	112	-23
-35	80	-26
48	2	-25
72	-75	-32
44	-103	-46
-4	-58	-37
-36	39	-15
-32	147	-11
5	205	-19
62	195	-1
121	129	2
156	51	-12
154	7	-9
95	-1	-22
-21	7	-25
-180	-10	-19
-330	-71	-11
-415	-164	-7
-385	-235	-19
-240	-237	-28
-36	-149	-34
139	-4	-30
212	135	-27
163	211	-33
38	200	-37
-68	126	-30
-82	38	-31
15	-24	-36
169	-49	-37
275	-54	-45
265	-66	-32
121	-103	-34
-89	-144	-27
-262	-169	-24
-313	-148	-30
-228	-78	-21
-55	18	-24
116	110	-15
214	170	-11
224	191	-10
169	178	-5
99	147	-3
46	109	-9
8	60	-11
-42	8	-7
-130	-54	-11
-252	-113	-27
-371	-158	-35
-433	-175	-38
-402	-159	-54
-264	-112	-57
-56	-44	-36
172	31	-19
370	102	-21
488	153	-47
508	170	-52
449	153	-32
314	106	-2
143	45	4
-29	-15	-13
-173	-57	-13
-260	-86	-9
-287	-107	-7
-257	-131	-4
-187	-169	-6
-101	-202	-14
-16	-216	-21
50	-185	-23
94	-107	-17
107	3	-17
102	110	-23
80	180	-24
62	195	-25
58	154	-20
77	85	-22
102	14	-20
111	-33	-17
77	-49	-15
-6	-46	-18
-121	-37	-24
-236	-38	-22
-304	-49	-22
-300	-64	-23
-229	-70	-15
-118	-59	-3
-13	-30	-2
59	14	-11
85	63	-17
69	108	-27
24	139	-42
-38	154	-52
-113	147	-72
-186	115	-88
-242	65	-70
-250	2	-54
-184	-61	-33
-37	-109	16
163	-120	11
365	-86	-23
506	-11	-25
553	84	-23
495	161	-28
366	182	-23
226	123	-4
123	-1	-7
81	-153	-9
86	-272	-13
105	-305	-30
103	-237	-17
54	-90	-11
-36	68	-19
-151	171	-18
-257	182	-15
-337	98	-19
-382	-35	-18
-388	-160	-16
-363	-227	-19
-312	-222	-23
-234	-159	-33
-136	-66	-28
-26	24	-22
81	100	-23
165	155	-23
209	187	-25
210	193	-20
170	169	-16
104	114	-18
25	40	-19
-51	-32	-17
-119	-87	-17
-176	-114	-18
-222	-118	-19
-259	-113	-24
-291	-106	-30
-316	-98	-31
-321	-82	-36
-300	-49	-37
-223	2	-35
-76	68	-36
136	139	-24
387	205	-15
614	257	-14
765	286	-15
778	274	-12
652	211	-16
413	91	-20
131	-71	-23
-122	-238	-25
-291	-361	-31
-358	-401	-26
-338	-351	-13
-259	-231	-20
-156	-90	-30
-50	32	-27
42	112	-13
115	153	7
154	171	3
151	183	-14
103	180	-12
23	144	-15
-67	67	-17
-148	-43	-31
-199	-159	-38
-218	-232	-43
-211	-235	-51
-190	-170	-36
-159	-66	-34
-126	28	-36
-88	84	-25
-46	90	-21
-3	70	-21
41	51	-19
86	55	-17
132	79	-12
172	103	-21
203	106	-40
202	77	-28
157	26	-31
66	-31	-27
-55	-78	-18
-179	-107	-23
-268	-122	-25
-296	-126	-24
-258	-124	-22
-172	-103	-30
-69	-63	-31
20	-2	-22
79	64	-20
110	115	-25
128	132	-24
145	115	-15
170	72	-17
189	23	-17
184	-14	-14
129	-38	-18
23	-53	-18
-122	-66	-10
-264	-80	-19
-360	-85	-16
-363	-77	-8
-259	-48	-9
-67	-10	9
159	26	-5
354	45	-34
461	45	-37
453	35	-63
351	25	-68
204	27	-54
64	37	-41
-26	45	-24
-69	41	-30
-83	19	-31
-104	-15	-9
-150	-52	-4
-213	-84	-3
-262	-107	11
-262	-119	10
-191	-119	9
-59	-99	12
94	-48	8
223	30	-9
288	124	-29
276	209	-46
198	254	-55
74	233	-58
-81	142	-46
-246	3	-37
-404	-148	-33
-525	-260	-35
-563	-299	-38
-480	-243	-40
-263	-112	-26
41	48	-8
355	186	-16
575	249	-11
628	219	-5
516	116	-10
302	-8	-23
104	-94	-20
4	-110	-9
28	-55	4
125	24	1
204	76	-16
183	61	-17
45	-16	-35
-155	-121	-48
-331	-202	-60
-412	-223	-65
-379	-180	-51
-267	-100	-32
-143	-23	-26
-55	29	-2
-14	54	12
9	68	6
45	89	-2
107	120	-26
178	152	-33
212	165	-33
188	149	-18
102	106	-21
-15	49	-29
-125	-6	-30
-201	-54	-32
-241	-96	-17
-253	-135	-32
-248	-171	-33
-227	-188	-17
-173	-176	-21
-80	-124	-20
46	-42	-13
179	49	-9
283	123	-30
332	163	-32
322	165	-15
265	139	-17
184	105	-15
98	77	-16
8	57	-22
-87	40	-19
-186	19	-12
-275	-17	-16
-329	-63	-21
-324	-112	-22
-253	-148	-33
-132	-159	-22
9	-142	-15
132	-102	-30
215	-44	-19
251	14	-13
249	71	-31
223	118	-30
184	152	-35
132	162	-35
65	137	-19
-19	71	-19
-114	-31	-12
-206	-149	-23
-275	-244	-31
-303	-280	-14
-279	-240	-10
-208	-135	-14
-108	-6	-28
-1	96	-30
86	145	-47
138	140	-72
159	112	-56
157	93	-39
151	105	-20
153	136	-8
162	154	6
162	130	24
137	55	11
75	-42	-26
-20	-125	-36
-126	-162	-18
-208	-147	-30
-239	-106	-31
-206	-69	-25
-115	-57	-34
4	-66	-32
117	-69	-34
193	-44	-27
212	12	-24
182	76	-39
116	111	-43
44	93	-30
-15	23	-23
-52	-69	-7
-82	-141	5
-112	-162	12
-153	-122	24
-195	-44	11
-212	31	0
-182	76	-18
-97	70	-40
20	28	-36
125	-25	-42
175	-60	-32
162	-51	-21
102	0	-33
52	81	-30
65	158	-13
144	206	-20
254	203	-30
323	140	-28
288	41	-32
138	-69	-28
-82	-157	-27
-288	-194	-33
-400	-176	-36
-388	-115	-32
-274	-41	-40
-123	24	-45
4	66	-32
74	89	-24
97	103	-17
100	119	-11
104	135	-23
109	138	-23
97	112	-11
45	49	-18
-41	-37	-20
-144	-126	-8
-229	-188	2
-268	-208	-11
-256	-190	-22
-205	-148	-20
-135	-100	-15
-61	-54	-15
9	-12	-31
86	35	-32
162	89	-24
228	138	-24
262	169	-21
254	164	-12
198	124	4
110	58	6
13	-16	-15
-78	-82	-30
-152	-126	-34
-217	-147	-48
-274	-144	-51
-321	-117	-44
-344	-70	-39
-321	-8	-27
-237	59	-24
-93	116	-34
90	149	-30
278	147	-21
422	120	-24
478	77	-6
422	24	-8
255	-35	-23
16	-108	-21
-223	-195	-16
-375	-288	-12
-371	-353	-26
-191	-358	-30
105	-278	-25
417	-118	-24
614	82	-21
614	266	-23
422	378	-24
123	394	-23
-160	325	-17
-318	221	-17
-319	123	-17
-212	68	-4
-93	58	-10
-42	63	-16
-81	56	-7
-163	12	-21
-214	-62	-30
-187	-157	-22
-87	-237	-22
35	-283	-26
110	-289	-24
115	-252	-34
66	-184	-53
26	-102	-42
35	-21	-35
97	48	-36
172	98	-33
206	125	-31
165	136	-30
59	139	-21
-64	140	-17
-158	135	-16
-198	119	-6
-205	80	-10
-215	15	-16
-256	-61	-7
-319	-134	-8
-371	-176	-17
-358	-174	-23
-253	-127	-25
-62	-48	-24
175	36	-30
407	109	-32
569	150	-24
623	160	-23
553	138	-25
381	96	-17
148	41	-9
-83	-19	-9
-259	-75	-17
-340	-119	-34
-330	-141	-25
-262	-142	-22
-184	-125	-27
-130	-94	-28
-113	-58	-31
-100	-21	-33
-65	15	-32
9	49	-20
110	81	-15
200	106	-23
241	126	-22
210	126	-16
124	105	-27
13	53	-23
-84	-20	-17
-151	-108	-19
-180	-185	-13
-186	-226	-13
-174	-213	-34
-144	-141	-35
-98	-34	-30
-35	75	-39
33	150	-33
94	171	-33
138	150	-26
163	109	-16
175	84	-8
186	87	-13
184	110	-17
159	125	-15
97	104	-22
-4	37	-34
-120	-61	-35
-218	-157	-22
-264	-214	-18
-260	-216	-16
-215	-171	-9
-169	-101	-13
-148	-31	1
-161	20	3
-191	58	-18
-201	88	-32
-162	119	-46
-57	151	-50
102	174	-60
284	183	-35
455	161	-11
569	103	-11
595	8	11
508	-118	25
333	-259	2
92	-384	-24
-148	-460	-25
-314	-449	-37
-358	-343	-34
-276	-160	-24
-113	43	-26
59	207	-18
172	282	-22
201	262	-24
157	180	-22
94	90	-21
57	35	-21
56	29	-26
64	50	-30
34	59	-22
-60	31	-19
-206	-32	-38
-343	-96	-34
-408	-127	-18
-366	-103	-14
-231	-35	-24
-66	45	-30
52	108	-12
82	137	-18
19	139	-24
-91	135	-23
-187	136	-22
-222	135	-20
-177	115	-27
-68	62	-28
69	-21	-38
195	-109	-34
271	-173	-30
280	-194	-28
223	-177	-29
120	-142	-42
10	-114	-32
-59	-100	-19
-60	-86	-10
12	-53	-8
123	12	-9
223	94	-11
263	166	-38
226	203	-48
125	189	-40
-1	135	-29
-119	69	-19
-210	11	-25
-276	-41	-26
-329	-96	-23
-370	-162	-34
-375	-230	-28
-325	-263	-8
-202	-231	-11
-22	-112	-1
171	60	3
325	228	8
401	321	4
396	301	-20
332	187	-11
248	32	-14
172	-87	-17
107	-131	-24
35	-104	-32
-61	-48	-31
-188	-21	-28
-318	-46	-27
-412	-113	-35
-431	-177	-34
-353	-190	-39
-194	-127	-40
14	-8	-36
214	120	-23
363	211	-18
425	230	-16
396	181	-16
288	94	-32
139	12	-38
-15	-32	-40
-148	-35	-17
-245	-15	-11
-316	-7	-22
-375	-43	-28
-431	-135	-33
-473	-258	-20
-472	-362	-11
-389	-393	-6
-208	-311	-18
56	-123	-18
350	120	5
597	341	5
731	474	-9
722	480	-15
591	372	-16
389	210	-22
182	43	-24
14	-80	-30
-106	-151	-38
-197	-175	-28
-285	-178	-15
-380	-169	-19
-470	-145	-34
-511	-106	-35
-470	-48	-18
-319	17	-25
-71	74	-36
221	113	-41
488	134	-37
655	145	-30
676	152	-40
544	149	-35
302	114	-32
30	39	-26
-197	-80	-29
-328	-210	-31
-353	-308	-23
-304	-333	-28
-234	-272	-20
-180	-153	-21
-157	-23	-33
-142	70	-35
-109	106	-31
-38	102	-19
58	85	-16
151	92	-17
204	121	-14
195	153	-9
131	157	-1
36	110	15
-58	28	6
-136	-61	-16
-195	-121	-19
-245	-133	-23
-281	-102	-25
-304	-56	-30
-298	-29	-35
-252	-32	-30
-168	-63	-36
-52	-99	-35
75	-119	-27
197	-104	-30
296	-55	-27
363	19	-13
383	106	-7
360	183	-11
302	233	-5
222	231	-2
136	169	-16
55	48	-15
-14	-99	-3
-80	-224	-20
-141	-282	-40
-189	-249	-43
-200	-137	-34
-157	7	-40
-59	124	-35
62	178	-30
156	165	-12
174	112	-5
96	63	-17
-54	43	-13
-214	47	-23
-320	46	-34
-328	13	-40
-242	-56	-26
-94	-136	-8
58	-182	-10
178	-160	-16
241	-77	-17
245	29	-11
207	106	-26
138	125	-28
46	88	-37
-49	37	-46
-133	19	-40
-191	54	-51
-206	126	-29
-172	182	-26
-93	171	-19
11	77	1
113	-77	-3
184	-233	-14
203	-332	-36
157	-340	-33
60	-271	-23
-50	-168	-24
-129	-81	-34
-138	-33	-42
-69	-21	-40
51	-12	-25
170	25	-12
236	95	-1
221	177	7
136	231	-6
26	223	-13
-70	145	-21
-126	28	-30
-153	-85	-5
-170	-155	3
-203	-166	-17
-247	-127	-25
-280	-71	-19
-270	-23	-26
-201	13	-32
-87	46	-42
42	89	-37
151	142	-17
213	189	-6
228	202	-1
208	162	-14
170	77	-21
122	-25	-23
66	-103	-28
-1	-134	-34
-70	-121	-38
-132	-90	-42
-168	-71	-40
-173	-82	-25
-148	-112	-16
-103	-133	-10
-49	-115	-15
10	-52	-23
74	39	-23
138	125	-11
195	174	0
226	177	-8
216	139	-19
169	85	-24
85	28	-31
-6	-19	-26
-86	-64	-28
-141	-107	-38
-169	-143	-43
-179	-162	-49
-174	-149	-53
-156	-106	-43
-123	-44	-36
-79	10	-43
-26	47	-49
15	64	-36
35	76	-15
35	95	-9
24	120	-9
20	138	-14
35	124	-8
61	74	0
77	0	6
58	-64	3
-10	-92	0
-111	-71	5
-208	-24	0
-256	11	-4
-217	12	-17
-100	-17	-26
69	-46	-37
237	-40	-39
363	10	-42
425	83	-41
436	130	-31
423	113	-27
394	24	-19
346	-104	-18
254	-225	-11
101	-297	-17
-110	-306	-27
-333	-268	-20
-506	-207	-21
-571	-141	-38
-516	-75	-36
-379	-3	-33
-225	68	-34
-110	132	-30
-48	171	-26
-10	193	-19
54	208	-17
180	236	-15
346	278	-12
490	308	-11
534	287	-19
431	187	-30
202	16	-40
-80	-177	-38
-319	-319	-23
-443	-358	-8
-438	-296	1
-344	-174	-7
-225	-56	10
-137	16	3
-100	51	-29
-93	81	-38
-75	141	-51
-21	229	-56
77	299	-50
194	295	-42
291	189	-18
331	3	-6
292	-190	-11
175	-317	-9
11	-342	-19
-161	-282	-32
-295	-195	-24
-345	-131	-7
-307	-110	-16
-190	-105	-24
-38	-77	-26
100	-1	-30
188	105	-24
214	197	-26
197	235	-23
162	204	-23
128	132	-25
96	67	-24
44	33	-32
-44	34	-30
-177	38	-30
-333	18	-37
-470	-34	-29
-533	-93	-27
-489	-124	-19
-325	-106	-18
-65	-48	-19
239	16	-6
521	48	-7
707	36	-18
766	-3	-14
671	-37	1
468	-45	-14
210	-24	-41
-30	-1	-32
-203	0	-28
-296	-34	-29
-328	-85	-24
-336	-121	-26
-347	-123	-8
-361	-92	1
-361	-54	-1
-321	-35	-13
-240	-41	-28
-125	-53	-32
-7	-31	-27
93	44	-34
170	168	-55
225	286	-48
257	341	-35
254	298	-24
191	165	-12
68	1	-6
-87	-119	-16
-206	-150	-16
-222	-93	-12
-94	-1	-23
136	52	-11
373	26	3
515	-77	12
488	-202	-14
324	-280	-31
112	-264	-36
-34	-156	-60
-55	3	-53
24	142	-34
120	218	-22
136	215	-19
33	160	-15
-156	82	-16
-350	11	-17
-463	-51	-4
-469	-111	-7
-392	-171	-19
-288	-223	-18
-199	-233	-21
-128	-182	-25
-50	-69	-28
56	72	-30
183	194	-40
287	253	-46
324	236	-35
269	162	-38
150	72	-41
13	8	-42
-91	-22	-37
-149	-27	-32
-178	-34	-33
-213	-62	-15
-264	-108	-4
-314	-149	-4
-317	-158	-2
-237	-122	5
-82	-52	-5
107	32	-16
269	103	-12
359	149	-20
369	166	-27
322	162	-36
257	137	-35
191	94	-41
120	29	-40
24	-51	-23
-100	-130	-23
-232	-188	-7
-325	-208	5
-336	-188	-4
-244	-135	-27
-79	-66	-30
99	-2	-31
226	58	-38
266	108	-28
227	147	-30
151	169	-19
85	166	-18
56	134	-10
56	78	1
48	13	-16
-8	-43	-23
-130	-84	-26
-303	-113	-30
-470	-142	-42
-571	-177	-32
-550	-210	-3
-389	-212	-1
-112	-155	-9
223	-31	-26
530	131	-54
732	279	-49
786	350	-32
688	308	-24
468	169	-19
207	-11	-27
-27	-154	-14
-181	-211	-17
-248	-179	-26
-253	-98	-20
-241	-31	-26
-248	-17	-27
-288	-55	-17
-345	-108	-20
-378	-128	-21
-352	-92	-16
-251	-6	-13
-92	84	-13
85	143	-9
236	149	-2
328	113	-4
358	59	2
338	14	-5
291	-17	-30
227	-42	-51
144	-65	-62
30	-89	-42
-111	-93	-21
-256	-69	-12
-355	-17	-13
-362	42	-10
-260	81	-5
-70	75	-4
133	30	-16
279	-25	-30
320	-55	-35
258	-39	-45
144	20	-44
39	88	-35
-13	127	-40
-20	115	-28
-19	53	-27
-51	-33	-38
-133	-111	-28
-240	-156	-31
-319	-157	-39
-330	-123	-41
-262	-71	-40
-145	-15	-32
-24	40	-27
65	85	-13
113	114	0
136	118	-7
154	100	-9
172	64	-23
186	27	-28
172	1	-15
121	-7	-14
36	-8	-14
-52	-23	-12
-124	-61	-12
-163	-123	-20
-172	-182	-19
-161	-207	-19
-138	-174	-15
-106	-84	-20
-58	33	-31
3	137	-25
71	193	-17
124	191	-6
150	147	-8
141	93	-19
115	54	-31
89	33	-38
74	20	-34
66	-6	-24
46	-52	-14
2	-111	-11
-72	-161	-17
-158	-178	-15
-221	-157	-7
-231	-103	-24
-183	-36	-28
-92	30	-35
16	88	-44
111	138	-39
183	182	-23
222	206	-11
233	200	-17
205	150	-24
129	59	-31
-2	-53	-31
-177	-159	-32
-352	-224	-38
-465	-238	-32
-451	-203	-19
-287	-139	-7
0	-64	-23
320	3	-30
565	63	-9
652	106	-8
558	130	-12
334	130	-15
86	102	-17
-89	58	-18
-142	16	-20
-94	-8	-36
-16	-10	-39
19	-8	-25
-27	-26	-31
-132	-84	-36
-244	-170	-37
-304	-259	-32
-291	-301	-12
-225	-265	-11
-137	-159	-17
-59	-6	-12
8	135	-17
76	228	-38
154	257	-32
228	244	-7
261	215	-7
226	192	-24
118	174	-27
-29	136	-19
-159	60	-15
-225	-53	-17
-218	-177	-23
-172	-268	-21
-129	-292	-28
-118	-242	-24
-133	-139	-15
-138	-22	-28
-95	70	-32
2	122	-20
123	140	-11
222	141	-5
260	140	-12
230	137	-28
160	125	-25
84	90	-27
24	35	-43
-18	-34	-40
-63	-100	-29
-124	-147	-36
-195	-170	-43
-251	-170	-34
-262	-151	-22
-226	-118	-20
-150	-70	-19
-64	-11	-27
7	56	-28
59	120	-26
109	169	-31
172	187	-22
252	174	-15
320	140	-18
334	86	-20
259	23	-16
99	-44	-15
-107	-107	-18
-288	-157	-23
-380	-183	-32
-357	-181	-22
-243	-149	-15
-101	-93	-21
0	-30	-22
21	30	-12
-20	82	-16
-67	130	-30
-53	171	-21
59	200	-7
245	201	-12
439	158	-4
539	67	-7
491	-61	-9
294	-192	-7
25	-295	-14
-211	-340	-14
-329	-320	-33
-300	-253	-42
-166	-162	-38
-6	-70	-34
101	4	-25
124	61	-21
86	106	-16
33	145	-24
10	181	-27
17	213	-36
19	228	-36
-38	215	-22
-173	162	-27
-366	62	-37
-553	-72	-28
-665	-207	-24
-645	-291	-34
-491	-286	-30
-239	-180	-24
63	0	-27
358	183	-19
606	301	-20
775	309	-24
845	215	-10
800	71	6
656	-49	13
435	-108	-4
192	-103	-7
-18	-71	-11
-159	-63	-46
-225	-97	-45
-243	-159	-40
-256	-206	-52
-288	-203	-55
-336	-143	-44
-366	-51	-25
-345	28	-11
-259	75	-15
-124	86	-16
15	91	-11
115	109	-19
156	150	-21
141	192	-24
99	201	-20
50	157	-10
7	63	-13
-37	-45	-17
-91	-131	-13
-152	-171	-15
-209	-160	-17
-240	-121	-33
-231	-77	-44
-180	-45	-27
-103	-26	-10
-16	-11	-16
60	11	-29
128	43	-12
184	79	-5
226	111	-8
245	128	-15
237	123	-9
186	93	-8
101	40	-37
-3	-23	-45
-105	-85	-52
-183	-125	-46
-231	-137	-35
-243	-118	-38
-222	-83	-23
-172	-45	-26
-93	-23	-25
2	-14	-18
100	-6	-21
182	12	-23
229	49	-26
230	90	-24
189	115	-17
121	106	-3
41	55	-4
-37	-18	-14
-115	-91	-16
-189	-131	-22
-256	-130	-20
-300	-96	-25
-308	-47	-35
-258	-7	-8
-151	19	2
2	35	-17
171	50	-32
324	67	-43
423	80	-24
447	72	-35
388	38	-39
245	-16	-36
58	-69	-54
-142	-95	-48
-307	-85	-35
-385	-50	-14
-357	-23	-7
-229	-36	8
-39	-93	28
154	-170	18
297	-222	-9
354	-200	-18
322	-97	-30
219	63	-42
89	225	-27
-34	335	-25
-111	369	-33
-129	332	-36
-84	255	-46
12	168	-41
128	84	-22
227	-1	-13
265	-96	-17
222	-194	-17
94	-272	-32
-77	-304	-40
-240	-276	-35
-333	-201	-31
-336	-109	-25
-247	-30	-20
-110	20	-11
22	52	-10
114	83	-11
149	127	-17
138	174	-14
100	198	1
48	171	-2
-16	88	-16
-93	-26	-25
-180	-131	-23
-259	-190	-23
-306	-190	-12
-300	-144	-4
-239	-83	-9
-138	-29	-24
-27	9	-36
65	43	-37
125	88	-25
154	138	-26
161	174	-42
152	171	-24
130	116	-26
93	22	-42
36	-75	-40
-30	-135	-49
-97	-135	-38
-148	-93	-40
-178	-40	-41
-183	-16	-39
-167	-31	-24
-133	-74	-5
-80	-104	-22
-6	-88	-18
83	-25	-12
172	63	-15
245	136	-12
282	163	-15
270	135	-12
222	78	-17
141	19	-26
52	-19	-34
-39	-35	-26
-120	-46	-16
-190	-67	-21
-239	-103	-20
-256	-135	-26
-231	-144	-19
-166	-119	-1
-75	-58	11
22	15	11
102	81	-13
151	125	-20
166	151	-25
155	169	-33
125	177	-36
78	168	-37
9	117	-28
-78	12	-19
-167	-140	-14
-232	-301	-15
-239	-409	-13
-170	-413	-18
-35	-292	-22
129	-81	-31
269	147	-32
340	312	-18
314	358	-14
205	295	-22
49	170	-9
-94	67	-9
-178	41	-14
-170	97	-23
-68	181	-47
97	221	-49
263	163	-51
368	4	-37
350	-202	-27
196	-378	-28
-52	-453	-19
-306	-413	-17
-456	-292	-13
-439	-150	-19
-253	-37	-23
19	26	-25
262	56	-24
374	79	-23
332	109	-27
175	140	-22
0	152	-22
-110	125	-20
-130	66	-35
-98	-3	-37
-85	-54	-27
-133	-70	-21
-237	-56	-9
-333	-31	-19
-353	-21	-19
-263	-28	-13
-95	-41	-23
82	-34	-20
194	6	-11
214	74	-19
167	143	-15
109	181	-17
86	171	-18
103	112	-16
120	30	-13
96	-48	-6
7	-102	-25
-120	-129	-27
-235	-137	-20
-285	-137	-27
-252	-131	-43
-163	-114	-36
-62	-80	-17
10	-21	-32
50	51	-30
74	120	-33
107	170	-32
157	186	-28
206	174	-36
226	137	-25
192	85	-25
106	29	-17
-7	-31	-9
-113	-88	-6
-189	-134	-8
-228	-163	-16
-236	-167	-23
-227	-147	-25
-203	-108	-21
-162	-64	-23
-97	-22	-23
-14	13	-27
79	49	-24
162	89	-18
224	132	-12
258	166	-8
267	174	-14
248	147	-17
194	80	-18
97	-13	-28
-37	-106	-34
-194	-171	-37
-333	-199	-38
-405	-192	-22
-378	-158	-16
-248	-110	-12
-37	-47	-13
204	31	-25
419	122	-23
558	210	-28
597	261	-32
526	253	-38
373	165	-31
172	21	-10
-22	-134	-9
-172	-249	-14
-250	-289	-24
-262	-259	-22
-228	-190	-25
-186	-127	-30
-167	-97	-34
-178	-95	-31
-214	-95	-22
-246	-65	-30
-255	7	-26
-232	110	-38
-180	211	-40
-106	283	-19
-16	308	-18
91	289	-15
214	239	-13
334	164	-14
422	68	-9
438	-44	-9
358	-164	-12
187	-270	-9
-31	-326	3
-232	-318	-6
-350	-238	-26
-350	-110	-29
-247	22	-47
-87	126	-47
63	181	-20
158	188	3
181	164	-1
150	129	-18
91	95	-24
32	60	-40
-21	23	-36
-80	-24	-34
-149	-76	-49
-229	-122	-56
-296	-154	-46
-321	-162	-35
-290	-145	-33
-203	-108	-35
-80	-57	-32
44	-1	-20
139	57	-18
197	110	-13
216	153	-2
216	177	0
201	174	3
172	143	-4
121	86	-13
45	13	-8
-56	-61	-12
-166	-118	-3
-262	-152	-2
-319	-154	-16
-314	-133	-27
-244	-94	-36
-113	-46	-48
50	4	-56
216	53	-54
342	96	-51
398	128	-38
373	135	-26
278	120	-27
154	78	-16
41	15	-4
-28	-54	0
-50	-119	15
-43	-166	2
-40	-192	-13
-65	-195	-20
-118	-173	-30
-181	-124	-36
-222	-48	-42
-228	43	-37
-200	132	-40
-162	192	-42
-127	198	-44
-99	147	-43
-56	58	-42
24	-22	-29
147	-54	-13
283	-24	0
386	45	-2
405	100	3
322	85	29
159	-19	32
-31	-176	14
-190	-311	-23
-289	-343	-38
-325	-237	-31
-316	-32	-35
-277	181	-44
-208	309	-43
-92	299	-40
76	179	-50
270	32	-53
439	-53	-47
520	-37	-40
470	45	-40
302	115	-36
78	99	-34
-130	-29	-21
-263	-214	-8
-312	-368	-16
-296	-409	-12
-253	-316	-7
-213	-133	-8
-165	58	-10
-93	190	-12
14	244	-12
141	243	-5
251	225	-3
299	215	-6
263	211	9
162	174	13
32	93	-6
-80	-24	-21
-152	-139	-32
-189	-208	-39
-209	-214	-45
-231	-171	-51
-248	-122	-46
-241	-94	-36
-190	-86	-19
-91	-74	-12
40	-28	-18
170	54	-20
262	149	-25
300	211	-42
280	211	-45
216	155	-25
125	74	-20
18	12	-33
-91	-15	-39
-188	-17	-30
-258	-32	-28
-288	-85	-26
-274	-165	-18
-223	-238	-23
-145	-254	-29
-65	-191	-17
3	-64	-13
48	71	-26
75	162	-17
90	181	-12
104	138	-17
121	78	-9
141	39	-7
160	39	9
157	58	10
123	61	0
51	20	-3
-43	-65	-12
-137	-159	-20
-189	-216	-38
-177	-200	-55
-93	-108	-62
38	23	-38
170	144	-32
258	209	-39
275	201	-30
228	135	-39
137	57	-42
40	4	-40
-47	-8	-24
-128	8	-14
-209	13	-16
-290	-22	-14
-352	-111	4
-360	-223	16
-281	-309	4
-123	-326	-3
83	-251	-13
269	-112	-16
378	37	-20
385	136	-30
302	162	-27
196	131	-18
111	87	-28
80	81	-25
88	128	-30
97	205	-44
60	256	-47
-39	230	-50
-195	113	-32
-370	-57	-9
-509	-210	-8
-572	-275	-24
-518	-224	-25
-345	-77	-26
-67	96	-30
258	215	-32
552	233	-27
728	139	-5
732	-12	2
569	-156	-7
299	-233	-16
24	-221	-31
-168	-138	-45
-239	-37	-44
-219	32	-40
-180	35	-27
-183	-23	-19
-246	-112	-18
-328	-184	-11
-366	-201	-10
-315	-151	-5
-182	-43	-12
-20	83	-16
109	185	-28
169	236	-27
170	229	-32
151	181	-33
147	116	-27
160	60	-34
159	22	-30
107	-4	-41
-7	-30	-31
-159	-65	-18
-285	-102	-20
-336	-128	-11
-292	-126	1
-184	-92	13
-58	-32	-3
42	28	-18
103	72	-15
140	90	-25
172	87	-19
212	85	-23
242	92	-30
238	110	-34
182	119	-36
80	100	-20
-39	39	-29
-139	-54	-35
-199	-157	-33
-217	-234	-28
-209	-259	-26
-187	-229	-35
-156	-152	-44
-106	-51	-57
-36	46	-48
50	123	-15
132	168	-4
186	179	-12
196	161	-27
167	122	-25
118	76	-19
72	27	-14
41	-18	-8
18	-64	-16
-12	-115	-13
-67	-169	-3
-148	-215	-7
-244	-236	-16
-338	-216	-30
-419	-152	-39
-463	-54	-41
-453	52	-33
-355	144	-27
-145	206	-4
175	237	6
568	241	3
927	227	7
1132	185	-10
1096	110	-21
806	-2	-22
341	-133	-26
-143	-250	-27
-493	-315	-32
-616	-304	-33
-518	-224	-33
-299	-106	-30
-81	6	-54
42	85	-76
57	124	-63
8	142	-45
-34	164	-28
-28	193	-15
18	213	2
62	196	26
55	125	32
-12	3	15
-122	-136	-2
-227	-245	-17
-290	-289	-29
-299	-258	-35
-267	-175	-39
-217	-78	-39
-161	0	-33
-100	43	-30
-23	62	-28
66	75	-26
157	93	-33
223	116	-54
245	132	-48
223	129	-17
165	100	5
93	56	29
18	15	31
-51	-9	22
-117	-18	5
-177	-24	-31
-223	-48	-47
-235	-99	-53
-203	-160	-62
-128	-200	-57
-26	-183	-41
78	-94	-40
162	48	-53
212	196	-47
229	287	-31
216	284	-23
184	183	-21
133	31	-9
69	-112	-5
-6	-192	-4
-85	-196	-8
-154	-145	-20
-202	-87	-26
-222	-59	-24
-209	-66	-9
-173	-88	-16
-123	-86	-23
-70	-36	-14
-25	52	-16
13	150	-16
50	213	-12
97	219	-12
163	171	-9
244	98	-17
314	27	-21
335	-26	-22
269	-62	-38
105	-99	-37
-125	-138	-28
-346	-177	-17
-477	-191	-19
-458	-163	-42
-295	-95	-39
-60	-7	-32
150	68	-36
253	106	-26
238	100	-26
156	74	-10
94	51	-3
114	53	-9
216	72	-9
335	84	-17
386	62	-14
306	-6	-10
107	-103	-14
-144	-194	-28
-357	-243	-33
-473	-230	-40
-489	-168	-48
-445	-85	-35
-388	-15	-27
-321	32	-28
-223	63	-16
-46	99	-3
210	155	2
495	222	-1
714	270	-5
771	266	-9
632	193	-28
343	58	-33
13	-86	-31
-256	-190	-21
-392	-227	-26
-406	-194	-34
-341	-130	-31
-261	-71	-44
-199	-47	-49
-153	-45	-51
-111	-41	-38
-68	-11	-35
-37	53	-37
-31	125	-19
-49	174	-12
-61	174	-15
-31	128	-14
62	61	1
195	3	16
302	-33	1
322	-56	-21
223	-84	-27
40	-129	-32
-151	-179	-34
-262	-207	-34
-251	-181	-50
-134	-92	-48
22	38	-43
143	161	-43
191	228	-41
163	222	-49
101	154	-55
39	64	-44
-3	-5	-32
-37	-33	-25
-79	-25	15
-137	-10	37
-202	-17	40
-248	-59	49
-255	-132	15
-211	-196	-16
-135	-227	-30
-46	-195	-44
33	-108	-40
98	4	-30
144	103	-17
172	154	-8
182	148	-10
163	105	-13
110	61	-23
18	48	-27
-103	76	-27
-235	121	-11
-342	138	-12
-383	100	-23
-325	-3	-16
-162	-133	-39
81	-240	-44
336	-271	-52
525	-213	-52
580	-90	-45
489	48	-50
300	153	-47
94	201	-42
-40	195	-32
-79	158	-33
-49	106	-20
-27	45	-11
-72	-22	-10
-197	-103	-11
-348	-184	-4
-436	-244	6
-399	-260	4
-230	-226	1
7	-153	-11
216	-62	-18
328	24	-17
326	104	-2
254	177	-4
176	244	-30
138	295	-44
131	301	-43
121	247	-28
67	127	-26
-38	-27	-17
-166	-173	-5
-263	-263	-24
-300	-289	-22
-271	-260	-19
-203	-207	-35
-135	-160	-49
-89	-120	-40
-57	-77	-38
-24	-9	-38
28	80	-2
92	170	16
151	229	21
180	235	-4
170	190	-32
131	124	-46
86	70	-48
50	40	-38
28	17	-15
11	-23	3
-20	-99	-17
-62	-196	-22
-109	-278	-20
-138	-291	-31
-140	-216	-33
-109	-74	-34
-56	85	-43
5	201	-26
66	241	-22
120	215	-21
166	160	-20
196	110	-27
198	83	-2
156	61	5
66	25	-10
-62	-37	-23
-200	-117	-47
-313	-183	-47
-366	-208	-37
-337	-189	-40
-234	-145	-39
-79	-105	-35
89	-78	-43
229	-56	-44
306	-7	-41
309	89	-31
245	215	-6
139	332	3
29	368	7
-54	291	-5
-94	114	-9
-100	-95	-7
-92	-254	-17
-101	-297	-21
-135	-219	-30
-187	-80	-27
-229	43	-13
-228	86	-9
-165	41	-17
-49	-48	-8
90	-121	-6
214	-125	-12
290	-61	-17
306	26	-24
276	87	-21
216	91	-17
144	40	-21
69	-32	-40
-10	-89	-38
-97	-116	-28
-181	-113	-27
-250	-102	-20
-281	-92	-19
-260	-74	-24
-191	-40	-27
-92	20	-28
5	94	-32
74	165	-28
94	207	-41
67	215	-51
6	201	-37
-65	174	-33
-129	143	-19
-158	102	-14
-139	40	-19
-65	-44	-27
61	-127	-36
212	-184	-11
354	-188	-1
439	-142	-9
446	-81	-12
363	-38	-17
221	-40	-15
71	-76	-18
-38	-106	-25
-91	-92	-24
-93	-20	-14
-75	80	-8
-71	154	-2
-93	157	-4
-128	80	-10
-155	-44	-14
-154	-158	-17
-130	-213	-19
-103	-200	-31
-93	-139	-40
-104	-70	-54
-120	-17	-69
-113	19	-74
-65	53	-54
19	104	-30
111	164	-19
170	215	0
171	225	17
113	174	25
21	80	9
-71	-38	-6
-139	-138	-10
-177	-198	-28
-188	-207	-35
-189	-174	-37
-182	-112	-32
-162	-33	-27
-119	49	-26
-46	125	-28
49	171	-38
148	181	-40
229	147	-47
272	85	-49
270	22	-31
230	-17	-13
159	-21	-19
75	-4	-24
-7	11	-27
-74	0	-30
-117	-44	-23
-139	-106	-19
-145	-160	-24
-143	-182	-31
-137	-164	-23
-124	-115	-11
-92	-52	-11
-32	8	-7
49	62	-5
139	112	-25
206	162	-30
225	204	-15
178	227	-12
78	210	-21
-48	148	-25
-161	45	-21
-228	-74	-6
-237	-174	-1
-195	-233	-25
-129	-237	-40
-65	-196	-53
-20	-131	-46
9	-67	-23
34	-27	-24
74	-6	-20
131	0	-18
198	12	-26
257	36	-27
280	72	-11
263	100	-2
205	100	-10
122	55	-3
30	-27	1
-60	-120	-17
-159	-187	-28
-273	-191	-23
-400	-121	-18
-515	2	-18
-563	138	-25
-496	239	-30
-281	272	-23
50	237	-19
421	161	-28
720	80	-48
850	17	-54
766	-18	-44
496	-48	-37
136	-92	-32
-204	-161	-21
-436	-233	-10
-532	-280	-5
-506	-271	-17
-412	-196	-26
-295	-79	-27
-174	41	-35
-54	122	-30
77	143	-24
211	116	-23
331	71	-17
399	43	-13
399	50	-7
332	85	-10
222	120	-14
96	134	-15
-23	108	-20
-124	45	-20
-209	-31	-21
-274	-102	-26
-315	-152	-26
-314	-173	-14
-272	-166	-23
-195	-139	-37
-106	-94	-36
-29	-26	-34
28	62	-23
66	166	-30
102	262	-21
147	327	-10
200	327	-31
244	252	-41
251	109	-30
205	-64	-4
105	-221	-7
-30	-318	-18
-166	-337	-12
-267	-289	-8
-311	-211	-1
-290	-139	-12
-217	-93	-21
-114	-64	-26
-3	-33	-43
90	24	-37
154	108	-24
175	194	-16
158	249	-7
106	244	-13
32	183	-38
-46	89	-27
-110	-3	-26
-147	-65	-25
-147	-92	0
-120	-96	-5
-77	-97	-3
-31	-105	-9
8	-113	-20
40	-105	-47
71	-71	-61
113	-17	-57
156	43	-47
184	89	-44
181	108	-54
125	104	-46
27	88	-28
-87	70	-17
-168	50	-17
-181	22	-12
-116	-25	-23
-4	-89	-21
101	-156	-13
151	-199	-21
121	-203	-8
41	-155	22
-35	-60	16
-55	56	3
-1	171	13
95	252	7
172	275	6
170	233	-13
70	136	-31
-88	15	-48
-235	-98	-68
-306	-168	-70
-273	-186	-80
-172	-158	-71
-58	-110	-59
8	-65	-27
17	-36	8
-6	-19	40
-7	-7	45
46	1	17
151	1	-3
262	-23	-23
328	-61	-28
312	-100	-26
222	-109	-35
88	-66	-32
-46	16	-20
-153	110	-20
-226	171	-23
-262	174	-31
-271	126	-30
-238	46	-29
-162	-19	-30
-52	-55	-30
58	-63	-26
129	-60	-20
137	-55	-20
86	-42	-6
16	-4	3
-24	64	3
-10	139	3
53	190	-20
121	174	-42
141	92	-65
91	-24	-81
-18	-115	-81
-143	-139	-67
-236	-95	-52
-267	-26	-50
-241	7	-30
-180	-23	-13
-108	-101	-15
-38	-170	-11
36	-170	8
119	-86	6
203	45	-5
270	155	-4
299	183	-10
268	128	-12
194	28	-10
95	-52	1
2	-75	3
-71	-46	2
-126	-9	4
-175	-11	-4
-221	-62	-11
-253	-134	-24
-256	-174	-45
-212	-148	-57
-122	-54	-54
-4	57	-51
106	142	-47
186	171	-32
221	156	-17
214	126	-31
186	109	-30
148	110	-8
103	103	-18
42	59	-20
-31	-28	-30
-118	-139	-37
-195	-228	-34
-247	-256	-25
-251	-212	-12
-208	-121	-25
-130	-25	-20
-35	45	-18
61	82	-20
148	103	-14
212	124	-13
245	158	-35
242	182	-58
194	174	-50
100	118	-36
-26	19	-13
-166	-91	1
-295	-175	16
-385	-206	32
-416	-192	29
-371	-151	7
-247	-115	-8
-60	-100	-26
151	-92	-32
331	-66	-26
422	4	-43
389	116	-51
245	241	-57
44	328	-58
-123	332	-57
-185	247	-48
-110	93	-28
63	-66	-5
251	-179	9
354	-216	1
318	-188	11
151	-137	0
-71	-110	-23
-252	-127	-31
-316	-177	-28
-241	-215	-30
-71	-201	-39
114	-117	-30
245	16	-14
287	153	-13
245	243	-6
155	262	-3
57	218	-23
-27	142	-35
-94	68	-31
-153	14	-25
-205	-23	-28
-245	-61	-36
-262	-104	-35
-242	-148	-29
-193	-170	-28
-126	-151	-32
-62	-86	-35
-10	10	-35
27	106	-28
48	174	-16
54	199	-10
44	186	-11
16	149	-5
-22	106	1
-50	66	-17
-49	28	-28
-7	-15	-27
60	-69	-25
123	-125	-28
145	-173	-35
107	-201	-29
24	-202	-28
-65	-182	-28
-113	-139	-25
-93	-87	-25
-12	-24	-14
93	45	-7
175	114	-23
204	171	-38
175	205	-32
107	202	-30
27	158	-30
-52	85	-17
-126	1	-9
-195	-79	0
-253	-137	3
-282	-170	2
-262	-176	6
-186	-159	-3
-65	-117	-26
65	-55	-40
169	18	-41
224	94	-34
230	150	-36
204	179	-46
163	165	-48
111	115	-45
36	41	-46
-77	-36	-55
-228	-96	-38
-383	-127	-18
-491	-115	-57
-491	-63	-63
-353	14	-48
-91	90	-28
230	135	17
506	125	28
671	55	39
665	-51	47
516	-154	28
291	-205	2
85	-179	-11
-45	-88	-15
-77	30	-40
-50	119	-60
-26	137	-64
-56	77	-66
-155	-29	-51
-285	-130	-30
-390	-186	-19
-415	-180	-12
-340	-126	-8
-195	-58	-3
-34	-3	-8
96	32	-13
169	57	-13
188	89	-11
175	134	-14
148	181	-13
103	206	-9
28	183	-7
-75	115	-13
-191	10	-23
-281	-95	-31
-301	-173	-45
-232	-206	-49
-93	-191	-64
67	-137	-72
189	-59	-57
236	30	-40
214	114	-34
164	174	-37
133	197	-17
150	169	-10
202	96	-9
255	1	5
266	-85	4
210	-128	-4
92	-119	-14
-51	-71	-15
-183	-20	-16
-272	3	-13
-311	-17	-13
-303	-65	-12
-262	-113	-21
-200	-125	-44
-121	-88	-51
-33	-9	-42
57	81	-24
132	150	2
181	174	19
189	158	24
155	117	11
84	77	-17
-9	51	-40
-109	38	-60
-198	19	-68
-257	-23	-66
-271	-94	-47
-229	-177	-27
-139	-242	-10
-23	-257	-13
88	-207	-11
167	-99	11
201	26	-6
201	129	-30
190	174	-22
186	160	-4
192	109	14
190	53	-3
152	24	-22
60	21	-34
-71	23	-40
-214	9	-45
-318	-40	-45
-351	-109	-42
-306	-170	-54
-205	-189	-57
-88	-153	-52
16	-78	-46
88	10	-35
132	80	-19
159	118	-13
172	131	-14
171	137	-6
139	144	-3
76	140	-14
-17	116	-16
-119	51	-9
-209	-42	-9
-258	-142	-3
-250	-205	-3
-181	-205	-4
-60	-139	3
84	-35	-4
224	62	1
322	120	0
361	120	-27
337	76	-52
273	17	-84
200	-19	-68
144	-17	-44
116	12	-34
96	48	2
60	58	22
-15	23	4
-129	-50	-20
-263	-135	-30
-383	-192	-31
-453	-192	-13
-459	-125	-14
-405	-16	-19
-305	93	-10
-175	162	-39
-29	166	-42
122	123	-40
260	67	-45
363	34	-44
411	36	-33
393	60	-19
310	67	-22
184	26	-21
40	-62	-33
-96	-175	-19
-208	-257	-14
-290	-276	-18
-337	-229	-13
-345	-145	-15
-310	-74	-8
-229	-38	-6
-110	-32	6
31	-20	-8
175	37	-22
300	148	-21
385	279	-22
417	372	-22
381	379	-29
283	270	-28
131	92	-29
-43	-93	-22
-203	-216	-16
-308	-246	-22
-337	-198	-10
-295	-117	-8
-205	-47	-19
-106	-12	-32
-25	-1	-51
27	13	-72
62	47	-80
93	96	-67
126	134	-52
155	137	-15
160	101	21
127	35	47
57	-25	50
-32	-61	18
-119	-72	-16
-180	-76	-30
-207	-93	-12
-203	-126	-9
-178	-160	-33
-140	-167	-48
-87	-125	-46
-21	-37	-49
54	72	-51
130	166	-32
188	219	-31
216	222	-37
212	193	-36
180	141	-48
126	77	-54
63	0	-34
-8	-95	-21
-83	-192	-22
-156	-270	-23
-211	-291	-24
-236	-246	-21
-216	-142	-6
-155	-19	21
-64	77	34
29	121	20
105	110	7
149	76	-11
156	48	-31
132	49	-15
82	78	-22
16	106	-34
-59	118	-33
-123	92	-45
-157	34	-56
-149	-43	-84
-100	-120	-88
-33	-179	-74
20	-207	-51
36	-192	-36
11	-131	-17
-28	-38	19
-39	62	21
13	134	22
133	149	19
288	99	4
411	17	6
446	-49	0
354	-56	-9
156	3	-14
-84	94	-19
-285	158	-25
-389	134	-21
-375	18	-21
-262	-152	-27
-113	-292	-22
18	-340	-18
96	-261	-23
117	-92	-38
102	95	-35
84	230	-28
80	271	-18
94	233	-8
114	158	-20
117	89	-27
89	49	-28
27	26	-30
-58	-1	-24
-153	-46	-24
-235	-103	-33
-287	-143	-35
-302	-147	-42
-272	-109	-34
-206	-54	-18
-110	-7	-15
-3	8	-19
100	0	-25
183	-6	-22
238	15	-23
258	72	-18
245	138	-23
198	181	-36
126	165	-32
37	88	-24
-56	-26	-22
-143	-129	-22
-208	-186	-12
-240	-185	-14
-235	-140	-17
-194	-86	-23
-123	-43	-30
-39	-16	-23
44	8	-20
117	40	-16
165	88	-18
184	139	-17
172	171	-23
135	174	-33
87	140	-30
35	85	-16
-11	22	-21
-49	-38	-39
-85	-90	-24
-116	-134	-10
-143	-163	-11
-161	-170	-23
-159	-145	-38
-137	-94	-57
-103	-37	-65
-60	6	-56
-17	17	-45
33	2	-17
104	-15	24
198	-13	57
306	17	54
396	51	30
419	60	-3
342	22	-53
166	-55	-77
-72	-131	-68
-299	-157	-60
-435	-106	-35
-442	-3	-23
-324	98	-34
-141	136	-19
33	95	-14
148	1	-23
186	-72	-16
174	-65	-6
147	34	-10
128	179	-8
111	287	-9
68	296	-24
-26	192	-33
-168	30	-27
-311	-114	-41
-388	-182	-58
-345	-161	-40
-184	-94	-27
44	-33	-28
249	-23	-37
346	-53	-34
310	-92	-9
170	-99	-4
12	-54	-13
-81	18	-21
-67	84	-21
28	106	-19
136	71	-8
183	-3	1
137	-92	-15
15	-163	-21
-122	-206	-19
-222	-211	-13
-253	-186	-29
-226	-131	-31
-173	-61	-14
-122	10	-11
-80	72	-14
-30	115	-19
37	139	-15
123	159	-31
201	186	-34
241	228	-37
216	261	-43
139	261	-28
33	195	-37
-66	63	-50
-137	-111	-63
-178	-272	-58
-195	-368	-35
-203	-368	-10
-199	-277	11
-173	-137	24
-115	1	32
-22	101	30
83	153	13
172	166	-12
225	161	-27
234	150	-36
204	134	-28
157	106	-35
101	58	-41
42	-5	-25
-23	-74	-6
-98	-129	-29
-170	-158	-45
-225	-157	-28
-240	-122	-18
-208	-70	7
-138	-15	-5
-50	33	-22
34	64	-33
101	74	-38
145	68	-30
166	62	-59
162	68	-63
129	90	-49
64	114	-41
-24	119	-21
-123	84	-4
-201	3	-10
-232	-101	-16
-200	-190	-13
-113	-226	-24
0	-194	-22
107	-116	-23
181	-29	-27
214	26	-30
214	35	-35
206	16	-37
201	0	-39
207	17	-34
213	62	-28
202	114	-13
154	132	-1
59	98	1
-75	17	-3
-232	-72	-4
-378	-134	-5
-480	-153	-14
-497	-131	-16
-424	-105	-5
-259	-89	-6
-40	-84	-19
179	-65	-5
344	-14	8
415	77	-17
393	183	-28
301	259	-36
189	268	-57
97	198	-56
38	82	-50
4	-36	-38
-38	-116	-26
-104	-145	-28
-194	-142	-26
-277	-131	-31
-318	-136	-41
-292	-151	-42
-204	-151	-37
-83	-117	-18
33	-36	2
111	67	19
149	166	30
151	221	17
144	217	-7
136	166	-23
121	88	-30
83	12	-24
12	-45	-21
-86	-76	-26
-188	-88	-28
-261	-93	-31
-281	-98	-34
-237	-107	-31
-147	-109	-27
-34	-99	-27
69	-64	-28
150	-9	-25
198	60	-13
221	125	1
222	166	-16
206	171	-25
172	139	-25
119	80	-37
48	8	-38
-34	-55	-43
-117	-105	-42
-186	-133	-27
-229	-144	-27
-237	-144	-30
-204	-127	-20
-139	-98	-20
-52	-49	-18
44	13	-16
132	77	-12
197	130	-11
231	161	-18
228	169	-13
194	154	-29
133	123	-52
57	82	-52
-24	28	-49
-105	-37	-39
-173	-111	-25
-222	-178	-25
-245	-222	-1
-240	-226	13
-205	-184	-10
-145	-113	-40
-68	-33	-61
15	31	-68
93	67	-67
150	79	-39
175	83	-5
159	92	23
104	112	52
23	135	61
-61	139	35
-123	116	-14
-139	64	-38
-98	3	-51
-15	-46	-44
79	-70	-33
138	-76	-34
133	-80	-30
54	-97	-21
-68	-127	-13
-178	-153	-18
-208	-138	-24
-118	-68	-25
87	51	-20
350	182	-10
575	268	-10
671	268	-12
588	175	-33
338	19	-52
0	-148	-41
-319	-270	-22
-520	-322	-17
-561	-301	-15
-450	-240	-11
-259	-164	-19
-67	-97	-23
60	-39	-14
107	17	-12
84	81	-17
22	150	-40
-43	212	-68
-98	252	-64
-134	253	-67
-157	208	-60
-156	124	-39
-125	18	-17
-60	-89	19
23	-170	21
105	-202	12
155	-174	10
158	-96	1
120	7	-24
68	95	-48
36	138	-52
42	126	-52
85	76	-38
133	25	-37
163	10	-21
151	39	-9
94	91	-13
9	126	-12
-83	105	-13
-159	20	-8
-214	-100	-1
-245	-206	11
-251	-251	15
-232	-223	10
-188	-135	-13
-124	-35	-25
-48	41	-32
25	81	-48
88	93	-27
133	100	-19
167	119	-22
188	148	-21
203	158	-17
201	128	-24
167	49	-42
94	-61	-44
-17	-175	-50
-140	-253	-51
-248	-274	-52
-304	-238	-45
-291	-159	-43
-215	-62	-48
-101	26	-42
15	96	-35
103	139	-16
149	166	-6
161	171	-15
152	163	-20
143	138	-22
136	97	-23
123	43	-17
77	-15	-11
-30	-71	-18
-206	-121	-32
-426	-157	-38
-634	-178	-30
-736	-188	-21
-645	-179	-4
-328	-143	11
180	-72	13
756	28	22
1230	140	22
1370	228	9
1253	252	1
971	203	-25
431	100	-35
-77	-8	-40
-415	-77	-43
-522	-82	-43
-455	-43	-50
-329	-10	-38
-251	-24	-47
-263	-97	-52
-336	-188	-41
-392	-238	-40
-378	-196	-40
-278	-65	-32
-134	104	-32
-4	236	-48
70	273	-41
89	213	-20
75	101	8
57	2	22
42	-41	36
19	-33	57
-35	-8	49
-126	-14	26
-236	-56	-10
-333	-114	-23
-388	-142	-33
-388	-116	-69
-338	-47	-75
-245	19	-78
-113	38	-76
56	0	-67
249	-68	-57
432	-104	-24
558	-61	-16
580	53	-8
484	188	-10
302	268	-8
87	241	0
-97	106	-17
-221	-76	-20
-278	-229	-22
-298	-287	-17
-291	-244	-14
-260	-135	-21
-180	-18	-17
-33	60	-27
161	92	-18
349	91	-6
463	86	-13
458	90	-7
333	96	-9
145	89	-9
-30	53	-14
-133	-1	-27
-150	-61	-35
-115	-107	-45
-82	-128	-36
-91	-129	-42
-142	-117	-48
-209	-99	-38
-245	-69	-41
-222	-25	-27
-139	33	-13
-23	97	-10
89	145	-15
171	170	-8
210	162	3
210	133	4
175	96	-10
118	59	-14
41	25	-20
-44	-12	-35
-128	-51	-34
-195	-90	-40
-237	-112	-42
-246	-112	-35
-222	-94	-54
-168	-67	-72
-93	-49	-67
-2	-38	-53
93	-27	-30
180	3	-4
242	55	21
266	120	47
242	166	49
175	168	16
83	113	-5
-17	22	-9
-111	-66	-19
-188	-122	-13
-248	-134	-2
-292	-119	0
-319	-108	-16
-320	-119	-17
-282	-148	-11
-204	-157	-33
-84	-115	-59
62	-9	-81
212	137	-83
337	272	-71
409	340	-65
414	311	-57
350	194	-46
236	29	-43
96	-127	-21
-29	-236	-19
-116	-280	-14
-144	-273	5
-124	-240	-8
-65	-196	-5
11	-155	3
86	-109	-4
147	-50	-23
179	20	-28
183	93	-13
155	150	-16
109	180	-25
63	174	-36
33	143	-23
17	104	-2
2	67	-8
-38	37	-8
-130	3	-11
-267	-44	-19
-409	-107	-19
-496	-171	-28
-473	-206	-23
-330	-188	-14
-99	-105	-15
147	23	-11
331	162	-4
406	261	9
373	294	11
277	257	-14
169	171	-42
81	76	-50
21	1	-49
-25	-43	-41
-81	-62	-33
-150	-76	-30
-222	-96	-34
-268	-123	-37
-271	-147	-42
-226	-152	-39
-144	-125	-50
-50	-70	-74
36	1	-76
107	72	-58
159	126	-29
188	157	-16
196	154	-1
175	127	34
129	77	44
59	15	21
-18	-53	16
-95	-117	-5
-154	-160	-23
-190	-177	-23
-200	-164	-26
-185	-126	-24
-148	-77	-31
-89	-29	-17
-14	9	-16
65	34	-21
140	53	-20
195	75	-34
221	102	-32
212	128	-32
175	138	-33
115	116	-35
40	56	-28
-39	-32	-30
-114	-120	-47
-173	-185	-53
-203	-201	-25
-206	-171	-4
-181	-109	-21
-139	-36	-16
-101	31	-14
-77	93	-8
-74	154	-7
-81	215	-14
-83	269	-16
-59	285	-25
-3	244	-30
80	131	-31
171	-25	-6
245	-187	-7
281	-310	-4
269	-373	-9
216	-380	-18
138	-359	-11
58	-332	-46
-4	-301	-58
-34	-250	-51
-26	-150	-52
22	9	-38
96	201	-31
167	382	-35
206	495	-25
175	515	-24
68	438	-27
-107	305	-16
-297	154	-6
-431	17	1
-453	-89	2
-343	-167	-1
-137	-216	0
93	-237	-13
265	-218	-18
331	-170	-18
290	-100	-32
191	-32	-32
94	22	-39
44	54	-31
48	75	-14
75	92	-9
85	106	-13
48	105	-9
-28	75	-7
-125	5	-12
-206	-78	-8
-259	-147	-23
-279	-170	-35
-279	-141	-51
-267	-81	-60
-241	-19	-49
-186	14	-21
-101	14	10
9	2	21
121	9	13
207	49	-9
248	112	-24
242	169	-46
196	183	-52
131	142	-44
60	59	-43
-12	-30	-42
-82	-98	-38
-144	-127	-40
-193	-126	-56
-215	-114	-32
-205	-105	-22
-162	-99	-34
-93	-86	-24
-12	-49	-26
69	7	-23
142	75	-15
198	131	1
221	160	4
203	156	-12
138	127	-24
34	91	-24
-86	52	-7
-189	16	1
-244	-29	4
-232	-83	-6
-157	-141	-23
-43	-183	-45
77	-189	-53
172	-150	-46
228	-70	-40
239	22	-20
214	97	-17
165	127	-3
104	110	12
52	53	17
22	-17	3
22	-70	-31
44	-93	-56
64	-78	-87
39	-38	-99
-59	7	-80
-231	34	-24
-425	24	17
-556	-27	24
-546	-109	24
-353	-192	14
-18	-238	-4
354	-208	-24
632	-92	-38
716	92	-38
592	287	-36
326	427	-38
38	458	-26
-175	372	-16
-267	204	-19
-262	17	-11
-221	-129	-2
-186	-204	-11
-174	-216	-10
-161	-202	-17
-118	-192	-27
-35	-195	-25
58	-189	-23
123	-156	-10
128	-79	-2
83	21	-15
23	113	-20
-8	164	-20
7	163	-32
47	128	-36
72	82	-37
38	43	-25
-49	16	-13
-163	-16	-8
-242	-59	-18
-248	-103	-26
-173	-127	-36
-49	-108	-46
74	-46	-45
156	32	-58
181	86	-57
166	92	-49
135	49	-31
117	-2	-25
118	-24	-22
128	10	-10
129	80	-11
104	144	6
44	153	21
-42	88	3
-138	-34	-6
-225	-162	-16
-276	-245	-35
-285	-254	-37
-244	-195	-38
-169	-105	-28
-76	-17	-24
18	48	-20
97	92	-15
153	123	-9
184	151	-15
192	171	-33
178	171	-48
139	140	-59
77	76	-66
-1	-11	-68
-84	-96	-58
-156	-162	-27
-195	-196	21
-204	-196	22
-178	-167	28
-129	-109	64
-68	-35	59
-8	40	29
49	99	-4
97	127	-30
129	124	-46
141	102	-49
128	80	-62
83	76	-63
11	90	-60
-75	102	-60
-156	85	-59
-204	20	-50
-207	-85	-34
-156	-198	-31
-57	-275	-23
59	-282	-28
167	-223	-21
238	-116	2
258	-3	-2
231	86	-16
178	142	-10
121	171	-2
79	183	-6
55	181	-12
44	153	-27
36	89	-21
18	-2	-11
-14	-97	-20
-55	-162	-23
-100	-171	-28
-140	-131	-25
-164	-69	-11
-169	-28	-17
-152	-28	-32
-115	-62	-36
-62	-98	-35
2	-93	-38
68	-27	-52
133	84	-54
188	198	-51
222	269	-51
222	269	-39
171	202	-32
69	97	-20
-72	-11	-6
-230	-98	3
-358	-159	15
-417	-199	17
-389	-226	10
-276	-232	1
-110	-204	-1
66	-139	-18
222	-40	-38
329	62	-53
381	142	-52
374	174	-45
325	165	-34
230	131	-15
107	100	1
-23	84	19
-135	71	32
-210	40	33
-243	-29	17
-242	-126	-5
-227	-222	-33
-209	-268	-47
-191	-237	-69
-162	-131	-83
-103	8	-78
-10	133	-80
101	206	-64
199	215	-40
251	188	-17
234	150	-18
158	120	-6
49	97	-2
-52	57	-8
-126	-11	-10
-166	-104	-12
-181	-196	-1
-184	-249	-8
-181	-244	-18
-166	-182	-19
-124	-92	-13
-55	-4	-25
35	59	-32
127	93	-24
197	112	-21
228	126	-12
212	138	-9
159	136	3
80	106	15
-4	45	7
-83	-34	4
-137	-106	-11
-169	-142	-23
-170	-127	-35
-148	-75	-46
-108	-9	-55
-61	39	-72
-15	50	-72
36	27	-68
89	-8	-53
150	-25	-41
206	-5	-36
245	48	-32
258	114	-41
234	153	-41
186	139	-34
123	71	-28
62	-31	-9
-5	-131	6
-87	-191	-8
-195	-196	-9
-318	-159	3
-425	-105	15
-463	-65	16
-393	-50	5
-215	-51	3
41	-45	-4
296	-6	-18
470	63	-21
519	143	-20
439	199	-28
280	200	-22
110	136	-43
-24	27	-67
-101	-90	-62
-135	-182	-42
-161	-227	-7
-197	-228	11
-245	-200	13
-281	-162	18
-282	-114	6
-226	-49	-24
-117	40	-33
20	155	-34
153	274	-34
250	362	-40
296	392	-32
280	342	-25
224	224	-19
135	59	-2
38	-102	-25
-50	-232	-37
-117	-298	-25
-161	-301	-25
-184	-248	-21
-191	-166	-27
-189	-86	-27
-166	-24	-24
-115	6	-35
-31	18	-40
77	28	-34
184	56	-36
255	106	-43
266	160	-25
210	194	-8
100	180	-3
-27	113	-1
-141	10	-8
-222	-93	-15
-262	-162	-12
-274	-182	-23
-262	-157	-40
-227	-112	-43
-159	-68	-51
-62	-36	-38
54	-7	-21
170	27	-13
256	71	-7
295	117	-11
287	142	-15
245	134	-24
186	92	-24
122	34	-34
50	-17	-42
-30	-53	-23
-121	-72	-22
-211	-88	-30
-280	-108	-32
-308	-127	-40
-287	-135	-46
-225	-109	-33
-139	-48	-9
-50	34	-15
32	109	-14
111	153	4
193	153	-10
275	119	-9
339	74	0
358	33	-13
310	3	-15
190	-27	-5
21	-65	-23
-152	-112	-38
-286	-157	-21
-348	-179	-16
-332	-170	-28
-251	-126	-33
-139	-62	-18
-26	-2	-23
63	42	-32
120	76	-27
144	105	-24
147	139	-19
138	182	-13
130	209	-3
126	202	-15
118	145	-20
96	47	-16
44	-70	-25
-40	-180	-34
-141	-250	-42
-229	-270	-37
-262	-241	-28
-222	-175	-21
-107	-91	-17
47	-2	-6
192	72	-17
280	126	-20
287	145	-17
219	137	-23
107	108	-33
-7	81	-57
-97	68	-57
-144	76	-63
-159	92	-57
-153	93	-28
-143	59	8
-135	-12	43
-126	-105	38
-113	-190	16
-86	-235	-23
-39	-214	-37
21	-134	-44
85	-14	-50
140	108	-40
172	196	-30
180	222	-15
155	183	-19
110	94	-22
55	-12	-25
-5	-99	-31
-71	-140	-34
-152	-131	-32
-247	-87	-18
-355	-34	-18
-451	2	-37
-496	10	-23
-445	-3	-6
-277	-19	-10
-2	-19	-21
332	6	-25
642	45	-4
837	85	8
863	100	5
701	82	-13
407	28	-32
72	-44	-37
-209	-117	-40
-375	-167	-31
-410	-183	-12
-355	-163	-6
-267	-114	-8
-195	-57	-8
-155	-8	-28
-126	24	-51
-84	36	-55
-10	43	-44
82	55	-30
162	85	-29
193	126	-22
158	160	-24
65	162	-30
-51	119	-30
-160	33	-25
-229	-71	-15
-252	-161	-12
-229	-205	-18
-169	-197	-15
-82	-152	-6
19	-94	-13
119	-36	-5
196	16	-15
234	81	-33
225	161	-30
182	252	-33
131	321	-14
90	323	-12
64	241	-36
42	91	-38
-5	-77	-40
-87	-203	-25
-198	-249	-8
-299	-222	-23
-345	-158	-32
-310	-103	-26
-195	-85	-18
-42	-90	-17
91	-91	-26
163	-58	-33
166	6	-42
125	76	-44
92	119	-32
97	119	-17
147	89	1
206	57	21
221	47	31
154	57	7
8	62	-26
-170	38	-15
-308	-28	-11
-344	-114	-27
-256	-185	-38
-76	-208	-43
122	-177	-48
262	-113	-52
301	-43	-34
245	10	-15
143	49	-17
56	85	-17
23	120	-18
42	152	-22
78	154	-18
77	113	-19
16	28	-30
-99	-69	-28
-228	-145	-13
-324	-176	-13
-355	-157	-16
-318	-111	-14
-239	-62	-22
-141	-25	-26
-52	4	-26
25	38	-23
94	85	-32
154	140	-32
204	186	-26
231	203	-25
229	183	-34
193	131	-32
138	58	-14
71	-29	-14
5	-124	-30
-58	-222	-34
-119	-298	-34
-169	-330	-32
-202	-288	-20
-199	-175	-27
-153	-15	-26
-66	138	-24
39	233	-17
139	243	-10
208	185	-6
231	112	1
209	72	-27
153	87	-34
75	132	-23
-16	160	-24
-108	124	-21
-191	13	-30
-259	-138	-32
-295	-273	-34
-295	-331	-30
-256	-288	-34
-187	-166	-36
-93	-10	-25
21	122	-11
151	198	-13
282	209	-31
392	174	-48
446	127	-44
423	83	-25
314	47	-19
148	15	-17
-30	-29	-10
-173	-90	-7
-245	-157	3
-255	-205	8
-232	-212	-14
-206	-170	-26
-199	-90	-22
-199	-4	-26
-181	51	-30
-121	62	-19
-24	35	-21
82	0	-22
158	-5	-15
172	33	-13
129	103	-5
54	164	-22
-13	179	-23
-49	131	-4
-48	38	-16
-28	-63	-23
-8	-134	-22
-4	-153	-42
-12	-130	-52
-23	-90	-51
-23	-56	-51
-4	-42	-48
30	-36	-46
78	-27	-47
135	-1	-44
194	33	-32
242	68	-30
261	86	-28
229	77	-8
143	45	6
14	-4	26
-121	-56	30
-224	-104	11
-263	-134	-1
-241	-140	-7
-178	-122	-20
-110	-82	-27
-59	-29	-25
-29	28	-18
-1	80	-26
44	125	-23
110	168	-11
181	197	-8
226	209	-18
219	186	-43
151	122	-50
40	21	-45
-86	-87	-28
-194	-174	-15
-263	-215	-11
-296	-202	6
-295	-154	-19
-262	-93	-32
-209	-36	-27
-128	14	-55
-25	70	-51
92	136	-31
201	206	-21
279	253	-22
309	251	-16
283	183	-18
211	67	-28
109	-60	-43
-4	-167	-47
-112	-233	-27
-200	-260	-26
-259	-263	-25
-277	-254	-22
-255	-226	-11
-194	-166	4
-106	-70	3
-7	49	-3
84	160	-22
147	225	-27
172	231	-36
162	193	-41
126	142	-22
82	110	-18
49	100	-23
36	85	-13
38	37	-7
44	-54	-9
31	-170	-13
-12	-260	-21
-88	-282	-36
-181	-225	-52
-262	-113	-58
-303	0	-46
-280	68	-15
-193	85	7
-51	70	15
114	65	21
275	92	10
396	137	-5
454	171	-22
436	158	-43
342	85	-39
191	-28	-41
13	-137	-36
-147	-206	-24
-250	-219	-26
-274	-189	-17
-228	-142	-19
-134	-96	-17
-33	-53	-21
44	-5	-30
85	57	-40
99	130	-43
105	192	-32
110	218	-27
114	203	-25
101	150	-26
55	80	-24
-28	14	-19
-136	-37	-21
-243	-78	-17
-319	-117	-16
-345	-157	-26
-317	-184	-32
-240	-183	-28
-128	-141	-26
0	-61	-27
128	35	-27
237	120	-30
301	170	-23
314	178	-13
268	150	0
183	104	-7
86	47	-21
0	-11	-24
-54	-66	-16
-85	-110	-8
-106	-134	-12
