File Name: not saved
Channel 2: 'Channel 2', 31530 values, raw ADC, no filters.
Channel 3: 'Channel 3', 31530 values, raw ADC, no filters.
Channel 4: 'Channel 4', 31530 values, raw ADC, no filters.

365	28	-2
186	44	-10
-26	112	1
-156	178	-19
-153	188	-40
-38	115	-33
113	-24	-24
223	-171	-28
245	-262	-67
198	-260	-86
123	-183	-71
67	-92	-39
44	-46	-14
41	-82	-25
27	-170	-23
-11	-247	-21
-65	-244	-18
-102	-137	4
-94	44	5
-37	230	-16
37	345	-30
86	365	-25
72	294	-39
-10	179	-42
-130	64	-27
-241	-36	-11
-296	-127	13
-281	-229	27
-212	-319	57
-114	-355	72
-1	-290	42
125	-101	1
273	166	-47
433	421	-90
568	554	-99
614	505	-89
518	301	-57
273	37	-18
-59	-180	-17
-380	-269	-7
-589	-229	-19
-627	-130	-52
-506	-62	-46
-300	-77	-42
-93	-145	-36
49	-196	-34
105	-163	-37
96	-24	-43
54	157	-28
15	283	-14
-8	275	-15
-10	126	-10
8	-94	-18
41	-274	-15
77	-331	-7
95	-251	-14
75	-90	-37
7	50	-44
-90	104	-34
-185	56	-42
-240	-35	-24
-236	-97	13
-182	-83	11
-110	-3	-2
-52	88	-9
-21	128	-11
-10	96	-1
2	12	6
27	-61	11
65	-77	-3
106	-21	-11
139	69	-19
162	135	-35
174	124	-40
172	35	-36
144	-89	-30
75	-183	-26
-33	-185	-26
-144	-81	-24
-205	98	-24
-165	279	-27
-16	397	-31
187	410	-42
357	318	-48
409	166	-40
317	5	-27
123	-116	-40
-63	-180	-57
-156	-198	-36
-121	-189	-18
-1	-178	-13
107	-169	4
122	-155	-1
25	-117	-15
-132	-52	-1
-271	24	-5
-331	79	-6
-312	72	-13
-267	-8	-21
-253	-143	-24
-285	-274	-41
-319	-343	-63
-281	-316	-75
-131	-199	-42
100	-50	-26
326	72	-23
458	131	-19
454	132	-19
353	116	-26
248	116	-41
208	147	-37
236	174	-31
263	158	-31
214	72	-20
60	-56	-3
-133	-171	1
-262	-211	21
-248	-156	31
-105	-34	19
63	88	13
121	151	2
0	147	13
-249	108	9
-496	88	-11
-589	121	-4
-469	191	-13
-199	244	-32
77	233	-68
226	134	-94
200	-17	-85
54	-166	-80
-93	-260	-70
-142	-281	-60
-68	-249	-37
78	-203	-33
211	-162	-44
268	-124	-36
237	-74	-27
162	-2	-13
97	75	4
82	126	8
111	127	3
151	79	6
160	15	-9
116	-22	-19
30	-4	-14
-65	65	-6
-127	148	16
-136	198	1
-101	195	-26
-58	147	-26
-49	85	-13
-102	49	3
-195	44	-4
-282	64	-30
-303	77	-25
-219	62	-11
-48	16	-8
140	-50	-19
266	-119	-42
269	-186	-44
153	-243	-34
-34	-292	-17
-207	-326	-6
-297	-326	-34
-281	-286	-64
-185	-199	-64
-50	-89	-51
85	16	-44
198	90	-35
296	129	-16
380	150	-23
446	174	-21
470	223	-10
446	282	-3
371	331	5
275	331	12
194	266	-2
140	143	-30
105	-11	-30
48	-154	-38
-60	-259	-17
-228	-307	0
-410	-300	10
-556	-246	34
-615	-164	6
-581	-71	-42
-501	10	-74
-428	58	-122
-389	59	-120
-363	15	-82
-296	-52	-26
-136	-105	16
101	-110	34
346	-57	1
493	32	-36
466	121	-21
262	165	-23
-28	149	-2
-278	87	-3
-383	17	-13
-295	-21	-21
-45	-17	-38
274	21	-45
569	59	-54
762	77	-53
794	64	-38
656	35	-8
368	10	15
-8	-9	54
-371	-29	62
-619	-70	56
-699	-141	24
-611	-233	-28
-447	-322	-46
-300	-374	-74
-237	-368	-63
-226	-300	-72
-169	-181	-84
22	-21	-45
355	160	-35
724	340	-40
962	492	-47
918	577	-21
578	568	-18
78	461	-30
-363	282	-26
-564	89	-22
-477	-57	-10
-202	-120	4
67	-108	5
172	-58	-20
76	-31	-30
-148	-58	-39
-370	-142	-44
-483	-245	-44
-473	-309	-41
-389	-296	-29
-285	-186	-14
-175	-7	-3
-20	191	10
212	350	32
495	417	16
723	372	-7
775	221	-17
583	10	-52
194	-200	-49
-218	-349	-41
-469	-401	-58
-443	-356	-40
-181	-259	-32
155	-166	-8
366	-120	4
334	-130	-15
90	-167	-10
-228	-175	-7
-448	-122	-12
-459	-5	-11
-271	126	-2
35	213	4
336	215	-2
544	137	-16
608	24	-30
523	-65	-43
285	-92	-45
-67	-60	-58
-483	-4	-49
-863	38	-34
-1091	60	-38
-1088	81	-30
-850	131	-23
-453	217	-8
-15	301	-32
363	317	-42
611	201	-13
730	-41	-22
731	-344	-7
614	-589	9
363	-669	4
-2	-557	5
-408	-309	3
-708	-33	-1
-773	166	-19
-540	255	-34
-77	267	-31
428	284	-17
767	357	-21
818	477	-41
606	578	-52
271	568	-22
-15	419	-12
-145	152	-12
-123	-130	-13
-33	-329	-17
30	-381	-6
27	-305	-27
-25	-175	-30
-76	-68	-28
-100	-26	-24
-114	-33	-32
-163	-43	-48
-273	-22	-58
-413	24	-95
-505	57	-68
-459	32	-4
-234	-63	42
141	-191	66
569	-278	51
904	-263	29
1045	-138	-7
942	43	-79
636	189	-125
216	209	-121
-182	75	-99
-456	-168	-57
-550	-418	-13
-486	-565	16
-332	-541	9
-180	-345	-3
-96	-34	4
-88	305	-1
-113	585	-41
-115	749	-52
-58	771	-32
41	664	-50
129	451	-48
158	177	-15
113	-103	17
20	-337	53
-72	-475	34
-142	-498	-9
-206	-421	-19
-306	-286	-46
-452	-161	-74
-595	-83	-75
-630	-64	-59
-452	-78	-8
-59	-78	23
435	-26	16
837	79	-2
953	205	-8
717	299	-18
231	305	-18
-300	211	-8
-665	42	-18
-758	-136	-35
-603	-249	-21
-321	-246	5
-39	-127	-9
196	57	-9
392	230	-2
562	317	-23
681	290	-35
669	174	-40
472	36	-44
113	-53	-46
-291	-64	-36
-574	-8	-40
-621	53	-47
-455	58	-49
-209	-23	-53
-40	-166	-32
-28	-304	-13
-118	-368	-5
-170	-319	-4
-69	-181	-11
178	-19	0
454	97	-8
583	131	-20
476	99	-10
192	45	-20
-104	20	-21
-243	38	-21
-156	77	-42
82	92	-42
301	51	-23
363	-41	-17
234	-152	-3
-8	-231	14
-229	-249	29
-338	-201	35
-332	-112	14
-287	-13	-11
-275	79	-41
-321	155	-48
-383	219	-70
-378	261	-48
-262	270	3
-48	236	-6
214	158	-27
462	63	-48
656	-13	-91
776	-46	-134
818	-40	-127
743	-16	-89
526	-3	-38
158	-15	-17
-282	-38	-26
-668	-53	-15
-856	-39	-1
-786	-5	5
-503	27	-3
-167	35	-1
59	21	9
96	10	16
-17	20	-3
-145	61	-15
-156	99	-18
-13	94	-34
206	24	-30
368	-93	-25
383	-196	-13
252	-234	21
84	-183	31
-7	-85	-9
23	-8	-11
113	-11	-9
148	-94	-35
44	-194	-39
-177	-233	-31
-393	-166	-28
-480	-17	-24
-369	137	-11
-125	213	-8
102	174	-8
191	54	-21
121	-80	-42
-16	-157	-50
-82	-161	-45
8	-120	-34
209	-86	9
373	-89	14
346	-118	-7
75	-140	17
-360	-118	1
-757	-48	-4
-902	40	15
-724	112	-4
-288	149	-48
212	158	-92
569	168	-112
656	191	-96
484	215	-103
190	221	-95
-67	176	-46
-172	88	-10
-108	-7	21
44	-67	17
169	-63	14
175	-9	8
54	59	-11
-139	101	-3
-303	93	5
-354	49	3
-272	3	0
-88	-13	-10
139	13	-13
350	67	-8
506	133	-23
620	189	-42
676	225	-44
671	230	-39
575	189	-22
383	85	-14
113	-75	-30
-168	-265	-25
-383	-436	-34
-480	-524	-38
-475	-506	-27
-436	-401	-25
-443	-274	-19
-515	-192	-23
-603	-175	-24
-610	-192	-33
-451	-171	-47
-141	-57	-40
209	145	-34
446	368	-53
470	505	-44
280	492	-40
8	320	-49
-181	75	-25
-184	-138	-25
-19	-234	-7
199	-204	12
324	-101	1
279	0	2
101	45	-11
-96	39	13
-206	16	47
-191	15	22
-105	39	-17
-44	52	-32
-66	16	-45
-157	-92	-74
-241	-233	-77
-232	-347	-62
-98	-362	-32
116	-254	-9
326	-47	-14
461	198	-20
494	407	-25
452	528	-13
375	538	3
299	455	6
211	309	-3
102	144	-20
-30	-3	-28
-153	-112	-30
-230	-181	-24
-242	-230	-13
-208	-291	-4
-182	-384	8
-213	-497	11
-308	-573	-3
-417	-547	5
-459	-353	19
-377	-5	10
-156	420	-1
127	793	-39
360	984	-81
439	926	-98
331	658	-111
71	287	-75
-217	-46	-39
-390	-237	-26
-353	-263	-20
-100	-168	10
276	-34	32
613	60	-23
746	85	-49
592	29	-40
201	-89	-14
-269	-254	0
-618	-441	-28
-676	-604	-64
-415	-683	-83
41	-622	-71
483	-410	-31
716	-96	5
656	208	-11
360	387	-4
3	377	15
-239	214	9
-277	10	-16
-148	-117	-19
19	-105	-22
78	8	-19
-29	120	-12
-257	129	-48
-481	6	-34
-585	-176	-15
-506	-304	1
-282	-283	6
-26	-117	28
157	108	29
211	268	-17
143	275	-41
20	142	-63
-89	-45	-68
-140	-171	-64
-129	-174	-42
-83	-69	-26
-34	60	-4
-2	135	-9
6	125	-30
-4	53	-26
-22	-10	-22
-35	-17	-11
-30	35	-7
9	113	-12
82	161	-24
167	151	-30
234	94	-35
239	28	-34
171	-15	-10
50	-27	-3
-74	-27	24
-150	-52	32
-156	-120	5
-117	-232	-23
-102	-349	-61
-167	-430	-80
-324	-436	-102
-509	-339	-102
-605	-136	-44
-496	150	22
-139	475	43
389	770	15
930	952	-20
1283	964	-32
1304	793	-37
995	475	-30
495	106	-24
-4	-208	-11
-318	-390	16
-363	-421	-2
-213	-348	-28
-29	-256	-50
29	-216	-62
-103	-251	-40
-378	-330	-21
-659	-389	7
-822	-372	13
-810	-268	-13
-653	-119	-14
-412	4	-12
-132	41	-18
172	-20	-27
506	-136	-28
825	-227	-42
1023	-210	-43
979	-60	-38
636	174	-43
85	406	-32
-459	527	-20
-765	490	-10
-691	313	-17
-299	80	-32
167	-110	-50
425	-199	-45
324	-192	-30
-82	-159	-19
-561	-163	-9
-840	-237	-17
-773	-351	-19
-415	-424	-12
29	-393	-13
354	-245	-28
446	-20	-24
358	195	-28
221	324	-27
144	338	-22
138	270	-24
119	178	2
-6	115	-5
-243	94	-9
-488	99	4
-589	103	3
-434	90	-13
-29	74	-20
481	75	-23
902	108	-40
1076	161	-41
971	200	-44
650	196	-32
260	134	-16
-71	37	-18
-261	-57	-11
-304	-110	-15
-235	-103	-27
-114	-48	-30
-3	27	-31
57	92	-31
49	129	-20
-15	123	-8
-100	82	8
-165	-2	40
-185	-115	32
-173	-243	-3
-169	-353	-38
-212	-403	-89
-312	-370	-108
-428	-254	-102
-497	-101	-57
-473	20	-8
-354	54	4
-193	-9	26
-61	-125	22
-5	-222	-44
-11	-227	-64
-22	-131	-95
23	22	-100
145	154	-62
312	201	-57
457	151	-5
529	48	42
521	-31	56
462	-39	51
381	27	9
295	122	-29
172	183	-21
-11	171	-32
-253	94	-58
-497	-1	-54
-641	-68	-67
-603	-76	-48
-366	-33	-17
5	30	9
399	88	15
694	121	-6
800	135	-36
706	132	-47
446	112	-21
89	61	-4
-300	-21	10
-631	-120	-7
-830	-203	-7
-853	-233	4
-691	-196	-1
-399	-102	0
-83	9	-26
135	92	-30
183	122	-36
63	97	-42
-141	34	-41
-321	-43	-43
-385	-121	-45
-300	-192	-43
-117	-249	-25
86	-273	-21
245	-248	-25
341	-147	-10
392	18	-16
436	213	-15
493	385	-17
544	469	-28
544	445	-14
458	319	-19
283	144	-28
65	-16	-35
-130	-112	-19
-259	-134	-11
-307	-103	-5
-308	-55	3
-310	-24	-2
-339	-11	-11
-377	-2	-13
-357	20	-17
-225	58	-17
33	93	-35
358	96	-54
636	47	-24
762	-43	-29
685	-137	-17
435	-181	-14
125	-141	-32
-132	-33	-44
-269	93	-54
-289	164	-42
-260	131	-66
-253	-4	-56
-300	-188	-8
-378	-341	7
-432	-404	4
-419	-361	-10
-333	-259	-22
-223	-158	-33
-126	-105	-44
-67	-103	-62
-20	-111	-45
59	-78	-19
195	27	-12
358	182	24
484	338	39
508	431	60
422	438	64
261	380	10
104	287	-17
9	201	-22
-28	117	-24
-63	18	-37
-163	-117	-63
-333	-275	-61
-503	-413	-59
-569	-460	-57
-459	-384	-58
-199	-201	-68
79	22	-58
221	196	-44
132	262	-4
-139	215	29
-439	100	31
-574	-16	54
-428	-88	77
-32	-97	35
469	-64	-17
884	-6	-66
1076	64	-109
1012	150	-118
740	248	-114
387	331	-86
42	362	-49
-224	300	-8
-371	147	-6
-383	-61	-31
-280	-254	-33
-108	-364	-30
51	-368	-41
116	-281	-49
34	-170	-40
-166	-95	-36
-392	-98	-14
-537	-173	15
-515	-280	14
-339	-365	9
-91	-376	28
109	-286	44
190	-98	45
155	161	32
85	435	16
69	655	-21
154	755	-67
302	694	-93
419	475	-105
411	169	-98
238	-133	-68
-41	-332	-25
-307	-373	8
-433	-265	32
-372	-82	37
-167	89	-16
65	171	-56
193	143	-44
159	27	2
-3	-122	9
-183	-252	-26
-277	-322	-36
-236	-334	-34
-105	-296	-42
14	-226	-39
41	-145	-12
-38	-62	-4
-156	7	-17
-210	62	-41
-134	96	-11
50	109	7
253	109	6
368	102	12
328	95	-13
155	88	-14
-64	78	-22
-236	52	-30
-308	11	-44
-286	-47	-64
-214	-111	-64
-139	-154	-54
-74	-160	-52
-15	-114	-34
47	-27	-27
105	70	-10
132	138	21
123	143	9
99	84	10
106	-18	16
184	-104	11
326	-127	-3
468	-62	2
521	70	-2
431	224	-13
211	335	-6
-47	365	-26
-236	310	-36
-285	196	-28
-217	66	-28
-116	-43	-46
-86	-118	-67
-176	-154	-64
-353	-163	-62
-523	-157	-55
-580	-142	-34
-474	-127	-36
-219	-115	-57
105	-108	-50
396	-103	-46
569	-97	-40
598	-76	-28
482	-34	-31
275	30	-8
52	102	6
-117	165	14
-191	203	4
-173	205	-12
-105	170	-18
-52	105	-44
-60	26	-42
-122	-53	-13
-190	-118	-2
-204	-159	3
-138	-171	23
-23	-161	44
77	-132	52
107	-87	26
76	-26	5
36	53	-26
67	145	-46
194	231	-76
363	279	-115
473	260	-80
433	155	-24
237	-17	12
-28	-211	-1
-225	-362	-3
-253	-427	-6
-112	-387	-40
104	-261	-49
253	-98	-74
242	57	-81
74	170	-77
-165	235	-54
-366	241	-30
-448	189	10
-411	77	33
-311	-80	10
-217	-235	-3
-174	-326	-30
-178	-297	-34
-200	-134	3
-209	110	-1
-197	332	-36
-169	432	-51
-141	365	-77
-116	166	-60
-87	-68	-42
-44	-241	-31
9	-289	-19
60	-241	-30
94	-166	-22
97	-136	-30
78	-173	-13
55	-234	-7
55	-253	-3
84	-179	12
125	-23	12
150	155	15
118	282	9
21	301	9
-120	227	1
-248	89	0
-288	-38	-4
-181	-106	-12
77	-93	-11
421	-9	-31
746	110	-27
920	233	-26
869	320	-36
597	350	-44
201	320	-57
-172	244	-64
-389	157	-58
-389	83	-35
-225	40	-24
-15	17	-28
110	-11	-31
86	-67	-18
-58	-154	-3
-217	-251	-7
-285	-318	-11
-222	-326	-30
-68	-274	-54
66	-189	-35
79	-110	-11
-75	-68	-2
-343	-78	-36
-614	-126	-52
-774	-191	-25
-756	-257	0
-545	-298	26
-204	-300	12
175	-230	16
517	-71	16
759	171	-8
875	458	-13
869	708	-24
767	836	-59
598	785	-69
385	561	-72
141	233	-64
-121	-95	-41
-377	-322	-35
-577	-409	-27
-659	-371	-35
-580	-277	-17
-348	-196	2
-55	-168	26
157	-192	41
179	-236	-4
-11	-261	-24
-307	-241	-25
-524	-173	-17
-502	-71	-9
-210	47	-20
216	162	-30
580	261	-20
683	330	-19
486	356	-33
131	335	-1
-161	272	13
-226	180	-24
-50	80	-48
209	-13	-67
332	-93	-59
196	-153	-31
-151	-191	-13
-508	-198	-32
-647	-167	-44
-459	-101	-46
-41	-12	-72
368	70	-77
541	117	-61
385	112	5
11	63	41
-344	1	50
-472	-43	42
-315	-45	2
8	-9	-44
291	40	-66
373	71	-70
234	64	-68
7	20	-41
-141	-43	-53
-116	-102	-18
54	-143	26
234	-162	28
280	-166	12
150	-157	-8
-104	-131	-43
-351	-79	-52
-477	10	-31
-447	121	-68
-315	224	-76
-169	274	-55
-65	241	-43
-18	118	-9
13	-62	2
63	-249	-12
136	-393	1
202	-464	-1
216	-471	-3
160	-433	-1
44	-372	-21
-80	-285	-24
-177	-159	-20
-224	21	11
-215	241	20
-162	451	-10
-65	582	-36
81	586	-32
272	451	-35
478	233	-33
632	15	-32
642	-114	-25
472	-123	-20
144	-36	-25
-229	72	-9
-491	124	-23
-509	80	-11
-262	-51	-9
141	-210	-22
520	-329	-19
681	-361	-9
537	-300	5
151	-171	13
-288	-18	5
-576	126	-21
-589	241	-35
-338	313	-41
20	343	-45
290	327	-40
336	257	-27
147	144	-8
-178	11	2
-465	-105	-31
-581	-170	-58
-484	-159	-49
-233	-79	-43
50	36	-47
250	140	-48
291	191	-32
180	170	-11
-22	89	-16
-230	-14	-19
-366	-99	-11
-383	-136	-26
-268	-121	-27
-71	-76	-31
133	-28	-18
265	-11	-2
261	-27	3
123	-69	22
-80	-118	6
-236	-149	-32
-247	-143	-49
-75	-99	-39
225	-20	-16
528	86	3
707	197	5
709	285	13
562	327	22
358	295	8
199	194	-45
120	43	-78
85	-111	-82
14	-240	-105
-151	-326	-90
-392	-379	-35
-632	-422	5
-757	-469	10
-714	-504	0
-535	-490	-31
-300	-394	-42
-125	-222	-57
-64	-1	-78
-95	188	-24
-130	295	-5
-79	313	-18
113	287	-26
406	289	-57
699	357	-49
869	469	-30
828	543	-22
562	487	11
141	265	35
-299	-62	9
-621	-376	-11
-742	-543	-3
-651	-498	-18
-416	-278	-38
-147	0	-60
60	209	-49
163	278	-5
176	225	1
159	122	4
164	54	5
211	41	-23
279	57	-45
326	31	-32
306	-75	-8
199	-243	-10
10	-400	-23
-231	-453	-26
-470	-359	-28
-659	-137	-30
-756	129	-3
-724	335	16
-574	410	-1
-352	331	-10
-129	138	-19
31	-103	-32
106	-317	-47
121	-446	-63
151	-449	-62
263	-315	-46
490	-68	6
775	230	10
1012	492	-14
1060	624	3
884	577	-12
488	365	-15
-7	76	-30
-459	-173	-38
-720	-287	-25
-751	-249	-21
-583	-112	-4
-330	21	3
-101	71	8
36	26	-2
76	-68	-21
61	-124	-38
50	-90	-43
68	31	-54
107	170	-70
133	244	-53
123	200	-55
72	46	-51
8	-147	-11
-39	-300	21
-54	-350	25
-52	-292	20
-62	-168	10
-113	-37	-28
-202	49	-53
-300	75	-41
-354	52	-50
-321	19	-68
-186	2	-82
22	23	-70
245	75	-26
414	137	-10
469	181	-7
391	180	-15
215	125	-7
5	32	5
-163	-64	-1
-236	-127	12
-198	-138	15
-80	-104	-8
63	-58	-8
188	-45	-21
274	-86	-48
322	-159	-39
333	-218	-22
291	-211	-13
159	-118	-42
-102	30	-27
-474	169	-11
-863	225	-21
-1116	174	-8
-1104	46	-11
-773	-86	-13
-177	-142	-21
486	-93	-27
991	36	-30
1169	169	-17
995	227	-32
575	177	-63
118	48	-75
-200	-89	-62
-281	-169	-66
-165	-159	-59
36	-81	-14
198	14	-23
234	77	-6
137	85	-8
-40	51	-20
-234	5	11
-392	-31	13
-485	-52	-6
-500	-62	-15
-443	-70	-21
-331	-66	-35
-191	-36	-21
-53	32	-24
52	130	1
120	228	14
169	290	-15
226	300	-15
308	253	-43
392	174	-50
422	84	-36
346	-7	-16
166	-97	-23
-80	-186	-36
-296	-259	-4
-392	-291	10
-338	-253	19
-173	-142	6
9	10	1
125	145	-1
141	209	-23
86	174	-46
20	61	-64
-6	-77	-54
14	-187	-52
49	-235	-27
65	-225	-5
52	-181	-13
37	-131	-3
55	-95	-3
111	-67	7
170	-52	17
161	-46	6
44	-51	-24
-159	-53	-54
-361	-23	-56
-458	63	-74
-381	213	-64
-156	382	-25
109	492	-7
280	458	-8
276	257	-19
107	-48	-38
-127	-343	-61
-296	-492	-90
-314	-444	-113
-177	-240	-99
46	0	-48
254	149	1
363	149	35
346	37	54
226	-81	34
44	-120	0
-152	-54	-7
-319	55	14
-417	113	32
-412	60	20
-291	-83	16
-75	-227	10
170	-282	-28
354	-212	-51
413	-57	-53
340	84	-42
186	145	-19
27	116	-29
-80	53	-28
-144	23	-55
-203	56	-91
-295	120	-93
-394	147	-115
-436	93	-90
-328	-25	-38
-59	-129	-4
280	-142	5
541	-33	-3
592	137	-17
396	265	-20
72	261	-1
-195	109	-1
-270	-106	-6
-130	-272	-7
103	-298	0
257	-179	0
224	4	-7
27	149	-14
-202	183	-15
-332	110	-11
-312	-17	-12
-226	-123	-21
-202	-173	-10
-318	-168	-7
-516	-140	0
-621	-107	16
-458	-58	5
24	30	6
681	174	-7
1252	345	-11
1402	477	-21
1283	521	-40
782	438	-30
184	279	-47
-236	96	-58
-347	-43	-60
-202	-114	-60
16	-138	-60
117	-166	-55
17	-232	-19
-238	-339	-13
-526	-449	-9
-727	-503	12
-794	-460	11
-744	-325	-9
-619	-118	6
-426	100	18
-151	278	-21
207	380	-30
575	397	-26
836	339	-34
864	236	-25
631	125	-30
216	43	-25
-182	16	-7
-397	50	19
-370	135	25
-174	240	8
27	320	-26
101	332	-58
25	244	-75
-100	53	-79
-156	-219	-77
-86	-517	-64
47	-763	-33
115	-887	-6
29	-843	-4
-182	-648	-8
-377	-362	16
-398	-69	-6
-177	154	-35
195	279	-60
518	320	-80
611	325	-77
411	328	-88
25	327	-44
-352	279	-12
-539	155	-11
-484	-47	0
-258	-264	-14
-8	-404	-33
132	-388	-43
124	-205	-20
6	62	5
-135	300	23
-229	408	33
-234	364	32
-150	225	4
0	87	-38
179	30	-54
343	56	-64
446	110	-32
438	117	4
313	33	20
104	-114	4
-117	-254	-30
-277	-308	-32
-339	-254	-32
-310	-126	-41
-239	1	-58
-174	67	-53
-136	58	-57
-105	8	-58
-52	-31	-28
33	-29	-22
129	9	-13
194	50	-9
199	57	-6
149	24	2
80	-33	5
40	-79	-2
50	-91	-21
94	-61	-18
127	-12	-16
120	36	-9
75	69	-3
29	88	-15
29	100	-26
87	112	-9
175	123	4
229	127	-3
195	114	-1
65	85	-32
-103	45	-34
-232	12	-24
-250	-6	-38
-152	3	-22
0	38	-30
109	85	-56
101	122	-57
-38	116	-49
-244	47	-35
-411	-81	-42
-455	-227	-24
-352	-330	-4
-140	-337	-20
96	-231	-4
284	-56	13
395	106	28
446	182	8
475	142	-7
502	26	-5
504	-88	-39
438	-121	-27
262	-64	-42
-21	31	-70
-363	71	-71
-669	-6	-63
-848	-194	-31
-855	-402	-27
-700	-504	-28
-444	-420	-23
-162	-157	-12
79	180	-21
236	453	-11
302	560	17
296	480	14
234	291	-13
145	93	-30
61	-28	-40
2	-56	-52
-24	-24	-26
-24	19	3
-18	38	28
-16	40	18
-23	41	-8
-23	55	-13
-10	64	-49
18	40	-68
40	-35	-53
26	-149	-36
-26	-245	-26
-91	-278	-31
-112	-225	-23
-42	-110	-8
120	8	-35
310	75	-60
429	72	-50
406	25	-38
237	-23	-11
3	-37	1
-170	-16	-9
-194	11	-19
-70	11	-3
110	-24	19
228	-62	-13
200	-62	-18
41	11	-20
-156	147	-38
-280	295	-22
-279	385	2
-174	365	3
-56	236	9
-7	36	13
-54	-154	-35
-161	-278	-82
-256	-304	-105
-280	-242	-113
-219	-140	-100
-105	-46	-84
18	6	-54
122	10	-1
200	-21	27
251	-57	26
268	-84	22
245	-94	20
175	-94	-1
86	-94	-7
9	-93	4
-11	-90	-9
32	-68	-21
107	-24	-17
163	36	-20
151	99	-20
64	139	-22
-65	150	-31
-184	129	-26
-259	86	-32
-288	32	-44
-297	-30	-46
-316	-93	-37
-348	-147	-22
-378	-171	-16
-371	-147	-10
-307	-61	-14
-183	67	-24
-24	199	-36
139	279	-4
280	277	11
363	191	19
365	59	20
269	-56	-13
93	-116	4
-111	-109	-14
-256	-60	-32
-262	-18	-49
-96	-9	-45
204	-46	-50
527	-111	-71
740	-177	-48
765	-223	-39
588	-233	-22
288	-211	-16
-22	-153	9
-256	-57	8
-383	66	-15
-426	196	-23
-420	298	-30
-389	340	-31
-328	311	-8
-225	228	11
-81	127	16
64	51	26
162	20	1
175	16	-13
125	15	-47
67	-17	-52
71	-85	-76
159	-169	-95
292	-237	-56
381	-262	-32
338	-241	-21
129	-186	-33
-194	-118	-16
-509	-46	-10
-692	33	-23
-669	132	-35
-455	249	-24
-134	362	-26
166	432	-8
342	428	-11
346	340	-34
210	190	-11
-1	32	-9
-191	-77	12
-259	-103	8
-152	-50	8
118	34	-4
482	94	-28
818	77	-32
988	-34	-53
915	-211	-66
614	-403	-63
189	-546	-49
-231	-596	-37
-534	-546	-8
-680	-429	1
-707	-291	-18
-684	-176	-20
-652	-112	-11
-599	-90	7
-484	-88	16
-288	-76	-8
-56	-33	-47
130	45	-59
190	150	-56
111	255	-31
-32	341	-22
-125	383	-18
-85	365	-39
79	287	-43
275	174	1
378	62	15
321	-12	29
134	-20	3
-72	27	-41
-197	99	-93
-188	145	-135
-83	132	-119
29	60	-62
83	-45	-8
61	-134	-2
2	-175	-4
-51	-162	-7
-83	-123	-7
-117	-99	-5
-180	-111	-7
-264	-151	6
-325	-179	1
-285	-161	-7
-118	-83	0
139	26	8
396	121	-11
558	160	-14
568	135	12
462	84	-16
314	63	-38
192	115	-21
117	230	-18
67	350	-20
12	397	-2
-54	318	8
-95	126	-16
-65	-105	1
50	-271	2
216	-306	-18
359	-196	-5
409	-3	-7
346	183	-23
223	290	-43
90	289	-61
-6	207	-67
-77	85	-41
-171	-34	-31
-321	-134	-38
-518	-216	-58
-691	-277	-64
-748	-308	-53
-645	-289	-53
-412	-226	-42
-145	-137	-20
42	-66	-17
77	-52	-40
-24	-90	-32
-176	-151	-18
-263	-173	-3
-212	-123	7
-5	-4	-17
284	135	-28
541	228	-36
662	229	-42
580	134	-11
313	-15	14
-61	-164	-2
-419	-260	-2
-644	-288	16
-665	-260	11
-474	-194	9
-140	-114	21
228	-26	8
506	71	5
626	171	3
558	252	-20
345	290	-24
69	265	-40
-174	171	-47
-321	33	-41
-363	-121	-63
-319	-247	-86
-241	-317	-92
-169	-322	-62
-114	-261	-58
-54	-157	-57
42	-23	-34
196	123	-25
381	273	-18
526	406	-5
560	493	5
444	497	-7
199	397	-7
-93	197	5
-316	-48	-2
-398	-256	-17
-333	-345	-38
-186	-282	-50
-42	-93	-47
36	138	-35
43	319	-38
37	384	-41
75	339	-21
172	240	-10
295	149	3
358	96	6
306	58	10
140	-8	-1
-72	-137	-20
-248	-305	3
-314	-451	22
-263	-510	7
-160	-460	-26
-69	-352	-59
-46	-245	-64
-91	-194	-38
-174	-192	-25
-248	-176	-44
-290	-81	-39
-281	115	-18
-213	350	9
-77	522	42
118	534	74
332	373	75
493	123	43
526	-103	16
396	-214	-47
148	-202	-130
-104	-128	-192
-243	-84	-163
-218	-110	-116
-78	-182	-99
55	-228	-45
61	-183	4
-94	-53	26
-325	99	17
-506	191	22
-518	171	29
-355	64	2
-112	-64	-1
85	-136	9
169	-123	11
169	-57	5
180	-2	-42
277	7	-53
451	-21	-38
602	-33	-41
611	17	-47
423	131	-42
107	261	-23
-183	328	-24
-307	285	-17
-221	156	-16
1	9	-10
206	-66	-3
271	-33	11
172	76	2
-28	171	-29
-232	162	-38
-378	15	-35
-463	-230	-7
-518	-460	19
-552	-582	14
-521	-525	-9
-370	-312	-20
-89	-25	-21
229	228	-31
433	364	-38
404	365	-46
132	258	-36
-237	109	-34
-481	-21	-55
-438	-91	-52
-122	-101	-48
280	-82	-57
527	-66	-61
446	-82	-37
87	-118	-33
-318	-148	-32
-497	-127	-6
-315	-37	-4
160	105	3
665	254	-5
912	345	-23
778	340	-27
351	231	-24
-115	63	-23
-366	-94	-9
-282	-182	-9
30	-183	-11
346	-121	-13
459	-43	-5
299	2	-2
-32	-4	-38
-342	-51	-44
-484	-116	-46
-442	-170	-28
-310	-200	-17
-225	-199	-3
-249	-161	6
-339	-71	-4
-378	69	-20
-280	243	-41
-55	395	-13
182	446	-15
288	345	-28
201	95	-27
-23	-234	-25
-227	-519	-2
-251	-633	1
-46	-510	-5
284	-192	20
553	206	24
592	538	-7
363	691	-2
1	648	-36
-274	480	-90
-281	294	-97
9	174	-72
450	132	-18
794	110	26
837	34	15
558	-140	-18
94	-381	-23
-310	-590	-42
-463	-676	-90
-329	-577	-103
-49	-345	-85
145	-89	-60
80	70	-36
-263	57	-26
-736	-101	-7
-1095	-304	-12
-1155	-420	5
-892	-376	22
-408	-173	-2
107	109	-27
468	364	-22
597	519	-4
541	552	-14
423	497	-34
341	396	-52
325	274	-48
326	129	-37
258	-48	-9
69	-248	0
-215	-425	-4
-503	-517	1
-668	-481	1
-621	-319	10
-375	-94	7
-18	105	-4
314	213	-20
506	221	-18
506	168	-30
346	120	-37
129	120	-19
-59	165	-33
-163	205	-33
-173	197	-25
-124	115	-21
-67	-9	-15
-28	-127	-5
-6	-189	-10
12	-178	-35
35	-124	-34
60	-71	-36
69	-59	-38
54	-88	-34
18	-124	-27
-5	-124	-20
11	-55	-9
83	74	-6
186	225	-8
269	349	-5
285	403	-21
206	371	-25
58	270	-39
-99	141	-43
-201	18	-48
-225	-66	-24
-182	-107	-16
-125	-110	-11
-106	-95	11
-132	-78	-8
-177	-72	-6
-188	-82	-12
-136	-101	-28
-32	-128	-41
67	-160	-54
101	-199	-59
38	-246	-36
-88	-298	-34
-199	-346	-55
-215	-371	-62
-103	-359	-61
107	-301	3
330	-192	24
466	-44	-1
454	129	14
310	305	-5
90	465	-22
-128	568	-12
-286	603	-11
-357	534	-21
-345	362	-33
-260	117	-30
-110	-142	-14
95	-345	-10
313	-427	-34
470	-358	-37
494	-161	-47
346	94	-64
69	313	-66
-213	424	-47
-354	387	1
-275	221	6
-20	-2	9
253	-201	-5
356	-309	-44
180	-301	-57
-216	-211	-61
-630	-93	-18
-840	-11	-7
-740	8	-15
-390	-29	-39
-12	-87	-52
170	-121	-26
68	-116	-12
-217	-80	-8
-477	-43	-17
-502	-36	1
-248	-63	-8
155	-105	-19
501	-122	-3
639	-88	22
561	2	42
399	117	39
313	215	19
373	258	-20
506	225	-40
575	131	-61
454	10	-72
152	-103	-75
-197	-186	-53
-425	-228	-17
-436	-233	-2
-260	-209	-6
-34	-160	-17
97	-87	-5
74	14	-14
-56	137	-24
-182	271	-11
-210	393	7
-126	473	11
6	489	-12
104	430	-40
122	311	-68
76	160	-71
17	14	-67
-12	-96	-37
-14	-159	-32
-24	-175	-24
-76	-173	21
-162	-165	13
-235	-171	3
-241	-190	-16
-166	-211	-25
-47	-221	-35
46	-199	-50
57	-152	-68
-9	-82	-49
-85	-4	-5
-86	62	31
34	101	24
242	103	-30
436	67	-24
506	2	-37
391	-79	-49
121	-159	-66
-206	-218	-71
-459	-249	-53
-563	-246	-54
-501	-212	-8
-329	-162	5
-117	-107	6
77	-64	-14
237	-40	-18
363	-34	11
450	-34	24
466	-26	27
373	2	-24
157	56	-36
-131	124	-42
-389	191	-42
-497	236	-30
-399	244	-47
-134	228	-27
159	203	-24
318	195	-18
258	215	-30
14	268	-18
-266	321	16
-413	332	5
-335	275	11
-88	147	-8
172	-22	-55
299	-183	-76
216	-276	-86
19	-277	-67
-142	-200	-19
-142	-95	0
18	-24	-20
212	-25	-24
263	-101	-32
69	-214	-51
-310	-313	-42
-686	-355	-30
-848	-320	-29
-676	-215	-8
-224	-71	9
319	74	14
722	190	9
839	253	10
671	252	10
340	193	-20
23	96	-21
-142	-1	-30
-120	-62	-32
40	-64	-39
248	-11	-61
405	72	-41
456	150	-21
392	185	4
237	166	-19
36	103	-32
-150	18	5
-279	-68	19
-337	-148	36
-340	-219	48
-331	-287	45
-345	-340	15
-389	-354	-10
-417	-297	-23
-369	-151	-71
-200	63	-122
71	298	-136
346	469	-129
508	518	-54
484	418	21
284	210	4
28	-22	-23
-138	-183	-38
-116	-212	-43
69	-115	-42
283	43	-26
359	168	-46
203	191	-39
-158	96	3
-550	-64	13
-783	-210	9
-726	-274	-9
-392	-234	-11
86	-125	-15
506	-6	-14
723	66	-37
676	74	-31
425	39	-5
94	-4	-13
-194	-28	-27
-351	-33	-24
-360	-31	-16
-256	-39	-34
-97	-55	-39
48	-61	-19
120	-42	-18
90	6	-37
-26	62	-51
-180	95	-53
-305	76	-30
-344	5	1
-288	-91	22
-176	-174	20
-64	-208	-8
-2	-185	-43
6	-123	-51
-6	-53	-35
4	-7	-22
52	10	-22
115	5	-21
135	-4	-24
77	-9	-31
-56	-11	-25
-209	-26	-12
-307	-65	-6
-304	-124	-32
-197	-171	-53
-31	-162	-33
139	-59	-12
276	140	-4
373	395	-30
436	618	-55
468	722	-42
459	649	-19
393	413	-6
269	85	1
111	-222	-3
-42	-413	-11
-155	-457	-12
-204	-393	-16
-197	-306	-14
-151	-265	-10
-81	-292	-5
3	-326	-1
91	-287	-6
167	-114	-36
209	180	-47
198	495	-47
128	691	-58
14	669	-19
-119	424	-4
-250	57	-12
-375	-270	-2
-484	-421	2
-565	-351	-23
-565	-119	-34
-433	139	-22
-142	298	-22
273	291	-32
709	143	-54
1019	-57	-52
1060	-218	-25
831	-281	-19
388	-249	-32
-99	-163	-33
-463	-72	-45
-589	-10	-50
-486	30	-15
-263	58	3
-65	89	35
22	113	75
-14	117	81
-112	92	80
-185	38	30
-185	-25	-11
-124	-78	-34
-51	-105	-89
-24	-117	-120
-54	-119	-135
-110	-123	-145
-134	-131	-95
-90	-136	-59
22	-133	-52
159	-118	-22
261	-94	-5
283	-59	3
214	-6	-19
64	70	-45
-130	165	-61
-325	248	-44
-477	279	-2
-548	230	-9
-518	95	-38
-386	-84	-10
-190	-245	8
10	-326	-4
160	-322	5
229	-257	19
230	-190	59
200	-168	41
183	-188	26
199	-204	39
236	-158	3
254	-19	-42
224	178	-84
122	350	-84
-35	415	-64
-217	335	-62
-380	149	-67
-484	-47	-50
-480	-159	-36
-344	-124	-18
-78	28	-9
277	219	-19
636	362	-18
901	398	-27
973	332	-25
846	210	-19
569	92	-11
261	14	-11
18	-22	-12
-97	-34	-13
-99	-41	-26
-62	-41	-28
-64	-28	-27
-145	0	-30
-291	21	-15
-448	3	0
-550	-79	-17
-565	-214	-15
-497	-348	-4
-375	-411	11
-241	-343	14
-121	-155	13
-28	89	2
37	296	-28
83	379	-18
109	313	-30
115	144	-37
101	-42	-37
64	-175	-45
9	-214	-22
-59	-183	-12
-132	-132	-16
-191	-111	-27
-211	-137	-40
-166	-182	-43
-34	-201	-45
184	-150	-38
439	-19	-48
662	159	-57
749	327	-36
636	412	-19
319	372	-7
-133	197	-17
-564	-64	-7
-825	-334	13
-814	-523	42
-545	-565	68
-130	-446	13
244	-207	-38
423	67	-51
357	290	-88
123	397	-127
-119	373	-121
-212	265	-69
-80	124	-32
212	15	-25
506	-36	-16
636	-36	1
529	-13	-6
242	6	-1
-59	19	17
-205	40	32
-125	95	49
106	180	31
311	261	4
302	279	-19
29	189	-20
-412	-8	-35
-805	-251	-71
-954	-432	-85
-787	-464	-99
-399	-331	-91
-1	-101	-64
204	103	-47
138	174	-28
-116	83	-6
-373	-106	10
-459	-265	18
-315	-288	12
2	-144	-2
355	88	-12
613	286	-41
707	343	-51
671	248	-27
563	72	-9
444	-67	-19
324	-92	-18
188	-3	-22
15	129	-41
-182	207	-37
-369	179	-30
-491	60	-16
-518	-80	-8
-459	-173	5
-350	-191	12
-237	-158	24
-154	-128	20
-105	-135	-6
-74	-182	-16
-40	-230	-35
-1	-238	-36
31	-195	-44
41	-121	-51
38	-50	-45
49	1	-24
120	39	-17
268	92	-28
454	179	-19
598	283	-25
591	366	-20
388	373	-18
38	298	-10
-325	150	6
-556	-6	-8
-565	-115	-10
-378	-148	-14
-118	-111	-24
66	-47	-18
105	7	-26
30	38	-40
-42	59	-43
-6	89	-36
159	130	-18
363	171	-9
461	178	-4
350	129	-3
44	23	-30
-321	-108	-36
-562	-218	-27
-546	-271	-40
-262	-254	-42
170	-189	-46
545	-115	-53
698	-77	-44
558	-93	-30
195	-153	16
-251	-216	41
-589	-233	34
-696	-175	12
-552	-41	-9
-236	116	-31
121	237	-76
381	268	-123
461	195	-88
365	66	-12
172	-45	16
-12	-72	16
-114	-2	-5
-115	124	-1
-57	224	-29
-15	225	-56
-35	116	-52
-121	-47	-59
-221	-175	-54
-253	-200	-77
-177	-114	-77
1	21	-45
214	119	-15
373	131	-12
395	63	-18
261	-22	4
18	-64	28
-245	-41	29
-445	10	-4
-507	24	10
-424	-37	14
-232	-157	10
-1	-257	-1
192	-259	-32
297	-133	4
285	72	2
188	257	-6
49	334	-15
-64	278	-54
-120	143	-43
-111	23	-59
-70	-21	-89
-48	7	-80
-78	31	-43
-153	-21	-18
-234	-177	-19
-255	-373	-13
-173	-498	-9
9	-457	-12
233	-232	-17
419	86	-10
490	345	-13
414	428	-18
219	298	-14
-16	35	-9
-209	-211	-7
-295	-319	-20
-253	-254	-24
-116	-75	-8
49	101	9
179	182	-8
225	143	-25
179	45	-31
78	-23	-45
-21	-2	-30
-57	106	-39
3	237	-49
148	308	-39
321	268	-30
433	143	-26
419	4	-57
252	-75	-54
-30	-53	-47
-352	35	-41
-615	121	-12
-758	125	-14
-762	20	-22
-653	-162	-4
-459	-343	30
-222	-437	53
46	-408	64
306	-273	55
504	-103	21
575	28	-24
476	80	-67
228	59	-87
-76	16	-97
-300	7	-93
-344	57	-45
-186	150	-6
82	233	11
319	259	7
405	202	-15
316	91	-28
123	-23	-40
-51	-88	-45
-115	-83	-30
-67	-29	-11
21	26	-6
54	34	2
-7	-14	-2
-130	-98	-15
-221	-163	-20
-191	-163	-11
-33	-84	-15
190	51	-45
360	185	-49
389	260	-40
255	241	-41
29	140	-64
-182	-1	-75
-290	-127	-62
-271	-196	-38
-167	-194	-8
-61	-134	-24
-17	-59	-35
-46	1	-9
-116	26	-1
-166	21	4
-165	2	-2
-121	-13	3
-83	-16	18
-96	-13	0
-165	-17	-12
-245	-38	-29
-258	-75	-19
-148	-112	-6
78	-134	-9
344	-123	6
527	-81	-8
532	-21	-16
350	30	-27
62	51	-43
-215	32	-51
-371	-20	-80
-372	-78	-80
-252	-105	-32
-86	-76	16
68	9	26
203	119	-2
320	203	-28
419	215	-43
459	152	-52
383	35	-55
160	-76	-57
-160	-132	-36
-459	-120	-17
-594	-69	-20
-487	-34	-20
-176	-45	-25
212	-104	-26
506	-156	-27
600	-141	-23
475	-40	-11
219	115	-27
-51	244	-8
-247	282	-13
-331	203	-27
-317	65	3
-234	-40	-4
-114	-42	9
8	62	-11
84	203	-15
49	277	-12
-124	226	-27
-398	68	-15
-664	-108	-20
-773	-196	-26
-619	-147	-25
-221	4	0
285	165	8
704	243	-13
872	205	-26
756	100	-25
456	20	-28
142	26	-34
-52	104	-32
-96	168	-14
-59	109	-23
-60	-121	-64
-163	-475	-80
-344	-815	-79
-497	-987	-37
-518	-899	10
-345	-570	24
-13	-123	28
366	281	8
677	527	-2
825	574	-15
797	483	-51
623	345	-55
374	252	11
125	213	26
-80	208	16
-227	174	-9
-321	80	-67
-385	-85	-105
-444	-282	-110
-509	-464	-63
-574	-585	-28
-603	-615	-19
-556	-546	-59
-424	-386	-47
-218	-163	-35
0	80	-26
175	299	-17
267	453	-40
280	525	-27
265	528	-20
283	492	11
360	450	11
476	405	2
554	340	-5
519	225	-13
332	51	8
27	-150	14
-310	-320	-1
-573	-394	-35
-683	-362	-52
-621	-250	-38
-436	-134	-14
-195	-88	-15
32	-138	-46
188	-254	-60
245	-356	-65
201	-374	-52
82	-268	-36
-48	-68	-30
-101	163	-9
-4	362	12
245	483	10
566	523	26
790	495	36
755	427	16
402	316	1
-172	170	-23
-736	-2	-11
-1039	-171	-4
-965	-297	-9
-565	-354	-1
-72	-338	-16
258	-277	-27
295	-209	-33
99	-168	-40
-135	-154	-80
-197	-144	-97
-21	-106	-74
280	-21	-38
506	91	5
519	197	3
305	259	-8
32	257	-26
-104	203	-25
-10	127	-1
236	64	0
446	25	15
439	8	19
180	-9	-9
-203	-38	-30
-500	-84	-38
-561	-131	-39
-375	-164	-68
-96	-164	-76
90	-130	-43
82	-72	-33
-91	-18	-38
-291	15	-59
-375	13	-41
-292	-15	-20
-111	-49	-24
44	-62	-19
83	-36	14
-1	23	34
-128	90	16
-195	127	10
-156	111	-2
-27	39	-7
107	-52	-27
172	-126	-34
131	-147	-30
14	-111	-48
-119	-48	-46
-205	4	-48
-202	22	-51
-91	12	-39
119	6	-2
398	34	-4
689	102	-58
912	171	-47
973	194	-21
811	128	-20
446	-19	18
-24	-199	54
-451	-336	48
-702	-368	13
-720	-286	-24
-565	-130	-52
-378	27	-46
-283	130	-59
-333	161	-62
-454	144	-43
-503	132	-45
-358	158	-34
6	225	-37
478	295	-32
863	318	-42
962	265	-45
707	141	-30
200	-10	-25
-346	-141	-11
-708	-209	11
-744	-211	17
-480	-168	-5
-77	-117	-45
260	-88	-51
396	-83	-34
314	-86	-20
118	-68	-23
-55	-15	-23
-109	75	-6
-35	170	-14
107	233	-9
237	236	-11
301	168	-23
291	47	-14
229	-96	8
133	-224	24
4	-304	22
-162	-319	12
-351	-263	-3
-516	-156	-30
-603	-18	-64
-569	110	-69
-418	194	-48
-198	210	-21
24	158	-20
199	68	-30
314	-17	-14
368	-55	-25
373	-32	-44
335	33	-30
244	93	-40
105	97	-59
-61	16	-61
-222	-131	-38
-346	-287	-7
-432	-384	8
-494	-368	16
-529	-232	-6
-506	-21	-59
-366	190	-75
-79	323	-79
326	333	-77
739	228	-39
995	61	-37
981	-89	-25
678	-164	39
221	-140	83
-181	-44	60
-351	68	29
-234	144	24
65	158	10
346	122	-41
439	72	-42
296	43	-37
-3	39	-41
-291	48	-40
-435	48	-66
-416	29	-85
-330	-1	-90
-315	-29	-74
-436	-46	-59
-636	-71	-24
-756	-128	0
-639	-232	6
-245	-356	17
314	-451	7
824	-459	-5
1046	-368	-8
889	-218	-6
439	-83	5
-89	-33	12
-469	-69	-17
-549	-131	-33
-350	-118	-21
-16	43	-25
275	340	-38
419	678	-37
409	915	-37
314	949	-35
223	774	-17
166	461	-4
119	140	12
36	-81	13
-98	-166	-20
-251	-153	-35
-350	-111	-39
-339	-98	-51
-222	-125	-44
-48	-168	-40
87	-192	-52
124	-184	-69
50	-154	-59
-92	-124	-57
-248	-112	-38
-360	-116	12
-410	-123	29
-389	-126	48
-308	-129	45
-173	-143	14
7	-167	3
198	-184	-4
346	-170	-42
407	-100	-56
346	16	-49
184	139	-50
0	228	-55
-120	251	-51
-112	219	-16
17	170	-15
198	150	-51
332	161	-62
338	174	-30
204	145	-25
-2	38	-45
-186	-139	-19
-267	-330	-12
-231	-460	-31
-123	-485	-16
-28	-402	-11
-1	-263	-10
-45	-140	-21
-111	-71	-49
-139	-56	-34
-103	-50	-10
-16	-1	29
66	118	56
107	284	31
100	438	29
65	520	-16
36	471	-64
20	301	-79
1	58	-70
-40	-183	-35
-96	-355	-32
-125	-418	-30
-80	-376	-19
52	-269	-8
232	-145	7
370	-37	16
380	48	21
248	122	19
32	201	-11
-160	272	-32
-250	310	-51
-226	283	-77
-154	187	-72
-129	49	-38
-206	-82	0
-354	-160	-3
-481	-173	-10
-481	-150	-5
-314	-137	-16
-29	-173	-27
260	-238	-22
439	-286	-31
461	-246	-32
344	-89	-25
182	153	-40
68	402	-36
46	564	-43
107	586	-55
196	477	-45
244	299	-49
212	119	-55
90	-16	-32
-107	-100	4
-343	-165	22
-557	-237	32
-692	-320	30
-680	-383	22
-491	-384	17
-143	-292	-3
269	-121	-52
608	82	-103
754	251	-125
660	327	-78
390	298	-9
83	183	26
-96	45	35
-72	-61	-9
111	-110	-42
328	-104	-40
435	-80	-33
357	-72	-22
127	-101	-6
-129	-151	17
-302	-186	-2
-331	-174	-22
-255	-108	-32
-164	-12	-42
-133	71	-30
-178	110	-19
-245	97	-35
-264	56	-51
-191	18	-27
-40	7	-20
139	17	-9
290	30	-25
373	29	-20
382	7	12
314	-14	-14
175	-16	-42
-25	7	-64
-250	39	-66
-429	53	-54
-480	27	-33
-350	-38	-7
-94	-118	9
161	-181	20
255	-206	21
101	-192	6
-262	-158	-28
-663	-117	-46
-886	-78	-42
-805	-40	-31
-456	-5	-21
1	23	8
338	29	26
417	11	13
267	-17	-10
46	-27	-30
-53	11	-23
74	98	-43
368	206	-72
649	287	-91
730	299	-67
521	233	-42
85	121	-37
-377	13	-34
-659	-52	-39
-654	-64	-22
-390	-52	2
-6	-46	15
314	-59	0
451	-81	2
394	-75	12
227	-17	6
71	87	-12
23	199	-25
107	268	-25
273	260	8
428	169	24
484	31	0
401	-104	-24
190	-195	-45
-77	-233	-28
-312	-229	-53
-455	-210	-58
-496	-203	-19
-474	-207	-16
-451	-208	-19
-458	-182	-32
-470	-118	-29
-415	-22	8
-226	79	22
104	152	5
476	171	-20
740	142	-55
762	88	-79
512	43	-81
111	51	-78
-232	120	-59
-336	227	-40
-153	324	-29
192	350	-15
490	274	-16
547	96	-23
324	-135	-18
-52	-343	-8
-372	-454	-6
-480	-425	-4
-347	-269	1
-104	-41	7
80	171	14
96	298	-6
-43	294	-41
-234	171	-46
-357	-15	-24
-361	-195	-32
-273	-301	-55
-156	-300	-56
-38	-192	-58
93	-23	-55
259	143	-27
436	250	-2
544	252	18
478	152	26
199	-15	24
-206	-183	13
-565	-291	-18
-702	-309	-39
-556	-237	-58
-210	-117	-54
165	-3	-40
399	62	-16
451	74	7
389	55	15
326	37	41
311	46	32
285	71	-3
138	83	-64
-186	40	-61
-621	-58	-46
-992	-192	-67
-1117	-307	-60
-927	-346	-57
-507	-286	-53
-55	-140	-35
245	43	-12
326	206	-20
245	305	-28
131	335	-30
86	313	-11
124	273	-7
198	241	10
265	218	38
325	188	27
417	123	-3
552	10	-32
665	-133	-51
653	-274	-55
425	-354	-43
15	-331	-40
-417	-192	-2
-668	29	20
-626	266	10
-336	437	-2
8	475	-30
191	365	-56
135	142	-72
-54	-108	-81
-178	-298	-55
-82	-373	-30
219	-332	-30
536	-222	-30
633	-111	-16
415	-44	9
-23	-24	-2
-425	-8	-24
-554	43	-25
-347	153	-19
36	284	-36
336	379	-40
353	368	-17
75	243	8
-300	43	18
-537	-144	13
-501	-243	0
-252	-226	1
14	-130	-7
105	-49	-40
-18	-56	-52
-224	-173	-51
-314	-343	-40
-156	-460	-24
199	-447	-9
548	-282	-5
671	-39	10
484	178	5
80	279	-4
-310	252	-6
-456	158	-50
-291	92	-65
62	120	-75
383	232	-83
482	345	-80
306	372	-64
-13	258	-37
-275	47	-18
-329	-170	-10
-158	-294	-23
121	-292	-17
326	-203	-32
342	-119	-29
169	-118	-11
-99	-211	-5
-336	-352	30
-459	-452	60
-480	-456	68
-436	-346	60
-389	-170	65
-337	20	24
-247	181	-45
-84	300	-81
132	387	-99
333	445	-101
428	467	-80
363	438	-51
167	356	-50
-64	243	-46
-211	127	-58
-213	43	-62
-86	-2	-60
89	-24	-76
214	-47	-41
244	-84	-11
200	-125	0
147	-156	31
129	-159	39
142	-148	21
126	-144	17
9	-169	-9
-228	-210	-60
-526	-237	-48
-758	-204	-32
-796	-90	-14
-581	77	12
-174	238	-8
280	322	-18
619	287	-13
706	158	-9
537	-8	-15
215	-134	-23
-94	-178	-38
-250	-142	-22
-182	-78	-19
68	-43	-46
368	-70	-32
569	-153	-20
568	-233	-32
355	-251	-32
18	-163	-21
-291	22	-18
-448	249	-15
-400	435	-8
-199	505	-9
25	427	-17
131	224	0
53	-34	-16
-162	-251	-38
-383	-351	-45
-459	-305	-47
-305	-140	-32
54	67	-23
483	233	-12
811	298	-14
923	241	-19
791	103	-30
489	-59	-39
142	-184	-4
-139	-229	9
-310	-183	-13
-380	-64	-35
-393	90	-65
-398	231	-58
-402	313	-16
-399	294	3
-374	171	-13
-318	-30	-16
-240	-244	-11
-156	-393	-25
-87	-429	-44
-42	-354	-31
-29	-222	-4
-40	-109	-2
-62	-74	-2
-71	-119	-17
-48	-190	-26
13	-215	-26
104	-151	-28
187	-13	-9
225	131	-10
192	211	-7
97	193	0
-35	106	-32
-168	18	-43
-273	-12	-51
-350	24	-44
-389	88	-17
-377	121	16
-273	91	24
-37	23	-5
334	-22	-30
771	22	-40
1142	166	-50
1299	358	-78
1163	504	-80
753	520	-52
184	385	-50
-332	149	-87
-651	-99	-61
-713	-286	-62
-580	-382	-39
-397	-410	-7
-288	-413	-38
-300	-416	-31
-373	-412	-1
-403	-358	26
-304	-232	24
-67	-31	23
234	201	29
493	403	22
624	530	3
598	561	-6
439	507	-13
216	405	15
-20	267	11
-240	110	-42
-426	-49	-49
-549	-192	-34
-577	-298	-36
-493	-351	-64
-304	-364	-43
-70	-364	-41
118	-375	-44
175	-391	-11
67	-382	6
-166	-305	19
-431	-145	-17
-619	60	-25
-650	238	-19
-507	305	-16
-240	236	-16
77	71	-37
363	-92	-48
569	-163	-37
681	-113	-10
709	16	1
678	135	-14
608	171	-19
517	120	-24
400	27	-28
266	-32	-27
115	-21	-36
-39	43	-47
-173	102	-42
-259	98	-11
-273	30	-2
-218	-53	-8
-120	-79	-25
-30	-16	-20
7	106	-13
-29	203	-13
-125	196	9
-228	65	13
-285	-131	9
-269	-288	-1
-182	-317	-22
-70	-194	-53
15	13	-69
52	201	-58
53	284	-34
49	241	-12
75	119	-31
124	-2	-55
169	-57	-52
160	-39	-59
78	13	-56
-55	42	-43
-178	16	-16
-218	-49	24
-149	-112	45
5	-121	38
172	-65	-6
279	31	-71
279	119	-102
191	149	-113
69	103	-101
-30	-3	-30
-82	-122	-2
-99	-204	4
-116	-218	20
-158	-157	22
-213	-46	17
-250	75	-18
-239	165	-25
-178	204	-39
-104	193	-59
-57	155	-6
-54	124	-1
-62	115	-50
-30	124	-71
83	120	-66
257	72	-42
411	-32	-47
454	-174	-35
329	-305	-4
76	-379	15
-191	-363	38
-345	-288	56
-325	-203	89
-170	-167	96
-1	-202	105
53	-274	85
-44	-316	26
-225	-260	-37
-350	-93	-115
-292	141	-130
-42	358	-91
306	477	-87
592	473	-117
701	372	-123
614	257	-105
415	181	-66
221	162	-40
98	170	-17
29	150	-7
-56	71	-8
-215	-60	-8
-421	-199	-25
-576	-289	-30
-573	-292	-40
-385	-217	-38
-78	-98	-28
193	20	-9
297	106	38
196	150	45
-25	153	32
-229	125	1
-306	79	-13
-234	26	26
-90	-13	29
23	-25	18
41	-7	-18
-22	24	-53
-101	43	-75
-133	30	-105
-107	-17	-93
-56	-70	-69
-28	-94	-32
-32	-60	-4
-32	15	10
25	93	14
161	126	-11
332	88	-32
455	-1	-28
451	-102	-12
302	-167	-38
77	-189	-41
-116	-183	-39
-185	-188	-12
-106	-226	49
58	-287	3
201	-344	-44
230	-368	-32
116	-348	4
-91	-301	35
-303	-245	53
-426	-175	50
-412	-62	23
-273	126	-4
-60	402	-69
154	712	-122
299	959	-157
333	1029	-158
261	871	-123
108	515	-66
-68	51	-3
-212	-366	13
-279	-627	17
-262	-676	0
-182	-557	-23
-80	-372	-50
5	-210	-42
48	-137	-17
43	-143	-44
4	-181	-45
-51	-186	-46
-100	-120	-46
-112	9	1
-66	161	6
41	279	5
187	327	22
314	290	34
359	195	70
267	78	94
54	-25	49
-206	-91	22
-403	-120	19
-452	-119	-8
-329	-103	-38
-97	-68	-43
130	-17	-18
269	60	-38
297	160	-56
261	264	-71
238	345	-79
269	381	-70
333	345	-71
351	250	-39
260	109	-26
46	-39	-43
-213	-167	-47
-415	-246	-62
-472	-273	-83
-382	-253	-42
-212	-201	-2
-65	-137	1
-7	-76	9
-27	-24	0
-56	17	3
-27	48	-1
90	78	-28
248	103	-38
366	117	-30
373	116	-12
259	93	-9
62	51	-9
-132	2	-14
-256	-45	-35
-288	-84	-27
-256	-115	-8
-205	-141	-23
-176	-173	-17
-184	-195	-1
-209	-198	-21
-226	-167	-19
-204	-95	-9
-132	-6	-12
-8	68	-21
151	87	-28
313	28	-43
428	-102	-57
439	-260	-34
311	-393	-12
42	-449	2
-303	-394	29
-627	-244	15
-821	-32	-10
-811	183	-36
-589	341	-65
-223	410	-87
195	387	-79
575	316	-40
864	251	-15
1032	251	-29
1074	329	-28
989	456	9
772	561	-2
439	565	11
40	424	30
-345	150	-1
-626	-185	-21
-753	-490	-56
-727	-682	-77
-615	-725	-76
-473	-640	-65
-352	-482	-30
-273	-308	-9
-223	-153	-19
-191	-35	-41
-176	49	-41
-175	110	-31
-165	143	-12
-102	155	-11
52	147	-21
306	131	-6
597	112	-12
809	90	2
836	57	24
645	8	26
302	-45	54
-70	-78	57
-342	-57	15
-446	21	-11
-406	135	-46
-308	233	-92
-225	262	-107
-185	209	-77
-167	89	-38
-131	-31	-43
-66	-104	-50
6	-105	-52
48	-59	-68
47	-19	-53
23	-18	-23
27	-58	-17
86	-103	7
192	-108	22
299	-49	31
344	51	66
314	139	70
228	171	34
132	130	-42
67	39	-62
39	-54	-64
28	-112	-72
11	-125	-48
-17	-119	-50
-43	-126	-51
-54	-169	-50
-66	-232	-27
-108	-286	10
-206	-292	-9
-342	-237	-37
-452	-131	-32
-444	7	-61
-267	155	-57
44	304	-46
383	449	-37
606	568	-12
623	641	-3
423	610	-19
117	450	-46
-151	171	-2
-279	-162	31
-250	-459	24
-131	-627	18
-32	-627	-14
-26	-482	-32
-113	-283	-38
-236	-127	-37
-319	-67	-35
-316	-101	-32
-241	-168	1
-152	-196	30
-107	-152	45
-125	-44	26
-181	71	4
-214	138	0
-176	135	-36
-61	85	-90
90	34	-104
216	19	-91
276	45	-68
258	85	-55
210	97	-57
193	66	-43
238	5	-31
323	-59	-5
366	-106	4
280	-138	-13
28	-179	-26
-344	-241	-21
-712	-304	-4
-915	-312	14
-856	-201	16
-561	47	-14
-145	390	-32
221	715	-43
417	896	-55
413	845	-40
284	568	-3
140	163	12
56	-234	7
33	-490	4
20	-554	0
-20	-456	-9
-69	-286	-26
-48	-134	-30
123	-49	-32
462	-13	-42
878	32	-43
1190	135	-33
1207	309	-28
1042	505	-39
603	641	-44
106	647	-27
-264	505	-25
-427	254	-17
-415	-19	-14
-341	-223	-14
-321	-308	2
-392	-280	-5
-515	-199	-17
-589	-131	-16
-561	-119	-19
-431	-161	-39
-271	-215	-52
-159	-242	-52
-125	-222	-42
-143	-171	-34
-150	-125	-23
-102	-112	-1
-7	-134	-2
79	-166	-8
105	-181	-5
51	-163	8
-38	-126	2
-99	-98	34
-82	-91	68
5	-100	26
103	-89	-15
149	-31	-40
106	77	-53
0	190	-59
-104	244	-52
-145	193	-59
-98	45	-60
14	-130	-29
136	-247	-24
213	-237	-31
216	-102	-32
154	86	-28
50	231	-57
-59	261	-77
-148	171	-58
-190	21	-61
-180	-104	-42
-113	-138	-19
-12	-80	5
96	33	5
172	135	-13
188	190	-13
142	189	13
52	158	16
-53	115	-7
-157	62	-24
-248	-8	-59
-350	-103	-74
-465	-194	-83
-580	-242	-65
-644	-206	-21
-575	-86	9
-324	65	16
105	180	-10
614	192	-13
1053	100	6
1252	-37	-26
1119	-131	-36
707	-120	-20
172	-8	-46
-273	133	-36
-474	211	-13
-387	165	-1
-121	7	16
136	-186	27
242	-313	29
159	-313	17
-18	-183	6
-137	16	-10
-88	205	-50
122	323	-71
381	345	-78
536	308	-94
475	233	-84
210	161	-60
-148	104	-29
-452	68	-8
-603	53	-9
-580	59	-5
-444	81	-7
-281	95	-13
-160	80	-21
-86	15	-30
-32	-96	-29
27	-227	-23
96	-334	-14
145	-384	-21
139	-372	-28
62	-319	-25
-65	-263	-10
-191	-235	22
-262	-233	22
-248	-232	27
-163	-192	41
-40	-94	42
68	51	28
145	198	-1
197	295	-15
236	292	-37
265	193	-54
257	28	-75
169	-140	-69
-22	-251	-52
-285	-268	-45
-540	-192	-41
-683	-66	-40
-630	53	-41
-392	131	-50
-65	150	-48
212	126	-59
327	98	-41
241	98	-8
21	131	7
-206	171	5
-318	186	-9
-262	142	-4
-70	46	-26
172	-68	-30
372	-149	-6
468	-162	8
454	-104	20
360	-7	-2
226	78	-18
80	112	-60
-59	85	-109
-181	21	-95
-259	-30	-55
-269	-32	-10
-187	31	-2
-15	132	7
210	228	-2
425	255	-45
561	189	-38
569	34	-30
430	-162	-18
186	-329	-42
-86	-403	-72
-296	-351	-32
-375	-185	4
-291	35	28
-82	244	10
179	379	4
402	416	11
518	370	-23
496	274	-32
358	165	-25
150	63	-1
-69	-30	-17
-253	-122	-38
-375	-206	-26
-425	-268	-33
-413	-285	-22
-358	-252	-34
-289	-178	-69
-227	-95	-64
-186	-39	-46
-166	-30	-23
-158	-65	12
-137	-119	10
-94	-166	3
-25	-179	15
51	-157	24
104	-98	26
99	-15	-8
21	80	-30
-113	177	-51
-258	252	-83
-333	282	-87
-281	240	-77
-82	119	-36
211	-49	-18
488	-215	-7
619	-305	1
512	-278	5
189	-134	1
-241	76	-3
-603	259	-9
-758	341	-16
-654	291	-12
-357	139	-28
-12	-36	-24
251	-155	-16
363	-181	-16
342	-138	-21
251	-94	-34
160	-109	-30
81	-198	-32
-6	-317	-38
-123	-384	-40
-253	-337	-33
-333	-177	-17
-295	41	5
-110	227	20
170	316	15
446	299	13
600	230	-7
574	174	-36
406	174	-88
188	219	-114
20	253	-111
-42	233	-69
-15	138	-27
37	13	-20
49	-84	0
-10	-110	-15
-121	-67	-21
-237	-8	-23
-308	12	-14
-319	-39	-16
-279	-137	-8
-215	-233	8
-152	-264	6
-102	-218	10
-63	-115	22
-28	-8	47
27	59	29
123	81	26
280	82	6
490	103	-80
707	168	-147
849	250	-140
829	305	-85
599	284	-46
194	185	-12
-251	43	6
-580	-66	16
-675	-95	24
-526	-34	21
-253	56	11
-25	96	-26
22	22	-46
-133	-162	-38
-404	-391	-26
-651	-565	-29
-770	-618	-24
-740	-538	-19
-616	-381	-41
-465	-217	-31
-308	-88	-20
-111	14	-20
160	126	-27
491	266	-40
793	412	-54
950	492	-68
902	438	-43
664	249	-20
346	-18	-35
81	-248	-8
-78	-346	36
-152	-281	21
-216	-101	0
-316	98	-9
-424	233	10
-452	282	44
-330	274	65
-69	254	37
210	244	-17
359	218	-34
287	142	-59
37	10	-100
-236	-139	-117
-350	-229	-112
-201	-207	-88
170	-82	-63
602	72	-59
904	158	-13
957	121	4
730	-23	-20
317	-186	-29
-141	-269	-30
-515	-223	-24
-717	-81	-26
-723	70	1
-566	145	18
-321	110	15
-87	7	0
69	-98	-19
116	-135	-47
71	-101	-48
2	-27	-20
-30	38	-13
-4	66	5
44	75	4
51	97	0
-28	158	-12
-180	236	-24
-332	269	-19
-397	198	4
-336	-10	-15
-183	-312	-63
-35	-611	-44
13	-788	9
-63	-766	54
-208	-540	40
-313	-191	37
-287	162	6
-115	406	-40
132	483	-51
346	410	-53
459	249	-38
447	83	-51
368	-40	-62
282	-113	-75
209	-161	-68
119	-216	-55
-44	-279	-60
-296	-320	-55
-565	-286	-30
-720	-147	-4
-634	81	12
-258	338	13
314	536	14
869	613	18
1174	550	36
1097	385	6
681	187	-25
99	22	-15
-392	-72	-50
-603	-104	-49
-505	-88	-62
-215	-55	-65
74	-16	-44
216	23	-31
184	60	-3
62	84	-10
-29	75	-5
-21	29	-24
65	-45	-39
136	-113	-43
115	-142	-66
-10	-111	-40
-170	-36	-2
-281	30	16
-307	40	15
-288	-38	0
-314	-189	-1
-436	-354	-2
-611	-459	-2
-702	-448	-9
-550	-309	-30
-96	-84	-49
552	153	-66
1151	330	-83
1405	404	-66
1284	372	-41
791	275	-32
77	160	-48
-534	61	-42
-830	-8	-11
-764	-61	-10
-465	-114	18
-160	-174	13
-24	-224	12
-96	-246	34
-270	-224	31
-392	-162	35
-339	-92	16
-115	-44	11
172	-43	11
373	-78	-37
391	-117	-106
211	-119	-128
-75	-69	-140
-336	22	-111
-469	119	-35
-426	190	8
-232	228	21
39	248	29
292	282	12
450	333	-12
472	379	-38
373	379	-58
222	301	-56
85	164	-58
21	12	-48
30	-89	-30
55	-107	-18
26	-62	-38
-96	-19	-50
-273	-38	-42
-418	-134	-46
-422	-263	-20
-248	-348	1
52	-334	22
357	-229	40
523	-94	26
491	-13	37
301	-22	37
70	-96	6
-74	-162	-20
-67	-158	-55
58	-77	-72
211	29	-70
292	85	-51
245	55	-7
94	-35	26
-97	-101	42
-248	-69	16
-318	66	-11
-310	239	-41
-260	332	-68
-226	268	-77
-232	52	-61
-285	-218	-21
-350	-417	-7
-373	-439	-20
-304	-270	-51
-128	12	-42
123	287	-33
382	453	-43
558	462	-16
580	345	-9
445	170	-15
209	8	-21
-31	-97	-25
-182	-139	-10
-207	-143	0
-127	-133	15
-18	-127	20
42	-129	17
16	-124	31
-80	-104	18
-191	-63	-4
-259	-16	-39
-249	22	-60
-170	26	-69
-53	-12	-79
71	-81	-42
184	-150	-26
283	-175	-16
373	-127	-3
454	-6	-7
486	154	-12
432	298	-51
260	368	-69
-30	342	-90
-371	244	-121
-654	118	-87
-757	35	-38
-603	30	-5
-219	99	3
260	195	4
639	252	0
769	227	11
599	104	32
234	-78	32
-129	-254	32
-315	-362	20
-263	-370	-5
-68	-289	-35
89	-175	-35
42	-93	-32
-236	-81	-21
-632	-144	-37
-945	-243	-66
-1020	-320	-65
-814	-329	-43
-435	-254	-38
-46	-116	-55
216	39	-42
310	165	-31
297	228	-16
285	225	4
350	174	14
484	109	-6
611	54	-15
632	22	-8
492	3	-4
216	-21	-1
-97	-62	-36
-330	-122	-41
-409	-172	-9
-325	-184	9
-158	-131	20
-4	-17	32
67	128	52
64	255	49
62	320	44
150	311	14
352	244	-40
606	168	-64
769	110	-103
716	82	-151
411	59	-189
-43	8	-183
-465	-90	-115
-702	-230	-69
-712	-364	-40
-571	-448	-21
-426	-434	-6
-371	-319	31
-373	-123	80
-321	114	100
-109	349	70
257	539	20
626	641	-13
800	627	-32
653	494	-52
234	261	-59
-263	-2	-42
-600	-218	-12
-634	-313	1
-412	-262	-3
-109	-103	1
104	71	16
155	164	-19
110	122	-55
94	-45	-85
172	-268	-90
302	-457	-63
351	-547	-25
212	-523	-22
-100	-416	-69
-443	-270	-64
-639	-126	-33
-589	4	16
-324	126	12
-1	244	-6
224	345	29
288	409	39
245	421	34
205	373	-21
237	300	-74
321	211	-61
370	127	-42
314	40	-25
163	-62	26
1	-176	38
-78	-282	32
-52	-351	19
-6	-355	-20
-49	-305	-21
-247	-240	-32
-538	-205	-19
-758	-218	-55
-765	-263	-82
-509	-290	-68
-95	-249	-48
296	-125	-2
496	49	-10
458	201	-28
262	272	-25
46	239	-15
-83	145	-5
-104	55	-6
-58	33	-28
-8	95	-16
28	202	-1
69	290	-2
138	301	-8
225	221	-48
280	76	-64
258	-69	-64
154	-158	-45
19	-162	-27
-62	-90	-16
-38	8	5
76	88	17
204	115	9
262	93	-4
201	54	-21
34	31	-46
-179	47	-54
-377	97	-66
-524	149	-64
-611	163	-23
-626	124	-11
-545	40	-29
-351	-53	-22
-52	-112	-43
285	-109	-56
563	-49	-50
671	30	-30
583	92	11
352	101	4
104	51	-34
-47	-36	-47
-53	-141	-23
36	-240	-32
122	-319	-49
117	-364	-21
11	-364	-13
-135	-304	3
-228	-179	-4
-208	-21	-34
-102	119	-24
14	186	-40
62	153	-51
19	43	-37
-65	-81	-33
-115	-149	-19
-78	-123	3
17	-21	9
97	95	22
82	161	37
-38	154	30
-199	96	12
-296	43	-7
-256	35	-19
-85	70	-49
129	103	-61
270	80	-42
275	-7	-48
153	-119	-44
-18	-181	-26
-150	-135	-50
-195	11	-35
-164	187	-25
-102	292	-42
-35	261	-44
33	106	-42
127	-78	-15
249	-192	-24
369	-171	-20
431	-40	-16
390	102	-10
245	157	19
57	80	36
-100	-84	56
-182	-233	71
-198	-268	60
-198	-167	9
-231	13	-32
-299	169	-53
-370	209	-78
-390	120	-113
-345	-44	-97
-267	-190	-60
-213	-246	-40
-215	-202	-7
-248	-100	-6
-239	-7	-22
-126	35	-23
89	25	-42
325	-5	-37
462	-21	-23
439	-4	-38
292	39	-34
135	91	-26
102	143	-30
242	192	-37
478	233	-33
652	252	-44
625	233	-56
354	157	-45
-50	32	4
-421	-109	34
-618	-218	34
-611	-258	33
-475	-226	-3
-332	-147	-30
-253	-65	-35
-223	-19	-31
-176	-14	-15
-58	-33	19
111	-51	-4
254	-56	-21
291	-52	5
207	-47	-7
72	-44	1
-8	-24	-4
51	35	-4
238	153	-20
456	301	-33
596	434	-28
579	480	-55
413	392	-74
167	174	-76
-79	-115	-75
-277	-384	-76
-419	-549	-51
-515	-565	-51
-556	-446	-49
-529	-253	-25
-410	-53	-28
-212	98	-40
14	187	-48
201	224	-35
285	228	-12
257	211	19
151	171	55
26	93	53
-61	-17	54
-85	-125	35
-56	-195	-23
-12	-187	-48
16	-102	-65
8	19	-58
-34	114	-24
-82	134	-2
-107	77	12
-92	-17	-10
-46	-82	-6
-8	-71	11
-33	6	-17
-149	90	-59
-343	103	-87
-545	1	-78
-659	-186	-48
-603	-374	-6
-355	-449	0
14	-358	1
387	-123	1
645	156	-33
731	359	-66
653	410	-121
493	313	-126
342	138	-81
256	-11	-66
231	-74	-21
228	-54	10
205	-1	3
140	28	-4
42	0	-20
-70	-66	-1
-190	-137	13
-304	-174	22
-405	-176	37
-469	-161	38
-465	-145	32
-371	-130	-8
-191	-94	-19
21	-25	-27
199	65	-51
280	138	-49
249	152	-41
130	97	7
-16	15	21
-135	-24	10
-204	33	-2
-230	177	-36
-232	335	-53
-227	405	-50
-206	324	-40
-145	113	-40
-31	-120	-40
132	-259	-39
323	-231	-51
484	-70	-59
569	115	-53
558	203	-56
439	139	-55
262	-31	-26
81	-202	-1
-46	-263	1
-85	-179	13
-45	6	26
21	194	5
58	289	-5
24	267	-11
-78	158	-35
-198	34	-40
-277	-51	-41
-277	-88	-18
-205	-100	-9
-104	-121	-16
-32	-158	4
-21	-185	-17
-65	-170	-40
-126	-101	-46
-169	-9	-50
-182	47	-29
-187	12	2
-224	-127	23
-312	-334	32
-434	-524	6
-518	-606	-33
-474	-531	-12
-232	-292	8
208	41	-1
750	382	-23
1208	633	-51
1377	731	-65
1178	659	-78
584	460	-96
-209	197	-60
-977	-49	1
-1324	-230	52
-1212	-326	84
-1108	-352	50
-664	-328	37
-114	-273	28
251	-180	3
368	-40	-36
326	149	-83
273	356	-107
306	521	-108
429	574	-106
547	492	-84
558	294	-55
419	57	-60
179	-120	-35
-67	-185	-24
-231	-140	-36
-273	-54	-36
-232	-4	-21
-165	-38	-1
-116	-145	-1
-88	-259	13
-49	-312	-11
35	-272	-23
163	-163	14
299	-46	41
386	20	29
375	18	27
266	-21	16
87	-49	-20
-95	-26	-16
-224	37	-44
-262	98	-77
-222	110	-88
-130	53	-78
-43	-48	-44
6	-145	-27
6	-195	-5
-39	-192	-5
-109	-160	-32
-185	-140	-34
-252	-151	-31
-291	-169	-31
-281	-148	-20
-188	-37	-45
7	161	-70
279	403	-69
558	599	-75
743	670	-62
754	568	-21
562	323	-1
239	-2	12
-95	-312	54
-314	-530	34
-363	-624	22
-272	-606	0
-137	-516	-39
-64	-393	-47
-97	-259	-50
-210	-112	-15
-333	58	4
-398	249	-2
-380	418	-9
-310	503	-25
-233	433	-40
-178	190	-44
-140	-174	-66
-89	-530	-58
5	-728	-25
154	-673	24
335	-354	45
522	106	7
676	544	-1
769	794	6
786	799	9
713	602	-15
558	331	-32
331	123	-17
78	45	-31
-156	81	-48
-337	147	-52
-459	162	-40
-540	94	-39
-600	-33	-41
-637	-160	-29
-630	-241	-16
-546	-263	-9
-372	-261	2
-136	-256	9
82	-256	4
207	-238	2
196	-174	-11
74	-60	-8
-88	77	-17
-184	189	-32
-157	236	-44
-7	214	-59
198	156	-63
369	105	-69
432	90	-64
363	104	-57
200	114	-44
10	85	-35
-144	7	-26
-232	-98	-11
-258	-191	-9
-248	-245	-20
-233	-254	-18
-227	-235	-4
-224	-204	20
-197	-167	30
-131	-113	30
-12	-24	43
153	99	32
334	235	32
489	338	47
564	366	29
522	301	8
346	156	-34
77	-38	-47
-221	-229	-52
-463	-375	-97
-582	-448	-104
-564	-443	-111
-452	-379	-99
-320	-286	-105
-231	-204	-122
-194	-168	-81
-172	-181	-48
-104	-224	-31
39	-241	-69
229	-178	-82
399	-7	-43
478	252	-6
454	530	29
383	739	27
354	799	3
428	696	-20
583	453	-12
720	147	-12
711	-139	15
495	-353	50
104	-460	35
-354	-473	20
-740	-393	-4
-959	-252	-21
-1004	-75	-45
-921	106	-67
-756	250	-62
-507	331	-34
-173	341	0
230	300	6
620	237	-9
864	178	-24
853	131	-16
569	89	9
133	45	0
-256	-2	-18
-431	-43	-13
-340	-68	-14
-84	-77	0
151	-80	-5
209	-99	-14
58	-141	-13
-191	-194	-27
-375	-233	-31
-366	-233	-39
-164	-194	-47
109	-137	-48
297	-94	-46
295	-75	-34
110	-77	-16
-143	-76	-27
-321	-50	-47
-333	-7	-39
-183	33	-23
49	43	-21
254	21	-23
340	-16	-10
291	-33	-4
159	-7	8
22	50	18
-46	110	11
-11	135	11
103	117	21
237	74	11
306	45	-24
260	57	-51
79	97	-53
-189	130	-62
-470	109	-44
-682	17	-14
-770	-119	-6
-726	-241	-31
-581	-289	-64
-378	-248	-54
-155	-141	-48
58	-30	-33
236	34	-17
351	25	-26
373	-36	-34
299	-114	-31
151	-163	-40
-4	-162	-44
-96	-115	-26
-79	-42	-23
23	33	-7
133	95	32
178	132	40
121	149	23
13	152	37
-48	153	17
18	168	-60
210	194	-106
429	225	-103
530	237	-47
407	209	-20
86	145	-20
-291	72	-25
-529	31	-57
-497	43	-82
-202	100	-111
210	150	-101
527	134	-78
606	20	-43
446	-170	-2
166	-351	4
-66	-429	32
-129	-355	51
-28	-157	44
128	68	26
210	211	30
143	199	39
-45	51	15
-252	-152	5
-366	-306	-9
-352	-348	-25
-253	-286	-19
-158	-171	-9
-151	-77	-23
-240	-29	-50
-366	-25	-74
-442	-22	-71
-409	7	-61
-272	60	-63
-92	114	-40
65	131	-34
163	111	-28
213	72	-36
248	54	-48
284	81	-40
309	138	-22
281	190	-11
186	183	-9
42	95	-2
-84	-62	-10
-124	-237	10
-64	-365	-1
43	-400	-24
110	-319	-5
61	-141	10
-105	96	52
-305	340	64
-424	536	29
-386	635	-6
-189	610	-30
78	461	-38
299	221	-44
388	-47	-32
340	-278	-30
211	-417	-40
74	-449	-63
-16	-395	-59
-41	-309	-38
-15	-226	-59
39	-164	-71
101	-119	-71
140	-68	-71
122	3	-51
25	93	-31
-131	191	-35
-269	268	-52
-277	312	-31
-69	301	-13
328	241	6
762	124	30
1014	-37	3
915	-211	10
436	-350	34
-244	-399	39
-853	-337	23
-1145	-182	-19
-1036	1	-56
-631	126	-86
-175	139	-96
110	48	-57
147	-81	8
29	-160	17
-71	-124	-6
-29	22	-42
149	205	-56
326	331	-48
354	328	-16
169	197	22
-167	-2	5
-481	-183	-7
-621	-281	15
-537	-286	23
-300	-223	22
-50	-138	39
93	-58	31
100	11	-26
29	77	-67
-16	140	-63
36	179	-52
193	166	-45
406	84	-54
589	-47	-85
671	-182	-102
635	-263	-98
470	-260	-69
214	-181	-44
-79	-69	-38
-342	21	-42
-506	64	-32
-529	62	3
-406	46	7
-195	47	-8
7	75	-1
118	114	-2
99	136	-6
-17	126	10
-156	90	5
-232	60	-14
-203	76	-5
-85	143	-4
76	253	-7
226	354	-7
340	400	-15
419	357	-4
466	233	-2
462	52	-13
363	-139	-14
130	-301	-4
-221	-410	8
-601	-449	-5
-872	-422	-19
-904	-333	-30
-645	-198	-53
-160	-48	-77
386	78	-82
790	143	-64
927	135	-44
778	68	-25
439	-9	-32
75	-43	-33
-184	-5	-16
-277	96	-36
-229	210	-23
-112	269	8
-1	231	28
60	96	28
63	-85	-9
12	-242	-43
-88	-313	-66
-228	-296	-47
-385	-226	-50
-508	-159	-40
-545	-129	22
-456	-127	69
-259	-118	57
-28	-62	10
142	34	-27
184	122	-70
99	128	-87
-42	16	-64
-147	-182	-30
-145	-371	-6
-51	-429	2
65	-300	8
124	-6	-17
98	339	-22
24	597	-18
-6	670	-20
78	567	-20
267	358	-36
481	153	-50
600	31	-44
547	-4	-26
326	2	-24
39	-13	-5
-198	-81	5
-311	-176	-24
-305	-259	-63
-246	-288	-92
-208	-260	-114
-218	-194	-107
-237	-121	-83
-213	-60	-50
-106	4	-11
52	82	14
193	178	26
251	272	14
209	324	24
107	301	15
16	200	-18
-24	43	-35
-24	-123	-39
-29	-249	-19
-81	-308	-2
-172	-291	11
-248	-214	7
-233	-102	-9
-92	14	-21
144	96	-33
395	117	-28
547	64	-16
539	-44	-9
366	-170	-2
81	-263	-5
-248	-282	2
-548	-225	-3
-744	-121	-13
-787	-24	-9
-637	24	-18
-287	17	-5
205	-17	-10
707	-21	-35
1046	46	-50
1105	192	-69
864	373	-77
423	535	-55
-37	599	-28
-345	538	-30
-428	365	-58
-337	132	-49
-189	-86	5
-100	-237	43
-112	-290	72
-189	-263	46
-261	-204	13
-287	-157	11
-281	-153	-18
-291	-192	-38
-347	-245	-46
-417	-272	-46
-420	-246	-30
-284	-167	-39
4	-53	-65
373	57	-69
695	140	-64
849	181	-42
790	180	0
545	150	9
203	106	-8
-136	60	-9
-390	24	-34
-526	6	-66
-538	8	-91
-445	23	-99
-291	30	-96
-137	12	-82
-42	-37	-34
-35	-109	-17
-104	-166	2
-187	-176	19
-204	-122	15
-110	-26	22
76	65	11
266	106	10
371	71	4
330	-19	0
171	-121	0
-17	-180	-10
-136	-173	-12
-144	-110	-15
-56	-27	-28
53	38	-47
120	77	-57
119	91	-54
84	103	-27
62	118	-39
83	117	-38
135	76	-9
170	-23	16
135	-153	42
10	-263	25
-188	-282	13
-392	-175	-14
-526	45	-39
-518	320	-60
-333	550	-97
8	651	-107
421	591	-67
753	380	-20
849	91	-28
628	-202	-46
135	-420	-38
-472	-524	-13
-921	-498	7
-986	-362	18
-605	-159	22
102	58	5
861	227	-18
1371	290	-26
1283	230	6
1119	68	48
525	-121	28
-68	-246	-4
-465	-229	-35
-589	-63	-63
-503	183	-69
-352	394	-77
-258	455	-30
-264	327	4
-340	65	13
-418	-203	26
-450	-352	8
-433	-320	-18
-401	-157	-40
-380	25	-45
-381	108	-44
-375	46	-67
-330	-114	-81
-221	-278	-61
-42	-353	-49
182	-320	-40
406	-222	3
563	-124	30
599	-77	22
469	-66	5
192	-45	-1
-160	28	-17
-443	145	-46
-534	251	-28
-371	279	-16
-13	204	-40
387	62	-49
636	-78	-35
614	-153	-21
351	-157	-15
-14	-129	-30
-296	-118	-36
-374	-142	-21
-240	-157	-30
4	-102	-14
233	67	-22
373	320	-12
429	561	14
439	688	-15
439	635	-20
398	435	-17
265	179	-9
29	-20	-18
-247	-106	-41
-442	-96	-59
-444	-64	-67
-253	-89	-48
21	-188	-52
214	-322	-39
202	-421	-17
-2	-423	-15
-262	-317	0
-404	-142	5
-328	32	-2
-76	159	-26
200	210	-24
327	197	-10
237	132	-4
-7	40	-9
-259	-70	-34
-385	-182	-50
-332	-265	-39
-173	-301	-18
-27	-270	-5
17	-187	-5
-46	-86	-22
-142	0	-30
-170	46	-19
-65	71	8
151	104	9
410	170	4
608	262	2
669	345	-21
566	366	-35
332	291	-42
32	132	-71
-262	-58	-124
-473	-210	-106
-554	-278	-56
-496	-254	-46
-325	-178	-13
-115	-102	10
65	-66	13
145	-83	8
94	-121	-20
-76	-151	-30
-310	-140	-40
-532	-90	-31
-647	-9	-17
-595	84	-19
-351	169	-21
42	237	-16
484	270	-7
831	265	9
957	213	24
818	122	20
474	15	4
81	-82	-10
-205	-142	-19
-288	-166	-24
-191	-160	-11
-38	-143	-13
36	-129	-21
-38	-112	-7
-227	-82	-20
-412	-29	-45
-480	34	-40
-392	88	-42
-211	109	-32
-30	85	-19
71	32	-17
100	-21	-13
122	-40	-10
210	-15	-10
368	43	-17
521	102	-21
552	118	-35
386	76	-45
52	-29	-64
-339	-162	-64
-653	-286	-52
-786	-355	-4
-720	-343	48
-503	-238	35
-208	-55	18
121	166	-9
462	382	-34
779	543	-51
1014	607	-56
1082	564	-17
941	421	3
599	215	-4
152	-2	-18
-253	-183	-42
-509	-296	-89
-589	-326	-116
-556	-297	-79
-497	-233	-58
-466	-163	-40
-443	-106	-32
-360	-61	-41
-168	-20	-24
106	28	-13
360	79	5
469	112	17
373	114	8
119	72	9
-167	3	19
-350	-67	34
-354	-112	31
-212	-114	-17
-24	-86	-43
102	-45	-31
123	-21	-32
65	-23	-13
-2	-46	-15
-25	-66	-23
7	-63	-35
56	-29	-83
86	28	-98
74	85	-68
41	117	-18
17	103	-19
12	40	-2
10	-59	3
-24	-175	-19
-115	-270	-13
-252	-319	-9
-383	-303	-14
-452	-224	-12
-417	-94	12
-273	54	25
-69	188	-5
136	279	-35
288	308	-36
354	272	-55
325	174	-62
210	40	-78
34	-114	-68
-174	-264	-45
-379	-384	-15
-545	-448	5
-619	-425	4
-565	-300	25
-371	-72	37
-49	228	33
342	533	4
731	765	12
1012	845	-14
1109	745	-70
1007	494	-60
740	171	-55
388	-118	-32
39	-308	-10
-229	-378	-31
-375	-374	-46
-410	-355	-52
-354	-370	-36
-237	-408	-22
-85	-423	-22
74	-370	-8
197	-225	-3
241	-30	-6
172	143	-21
0	233	-32
-207	231	-19
-354	187	-17
-357	169	-13
-204	227	-31
37	338	-44
245	429	-32
313	420	-19
214	270	-16
17	20	-15
-154	-237	-13
-194	-391	-24
-81	-389	7
116	-242	22
279	-32	6
316	138	-9
203	209	-2
-2	170	16
-216	75	-17
-378	-15	-41
-473	-54	-50
-518	-40	-50
-536	-3	-34
-500	15	-26
-389	-9	-13
-198	-71	-36
24	-149	-56
192	-206	-41
223	-225	-65
102	-203	-84
-93	-156	-85
-242	-100	-59
-254	-46	-35
-116	-2	-17
82	27	20
221	35	29
225	26	47
116	-4	7
-14	-44	-36
-59	-72	-55
20	-72	-40
170	-32	-33
287	30	-8
292	93	19
189	128	-18
54	123	-12
-3	90	-53
59	55	-84
195	48	-85
300	75	-86
273	117	-67
102	142	-40
-131	122	-13
-295	58	3
-289	-25	17
-107	-84	10
156	-94	14
358	-50	4
401	10	-16
262	49	-23
17	41	-44
-225	-13	-43
-361	-81	-10
-369	-125	10
-269	-118	-4
-129	-69	-27
-10	-9	-23
46	23	9
30	2	4
-45	-63	14
-149	-141	21
-227	-178	-2
-218	-137	-6
-86	-22	-31
154	130	-44
411	249	-48
564	274	-28
506	182	-6
225	12	-13
-170	-158	-2
-489	-238	-10
-569	-188	-30
-366	-36	-43
26	129	-55
394	202	-66
548	134	-78
421	-43	-87
100	-226	-40
-241	-295	-6
-421	-198	-12
-389	14	-3
-210	218	1
-27	290	13
46	177	17
-19	-65	9
-162	-300	-19
-278	-404	-38
-303	-331	-28
-232	-140	-36
-114	49	-33
-5	143	-28
59	117	-31
82	35	-32
81	-13	-35
66	27	-24
52	134	-23
42	228	-27
52	229	-39
93	114	-45
143	-58	-39
159	-195	-10
81	-222	21
-104	-128	14
-325	28	21
-451	165	29
-337	230	24
58	221	26
620	171	12
1105	125	-19
1280	95	-41
1047	71	-62
491	40	-94
-142	3	-78
-562	-12	-44
-616	17	-38
-360	85	-27
-1	149	-34
230	147	-42
219	45	-46
32	-134	-58
-173	-318	-56
-269	-420	-30
-263	-389	-23
-269	-246	-17
-404	-62	-7
-669	77	-20
-934	127	-32
-994	102	-26
-727	48	16
-187	23	22
417	45	38
825	99	71
898	150	61
659	169	24
299	158	-50
25	126	-107
-53	85	-129
11	38	-120
90	-22	-88
78	-84	-36
-31	-121	-1
-134	-96	-9
-130	0	-10
14	136	-19
226	240	-25
369	230	-10
346	81	19
172	-166	36
-50	-403	26
-199	-519	13
-211	-459	-15
-117	-259	-69
-21	-34	-97
-12	94	-101
-107	64	-92
-245	-83	-56
-330	-245	-32
-296	-316	-32
-160	-260	-23
0	-123	-8
89	-4	-16
55	23	-12
-79	-44	-6
-241	-136	-8
-347	-157	-12
-352	-58	-13
-272	124	-8
-169	290	-1
-113	336	-16
-138	229	-24
-218	32	-6
-271	-133	4
-200	-164	15
56	-32	16
468	194	12
916	400	16
1239	495	11
1307	460	7
1087	341	-10
656	218	-37
178	137	-41
-180	98	-60
-321	65	-59
-275	14	-60
-137	-49	-50
-37	-89	-29
-43	-74	-43
-148	-5	-37
-291	71	-37
-397	96	-41
-426	41	-47
-382	-69	-60
-287	-173	-39
-172	-216	-25
-52	-181	-30
52	-107	-29
118	-58	-2
116	-81	12
32	-163	35
-115	-253	49
-269	-286	35
-370	-235	28
-375	-123	-3
-294	-18	-27
-170	20	-36
-53	-26	-44
27	-116	-40
76	-179	-25
115	-152	-12
157	-29	-8
190	139	-17
190	267	-32
136	274	-50
42	137	-53
-51	-108	-61
-100	-372	-79
-78	-559	-74
10	-602	-68
121	-478	-57
208	-229	-40
240	75	-30
215	352	-35
156	538	-35
89	604	-28
28	557	-9
-25	430	15
-87	272	1
-163	125	-19
-236	16	-16
-264	-47	8
-205	-66	26
-28	-52	28
245	-15	17
548	33	-14
753	81	-1
755	114	-14
512	122	-55
82	98	-76
-410	47	-82
-781	-4	-59
-899	-33	-39
-727	-14	0
-366	51	6
36	141	22
325	207	26
411	205	-6
324	123	-21
154	-22	-10
13	-179	1
-40	-297	-3
-12	-337	-7
41	-301	-33
60	-225	-31
25	-147	-24
-43	-101	-27
-100	-89	-20
-117	-96	-36
-99	-103	-61
-79	-100	-66
-84	-97	-58
-122	-107	-52
-174	-138	-48
-207	-181	-43
-213	-214	-28
-207	-207	-26
-211	-151	-30
-227	-55	-22
-223	57	-19
-143	161	-13
39	237	-7
292	279	-24
533	295	-40
642	279	-19
544	233	15
261	151	46
-98	42	50
-393	-70	45
-537	-166	29
-500	-215	-24
-366	-210	-51
-232	-161	-55
-158	-89	-50
-116	-16	-43
-34	47	-58
151	105	-55
429	156	-32
707	199	-32
854	222	-46
793	211	-30
528	160	-43
172	82	-53
-123	1	-33
-262	-50	-35
-250	-57	-21
-172	-27	-22
-140	15	-25
-209	35	-19
-345	22	-33
-442	-23	-18
-398	-74	-43
-187	-106	-58
114	-108	-19
360	-82	18
429	-43	40
267	-3	6
-58	35	-18
-401	77	-12
-601	117	-3
-574	147	-4
-343	140	-2
-5	78	-7
297	-42	-15
454	-190	-1
436	-315	4
294	-370	-26
109	-333	-65
-35	-217	-55
-97	-71	-51
-81	58	-64
-18	140	-60
60	170	-41
139	163	-22
210	142	-13
269	121	-25
299	99	-27
280	68	-24
206	31	-27
79	-8	-18
-71	-41	-9
-218	-63	13
-338	-82	0
-421	-107	-21
-466	-140	-21
-468	-182	-13
-406	-202	-3
-270	-187	-13
-72	-130	-7
141	-48	-20
310	26	-24
366	67	-27
300	75	-43
140	66	-15
-29	76	-17
-144	125	-23
-164	210	-22
-102	295	-35
-7	337	-28
65	301	-18
93	197	-12
79	51	-24
52	-89	-54
42	-184	-67
54	-229	-50
77	-232	-45
82	-216	-50
52	-196	-39
-22	-169	-16
-130	-124	4
-250	-62	7
-353	-1	17
-407	31	4
-392	6	-18
-312	-80	-26
-188	-194	-44
-63	-289	-33
14	-314	-19
13	-246	-24
-51	-95	-19
-125	103	-18
-123	300	15
12	465	41
288	568	53
620	610	100
858	568	95
875	454	46
636	269	-9
222	58	-43
-185	-125	-76
-378	-225	-141
-264	-203	-172
80	-81	-157
459	86	-101
655	219	-79
545	244	-100
184	140	-80
-231	-79	-35
-503	-345	-15
-535	-580	-21
-377	-706	-23
-194	-682	-25
-134	-510	-31
-242	-245	-13
-442	30	-6
-603	224	-20
-636	276	1
-532	189	3
-352	25	-6
-160	-117	3
33	-153	17
248	-60	48
483	110	36
681	262	2
732	313	-6
575	235	-10
216	81	-12
-187	-51	-1
-439	-92	33
-412	-22	34
-131	97	1
229	174	1
454	156	-16
407	41	-44
133	-101	-67
-194	-198	-84
-389	-209	-81
-366	-154	-77
-181	-89	-62
12	-66	-47
81	-103	-34
7	-159	-19
-124	-183	-20
-182	-134	-32
-93	-28	-28
107	91	-25
311	168	-17
398	171	-1
333	123	-8
162	60	-10
-12	19	-11
-112	11	-23
-123	26	-32
-89	36	-46
-61	27	-38
-59	2	-22
-56	-28	-9
-7	-43	-7
102	-43	-21
234	-27	-23
308	2	-21
255	40	-22
62	88	-2
-207	126	4
-455	131	14
-589	77	15
-569	-38	0
-420	-186	11
-221	-306	-11
-38	-346	-42
83	-292	-55
141	-177	-38
159	-61	-28
174	3	-63
202	15	-60
249	23	-69
302	87	-74
344	235	-63
346	429	-64
288	574	-40
175	579	-20
38	408	11
-71	118	19
-105	-167	3
-44	-330	9
74	-319	2
175	-179	-4
184	-19	-1
62	59	-13
-153	12	-36
-380	-119	-54
-532	-248	-47
-572	-295	-25
-526	-238	-13
-458	-108	-24
-416	34	-26
-402	138	-2
-370	190	10
-264	198	36
-89	181	62
107	139	65
253	74	46
306	-16	21
302	-109	3
332	-167	-31
462	-168	-104
688	-116	-135
889	-48	-105
920	-6	-67
701	-2	-35
277	-9	-23
-164	29	-54
-417	139	-86
-378	300	-89
-113	430	-109
167	438	-102
233	282	-69
-6	2	-37
-432	-289	-3
-798	-466	10
-857	-460	28
-530	-303	32
50	-99	30
600	40	15
846	58	-25
681	-12	-5
200	-89	12
-342	-93	-5
-691	-8	-31
-719	119	-35
-474	208	4
-122	202	17
140	109	16
214	-21	-5
115	-110	-15
-51	-131	-13
-178	-99	-36
-204	-65	-47
-149	-76	-55
-69	-131	-52
-22	-196	-29
-23	-219	-12
-47	-171	-5
-59	-66	-19
-40	41	-25
-2	96	-11
21	62	-6
2	-52	-19
-63	-212	-44
-141	-374	-45
-185	-490	-31
-165	-530	9
-88	-466	31
7	-286	15
62	-4	1
54	333	-11
1	635	-7
-39	822	-27
5	829	-54
166	670	-65
411	437	-59
656	237	-40
818	162	-35
837	215	-36
743	325	-38
588	379	-39
429	299	-37
280	90	-44
113	-173	-57
-122	-378	-43
-426	-456	-25
-727	-411	-12
-928	-312	-34
-934	-244	-53
-748	-246	-47
-448	-292	-35
-156	-321	-16
27	-286	8
98	-183	19
115	-61	7
151	17	11
230	32	-4
300	2	-30
274	-11	-34
113	28	-26
-142	117	-19
-383	205	-17
-481	231	-16
-392	169	-6
-173	45	8
56	-72	22
189	-129	24
186	-104	-4
101	-34	-11
27	24	-28
26	34	-60
94	-4	-82
170	-44	-62
187	-50	-25
126	-5	-6
28	65	5
-51	112	-13
-69	100	-21
-36	31	-10
4	-58	-18
14	-123	-42
-8	-133	-60
-26	-93	-53
-5	-30	-44
60	27	-60
128	70	-57
138	106	-42
59	149	-20
-99	191	-7
-279	213	7
-422	186	1
-489	93	0
-487	-53	19
-426	-215	25
-304	-346	35
-109	-416	8
160	-419	-28
458	-368	-35
688	-281	-44
749	-171	-52
592	-40	-25
279	105	-11
-36	250	6
-192	366	15
-112	435	-14
155	443	-31
446	406	-70
579	350	-97
474	296	-95
175	237	-81
-177	154	-67
-448	21	-49
-556	-164	-23
-526	-375	-12
-420	-551	-2
-288	-637	-1
-130	-585	-3
72	-394	-10
308	-111	-11
517	210	-6
605	491	-11
506	669	-7
244	704	-19
-79	591	-26
-325	358	-14
-411	72	-4
-345	-188	12
-222	-358	8
-142	-403	5
-157	-344	-4
-225	-233	-22
-267	-137	-31
-221	-99	-30
-88	-117	-18
58	-160	-36
133	-175	-38
99	-139	-23
-21	-57	-30
-158	35	-26
-232	97	-25
-221	110	-8
-148	82	-11
-64	41	-23
-16	9	-27
-13	-1	-44
-44	-4	-42
-84	-15	-42
-117	-43	-32
-134	-83	-13
-125	-112	-13
-65	-114	-35
56	-83	-38
234	-25	-43
428	40	-44
568	101	-50
592	143	-71
476	174	-52
259	190	-16
20	188	15
-163	159	8
-245	92	10
-241	-14	-8
-201	-148	-4
-181	-279	-16
-201	-383	-72
-242	-426	-88
-257	-394	-55
-214	-292	1
-114	-132	-1
11	53	-29
107	228	-40
143	345	-33
111	385	-20
42	321	-8
-22	174	2
-44	-10	-2
-7	-171	-1
83	-249	14
199	-208	22
300	-61	-4
351	134	13
332	299	33
242	360	16
113	290	15
-18	118	-8
-106	-87	-62
-140	-238	-56
-126	-286	-36
-91	-230	-32
-45	-109	-38
16	9	-61
125	84	-68
302	106	-78
526	116	-57
723	145	-34
777	211	-16
604	291	-31
187	330	-34
-375	277	-26
-928	123	-25
-1277	-92	-32
-1295	-291	-35
-1070	-394	-1
-659	-362	14
-252	-204	0
9	13	-31
71	196	-16
-5	284	-1
-103	253	-15
-111	135	-9
27	-11	-8
277	-131	-16
541	-195	-21
711	-210	1
723	-200	1
575	-186	-28
335	-174	-48
106	-158	-65
-33	-121	-56
-67	-60	-37
-45	16	-7
-47	88	9
-136	142	-6
-300	169	-26
-452	173	-20
-484	158	-10
-324	127	-20
-7	84	-22
332	33	-16
529	-12	2
489	-38	12
244	-40	22
-63	-32	9
-258	-41	-40
-243	-94	-64
-59	-187	-79
141	-294	-109
211	-363	-109
85	-346	-57
-156	-236	18
-357	-68	26
-392	88	17
-242	168	18
-8	144	-9
161	44	-3
165	-63	-15
23	-121	-48
-159	-99	-72
-262	-23	-71
-241	46	-38
-132	58	-4
-33	-5	13
-18	-109	1
-83	-188	-1
-166	-179	-38
-177	-55	-52
-79	153	-55
102	385	-42
291	552	19
415	604	5
436	507	-21
355	310	-31
206	54	-25
26	-182	-5
-140	-343	-3
-253	-400	8
-264	-358	3
-157	-249	-45
42	-106	-59
254	38	-26
383	168	-15
373	282	-35
242	377	-50
86	449	-38
8	473	-28
44	428	-27
143	295	-17
180	77	-23
62	-202	-28
-199	-492	-31
-481	-736	-42
-618	-866	-35
-500	-843	-44
-159	-660	-35
244	-343	-14
518	37	-15
552	388	-11
373	622	-11
128	683	1
-32	578	-5
-36	364	-5
61	138	-7
141	-19	-19
97	-68	-2
-89	-30	-7
-339	35	-7
-533	64	-13
-589	13	-37
-516	-108	-50
-372	-252	-60
-237	-358	-52
-150	-382	-56
-97	-317	-59
-38	-188	-43
49	-42	-18
153	78	-1
237	149	7
271	163	34
263	131	45
241	74	48
226	11	78
211	-44	57
169	-78	9
62	-87	-30
-97	-74	-74
-262	-43	-101
-352	-6	-104
-318	27	-108
-179	47	-131
-15	51	-112
86	43	-55
74	30	-23
-26	23	-16
-137	22	-21
-191	28	-9
-172	26	13
-122	5	37
-108	-40	34
-150	-101	16
-202	-151	5
-180	-170	-18
-20	-137	-27
260	-65	-8
553	17	1
719	76	-8
679	77	-27
446	20	-49
118	-70	-50
-173	-152	-57
-338	-184	-39
-371	-147	-23
-316	-41	-4
-217	106	-4
-88	271	-24
84	413	-20
296	505	-22
498	522	0
613	453	6
554	309	-10
322	121	-13
-5	-52	-26
-284	-170	-50
-402	-195	-66
-325	-145	-78
-124	-69	-66
67	-29	-46
139	-66	-27
58	-180	-13
-116	-320	-12
-290	-411	-2
-375	-395	9
-340	-265	12
-217	-57	-26
-65	159	-57
68	313	-49
167	356	-23
225	279	-1
251	112	-11
239	-81	-13
183	-237	-9
79	-304	-12
-52	-258	-16
-180	-124	-15
-269	41	-12
-296	170	-1
-256	208	2
-163	155	-7
-36	45	-30
93	-46	-57
188	-75	-44
211	-28	-38
136	51	-48
-26	105	-43
-215	89	-21
-343	1	-9
-324	-106	-9
-133	-176	12
172	-167	28
476	-83	20
649	29	4
639	114	-3
475	137	-16
242	98	-32
34	23	-50
-113	-46	-66
-240	-95	-44
-405	-120	-17
-627	-135	-4
-856	-154	-32
-981	-175	-66
-909	-192	-84
-637	-192	-99
-253	-171	-68
99	-123	-9
306	-53	49
340	25	51
271	101	16
206	153	-26
208	160	-58
265	109	-63
302	11	-72
257	-102	-61
122	-181	-40
-35	-183	-12
-130	-97	3
-112	56	-14
-10	225	-21
97	342	-38
132	372	-38
90	300	-17
20	166	0
7	22	-11
94	-74	-26
245	-90	-28
384	-25	-2
419	89	-6
334	201	-32
184	268	-19
75	262	-24
74	187	-4
178	59	3
316	-81	-15
381	-202	-20
306	-277	-19
104	-288	-10
-142	-238	-6
-339	-131	-6
-411	2	-9
-350	131	-17
-202	223	-8
-43	241	14
64	187	-12
89	84	-35
28	-19	-31
-91	-78	-34
-223	-76	-10
-330	-38	9
-375	-25	12
-347	-86	-26
-269	-233	-65
-189	-408	-57
-161	-525	-53
-206	-500	-53
-291	-313	-54
-341	-29	-50
-262	244	-36
-16	396	-27
350	386	-30
707	253	-34
902	96	-19
828	1	-26
502	0	-41
54	53	-30
-333	86	-7
-535	48	6
-508	-59	0
-344	-176	12
-178	-233	-5
-109	-195	-38
-140	-84	-39
-198	33	-40
-188	100	-26
-70	97	-36
101	52	-23
234	18	6
251	20	-8
140	55	-20
-17	85	-37
-125	76	-39
-133	19	-29
-68	-53	-3
-14	-100	21
-49	-95	8
-177	-45	9
-321	8	-24
-366	26	-82
-240	-5	-112
44	-64	-112
380	-109	-70
620	-106	-28
671	-43	-1
545	50	32
318	139	49
111	193	40
4	193	17
-15	147	-25
-18	63	-35
-82	-41	-48
-233	-166	-82
-405	-286	-86
-485	-378	-61
-380	-394	-33
-84	-316	-41
306	-137	-44
613	97	-8
679	310	9
462	424	-1
57	400	19
-354	256	48
-585	55	51
-546	-121	57
-299	-216	39
-13	-227	2
143	-183	-37
93	-133	-76
-93	-100	-113
-247	-66	-107
-197	7	-66
101	157	-58
549	368	-24
934	577	-4
1045	699	-15
800	670	-7
297	495	-16
-252	237	-9
-623	4	-13
-681	-133	-25
-474	-158	-19
-189	-126	-27
-24	-123	-20
-86	-202	-15
-342	-358	-20
-647	-519	-23
-837	-606	-27
-821	-557	-18
-610	-393	-14
-274	-190	1
80	-25	19
398	51	16
650	53	2
809	30	-23
831	34	-18
671	81	6
336	135	-16
-85	152	-33
-442	99	-60
-589	-6	-79
-484	-116	-67
-193	-171	-59
99	-147	-24
240	-59	-14
181	46	-11
13	128	-10
-111	174	-19
-68	193	-26
131	211	-53
363	233	-75
476	230	-81
393	174	-78
159	49	-22
-82	-120	24
-198	-278	23
-163	-355	41
-48	-322	15
20	-195	0
-35	-38	-11
-183	77	-5
-316	109	20
-325	65	-4
-191	-8	-18
13	-59	-52
159	-57	-65
158	-11	-43
14	39	-28
-178	57	-28
-318	27	-45
-341	-35	-59
-277	-107	-79
-212	-173	-63
-212	-232	-47
-280	-296	-55
-350	-355	-50
-331	-384	-21
-166	-330	19
129	-163	6
474	102	-16
778	398	-32
965	625	-1
1014	708	22
950	635	30
811	465	47
620	287	15
378	187	-4
80	170	-38
-269	178	-54
-635	128	-43
-953	-27	-37
-1154	-263	-16
-1168	-492	9
-980	-611	10
-619	-549	-3
-164	-321	-16
284	0	-46
624	313	-58
783	530	-67
753	612	-84
575	557	-71
336	394	-34
125	165	-3
12	-83	12
9	-294	20
81	-417	11
144	-425	1
130	-330	-11
0	-188	-10
-209	-75	-8
-405	-41	-25
-484	-91	-26
-392	-165	-28
-162	-192	-40
104	-127	-59
269	11	-55
260	154	-36
91	224	-30
-141	181	-34
-321	54	-38
-366	-84	-41
-296	-162	-42
-180	-154	-26
-98	-93	-10
-72	-37	12
-71	-29	22
-38	-63	29
52	-97	57
165	-72	58
229	28	32
192	171	14
65	298	-17
-66	343	-89
-113	287	-142
-31	155	-118
131	-8	-43
263	-154	-6
263	-260	-28
111	-322	-55
-117	-353	-47
-291	-344	-47
-308	-286	-62
-149	-176	-34
103	-19	0
319	147	32
404	277	41
335	333	-11
162	312	-16
-28	233	-11
-178	134	-30
-271	52	-26
-321	-7	-26
-345	-53	-21
-342	-110	-26
-291	-183	-40
-187	-270	-35
-54	-345	-57
50	-378	-60
69	-346	-57
-18	-241	-47
-176	-81	-18
-318	105	-18
-355	272	-9
-236	371	-2
33	372	13
373	279	21
689	127	5
895	-23	-21
947	-105	-30
837	-81	-24
608	37	-20
320	193	-20
42	310	-36
-165	333	-37
-259	250	-46
-232	99	-32
-132	-54	-15
-38	-157	-22
-30	-188	-22
-148	-175	-29
-345	-159	-17
-518	-171	-25
-556	-215	-33
-412	-263	-31
-149	-277	-35
95	-232	-22
163	-130	-12
8	3	5
-290	131	29
-542	228	45
-572	284	40
-318	301	9
126	290	-3
547	256	-49
756	198	-96
681	113	-89
409	5	-84
123	-110	-61
-20	-208	-39
9	-256	-33
114	-230	-23
145	-130	-9
8	16	-6
-267	160	-16
-555	244	1
-714	230	7
-689	120	12
-523	-48	0
-321	-211	-36
-178	-312	-38
-89	-320	-24
0	-256	-24
163	-163	-23
402	-80	-12
635	-25	-14
739	11	8
636	53	19
346	112	6
-16	169	18
-301	186	15
-394	134	-23
-285	16	-36
-44	-124	-41
214	-227	-62
389	-237	-64
423	-151	-70
331	-3	-48
157	143	-38
-22	233	-31
-148	251	-16
-175	210	-36
-108	150	-54
10	106	-42
105	92	-63
115	98	-74
10	108	-31
-173	106	-20
-347	83	-17
-426	35	-26
-373	-34	-40
-214	-118	-35
-33	-199	-28
83	-254	1
91	-257	25
17	-203	19
-78	-105	35
-129	-1	49
-111	63	50
-40	70	34
34	18	19
79	-60	-6
81	-129	-74
50	-162	-110
13	-162	-103
-26	-157	-76
-79	-173	-72
-168	-228	-37
-299	-306	-17
-442	-372	-39
-530	-372	-37
-485	-275	-25
-252	-85	21
171	174	26
700	437	16
1161	641	24
1382	739	2
1272	729	-17
865	625	-13
276	469	-19
-263	309	-33
-556	162	-35
-534	38	-35
-291	-76	-24
-22	-183	-47
99	-281	-56
6	-359	-38
-216	-402	-38
-412	-407	-37
-452	-380	-43
-332	-334	-32
-159	-278	-25
-78	-205	-6
-156	-110	15
-350	16	11
-526	157	16
-563	284	15
-426	357	2
-191	352	-30
16	269	-62
111	142	-45
99	24	-25
50	-49	-23
52	-66	-10
120	-55	2
203	-56	10
222	-105	-20
129	-196	-56
-39	-289	-74
-199	-321	-92
-260	-242	-81
-188	-59	-50
-6	168	-14
224	345	-14
446	405	-19
624	331	-12
732	168	-16
759	3	-12
671	-96	-23
469	-104	-28
194	-56	-34
-59	-15	-27
-202	-17	-4
-190	-62	-17
-68	-107	-26
51	-106	7
67	-43	10
-49	51	-10
-239	121	-1
-393	123	-31
-426	53	-58
-336	-46	-40
-195	-122	-30
-100	-138	-15
-89	-107	0
-133	-64	1
-159	-46	-6
-109	-67	-26
1	-102	-35
102	-123	-25
129	-107	-28
62	-60	-36
-48	-13	-32
-119	16	-26
-102	21	-22
-18	30	-38
68	58	-26
80	111	-9
6	158	-23
-107	148	-12
-189	50	-40
-213	-130	-55
-199	-340	-43
-206	-510	-44
-267	-573	-5
-339	-503	7
-325	-317	-1
-133	-68	6
248	183	13
709	395	7
1079	540	-19
1198	613	-12
1029	622	-10
636	568	-28
175	471	-36
-214	338	-52
-472	181	-56
-619	11	-45
-704	-160	-38
-743	-326	-31
-720	-474	-30
-603	-583	-27
-389	-627	-16
-136	-578	0
66	-434	1
171	-213	10
206	40	12
261	272	5
415	438	-17
665	530	-44
889	552	-45
930	529	-55
701	482	-51
236	414	-37
-300	310	-18
-684	161	-17
-782	-31	-23
-624	-229	-27
-366	-388	-32
-194	-470	-13
-206	-460	-21
-354	-391	-20
-502	-290	16
-518	-194	45
-373	-106	37
-133	-9	27
80	113	7
190	259	-29
209	393	-31
208	458	-48
254	409	-74
351	239	-84
428	-11	-108
406	-258	-117
262	-427	-95
69	-474	-63
-71	-403	-25
-77	-263	-16
43	-110	-9
201	17	20
280	100	10
229	142	4
77	152	12
-76	131	5
-140	77	17
-103	-6	-4
-28	-105	-44
-12	-190	-47
-101	-234	-48
-252	-226	-22
-361	-167	0
-339	-81	14
-168	13	20
69	103	21
239	181	10
242	244	4
81	277	16
-144	268	9
-299	202	-22
-288	89	-60
-126	-41	-83
86	-145	-141
227	-195	-154
225	-188	-103
102	-149	-63
-49	-114	-18
-128	-109	-13
-96	-123	-30
9	-121	-30
103	-69	-14
106	36	12
2	160	31
-155	237	11
-281	222	-13
-318	110	6
-251	-43	0
-122	-158	-30
8	-176	-35
97	-90	11
137	41	43
150	139	14
154	143	1
164	50	-17
184	-79	-28
216	-167	-47
271	-153	-50
344	-48	-30
407	90	-31
409	182	-31
296	179	-42
48	86	-51
-287	-40	-43
-601	-134	-22
-770	-163	-10
-723	-131	-10
-491	-83	-21
-182	-57	-9
68	-79	-16
165	-126	-27
114	-166	-14
7	-167	-12
-42	-114	10
30	-24	9
203	79	1
384	174	-11
468	251	-24
406	316	-15
231	372	-30
31	427	-43
-98	469	-48
-109	483	-33
-23	457	-15
90	380	-19
157	252	-31
127	81	-60
-2	-119	-71
-201	-336	-62
-412	-540	-49
-577	-705	-21
-645	-799	2
-572	-795	15
-361	-673	21
-47	-446	25
290	-160	9
560	120	-34
679	328	-57
613	417	-55
403	397	-33
132	301	7
-100	197	38
-233	129	26
-242	109	-10
-157	105	-30
-27	71	-55
100	-13	-80
201	-129	-89
265	-213	-74
294	-196	-50
280	-51	-50
214	186	-66
94	416	-49
-78	535	-40
-258	469	-47
-393	241	-38
-436	-66	-29
-358	-339	-33
-182	-488	-30
30	-495	-16
186	-401	-11
225	-279	8
136	-184	32
-16	-130	42
-138	-93	64
-138	-39	56
3	43	24
219	139	21
391	207	-4
398	218	-2
192	170	-27
-173	91	-44
-556	24	-35
-805	5	-45
-832	33	1
-633	81	-6
-314	106	-18
-14	78	-29
161	-10	-44
181	-127	-63
97	-234	-109
-4	-286	-90
-44	-268	-67
-5	-195	-47
85	-105	-30
167	-37	-26
207	-14	-29
200	-28	-18
175	-38	12
172	-3	22
193	106	9
222	268	-19
218	429	-37
156	517	-19
41	475	-3
-87	305	-20
-187	56	-31
-232	-188	-28
-233	-351	-33
-222	-401	-50
-225	-359	-64
-245	-292	-52
-241	-264	-17
-163	-306	-9
19	-384	-32
277	-436	-20
534	-400	-6
685	-246	-1
653	-5	14
432	252	3
101	448	-1
-210	548	-1
-378	565	-8
-339	546	-8
-124	539	-13
151	557	-24
346	568	-39
373	530	-58
222	398	-63
-38	171	-56
-277	-111	-48
-392	-389	-53
-350	-611	-57
-188	-741	-29
-8	-780	0
93	-741	16
61	-634	24
-76	-474	40
-244	-263	38
-350	-22	11
-329	215	-26
-182	403	-58
34	502	-78
234	493	-108
345	391	-92
340	238	-37
244	90	0
111	-9	14
2	-43	24
-51	-20	34
-53	30	34
-31	75	19
-10	93	15
2	82	-14
18	58	-26
60	37	-36
132	29	-63
222	27	-63
292	15	-74
312	-16	-60
268	-65	-28
172	-113	-8
51	-138	2
-66	-123	-1
-168	-75	-20
-252	-16	-41
-321	22	-8
-378	22	5
-405	-13	-2
-389	-63	-4
-325	-97	-5
-229	-100	-2
-126	-78	-35
-53	-51	-36
-24	-54	-36
-36	-94	-44
-61	-159	-46
-70	-215	-48
-38	-227	-53
33	-177	-45
123	-74	-40
196	41	-45
219	131	-32
175	165	-31
65	132	-15
-86	49	4
-242	-61	-17
-361	-178	-48
-411	-282	-43
-377	-358	-30
-252	-389	-19
-50	-344	-37
212	-199	-20
498	43	7
766	350	-24
934	644	-18
927	836	-20
698	849	-39
269	670	-22
-250	354	-27
-699	-2	-15
-905	-282	-20
-789	-413	-32
-404	-387	-20
83	-259	7
458	-116	41
562	-27	22
373	-17	14
6	-55	-4
-347	-90	-27
-530	-75	-37
-491	-6	-45
-300	88	-51
-88	161	-58
23	183	-44
0	155	-37
-105	94	-30
-195	26	-22
-197	-43	-24
-93	-111	-32
69	-182	-25
230	-242	-8
346	-264	-13
411	-230	-27
439	-129	-39
432	2	-28
378	117	-11
253	171	4
54	161	14
-170	117	17
-333	90	24
-360	110	1
-232	165	-28
2	203	-57
229	173	-87
336	54	-89
261	-117	-60
35	-272	-31
-252	-338	-9
-487	-296	1
-577	-173	4
-496	-29	17
-256	79	14
76	137	2
429	169	-11
728	205	-14
892	261	-32
876	310	-44
679	301	-30
346	210	-32
-28	40	-40
-338	-157	-27
-509	-311	21
-545	-384	39
-501	-375	19
-459	-326	-13
-478	-286	-34
-534	-263	-38
-561	-243	-32
-485	-181	-41
-276	-47	-59
24	132	-30
316	301	-27
488	394	-72
482	365	-44
326	233	-4
105	56	8
-66	-89	-5
-113	-151	-59
-29	-125	-71
120	-49	-57
242	29	-42
266	64	-58
179	39	-78
29	-44	-70
-103	-165	-42
-162	-294	-24
-153	-399	-45
-134	-441	-28
-187	-392	1
-344	-251	4
-562	-51	18
-725	149	24
-698	287	20
-407	328	16
101	291	20
671	226	27
1109	189	19
1255	209	-3
1094	268	-44
715	319	-68
297	313	-63
1	244	-50
-106	135	-48
-67	38	-34
-4	-16	-16
-26	-27	-3
-174	-30	4
-393	-57	-8
-573	-114	-16
-616	-175	-20
-484	-196	-12
-244	-157	-3
-19	-62	-14
87	35	-20
32	85	-23
-140	65	-23
-325	-9	-7
-416	-92	-5
-361	-141	-5
-191	-138	-3
14	-98	-21
164	-52	-39
207	-29	-65
151	-42	-81
49	-81	-72
-39	-125	-49
-70	-151	-18
-40	-142	3
29	-94	-8
101	-8	-13
151	97	-10
164	194	-16
140	243	-19
98	218	-38
51	118	-34
23	-24	-54
22	-153	-46
44	-218	-4
85	-195	1
120	-99	13
150	20	19
171	119	35
192	164	11
206	160	-28
191	122	-43
118	76	-13
-15	26	23
-183	-23	2
-317	-72	-20
-329	-105	-67
-186	-96	-116
81	-38	-137
373	58	-127
569	149	-71
580	187	-32
396	150	-11
94	51	2
-211	-53	8
-423	-117	4
-499	-113	1
-453	-65	-12
-338	-23	-15
-198	-32	-3
-68	-95	-2
36	-171	-15
111	-207	-28
144	-162	-26
132	-52	-21
88	62	-15
31	109	-24
-16	49	-13
-52	-98	3
-103	-263	7
-197	-359	13
-336	-322	14
-480	-154	5
-540	99	-24
-454	341	-30
-210	488	-31
113	494	-48
386	372	-74
492	177	-88
386	-11	-77
141	-133	-51
-101	-167	-35
-214	-128	-38
-154	-63	-21
22	-15	-11
190	-3	-18
249	-20	1
182	-37	-3
57	-34	-20
-21	-7	-22
12	20	-17
129	25	-3
245	-6	-16
266	-60	-15
154	-99	-6
-38	-91	-10
-205	-26	-8
-259	67	-11
-178	156	-13
-27	199	-22
103	194	-22
138	162	-27
70	131	-20
-44	123	-6
-148	128	-15
-208	116	-34
-247	53	-43
-302	-61	-34
-393	-210	-23
-497	-345	-6
-537	-419	-10
-439	-418	-23
-177	-344	-18
209	-235	1
624	-123	1
950	-29	-23
1113	45	-37
1073	117	-32
853	194	-26
521	273	-37
145	330	-38
-185	335	-55
-408	262	-50
-472	112	-23
-387	-90	-20
-209	-295	-3
-28	-441	-12
66	-487	-25
32	-413	-38
-113	-249	-25
-296	-44	-3
-432	147	10
-472	284	20
-411	362	-3
-296	385	-13
-178	369	-34
-91	319	-50
-35	236	-53
3	120	-51
41	-9	-43
85	-114	-44
130	-158	-32
175	-124	-26
223	-37	-18
262	41	-7
267	49	6
212	-38	17
85	-188	13
-79	-320	-4
-215	-345	-30
-242	-222	-66
-128	14	-84
71	262	-70
250	410	-50
284	394	-25
133	213	-11
-142	-44	12
-393	-275	37
-493	-393	32
-385	-372	8
-132	-246	-49
126	-83	-96
269	59	-91
269	145	-59
196	171	-36
151	150	-11
189	104	-5
283	43	0
335	-9	21
262	-38	22
63	-25	21
-182	35	-11
-353	120	-7
-377	190	-24
-273	199	-72
-144	128	-67
-89	-11	-70
-144	-164	-81
-259	-279	-80
-337	-315	-67
-308	-278	-38
-183	-203	-28
-38	-135	-16
42	-107	14
25	-111	7
-39	-121	-20
-54	-103	-2
46	-41	42
262	56	70
506	162	61
671	244	40
673	284	20
523	277	13
273	228	14
14	148	-15
-191	47	-48
-331	-53	-89
-417	-141	-105
-473	-196	-111
-507	-214	-119
-509	-208	-120
-465	-199	-81
-366	-207	-4
-214	-223	5
-14	-208	-4
219	-118	12
452	76	24
634	341	10
713	601	7
656	739	6
478	688	-6
245	437	-13
65	85	-34
14	-229	-36
111	-376	-29
299	-306	-16
462	-80	-23
498	171	-34
365	313	-35
98	270	-37
-212	70	-31
-463	-192	-30
-595	-400	-27
-598	-486	-24
-518	-453	-7
-420	-355	-4
-338	-260	-3
-291	-203	-7
-274	-179	-15
-273	-155	-12
-282	-111	-6
-302	-47	6
-325	13	-13
-338	56	-30
-314	84	-37
-227	123	-45
-66	202	-38
149	323	-38
373	453	-38
545	535	-27
611	516	-11
549	380	8
374	161	4
138	-74	4
-104	-260	16
-291	-354	1
-390	-356	-16
-383	-296	-50
-267	-210	-77
-68	-131	-75
167	-75	-84
388	-42	-76
540	-28	-42
592	-31	-12
537	-41	-15
402	-47	-5
229	-38	-2
54	-7	-23
-97	40	-37
-228	87	-35
-332	106	-24
-402	90	-31
-423	41	-45
-388	-19	-30
-311	-60	1
-223	-76	-22
-163	-64	-30
-152	-54	-37
-172	-61	-37
-185	-92	-2
-157	-136	9
-81	-159	-16
15	-138	-12
91	-65	13
132	41	15
159	154	11
213	238	-20
320	272	-13
451	255	-10
535	196	-20
498	115	-32
325	31	-27
69	-38	-25
-141	-78	-47
-201	-81	-37
-84	-46	-15
123	11	-6
279	74	-35
251	121	-44
21	138	-48
-310	128	-60
-579	98	-58
-654	60	-59
-511	17	-27
-242	-38	2
1	-116	1
103	-210	-6
34	-298	-7
-141	-352	-14
-315	-345	-35
-400	-286	-45
-355	-204	-27
-201	-145	-1
34	-134	14
322	-153	-1
624	-148	-12
884	-60	-14
1023	120	-26
978	353	-30
701	534	-39
252	568	-41
-248	431	-40
-639	168	-28
-822	-105	-20
-779	-274	-15
-584	-291	-11
-358	-192	-19
-190	-67	-21
-100	3	-8
-51	-5	-9
9	-43	-23
100	-45	-21
194	23	-21
234	128	-11
187	183	-18
62	119	-13
-91	-68	8
-210	-292	3
-257	-425	-9
-235	-368	-36
-163	-113	-52
-60	238	-52
69	551	-42
234	703	-31
409	660	-41
558	469	-38
613	226	-28
528	15	-22
309	-116	-21
23	-166	-16
-232	-159	-1
-382	-120	6
-409	-70	4
-358	-28	-6
-306	-13	-1
-297	-40	-15
-325	-109	-45
-343	-196	-53
-291	-264	-39
-152	-282	-18
37	-250	-23
216	-195	-50
330	-159	-62
373	-153	-57
388	-165	-39
407	-147	-48
439	-71	-68
439	49	-40
339	156	-18
83	166	-18
-281	37	-14
-639	-205	-5
-840	-464	11
-787	-616	12
-481	-570	4
-44	-325	2
357	38	-2
582	395	-22
588	631	-35
431	688	-45
211	591	-72
27	405	-75
-86	206	-44
-154	42	-14
-217	-72	15
-299	-154	40
-371	-217	57
-389	-263	45
-313	-275	24
-150	-228	24
52	-106	-4
238	76	-28
346	277	-37
372	450	-42
328	540	-57
257	532	-68
194	430	-59
151	268	-71
118	93	-76
69	-58	-58
-19	-166	-32
-157	-230	-42
-325	-263	-39
-486	-281	-13
-577	-288	4
-565	-275	13
-442	-232	-3
-225	-143	-12
34	-25	-16
280	98	-8
481	188	-2
619	214	-9
688	171	-40
681	84	-51
575	-8	-35
369	-71	-28
77	-92	-22
-237	-82	-25
-486	-74	-27
-595	-93	-12
-536	-139	-9
-361	-187	-27
-169	-201	-27
-44	-161	-26
-28	-76	-29
-91	11	-30
-160	55	-20
-172	25	-8
-112	-64	-8
-22	-170	-23
43	-232	-25
45	-209	-12
6	-107	-3
-28	35	-3
-5	156	-9
83	206	-21
196	168	-38
266	58	-27
249	-67	-32
154	-159	-15
29	-169	5
-60	-93	-10
-85	47	-32
-61	196	-55
-36	299	-56
-37	313	-47
-60	237	-25
-58	109	-7
6	-16	2
129	-76	-25
249	-43	-35
279	63	-40
164	184	-56
-70	244	-31
-319	197	-22
-450	41	-20
-385	-166	-13
-137	-334	-4
182	-379	0
433	-271	9
533	-43	37
476	219	16
325	418	-32
158	485	-53
5	413	-56
-152	244	-47
-344	43	-23
-569	-137	-19
-765	-272	-32
-830	-368	-50
-699	-426	-59
-383	-449	-48
21	-417	-9
396	-316	26
648	-151	-1
762	43	-6
774	213	2
732	313	-4
656	320	-16
523	244	-45
295	125	-57
-5	1	-67
-302	-99	-80
-505	-160	-77
-556	-179	-30
-473	-170	-1
-340	-140	-4
-251	-106	-14
-248	-86	-26
-292	-90	-22
-310	-118	-12
-225	-142	-6
-40	-135	-9
172	-64	2
325	67	0
354	224	-4
262	345	2
105	384	-5
-51	322	-6
-168	185	-6
-235	41	-4
-263	-51	-8
-255	-67	-41
-191	-25	-55
-69	24	-40
94	35	-43
245	-4	-38
337	-64	-36
328	-103	-28
244	-87	-3
131	-21	3
51	57	-18
12	100	-40
-16	84	-55
-72	26	-80
-177	-31	-84
-291	-45	-67
-354	-7	-40
-315	49	-8
-174	72	14
5	25	10
142	-86	9
184	-209	24
133	-282	6
41	-268	-4
-36	-180	10
-79	-68	19
-106	6	16
-145	20	8
-203	-9	5
-237	-30	-10
-190	1	-44
-29	83	-71
212	178	-75
456	221	-68
611	174	-79
628	52	-60
541	-92	-9
419	-186	2
320	-194	34
245	-127	42
141	-41	0
-53	18	-42
-350	34	-97
-681	35	-100
-917	71	-105
-937	170	-101
-697	313	-70
-251	435	-40
263	468	0
694	369	-4
926	158	3
912	-90	24
679	-292	6
314	-391	-19
-81	-376	-21
-411	-289	-10
-601	-190	-11
-614	-133	-24
-477	-134	-28
-273	-186	-6
-105	-258	10
-42	-313	22
-99	-317	51
-208	-246	54
-271	-101	34
-215	93	1
-40	279	-42
183	404	-72
346	418	-101
373	325	-100
266	169	-62
91	24	-19
-57	-44	-2
-117	-21	-8
-81	62	-7
2	143	1
78	171	8
115	135	-13
120	67	-37
114	16	-44
105	10	-46
84	40	-27
24	60	-14
-77	33	1
-191	-56	-2
-262	-182	-9
-250	-282	-21
-152	-316	-44
-10	-272	-35
107	-182	-41
152	-95	-41
120	-53	-34
49	-66	-19
-8	-108	-4
-31	-139	-22
-28	-128	-27
-29	-64	-19
-51	40	0
-80	160	10
-79	265	-6
-17	337	-18
93	356	-27
198	313	-37
228	209	-30
150	68	-28
-15	-76	-63
-181	-183	-87
-255	-222	-50
-191	-187	-15
-22	-107	-16
154	-32	-23
234	6	-17
150	-6	-15
-64	-52	-14
-308	-90	-13
-452	-93	-30
-417	-45	-30
-194	31	-16
131	109	-26
431	155	-35
596	150	-21
569	96	-20
374	-3	-20
89	-120	-21
-182	-232	-36
-345	-294	-46
-347	-273	-30
-184	-152	-33
90	57	-40
380	294	-19
583	479	-14
633	540	8
508	453	17
283	254	17
47	35	13
-94	-103	3
-99	-111	9
-16	-2	-18
58	140	-38
28	224	-38
-137	182	-47
-382	20	-41
-595	-196	-48
-684	-386	-62
-639	-470	-54
-516	-434	-38
-410	-316	-3
-371	-175	8
-375	-66	-5
-342	-11	-7
-200	-8	-16
40	-29	-27
287	-55	-37
415	-71	-46
357	-75	-38
138	-64	-31
-107	-35	-32
-236	10	-31
-176	64	-27
32	110	-18
265	126	-7
406	104	-9
396	49	-23
275	-8	-26
132	-44	-16
43	-44	-4
23	-16	17
33	14	32
20	18	38
-36	-15	32
-115	-65	-22
-172	-106	-58
-170	-103	-67
-112	-55	-102
-28	15	-99
43	69	-69
91	79	-24
123	36	7
158	-28	-17
195	-68	-32
216	-52	-17
201	29	-6
131	144	-21
26	237	-17
-85	260	-10
-165	194	-7
-202	62	6
-208	-84	6
-197	-181	-1
-176	-189	-13
-122	-104	-15
-12	45	-15
164	202	-37
371	307	-69
529	323	-83
544	241	-79
366	92	-40
25	-79	-27
-366	-214	-40
-665	-278	-35
-754	-258	-3
-611	-180	24
-331	-93	6
-60	-49	8
82	-80	11
62	-166	-33
-44	-263	-53
-117	-308	-53
-62	-256	-35
126	-112	-29
366	74	-28
537	227	4
558	290	17
439	253	38
266	159	42
130	68	26
87	31	-5
117	42	-47
160	56	-57
155	16	-74
89	-100	-83
-6	-248	-61
-81	-344	-38
-115	-301	-39
-128	-100	-33
-166	193	-31
-256	458	-23
-390	568	-16
-515	490	-6
-562	260	11
-500	6	19
-339	-155	21
-130	-163	-2
63	-49	-17
201	91	-28
263	164	-40
267	125	-37
224	14	-46
149	-97	-25
55	-137	-13
-38	-98	-17
-109	-23	-22
-133	23	-30
-98	-5	-16
-18	-100	-27
72	-209	-49
124	-272	-38
111	-257	-34
38	-183	-43
-64	-97	-40
-148	-52	-35
-178	-68	-18
-156	-126	-16
-108	-180	-23
-66	-190	-22
-50	-141	-32
-40	-51	-24
-1	49	-22
95	133	-20
245	197	4
414	244	33
534	291	63
545	337	70
438	359	49
236	329	9
-11	228	-28
-251	56	-66
-442	-152	-105
-558	-345	-123
-600	-475	-113
-556	-506	-87
-438	-436	-67
-257	-289	-25
-42	-109	-4
170	59	0
358	183	4
517	241	-4
645	236	-10
728	177	-31
736	88	-42
626	-2	-56
383	-71	-38
18	-97	-13
-383	-65	-5
-712	20	1
-879	150	-1
-857	295	13
-676	427	5
-388	507	-14
-55	526	-15
263	443	-32
541	272	-54
716	38	-43
740	-208	-38
568	-410	-55
223	-517	-42
-191	-507	-25
-532	-403	-18
-684	-259	-7
-619	-143	-5
-412	-102	-4
-197	-142	11
-82	-230	26
-87	-301	25
-148	-311	14
-166	-241	-7
-85	-114	-19
70	20	-34
223	118	-63
300	168	-78
280	187	-86
212	205	-78
150	243	-58
126	282	-40
115	286	-38
71	215	-31
-23	55	-24
-129	-152	-22
-168	-341	-7
-92	-433	5
81	-393	22
266	-230	19
346	-4	18
278	203	13
94	338	2
-99	372	-12
-206	338	-14
-198	261	21
-128	183	22
-78	120	20
-89	70	8
-127	37	-21
-116	26	-27
1	49	-75
196	106	-125
359	171	-122
373	204	-92
200	154	-60
-100	10	-26
-380	-192	-40
-515	-376	-54
-480	-464	-34
-345	-419	-52
-221	-268	-40
-161	-89	-24
-126	28	-8
-28	36	11
180	-33	-15
446	-106	-14
625	-98	5
580	21	26
312	201	15
-37	349	-6
-253	366	-15
-194	227	-41
110	-24	-46
453	-268	-24
604	-405	3
450	-381	2
85	-227	-11
-272	-33	-19
-405	105	-11
-279	129	-6
-46	43	-11
66	-94	-2
-77	-227	-22
-417	-305	-16
-743	-313	-3
-837	-248	-18
-637	-117	-26
-264	68	-16
59	286	-31
161	487	-52
49	610	-34
-116	605	-19
-138	468	-3
66	243	-11
420	15	-32
730	-136	-46
831	-177	-46
692	-127	-43
399	-57	-33
101	-31	-12
-99	-72	2
-195	-158	13
-256	-232	-26
-321	-252	-48
-390	-207	-38
-392	-128	-46
-288	-58	-48
-103	-21	-53
66	-16	-60
120	-14	-48
34	8	-27
-109	57	3
-169	114	26
-47	152	19
231	150	6
539	117	-5
695	71	-2
591	33	-10
262	13	-32
-130	-1	-24
-418	-23	-16
-493	-62	-19
-375	-111	-24
-191	-149	-70
-70	-160	-109
-71	-131	-98
-153	-78	-54
-215	-3	3
-172	76	30
-14	151	34
186	224	26
339	284	15
383	322	3
332	313	-23
257	249	-53
231	126	-77
269	-35	-76
322	-201	-49
291	-339	-19
110	-413	-7
-204	-417	-5
-561	-345	-8
-821	-214	-22
-886	-52	-23
-731	110	-44
-447	228	-75
-160	262	-71
17	196	-43
46	32	-4
-31	-191	11
-120	-408	13
-139	-543	-16
-55	-549	-14
96	-410	0
245	-165	-9
328	111	-13
318	332	-26
242	434	-4
159	406	7
122	286	-10
159	150	-5
253	68	21
359	78	25
432	161	7
432	254	-8
345	290	-12
171	219	-36
-64	52	-69
-321	-163	-84
-556	-345	-85
-702	-433	-57
-707	-406	-42
-549	-292	-17
-262	-159	12
60	-63	3
319	-35	-4
425	-54	-24
363	-62	-36
205	-9	-15
57	136	-6
13	343	-18
89	545	-27
225	658	-26
312	625	-16
270	450	-7
105	174	-9
-110	-110	-7
-268	-334	4
-292	-444	12
-191	-437	14
-38	-341	-2
85	-198	-48
131	-48	-76
111	84	-85
78	174	-98
71	207	-106
94	171	-112
121	78	-52
116	-50	21
60	-170	34
-33	-242	30
-143	-243	16
-256	-177	9
-360	-66	-18
-443	63	-68
-470	193	-74
-392	301	-44
-188	370	-16
105	364	-19
395	257	-38
548	46	-34
484	-228	-6
214	-485	19
-148	-634	7
-459	-620	-18
-589	-457	-25
-509	-218	-17
-267	-3	-12
36	118	-14
314	141	-36
516	116	-35
611	114	-17
592	169	-36
456	261	-24
225	325	-9
-42	298	-7
-245	158	-6
-288	-45	-8
-148	-228	4
111	-312	-16
357	-272	-45
459	-140	-25
363	11	-12
130	112	-25
-120	130	-40
-281	81	-36
-324	-2	-6
-305	-76	10
-311	-125	2
-390	-154	-24
-516	-170	-18
-605	-178	-33
-595	-167	-49
-478	-127	-38
-321	-53	-43
-210	41	-12
-188	135	-15
-214	215	-34
-200	267	-39
-64	300	-28
191	312	-17
484	300	-42
688	251	-63
707	157	-60
541	32	-32
277	-93	-18
44	-170	-16
-58	-171	-1
-1	-95	16
171	18	15
366	115	-21
498	149	-70
521	106	-55
428	16	-42
248	-78	-39
33	-130	-15
-170	-129	5
-313	-86	42
-372	-29	65
-350	10	57
-272	20	9
-188	2	-28
-130	-30	-52
-106	-66	-90
-89	-97	-104
-46	-112	-101
28	-105	-80
99	-71	-62
105	-23	-43
-1	28	-38
-216	53	-22
-459	33	-7
-611	-36	-9
-568	-138	0
-310	-234	-5
79	-289	-7
458	-281	3
665	-224	13
614	-142	11
344	-71	5
-32	-29	-4
-371	-9	-19
-555	15	-16
-554	71	1
-417	171	3
-226	305	-9
-41	430	-13
126	504	-13
309	495	-29
532	401	-65
775	248	-88
950	80	-69
949	-59	-36
704	-150	-30
261	-190	-31
-215	-192	-13
-522	-178	-2
-525	-152	10
-233	-114	10
171	-61	4
428	0	-10
354	50	-34
-52	65	-26
-611	26	-15
-1057	-60	-21
-1161	-166	-16
-892	-245	17
-403	-263	24
68	-224	12
324	-147	-3
302	-82	-17
105	-58	-38
-92	-81	-64
-164	-118	-66
-95	-127	-76
33	-88	-69
105	-2	-43
59	88	-60
-75	136	-68
-210	120	-32
-263	55	-23
-201	-11	10
-43	-25	64
155	43	56
346	178	30
517	323	-35
646	408	-99
716	392	-99
689	274	-103
544	103	-74
302	-47	-59
23	-126	-48
-191	-106	-24
-273	-19	-27
-217	80	-22
-81	134	-7
41	113	41
80	30	74
20	-76	64
-91	-153	36
-193	-173	15
-247	-131	-2
-257	-60	-45
-256	1	-66
-271	25	-74
-300	-2	-62
-300	-64	-34
-226	-143	-24
-56	-210	-42
179	-254	-64
407	-268	-43
554	-246	-46
562	-195	-50
428	-123	-21
183	-49	-15
-90	12	-7
-319	48	-2
-448	61	0
-456	68	10
-361	88	3
-213	130	7
-66	178	13
31	201	4
60	168	-32
30	69	-59
-33	-62	-48
-100	-175	-38
-156	-209	-26
-199	-148	-28
-239	-21	-27
-271	101	-19
-281	143	-12
-253	80	-2
-170	-64	4
-36	-207	-1
127	-260	-3
292	-177	-2
429	21	-5
512	250	-16
537	408	-30
488	429	-41
366	324	-52
186	158	-58
-8	27	-44
-164	-9	-38
-231	40	-35
-198	114	-21
-100	132	-21
-2	57	-17
34	-90	-35
-3	-234	-59
-77	-305	-46
-111	-278	-30
-59	-187	-21
71	-106	-9
207	-93	-1
261	-154	9
180	-234	24
-16	-258	16
-231	-171	0
-361	11	-20
-347	215	-39
-211	354	-44
-36	364	-58
72	252	-51
51	76	-25
-91	-86	6
-287	-174	11
-438	-184	-2
-465	-143	-10
-333	-100	-15
-61	-68	-15
288	-46	-27
631	-5	-71
883	80	-83
967	201	-65
872	330	-39
626	409	-16
300	406	-49
-17	317	-32
-248	169	-24
-339	17	-40
-287	-96	-57
-134	-153	-69
57	-173	-62
214	-186	-78
268	-230	-45
166	-314	5
-92	-416	37
-448	-489	43
-787	-488	51
-984	-389	44
-934	-196	15
-638	40	-6
-208	254	-14
181	388	-34
380	405	-52
318	313	-47
64	155	-63
-236	-9	-41
-436	-131	-8
-480	-187	2
-392	-177	13
-255	-131	8
-126	-71	7
-2	-19	-4
169	30	-14
430	88	-15
740	162	-35
991	248	-43
1046	327	-34
853	372	-24
474	372	-30
54	315	-21
-237	224	-15
-318	123	-15
-232	34	12
-102	-38	3
-42	-101	-12
-98	-170	-16
-215	-250	-16
-310	-329	-20
-320	-386	-46
-258	-386	-41
-182	-313	-32
-148	-175	-17
-155	-13	-2
-154	115	-6
-91	164	7
46	110	11
207	-14	-12
299	-154	-51
253	-236	-69
85	-229	-57
-132	-140	-60
-307	-25	-66
-361	50	-65
-300	54	-69
-174	-9	-56
-45	-85	-46
50	-114	-30
116	-60	-18
169	56	-23
216	179	-10
242	243	-8
222	208	-5
147	92	-1
44	-54	-6
-32	-166	5
-46	-200	2
1	-162	-11
62	-83	-1
87	-7	27
44	44	3
-34	76	-30
-94	110	-44
-84	165	-76
5	235	-83
117	296	-44
192	320	-15
191	298	-20
137	234	-19
89	157	-32
94	83	-52
149	18	-47
186	-46	-18
135	-119	-1
-33	-196	-11
-263	-251	-14
-448	-260	-16
-473	-210	-27
-319	-132	-25
-65	-71	-31
151	-72	-25
206	-150	-24
61	-263	-36
-212	-343	-18
-480	-321	1
-603	-175	13
-518	64	17
-247	320	5
113	507	-7
439	591	7
642	557	44
665	445	74
526	311	56
288	185	9
46	68	-34
-113	-50	-61
-158	-183	-70
-103	-320	-115
-10	-432	-114
50	-482	-80
46	-448	-53
-5	-338	-46
-54	-178	-48
-68	-16	-34
-55	109	-13
-67	171	16
-155	168	12
-312	113	11
-473	26	-1
-525	-58	-18
-394	-119	-50
-113	-137	-74
209	-111	-66
423	-59	-51
446	-5	-31
288	26	-28
80	24	-30
-52	-6	-21
-48	-48	-18
46	-84	-23
121	-102	-4
83	-107	12
-65	-106	29
-222	-93	54
-262	-53	56
-126	33	21
120	178	-3
324	357	4
334	525	-23
109	613	-72
-250	586	-82
-545	438	-78
-584	215	-77
-324	-20	-80
122	-224	-100
537	-376	-91
707	-487	-58
545	-566	-35
137	-607	-9
-300	-565	30
-551	-394	38
-484	-103	32
-122	261	34
368	580	9
783	739	-6
962	670	-32
862	405	-60
549	52	-98
172	-241	-124
-123	-373	-90
-258	-326	-51
-234	-163	-9
-116	14	16
-4	124	37
31	143	31
-23	98	8
-132	39	8
-237	-4	8
-300	-40	3
-325	-93	-13
-360	-183	-32
-439	-300	-61
-569	-403	-58
-692	-437	-40
-727	-381	-36
-610	-244	-27
-342	-75	-3
-7	72	20
280	166	30
436	206	24
439	215	19
351	215	36
263	215	13
231	194	-32
240	126	-51
226	7	-80
124	-147	-93
-69	-280	-82
-291	-340	-53
-442	-288	-21
-435	-130	-20
-269	84	-25
-24	286	-13
192	406	-20
295	414	-47
268	317	-51
163	165	-26
51	13	-12
-19	-97	-4
-52	-154	5
-87	-176	-14
-150	-177	-32
-222	-166	-35
-233	-130	-29
-119	-55	-11
134	56	7
468	182	-8
740	274	-21
818	294	-23
642	228	-19
278	106	-6
-122	-11	-6
-392	-69	-10
-425	-51	-23
-250	14	-34
6	77	-38
186	86	-45
198	28	-46
46	-70	-42
-168	-171	-55
-331	-240	-52
-385	-280	-44
-351	-306	-16
-312	-346	21
-342	-393	51
-452	-417	68
-577	-374	23
-623	-243	-40
-511	-49	-65
-232	150	-64
151	276	-63
539	286	-68
835	188	-54
987	40	-13
988	-69	10
863	-78	13
655	36	-9
423	241	-27
225	468	-16
107	638	-7
102	700	-13
196	635	-32
322	465	-33
391	243	-45
325	20	-43
99	-147	-24
-234	-238	-32
-562	-256	-31
-774	-229	-23
-819	-198	-28
-712	-192	-28
-536	-225	-23
-392	-274	-27
-340	-319	-24
-372	-326	-25
-424	-289	-36
-416	-215	-21
-307	-125	-22
-115	-37	-45
97	43	-40
251	124	-40
306	205	-36
273	285	-14
195	341	-19
132	343	-9
118	272	0
144	134	22
178	-35	30
175	-188	-6
126	-278	-13
44	-292	-18
-36	-246	-34
-86	-179	-46
-98	-126	-38
-89	-106	-45
-86	-107	-52
-102	-104	-31
-131	-79	5
-149	-28	39
-124	31	53
-53	74	53
42	85	40
124	71	5
159	51	-36
130	43	-48
55	53	-77
-22	70	-99
-66	70	-93
-58	44	-62
-8	-3	-40
52	-48	-71
93	-67	-86
94	-47	-60
62	3	-39
20	60	-40
-10	106	-38
-15	123	-14
4	120	2
34	96	5
66	57	3
91	-4	-3
109	-91	4
105	-192	8
61	-288	2
-39	-344	26
-195	-345	37
-374	-297	11
-497	-230	-13
-497	-174	-28
-333	-148	-34
-35	-135	-62
306	-103	-70
569	-29	-48
659	96	-7
549	240	20
309	356	-1
46	408	-19
-125	385	-32
-147	312	-36
-29	228	-55
162	165	-44
340	134	-23
436	123	-39
409	106	-47
259	68	-53
11	15	-35
-281	-35	-19
-562	-55	-24
-773	-34	-42
-865	21	-38
-829	83	-15
-669	113	2
-409	92	19
-77	13	32
287	-88	28
619	-167	5
837	-185	-22
869	-130	-45
681	-40	-52
302	32	-62
-133	28	-58
-470	-69	-26
-588	-230	-2
-477	-379	13
-239	-438	26
-29	-372	24
32	-182	9
-50	67	-18
-168	301	-36
-180	461	-47
-11	505	-78
280	456	-61
547	324	-42
626	149	-48
478	-37	-30
172	-196	-19
-121	-307	-36
-261	-341	-40
-207	-303	-30
-43	-212	-35
101	-106	-26
137	-21	4
63	29	34
-44	56	32
-111	86	29
-118	143	63
-115	225	71
-158	308	41
-257	345	0
-344	316	-35
-320	203	-66
-137	39	-106
158	-133	-139
423	-264	-133
508	-326	-106
371	-313	-60
74	-237	-22
-225	-133	-19
-370	-37	-12
-304	19	-36
-100	24	-44
106	-20	-25
206	-89	-18
176	-141	8
78	-148	30
0	-94	22
-8	4	6
33	103	-10
64	164	-20
34	162	-25
-53	106	-31
-156	33	-33
-224	-20	-38
-245	-36	-24
-248	-31	-6
-269	-38	17
-315	-90	28
-357	-184	4
-350	-291	-14
-275	-355	-38
-165	-346	-60
-77	-264	-72
-36	-147	-46
-12	-44	-14
81	8	10
314	10	11
671	-2	-26
1017	10	-51
1169	67	-62
990	150	-59
470	215	-47
-240	233	-47
-887	191	-62
-1235	135	-64
-1210	122	-59
-872	183	-36
-402	310	0
9	435	4
253	475	11
330	372	8
314	138	11
279	-160	16
252	-416	6
216	-527	9
156	-457	10
69	-238	3
1	42	-20
-12	283	-37
39	408	-58
116	392	-57
162	266	-53
148	91	-59
99	-68	-26
78	-168	-7
140	-191	20
288	-151	30
459	-79	-9
558	-13	-32
526	13	-57
363	-19	-31
138	-105	-18
-62	-218	-19
-195	-317	3
-273	-355	-12
-348	-304	-22
-455	-162	-36
-579	43	-21
-654	257	-5
-611	418	-13
-421	487	-11
-126	450	-35
164	325	-47
346	158	-32
369	0	-36
245	-116	-35
39	-177	-11
-156	-190	10
-276	-179	2
-299	-162	5
-226	-145	-6
-80	-125	-57
111	-92	-36
306	-38	-18
451	28	-8
494	92	-1
411	134	-33
212	135	-56
-47	96	-54
-286	20	-23
-439	-75	-20
-480	-171	-31
-425	-252	-44
-315	-300	-38
-187	-308	-10
-59	-268	-10
69	-192	-5
198	-93	-19
318	8	-4
393	89	21
398	140	3
331	158	-12
216	151	-53
106	124	-85
29	84	-117
2	32	-114
4	-31	-63
9	-94	-34
-8	-144	-5
-54	-155	2
-118	-120	6
-185	-37	3
-245	68	-9
-298	163	-14
-333	213	-38
-355	197	-43
-361	124	9
-366	17	24
-389	-92	21
-448	-174	4
-524	-217	-41
-561	-215	-43
-480	-179	-38
-225	-109	-35
184	-15	-30
649	96	-15
1022	202	11
1143	278	22
977	301	13
602	277	-1
198	219	-28
-65	166	-65
-91	140	-71
82	147	-70
306	158	-61
436	135	-51
387	61	-27
187	-50	-20
-51	-163	-28
-216	-229	-10
-258	-233	-12
-213	-196	-30
-166	-170	-33
-185	-185	-14
-281	-248	1
-412	-322	5
-511	-366	2
-547	-340	-2
-524	-249	0
-474	-125	-7
-425	-9	-11
-361	79	-6
-248	145	5
-54	215	-2
216	317	-7
523	437	0
786	547	-16
957	605	-32
995	577	-55
904	453	-60
707	254	-55
436	22	-53
141	-195	-52
-120	-350	-59
-291	-416	-22
-343	-384	3
-281	-282	-7
-180	-152	-10
-121	-38	-12
-166	26	-20
-314	35	-17
-485	4	-10
-572	-36	-31
-509	-66	-39
-307	-87	-8
-53	-105	26
131	-135	-2
169	-171	-35
65	-194	-24
-95	-181	-24
-205	-120	-25
-195	-27	-18
-78	66	-7
80	125	5
181	126	21
163	66	51
13	-33	25
-229	-152	-33
-487	-257	-86
-669	-320	-122
-707	-313	-120
-540	-207	-84
-161	-11	-26
368	249	8
912	492	5
1284	635	-19
1384	622	-51
1147	445	-59
653	170	-48
77	-105	-36
-388	-292	-12
-644	-358	-37
-708	-326	-74
-681	-256	-65
-651	-207	-33
-627	-189	-2
-523	-174	28
-240	-117	32
239	2	13
786	160	12
1174	299	-9
1207	358	-10
862	321	-7
291	213	-19
-233	103	-24
-459	47	-18
-319	68	-20
46	143	-12
373	213	-21
462	229	-37
250	168	-42
-129	48	-39
-477	-95	-28
-645	-231	-48
-639	-352	-57
-571	-467	-61
-564	-578	-60
-654	-669	-56
-758	-687	-39
-751	-590	-9
-549	-352	21
-185	-9	43
196	350	41
446	625	32
486	731	19
366	660	-10
201	461	-34
107	240	-38
131	74	-41
216	1	-38
272	-2	-30
214	0	-10
19	-44	-7
-262	-149	-14
-540	-275	-20
-717	-365	-40
-719	-364	-27
-502	-261	-38
-69	-88	-62
502	96	-79
1060	244	-96
1441	330	-71
1345	362	-17
1216	359	2
648	333	2
18	279	0
-455	194	-15
-623	72	-16
-500	-65	-17
-231	-189	-8
-3	-263	5
57	-265	10
-34	-204	29
-176	-95	32
-245	17	24
-193	96	-17
-72	118	-40
12	76	-38
-7	-16	-74
-117	-132	-76
-241	-236	-74
-277	-294	-45
-201	-286	-8
-66	-224	-6
36	-131	13
44	-51	-7
-39	-16	-25
-139	-31	-20
-173	-75	-21
-115	-112	-7
-5	-111	-15
78	-68	-20
75	0	-8
-12	61	4
-116	94	1
-166	95	-12
-121	83	-30
-4	79	-37
122	96	-55
201	124	-88
210	143	-79
172	137	-66
118	104	-41
64	58	-15
7	24	-18
-71	6	-10
-166	1	-4
-249	-9	12
-277	-36	4
-229	-78	-26
-126	-118	-30
-21	-137	-21
35	-128	-3
31	-105	-10
-2	-90	-24
0	-97	-21
78	-120	-21
219	-134	5
360	-107	27
415	-27	16
338	92	-26
156	208	-62
-42	275	-83
-158	272	-101
-135	210	-85
1	134	-42
164	93	-31
262	120	-23
248	204	5
143	298	-19
12	333	-19
-83	264	11
-134	81	28
-184	-173	48
-281	-411	22
-431	-553	9
-555	-548	-33
-545	-394	-65
-308	-164	-53
128	68	-57
620	229	-63
947	283	-82
918	243	-80
517	148	-65
-113	33	-43
-698	-81	-1
-981	-188	23
-821	-286	11
-305	-353	-6
318	-351	11
755	-243	15
819	-40	8
505	199	17
-10	386	15
-459	437	18
-650	334	12
-521	134	4
-174	-53	2
191	-131	-13
402	-62	-33
397	104	-62
237	265	-84
56	325	-103
-26	243	-98
23	61	-55
137	-134	-23
205	-261	-13
140	-280	-3
-59	-224	-5
-321	-139	-7
-518	-85	0
-569	-70	-14
-465	-82	-24
-277	-96	-30
-103	-97	-32
-21	-97	-32
-46	-105	-15
-132	-127	-1
-214	-144	-15
-230	-136	-7
-165	-96	-7
-31	-36	-9
132	12	-23
300	25	-56
439	3	-38
537	-22	-12
563	-16	-28
506	39	-27
373	134	-13
195	229	-21
21	290	-21
-98	300	-29
-134	273	-33
-102	236	-12
-39	203	11
19	179	9
46	148	-13
48	101	-53
36	42	-81
19	-11	-81
-10	-44	-114
-65	-72	-110
-162	-122	-48
-287	-227	3
-412	-387	-8
-504	-563	-25
-545	-677	-8
-530	-660	-9
-465	-486	13
-350	-190	29
-185	139	29
23	406	6
245	546	-32
431	548	-45
508	458	-46
474	331	-16
360	215	22
261	126	59
263	61	80
391	10	60
566	-29	9
664	-45	-12
580	-38	-45
302	-11	-90
-58	8	-93
-352	-3	-93
-463	-58	-65
-387	-138	-53
-225	-204	-65
-104	-215	-61
-103	-152	-46
-189	-34	-4
-262	88	7
-252	150	0
-150	118	-24
-42	4	-51
-31	-143	-63
-141	-257	-65
-303	-288	-47
-390	-231	-34
-313	-129	-12
-88	-43	1
159	-17	-11
280	-54	-6
206	-114	7
-17	-141	-5
-247	-105	4
-330	-17	14
-217	80	11
29	135	8
283	136	12
432	110	0
438	106	-19
343	166	-17
229	275	-31
142	385	-38
87	427	-31
32	357	-23
-42	204	-4
-119	29	13
-167	-86	9
-153	-105	-18
-85	-45	-46
0	31	-61
57	55	-76
69	1	-76
53	-113	-55
25	-233	-27
-11	-314	-2
-83	-334	1
-212	-314	-6
-383	-278	-12
-518	-245	-13
-518	-208	-21
-316	-149	5
36	-51	10
380	76	-58
534	202	-82
403	292	-79
58	329	-70
-277	305	-53
-360	243	-40
-90	162	-33
423	85	-19
926	27	15
1142	-2	47
967	8	64
534	57	39
104	132	26
-96	205	15
-14	241	-7
175	215	-50
204	132	-97
-72	22	-91
-598	-85	-103
-1108	-160	-105
-1324	-206	-86
-1093	-240	-58
-545	-281	-25
46	-336	-5
403	-379	18
392	-384	29
112	-322	41
-198	-217	27
-337	-98	-4
-255	-13	-14
-52	9	-32
105	-24	-42
122	-86	-44
32	-131	-45
-51	-138	-22
-36	-96	4
74	-23	4
184	54	-19
191	119	-30
67	158	-17
-107	178	-3
-213	182	-13
-165	174	-21
12	162	-19
197	141	-26
262	118	-41
163	97	-45
-40	80	-50
-200	67	-64
-201	65	-54
-28	70	-44
222	86	-34
404	108	-19
406	127	-20
234	131	-9
-3	105	-1
-153	39	-4
-126	-61	-4
63	-178	6
292	-281	-1
406	-342	-2
308	-334	7
27	-258	-5
-312	-126	-9
-548	30	-5
-561	169	2
-357	256	-17
-46	265	-18
216	202	-30
318	94	-72
219	-11	-71
-4	-64	-60
-237	-46	-36
-378	38	-24
-375	139	-24
-247	200	-16
-52	170	-44
138	40	-44
277	-157	-12
342	-358	-12
331	-492	-8
254	-523	9
132	-443	8
-4	-288	-1
-134	-116	-17
-239	36	-22
-311	152	-9
-347	241	-2
-350	323	-13
-311	406	-16
-210	477	-10
-43	497	-18
183	437	-28
431	287	-47
642	85	-54
765	-104	-42
767	-213	-29
645	-213	-31
430	-122	-33
175	-3	-41
-58	75	-48
-227	78	-50
-308	14	-55
-308	-67	-43
-269	-121	-42
-247	-122	-32
-272	-92	-3
-350	-71	5
-434	-92	11
-465	-153	2
-402	-215	-1
-259	-246	16
-96	-223	31
13	-167	30
22	-121	10
-46	-115	-15
-126	-142	-42
-139	-164	-53
-50	-137	-64
117	-40	-85
294	98	-78
407	215	-38
432	261	-31
383	215	-15
296	112	-1
186	8	-19
58	-38	-8
-101	-15	2
-281	45	4
-436	100	-6
-501	105	-25
-426	66	-47
-235	14	-54
-5	-15	-59
158	0	-45
189	40	-7
89	75	7
-58	70	10
-159	22	1
-154	-49	-18
-52	-110	-27
82	-135	-45
172	-126	-76
188	-92	-80
148	-60	-52
93	-51	-18
52	-70	9
24	-114	13
-26	-164	36
-111	-198	44
-204	-179	21
-235	-83	-3
-134	104	-43
107	351	-61
411	586	-72
636	716	-71
647	672	-53
394	453	-30
-50	119	1
-500	-204	26
-740	-408	45
-647	-441	26
-241	-339	-19
337	-199	-67
850	-116	-88
1097	-131	-95
1013	-202	-111
664	-246	-88
201	-186	-38
-195	-7	4
-415	227	2
-448	418	-39
-370	482	-24
-277	390	-4
-237	181	-3
-267	-60	10
-337	-255	-15
-400	-357	-33
-431	-358	-17
-419	-288	-7
-371	-179	-6
-286	-66	-8
-167	25	-28
-26	79	-48
107	81	-40
190	30	-16
192	-55	19
122	-140	50
35	-180	70
-2	-142	82
54	-17	69
195	159	48
350	328	33
436	421	13
407	397	-33
275	256	-84
105	51	-120
-27	-138	-162
-83	-242	-179
-77	-223	-138
-65	-102	-95
-94	51	-49
-172	160	-28
-260	174	-36
-312	97	-11
-302	-23	3
-241	-124	-9
-169	-166	-3
-119	-148	0
-93	-111	-12
-63	-101	11
2	-137	15
103	-207	14
207	-263	21
257	-274	-8
212	-225	-12
86	-138	-21
-68	-56	-24
-189	-8	-12
-237	3	-2
-223	5	-4
-195	26	-8
-198	86	-9
-233	170	-5
-267	244	19
-241	278	0
-112	258	-44
110	195	-88
371	114	-86
600	32	-65
732	-44	-49
732	-117	-34
624	-183	-12
452	-224	12
277	-201	30
162	-89	24
135	121	3
195	383	-15
299	619	-69
375	738	-120
365	677	-140
223	435	-97
-37	72	-28
-355	-306	1
-647	-596	6
-844	-715	-8
-920	-664	-21
-869	-481	-12
-740	-254	6
-565	-77	29
-389	0	7
-233	-29	-2
-108	-115	-1
-18	-190	-30
41	-196	-29
85	-111	-44
124	32	-55
156	174	-43
158	252	-31
99	233	-35
-23	138	-40
-170	19	-40
-273	-66	-32
-256	-86	-25
-90	-50	-27
175	2	-14
436	27	-4
600	10	-4
623	-32	9
545	-53	16
467	-19	13
446	86	11
478	235	6
476	372	8
330	449	-22
2	422	-44
-429	292	-43
-805	85	-48
-980	-143	-41
-872	-334	-53
-545	-433	-21
-148	-403	1
172	-247	0
344	1	7
399	271	-4
416	488	-5
466	590	-13
539	546	-21
569	384	-21
484	148	-43
244	-90	-70
-103	-278	-84
-442	-379	-108
-654	-393	-93
-686	-346	-58
-547	-270	-38
-307	-203	-5
-67	-169	-7
97	-171	1
156	-189	8
122	-199	-16
34	-174	-22
-58	-107	12
-117	-19	43
-120	53	43
-80	75	49
-20	31	16
17	-65	3
4	-179	-25
-77	-272	-70
-209	-322	-81
-361	-322	-92
-489	-289	-62
-550	-225	-48
-506	-137	-62
-344	-33	-68
-69	82	-59
282	185	-4
649	257	21
943	287	7
1086	289	20
1038	285	-5
818	301	-19
470	341	-9
107	369	-4
-191	345	-10
-369	244	-24
-416	70	-34
-358	-126	-40
-250	-288	-40
-145	-370	-41
-96	-375	-34
-128	-322	-19
-242	-246	-13
-409	-151	-25
-556	-16	-20
-611	177	-7
-518	422	6
-266	655	32
93	793	29
455	746	5
707	500	-15
772	106	-40
641	-312	-48
372	-628	-66
65	-752	-66
-168	-660	-38
-255	-416	-35
-174	-105	-30
32	170	-24
300	345	-25
535	398	-8
665	340	-12
648	218	-21
484	85	-4
212	-5	-7
-115	-23	-31
-426	29	-42
-659	119	-34
-781	193	-28
-783	202	-21
-684	124	-8
-529	-18	-12
-380	-188	-33
-299	-334	-66
-321	-433	-69
-438	-478	-33
-581	-481	0
-631	-453	26
-473	-390	32
-62	-278	26
537	-114	25
1161	88	12
1511	279	-47
1382	414	-58
1261	450	-35
671	381	-44
-15	237	-70
-534	74	-79
-726	-56	-71
-623	-127	-60
-387	-137	-41
-209	-110	-26
-194	-80	-3
-314	-69	-21
-443	-86	-41
-450	-111	-43
-298	-124	-42
-56	-107	-27
151	-59	1
225	-1	28
149	41	-15
-3	43	-44
-129	8	-11
-169	-49	26
-122	-98	52
-39	-118	76
29	-101	87
71	-59	51
113	-11	-13
179	35	-51
262	80	-63
325	129	-77
306	178	-71
198	210	-84
26	197	-69
-137	122	-48
-225	2	-63
-217	-128	-84
-148	-214	-72
-79	-225	-40
-44	-162	-31
-44	-62	-8
-39	20	8
14	62	22
123	62	21
255	56	1
358	76	-11
386	135	-37
328	223	-53
219	290	-68
98	299	-51
-6	224	-14
-91	79	4
-166	-106	1
-245	-280	-11
-333	-403	-9
-410	-445	-16
-456	-409	-12
-443	-317	-16
-358	-214	-25
-206	-143	-28
-14	-136	-44
172	-186	-44
301	-259	-23
322	-297	-8
238	-254	-1
101	-112	9
4	105	12
20	345	-4
167	557	-21
366	693	-34
486	731	-27
417	682	-11
147	561	-15
-208	394	-22
-448	217	-15
-398	74	-12
-33	-7	-18
503	-6	-25
971	56	-19
1119	131	-15
878	162	-19
346	117	-11
-234	-2	-18
-641	-149	-27
-751	-263	-13
