File Name: not saved
Channel 2: 'Channel 2', 30690 values, raw ADC, no filters.
Channel 3: 'Channel 3', 30690 values, raw ADC, no filters.
Channel 4: 'Channel 4', 30690 values, raw ADC, no filters.

67	101	-18
57	85	-19
38	56	-19
14	19	-18
-12	-22	-19
-36	-61	-22
-55	-92	-21
-68	-109	-23
-71	-110	-23
-65	-97	-24
-48	-70	-23
-25	-34	-23
2	5	-23
27	43	-20
49	74	-19
63	96	-19
68	104	-19
63	96	-21
49	75	-21
29	41	-20
4	4	-20
-21	-37	-21
-44	-72	-22
-62	-99	-24
-72	-112	-25
-71	-108	-27
-62	-93	-26
-44	-61	-24
-19	-24	-25
9	17	-25
34	54	-24
54	84	-23
65	101	-22
67	104	-23
59	93	-20
44	66	-19
21	31	-20
-4	-9	-19
-29	-51	-20
-51	-84	-21
-66	-107	-23
-75	-113	-24
-69	-105	-25
-55	-82	-23
-33	-47	-25
-8	-9	-26
19	30	-24
42	64	-26
58	90	-22
65	103	-20
63	101	-20
53	85	-20
36	55	-19
13	19	-19
-12	-23	-21
-37	-61	-20
-56	-92	-22
-68	-108	-25
-71	-110	-24
-64	-97	-26
-47	-70	-27
-24	-36	-23
3	4	-26
28	41	-24
47	74	-24
62	96	-23
66	104	-21
62	98	-21
48	77	-18
28	45	-18
4	5	-17
-23	-36	-18
-46	-72	-21
-64	-100	-22
-72	-113	-23
-72	-110	-23
-60	-92	-25
-40	-61	-24
-15	-24	-23
12	17	-22
36	51	-24
54	82	-25
65	98	-22
67	103	-22
60	92	-20
44	68	-20
22	34	-23
-4	-8	-20
-30	-47	-22
-53	-82	-22
-67	-104	-24
-72	-112	-25
-69	-103	-25
-55	-81	-24
-34	-48	-24
-10	-9	-24
16	30	-22
39	64	-23
56	90	-21
64	103	-22
63	102	-23
52	85	-19
34	57	-20
10	20	-18
-16	-20	-19
-40	-60	-21
-59	-91	-23
-70	-109	-24
-72	-113	-25
-65	-100	-25
-49	-72	-26
-26	-37	-26
-1	3	-25
26	41	-25
46	74	-24
61	95	-23
67	103	-23
63	95	-20
51	75	-20
31	41	-20
6	3	-20
-20	-37	-19
-43	-74	-19
-62	-99	-22
-69	-111	-22
-68	-108	-23
-57	-90	-24
-39	-59	-23
-15	-22	-22
11	17	-21
34	55	-21
53	85	-22
65	103	-21
67	104	-22
59	93	-22
42	68	-19
20	33	-20
-6	-7	-20
-31	-48	-23
-53	-83	-23
-66	-105	-23
-74	-113	-25
-69	-105	-26
-55	-83	-25
-34	-48	-25
-8	-9	-26
18	31	-24
42	65	-24
59	90	-22
67	103	-20
65	101	-21
54	84	-20
36	55	-23
14	20	-21
-12	-22	-21
-37	-60	-23
-56	-91	-24
-68	-109	-25
-70	-112	-24
-64	-99	-26
-48	-71	-27
-24	-36	-25
1	5	-25
27	43	-24
48	76	-23
62	97	-22
66	104	-20
62	98	-18
48	76	-21
28	44	-20
3	4	-20
-23	-37	-18
-46	-75	-20
-64	-102	-22
-72	-114	-23
-71	-110	-24
-60	-92	-23
-41	-60	-23
-18	-23	-22
8	17	-23
33	53	-21
53	84	-22
65	99	-24
68	103	-20
61	93	-18
42	67	-19
21	31	-18
-5	-9	-17
-30	-49	-20
-51	-85	-20
-65	-106	-23
-70	-111	-24
-67	-103	-25
-53	-80	-25
-32	-48	-24
-6	-8	-23
21	31	-24
44	65	-23
61	92	-23
70	103	-23
67	102	-19
55	85	-21
37	56	-23
12	17	-21
-12	-24	-22
-38	-62	-23
-57	-94	-23
-70	-111	-24
-74	-114	-24
-65	-100	-24
-48	-74	-24
-24	-38	-26
2	3	-23
29	41	-24
49	75	-25
61	96	-22
66	104	-23
60	97	-21
46	77	-21
27	45	-21
3	5	-20
-23	-35	-20
-45	-71	-22
-63	-98	-25
-72	-111	-26
-70	-107	-25
-60	-89	-27
-41	-59	-25
-16	-23	-26
10	17	-24
34	53	-24
52	83	-23
64	100	-21
65	103	-21
58	91	-18
42	65	-18
21	28	-17
-4	-12	-18
-28	-51	-21
-51	-84	-18
-67	-105	-21
-74	-112	-23
-68	-103	-23
-54	-82	-24
-33	-48	-23
-7	-9	-27
18	31	-24
41	67	-26
56	91	-23
64	105	-21
63	102	-21
52	85	-21
35	57	-20
11	20	-19
-15	-19	-23
-40	-58	-21
-60	-89	-22
-70	-109	-24
-74	-111	-25
-64	-99	-24
-48	-72	-24
-25	-36	-26
1	3	-24
27	41	-23
46	74	-25
61	96	-24
68	103	-21
62	97	-22
50	76	-17
30	42	-18
5	4	-20
-21	-38	-20
-44	-74	-20
-61	-99	-21
-69	-112	-22
-68	-107	-23
-57	-90	-26
-39	-60	-25
-16	-24	-24
11	16	-24
33	52	-24
52	82	-23
64	100	-21
67	104	-22
60	93	-22
45	65	-21
22	30	-21
-4	-11	-21
-30	-50	-21
-52	-85	-20
-66	-107	-24
-70	-113	-25
-67	-106	-24
-54	-85	-26
-33	-49	-23
-7	-11	-26
18	30	-25
41	63	-23
58	89	-22
67	101	-20
65	99	-22
53	84	-21
34	55	-20
10	18	-19
-16	-22	-20
-40	-58	-22
-59	-90	-21
-70	-107	-24
-74	-110	-23
-66	-97	-24
-50	-70	-24
-27	-35	-25
-2	5	-24
24	43	-21
46	75	-20
60	98	-20
66	105	-19
59	98	-20
46	77	-19
27	44	-21
3	5	-20
-22	-35	-19
-46	-71	-23
-62	-99	-25
-71	-110	-23
-70	-108	-24
-58	-90	-25
-38	-60	-24
-14	-22	-24
14	18	-22
37	53	-22
56	84	-23
66	100	-22
67	104	-24
61	91	-20
44	66	-20
22	31	-20
-4	-9	-20
-29	-49	-24
-51	-83	-21
-65	-104	-24
-72	-112	-24
-68	-104	-25
-54	-81	-27
-34	-49	-26
-8	-9	-27
17	31	-24
41	65	-23
59	90	-22
66	104	-20
65	102	-21
54	85	-19
36	56	-20
12	18	-21
-15	-23	-20
-38	-62	-20
-58	-93	-23
-70	-110	-24
-74	-112	-23
-65	-98	-24
-48	-70	-25
-24	-35	-25
2	3	-23
28	41	-22
49	74	-22
62	95	-23
68	103	-22
63	96	-20
50	77	-22
29	42	-19
4	4	-16
-22	-37	-17
-46	-75	-19
-63	-101	-21
-71	-113	-23
-69	-109	-27
-58	-92	-26
-39	-61	-29
-15	-24	-30
11	16	-25
34	52	-27
51	82	-27
63	98	-24
65	101	-23
59	90	-23
43	65	-23
21	30	-21
-5	-8	-20
-31	-49	-21
-52	-84	-23
-68	-106	-24
-72	-112	-23
-68	-103	-23
-54	-81	-23
-34	-46	-25
-9	-8	-23
17	31	-22
40	65	-20
58	91	-18
66	104	-20
65	101	-19
54	85	-19
36	55	-19
12	18	-18
-13	-24	-22
-37	-62	-22
-55	-92	-21
-67	-110	-23
-71	-112	-24
-64	-99	-26
-49	-71	-26
-26	-36	-27
0	4	-25
26	43	-23
48	74	-24
63	97	-23
68	104	-22
62	97	-19
49	76	-20
27	42	-21
3	3	-16
-23	-38	-18
-47	-72	-18
-65	-100	-20
-75	-112	-20
-74	-109	-19
-62	-90	-23
-43	-59	-24
-18	-22	-23
8	19	-23
34	55	-23
54	85	-23
65	102	-23
66	104	-25
59	93	-22
42	65	-21
19	30	-21
-6	-11	-20
-31	-49	-23
-51	-84	-22
-66	-103	-23
-71	-110	-25
-68	-102	-25
-53	-79	-26
-32	-46	-27
-7	-7	-25
19	31	-24
42	65	-24
59	92	-25
67	104	-23
67	102	-23
57	85	-19
36	55	-21
13	16	-18
-13	-24	-17
-38	-61	-20
-57	-92	-21
-69	-109	-23
-72	-111	-24
-64	-97	-25
-48	-70	-24
-24	-35	-25
2	6	-24
28	43	-21
49	75	-23
63	96	-20
68	103	-21
64	95	-19
49	74	-19
29	41	-18
4	2	-17
-22	-37	-19
-45	-74	-17
-61	-100	-21
-71	-113	-21
-70	-109	-22
-60	-90	-24
-40	-60	-25
-17	-21	-25
10	18	-25
36	55	-24
55	84	-25
66	100	-23
67	104	-23
58	91	-22
41	67	-20
20	30	-19
-4	-7	-19
-30	-49	-19
-50	-85	-21
-65	-105	-25
-69	-113	-26
-66	-104	-23
-53	-82	-23
-32	-47	-24
-6	-7	-27
20	31	-25
42	65	-24
58	90	-24
65	102	-21
63	100	-19
53	83	-19
36	53	-19
13	16	-20
-13	-23	-19
-38	-63	-20
-57	-94	-22
-70	-112	-22
-74	-114	-24
-65	-100	-26
-50	-72	-27
-27	-35	-26
0	4	-26
25	42	-26
47	76	-25
62	98	-21
68	105	-22
63	98	-22
50	77	-22
30	43	-24
4	5	-22
-22	-37	-23
-46	-74	-24
-63	-98	-25
-72	-112	-27
-70	-109	-25
-60	-92	-26
-42	-60	-27
-18	-23	-25
8	18	-24
33	56	-23
52	85	-23
63	102	-23
65	103	-19
58	91	-19
42	64	-19
21	30	-18
-4	-9	-17
-30	-50	-19
-51	-83	-22
-66	-105	-24
-71	-113	-25
-67	-105	-24
-53	-81	-25
-32	-47	-25
-7	-8	-25
19	32	-26
41	66	-24
58	91	-23
66	102	-20
65	100	-19
53	82	-22
35	52	-22
12	16	-22
-15	-26	-21
-39	-61	-22
-59	-94	-22
-70	-110	-22
-72	-111	-24
-65	-98	-21
-47	-71	-21
-24	-34	-20
2	6	-23
27	43	-21
48	76	-21
62	98	-22
66	105	-22
62	99	-22
48	77	-20
29	43	-22
4	3	-20
-22	-36	-19
-45	-74	-20
-61	-100	-20
-71	-110	-23
-70	-109	-24
-60	-89	-23
-42	-59	-25
-18	-22	-24
8	18	-22
33	54	-24
52	84	-23
64	100	-19
66	104	-18
59	90	-20
43	65	-20
21	30	-21
-4	-11	-19
-31	-49	-20
-52	-84	-20
-66	-104	-22
-71	-111	-25
-67	-103	-25
-51	-81	-24
-30	-48	-24
-4	-8	-26
22	30	-25
44	66	-24
60	92	-24
67	103	-24
65	101	-22
54	84	-21
34	55	-22
11	17	-20
-15	-23	-19
-38	-62	-21
-58	-93	-24
-71	-109	-24
-75	-112	-25
-66	-98	-26
-48	-71	-23
-28	-35	-26
0	4	-24
26	43	-19
48	76	-23
62	96	-23
68	105	-21
63	98	-20
48	78	-21
29	44	-21
3	5	-18
-23	-36	-20
-46	-72	-21
-62	-100	-23
-70	-112	-25
-69	-108	-24
-59	-90	-24
-41	-60	-25
-16	-23	-27
11	16	-24
35	52	-23
54	82	-23
66	100	-18
68	103	-19
59	91	-20
44	66	-20
22	30	-19
-4	-11	-19
-29	-51	-22
-51	-83	-22
-66	-105	-24
-72	-111	-24
-68	-103	-24
-54	-82	-24
-33	-47	-24
-7	-9	-24
19	31	-23
41	66	-24
57	91	-20
65	104	-22
63	102	-19
53	85	-18
34	54	-19
11	17	-19
-15	-23	-21
-40	-60	-23
-60	-91	-24
-70	-109	-24
-72	-111	-25
-64	-99	-25
-47	-71	-28
-24	-36	-26
3	5	-26
28	43	-26
51	76	-25
64	97	-25
69	103	-22
64	96	-22
49	74	-21
29	40	-20
4	2	-20
-21	-39	-22
-43	-76	-24
-60	-101	-23
-69	-112	-23
-69	-108	-27
-60	-89	-25
-41	-59	-26
-17	-23	-23
11	18	-23
36	54	-23
53	84	-22
64	100	-21
65	103	-21
56	91	-19
40	64	-18
17	29	-19
-6	-11	-16
-31	-49	-17
-53	-85	-19
-67	-105	-18
-72	-112	-22
-69	-105	-22
-57	-81	-22
-35	-49	-25
-11	-9	-25
16	31	-25
40	66	-23
57	92	-20
65	104	-22
64	103	-21
52	85	-19
34	56	-19
11	17	-19
-14	-24	-20
-38	-61	-21
-58	-93	-24
-70	-109	-25
-72	-112	-27
-64	-97	-26
-48	-69	-25
-25	-33	-26
1	6	-25
26	42	-25
48	75	-23
62	96	-23
66	103	-22
62	97	-22
48	76	-19
29	43	-19
5	2	-20
-20	-37	-19
-43	-76	-21
-61	-101	-21
-70	-113	-23
-70	-110	-23
-59	-92	-24
-41	-61	-24
-16	-22	-24
11	18	-23
36	54	-20
54	84	-24
66	100	-22
68	104	-21
59	90	-20
43	64	-20
21	28	-18
-4	-11	-17
-30	-50	-20
-52	-84	-19
-66	-105	-21
-72	-112	-26
-67	-103	-24
-55	-81	-26
-34	-46	-26
-9	-7	-23
17	32	-25
40	66	-22
57	90	-22
66	103	-23
65	99	-19
55	84	-20
38	54	-22
16	17	-21
-11	-23	-20
-36	-61	-20
-55	-92	-24
-68	-110	-24
-70	-111	-27
-63	-98	-26
-47	-71	-26
-23	-35	-26
3	5	-25
28	43	-27
49	76	-25
63	96	-24
68	103	-22
63	96	-21
49	74	-20
29	40	-19
4	2	-20
-22	-39	-20
-44	-75	-22
-62	-101	-21
-71	-112	-20
-70	-108	-22
-59	-89	-23
-40	-57	-24
-16	-19	-25
10	20	-23
34	56	-23
52	84	-20
64	100	-20
65	102	-21
58	92	-18
42	66	-19
19	32	-16
-7	-7	-18
-32	-48	-20
-55	-82	-21
-69	-105	-23
-75	-112	-25
-69	-104	-27
-56	-80	-25
-33	-46	-23
-8	-8	-26
19	32	-24
41	65	-23
58	92	-24
67	102	-21
65	100	-19
55	84	-20
36	53	-20
12	16	-19
-14	-25	-20
-38	-63	-21
-58	-94	-22
-70	-109	-21
-71	-110	-23
-64	-96	-26
-47	-68	-26
-24	-33	-27
2	6	-24
27	42	-24
48	75	-26
62	96	-25
67	103	-26
63	96	-24
50	75	-24
30	43	-24
5	3	-21
-20	-38	-21
-43	-74	-23
-61	-101	-23
-69	-112	-25
-70	-109	-24
-58	-89	-22
-40	-58	-23
-16	-21	-23
10	19	-22
33	55	-23
52	84	-21
62	100	-20
66	104	-20
57	92	-20
41	66	-20
19	32	-20
-7	-10	-17
-32	-50	-19
-55	-85	-19
-69	-105	-23
-75	-113	-23
-69	-103	-22
-54	-81	-23
-32	-49	-22
-6	-9	-23
18	30	-22
42	65	-22
58	91	-21
66	104	-20
64	101	-20
53	83	-23
35	53	-20
12	15	-19
-14	-24	-20
-39	-61	-21
-57	-92	-24
-70	-107	-23
-71	-110	-27
-63	-97	-27
-47	-71	-26
-24	-35	-26
2	4	-27
27	43	-25
48	76	-23
62	96	-24
67	104	-22
63	95	-22
49	75	-20
27	43	-22
2	4	-19
-25	-37	-18
-48	-74	-20
-64	-100	-21
-71	-111	-23
-70	-107	-24
-58	-89	-24
-40	-56	-25
-16	-19	-24
12	20	-25
35	54	-24
55	83	-21
67	99	-22
69	104	-20
61	93	-20
44	67	-20
21	31	-21
-4	-9	-21
-30	-51	-21
-53	-85	-23
-67	-106	-22
-75	-112	-24
-69	-102	-27
-55	-81	-26
-33	-47	-26
-6	-9	-25
20	31	-25
42	63	-24
58	90	-24
65	103	-22
63	98	-22
52	83	-21
33	51	-21
10	14	-22
-15	-26	-22
-40	-64	-24
-58	-94	-24
-71	-112	-24
-72	-113	-23
-63	-100	-25
-45	-70	-24
-22	-33	-24
2	7	-25
28	45	-23
48	78	-23
63	98	-23
68	104	-21
64	97	-21
49	77	-20
29	43	-19
3	5	-19
-23	-37	-19
-47	-74	-21
-64	-101	-21
-72	-113	-21
-71	-110	-24
-60	-91	-25
-40	-59	-25
-16	-21	-25
10	18	-22
34	54	-22
52	83	-22
63	99	-19
65	100	-20
56	86	-20
41	60	-16
20	26	-18
-6	-15	-17
-30	-52	-20
-52	-85	-20
-67	-106	-22
-74	-111	-24
-68	-103	-24
-54	-80	-25
-32	-47	-24
-5	-7	-25
21	33	-24
44	67	-24
59	94	-22
67	104	-23
65	103	-24
54	85	-21
36	56	-20
12	19	-19
-14	-23	-20
-38	-60	-20
-59	-92	-22
-71	-109	-23
-72	-112	-23
-65	-98	-25
-47	-71	-24
-24	-35	-25
3	6	-25
29	44	-24
49	77	-21
63	97	-23
67	104	-23
62	97	-23
49	75	-20
28	41	-22
3	2	-18
-22	-38	-20
-44	-76	-20
-63	-101	-20
-71	-112	-24
-71	-109	-25
-59	-90	-27
-40	-58	-25
-16	-19	-27
11	20	-26
36	56	-23
54	84	-23
64	99	-23
66	103	-22
58	90	-20
42	64	-21
20	29	-21
-5	-12	-21
-32	-51	-21
-54	-86	-26
-68	-106	-27
-75	-114	-28
-68	-104	-27
-53	-81	-25
-32	-45	-25
-6	-5	-23
20	34	-24
42	68	-24
59	93	-21
66	104	-21
65	101	-21
52	84	-20
36	53	-17
11	16	-17
-14	-24	-17
-38	-63	-20
-57	-93	-22
-68	-109	-22
-70	-110	-25
-63	-96	-20
-47	-69	-24
-23	-35	-25
2	4	-23
27	42	-22
47	72	-20
61	95	-20
66	103	-20
60	95	-20
46	75	-19
26	41	-20
1	3	-19
-24	-39	-21
-47	-75	-21
-64	-99	-21
-72	-113	-23
-70	-108	-24
-60	-90	-26
-40	-58	-25
-16	-21	-25
11	20	-25
35	57	-23
54	85	-22
65	102	-23
66	103	-21
58	92	-19
41	66	-19
19	30	-18
-6	-9	-20
-31	-51	-23
-52	-85	-25
-68	-107	-23
-74	-113	-21
-68	-105	-23
-53	-81	-24
-33	-46	-24
-7	-7	-25
19	32	-24
42	65	-24
59	92	-21
67	104	-20
65	103	-24
54	85	-21
36	56	-19
12	18	-20
-14	-25	-21
-38	-62	-22
-56	-94	-21
-67	-109	-22
-69	-110	-23
-60	-96	-22
-45	-67	-23
-22	-33	-25
2	8	-24
28	45	-25
49	77	-23
63	98	-23
68	104	-24
62	96	-22
49	72	-20
27	39	-21
3	0	-21
-22	-40	-21
-44	-76	-23
-61	-101	-24
-70	-113	-27
-67	-110	-23
-57	-91	-24
-39	-59	-25
-15	-21	-25
11	20	-25
34	57	-24
52	85	-24
63	101	-22
65	104	-22
57	89	-21
40	64	-21
18	29	-21
-7	-13	-20
-31	-52	-19
-52	-86	-21
-65	-106	-23
-70	-115	-22
-65	-106	-25
-52	-83	-24
-31	-48	-23
-6	-8	-23
19	31	-23
41	66	-23
57	91	-22
65	104	-21
63	101	-22
52	83	-19
34	53	-21
10	14	-19
-16	-26	-20
-41	-65	-21
-61	-96	-23
-71	-111	-25
-75	-113	-25
-64	-98	-26
-47	-69	-24
-23	-32	-24
4	9	-23
28	46	-22
48	79	-23
61	98	-21
66	105	-21
60	95	-20
48	74	-18
28	40	-20
3	2	-19
-23	-38	-22
-45	-75	-23
-62	-100	-24
-71	-112	-26
-70	-108	-26
-60	-90	-25
-40	-59	-26
-15	-21	-24
12	20	-21
36	57	-21
56	85	-22
65	102	-20
66	104	-23
58	92	-22
41	66	-21
18	30	-21
-7	-9	-22
-32	-49	-23
-53	-83	-23
-67	-104	-25
-74	-111	-24
-68	-103	-24
-53	-80	-24
-32	-45	-24
-5	-7	-23
20	32	-23
43	66	-22
59	90	-23
66	103	-23
65	99	-18
53	81	-18
35	50	-19
12	14	-18
-14	-26	-19
-38	-64	-22
-56	-94	-20
-67	-110	-21
-70	-112	-24
-60	-98	-24
-43	-70	-26
-20	-34	-26
5	7	-25
30	45	-24
50	77	-22
62	98	-22
67	104	-21
61	97	-20
46	75	-19
27	40	-20
3	2	-19
-23	-40	-21
-46	-75	-21
-64	-101	-23
-74	-112	-24
-70	-108	-25
-60	-88	-25
-40	-56	-26
-15	-18	-26
12	22	-22
35	58	-26
53	86	-25
65	102	-21
66	104	-20
58	91	-18
41	64	-16
20	29	-19
-7	-13	-18
-33	-52	-17
-54	-85	-20
-69	-108	-22
-72	-113	-25
-67	-104	-25
-52	-79	-25
-32	-44	-24
-6	-4	-21
20	35	-22
41	68	-25
58	93	-23
65	104	-24
64	101	-21
52	84	-21
33	52	-23
9	16	-23
-16	-26	-25
-40	-64	-25
-59	-95	-24
-69	-110	-24
-71	-112	-24
-62	-97	-25
-46	-68	-28
-22	-33	-27
4	8	-25
29	45	-25
50	79	-24
62	98	-22
66	104	-20
60	96	-18
46	71	-19
25	39	-19
1	-2	-19
-24	-41	-20
-47	-77	-20
-63	-100	-21
-72	-111	-21
-70	-106	-24
-59	-87	-24
-40	-57	-23
-14	-20	-22
13	19	-22
38	55	-22
55	85	-21
66	100	-21
66	103	-20
57	90	-21
40	65	-21
20	29	-19
-5	-11	-19
-29	-50	-19
-50	-84	-18
-65	-105	-20
-71	-113	-22
-67	-103	-22
-53	-81	-22
-31	-47	-23
-4	-7	-25
22	31	-24
42	66	-25
58	90	-25
65	103	-23
62	99	-20
51	81	-20
34	51	-20
11	13	-21
-15	-28	-19
-38	-66	-18
-58	-95	-24
-69	-111	-24
-70	-111	-26
-62	-96	-25
-46	-68	-24
-22	-31	-26
2	8	-24
26	46	-26
49	77	-25
62	97	-23
68	104	-24
63	95	-22
49	75	-20
27	41	-21
1	2	-21
-24	-40	-22
-49	-76	-23
-65	-100	-25
-74	-112	-25
-71	-107	-25
-59	-90	-25
-40	-57	-25
-16	-20	-27
10	19	-25
34	56	-24
52	83	-24
63	100	-22
64	101	-20
55	89	-20
39	61	-22
17	26	-21
-8	-14	-19
-33	-53	-20
-54	-86	-20
-68	-107	-24
-75	-113	-27
-68	-104	-25
-53	-81	-25
-31	-45	-26
-5	-7	-23
22	32	-21
43	67	-23
60	92	-21
66	103	-20
65	100	-20
54	84	-22
37	52	-21
14	16	-20
-12	-24	-22
-35	-61	-20
-54	-92	-21
-67	-109	-24
-70	-111	-24
-63	-97	-24
-46	-68	-24
-24	-31	-24
3	9	-24
28	47	-24
49	80	-21
63	100	-22
68	106	-23
62	98	-21
49	76	-19
28	41	-19
2	1	-17
-24	-40	-19
-48	-76	-21
-65	-102	-21
-75	-112	-22
-71	-109	-23
-59	-89	-23
-39	-59	-23
-15	-22	-23
12	20	-21
36	55	-21
53	85	-20
65	101	-20
66	104	-20
58	91	-19
40	65	-19
18	29	-18
-8	-12	-20
-34	-51	-22
-55	-85	-21
-69	-105	-22
-72	-111	-23
-68	-102	-24
-52	-79	-24
-30	-45	-24
-5	-6	-23
20	32	-22
42	65	-23
59	89	-23
67	100	-23
65	98	-23
53	80	-22
34	51	-22
11	13	-21
-15	-26	-20
-38	-64	-24
-58	-95	-25
-69	-111	-24
-71	-112	-26
-64	-96	-26
-48	-68	-25
-25	-32	-25
3	8	-23
28	44	-23
50	76	-25
63	95	-24
68	103	-23
60	95	-20
46	72	-22
26	40	-21
1	1	-19
-25	-39	-23
-48	-76	-22
-64	-100	-26
-72	-112	-28
-71	-108	-26
-59	-89	-26
-40	-59	-21
-15	-21	-23
12	19	-25
36	57	-24
56	86	-24
66	103	-21
67	105	-21
59	90	-20
42	63	-21
19	27	-19
-5	-12	-18
-31	-51	-18
-52	-84	-20
-65	-105	-21
-71	-111	-22
-67	-101	-24
-53	-78	-25
-31	-42	-27
-5	-3	-26
21	37	-25
44	71	-23
61	93	-22
68	104	-22
66	99	-20
53	82	-19
35	51	-21
11	13	-22
-15	-26	-21
-38	-65	-22
-59	-94	-21
-69	-111	-24
-71	-111	-25
-63	-97	-26
-45	-68	-26
-22	-32	-23
4	6	-24
28	45	-22
48	77	-23
61	98	-26
65	105	-23
61	99	-21
46	76	-22
27	41	-19
2	3	-20
-24	-38	-21
-48	-74	-20
-64	-98	-22
-72	-109	-25
-71	-106	-25
-58	-87	-26
-39	-56	-27
-14	-19	-27
11	21	-26
35	56	-24
53	84	-22
63	100	-22
65	102	-20
57	90	-18
41	62	-20
18	27	-18
-7	-15	-18
-33	-53	-18
-54	-87	-20
-69	-108	-23
-74	-114	-23
-68	-105	-23
-54	-81	-22
-32	-47	-24
-6	-6	-24
21	33	-23
43	67	-22
61	93	-21
67	104	-21
66	102	-22
53	83	-21
34	52	-19
10	14	-18
-16	-27	-22
-39	-64	-22
-58	-95	-22
-69	-111	-23
-70	-112	-24
-60	-96	-23
-44	-67	-21
-21	-32	-23
5	8	-23
29	45	-22
50	77	-22
63	96	-23
68	103	-21
63	95	-19
49	71	-18
28	39	-19
3	-1	-19
-23	-41	-19
-46	-77	-23
-62	-101	-23
-71	-112	-23
-69	-108	-27
-58	-89	-25
-40	-57	-24
-15	-17	-26
12	21	-26
36	57	-23
53	85	-23
64	99	-22
65	101	-23
57	88	-21
40	61	-24
17	25	-21
-8	-14	-22
-33	-52	-22
-54	-86	-22
-68	-106	-23
-74	-112	-24
-66	-101	-25
-53	-78	-25
-30	-43	-25
-4	-3	-25
21	35	-25
44	68	-23
60	93	-24
66	105	-23
63	102	-20
51	85	-23
33	55	-24
10	16	-21
-16	-25	-21
-40	-64	-23
-59	-93	-20
-70	-110	-24
-70	-111	-25
-61	-96	-25
-44	-68	-23
-21	-31	-24
5	8	-24
29	46	-21
50	77	-24
63	97	-22
68	103	-23
64	93	-21
50	71	-22
29	37	-20
4	-1	-20
-23	-40	-21
-47	-76	-21
-64	-99	-24
-72	-110	-24
-71	-106	-24
-59	-87	-24
-39	-56	-24
-14	-19	-23
12	21	-22
36	57	-22
54	85	-21
65	102	-21
66	102	-21
57	89	-22
40	62	-19
16	27	-17
-10	-13	-17
-35	-53	-19
-55	-87	-20
-68	-108	-23
-75	-113	-25
-68	-104	-25
-54	-79	-28
-32	-43	-26
-6	-3	-25
19	36	-23
42	69	-20
58	93	-23
66	103	-22
64	100	-19
53	83	-20
34	52	-19
12	15	-20
-14	-27	-20
-38	-66	-21
-57	-97	-24
-68	-113	-25
-70	-112	-27
-62	-97	-25
-45	-68	-23
-22	-31	-24
5	9	-24
29	46	-23
49	77	-21
63	97	-21
66	103	-20
61	96	-18
46	74	-20
26	40	-19
0	0	-20
-24	-40	-21
-48	-76	-21
-65	-99	-19
-74	-110	-23
-71	-106	-25
-59	-87	-25
-40	-56	-29
-16	-19	-25
11	21	-25
33	58	-26
52	87	-23
63	103	-23
65	104	-21
57	90	-20
40	62	-21
18	26	-22
-7	-15	-22
-33	-53	-22
-55	-86	-23
-68	-107	-23
-74	-112	-24
-65	-105	-23
-51	-80	-24
-30	-47	-23
-5	-7	-23
20	32	-23
44	66	-24
60	92	-22
68	103	-21
65	99	-20
54	79	-20
35	48	-21
11	10	-19
-15	-30	-20
-39	-66	-21
-56	-95	-21
-69	-110	-22
-70	-110	-24
-63	-94	-25
-47	-66	-24
-24	-31	-24
3	10	-23
29	48	-24
50	79	-23
63	99	-23
67	106	-21
61	96	-18
47	74	-20
27	40	-18
3	-1	-19
-23	-41	-18
-46	-77	-17
-63	-100	-17
-72	-111	-20
-71	-106	-23
-60	-87	-24
-39	-56	-24
-14	-18	-23
13	22	-22
37	60	-23
55	88	-23
65	104	-22
66	105	-20
58	91	-21
41	63	-21
19	27	-21
-6	-14	-20
-32	-53	-21
-54	-86	-23
-68	-106	-23
-72	-113	-25
-66	-102	-25
-51	-80	-27
-29	-45	-25
-4	-6	-25
22	34	-26
44	68	-25
60	90	-25
67	101	-24
64	97	-21
53	79	-19
33	48	-22
9	12	-20
-16	-27	-21
-41	-64	-23
-60	-93	-23
-71	-110	-24
-72	-110	-24
-64	-97	-25
-47	-69	-25
-24	-32	-27
4	6	-27
30	44	-23
49	76	-24
62	97	-24
66	103	-22
61	96	-21
46	74	-21
27	39	-19
2	-1	-18
-23	-42	-20
-47	-77	-19
-64	-101	-23
-72	-111	-24
-70	-106	-24
-58	-87	-24
-38	-54	-22
-13	-18	-24
14	22	-23
36	57	-22
56	86	-21
65	101	-20
65	103	-21
56	91	-21
40	63	-22
17	28	-22
-9	-15	-21
-33	-53	-22
-54	-87	-24
-68	-109	-26
-71	-113	-25
-65	-104	-26
-52	-79	-26
-28	-44	-25
-3	-5	-25
22	33	-22
44	66	-24
59	90	-21
66	101	-20
64	98	-19
52	80	-16
33	49	-16
10	12	-18
-15	-29	-19
-40	-65	-21
-59	-96	-21
-71	-109	-22
-72	-110	-23
-63	-94	-25
-46	-65	-26
-23	-31	-26
4	10	-25
29	47	-24
48	80	-25
62	99	-24
66	104	-23
60	96	-22
46	72	-20
26	39	-21
1	-1	-20
-26	-40	-22
-48	-76	-23
-65	-101	-22
-72	-111	-25
-70	-107	-25
-58	-88	-24
-37	-55	-24
-13	-16	-25
14	23	-25
37	58	-24
57	85	-23
67	100	-22
68	101	-19
58	88	-21
41	62	-23
19	27	-20
-7	-13	-21
-32	-51	-22
-53	-86	-21
-68	-105	-21
-74	-111	-24
-68	-101	-24
-54	-77	-24
-32	-42	-25
-5	-3	-23
22	35	-23
44	70	-22
61	94	-22
68	106	-20
65	101	-21
54	83	-20
34	51	-23
10	11	-21
-14	-30	-21
-39	-69	-22
-58	-97	-22
-69	-112	-23
-71	-112	-24
-63	-96	-23
-46	-68	-22
-22	-31	-24
3	8	-25
29	47	-23
49	78	-22
63	98	-21
67	105	-21
62	96	-19
48	72	-20
27	39	-22
2	0	-22
-26	-41	-23
-48	-77	-23
-65	-102	-25
-72	-113	-27
-71	-108	-27
-60	-89	-26
-39	-57	-25
-15	-19	-25
13	21	-25
37	58	-22
56	85	-21
66	101	-21
67	102	-20
57	89	-20
40	62	-20
18	25	-18
-6	-14	-19
-30	-53	-20
-51	-87	-19
-65	-108	-21
-70	-112	-22
-66	-102	-24
-51	-78	-24
-30	-43	-24
-4	-4	-23
21	35	-20
44	68	-21
60	94	-22
67	105	-20
65	101	-21
54	82	-19
36	50	-19
11	12	-17
-14	-29	-19
-39	-66	-21
-57	-95	-22
-69	-111	-25
-70	-109	-22
-61	-95	-24
-45	-64	-24
-22	-29	-25
4	12	-25
29	50	-24
51	80	-26
64	99	-24
67	105	-21
62	96	-21
46	71	-21
26	38	-21
0	-1	-18
-26	-42	-19
-47	-77	-23
-64	-102	-24
-72	-112	-25
-71	-108	-27
-59	-88	-28
-39	-55	-25
-15	-17	-27
13	24	-28
38	60	-24
55	88	-24
64	102	-24
64	102	-23
56	88	-22
37	59	-23
17	25	-19
-8	-16	-18
-32	-54	-20
-54	-86	-21
-68	-106	-24
-75	-111	-23
-69	-102	-24
-54	-78	-26
-32	-44	-26
-6	-5	-24
21	34	-21
44	67	-23
59	91	-21
68	102	-21
65	99	-21
52	81	-22
34	51	-22
10	13	-23
-16	-28	-20
-40	-64	-22
-58	-95	-23
-71	-110	-22
-71	-111	-24
-62	-95	-24
-46	-66	-24
-21	-29	-23
5	12	-25
29	48	-22
49	81	-23
62	98	-22
65	104	-18
60	95	-20
46	71	-17
27	38	-18
2	0	-18
-25	-40	-17
-48	-77	-20
-65	-101	-21
-75	-114	-23
-71	-108	-24
-58	-89	-25
-38	-57	-25
-12	-17	-23
14	23	-22
38	59	-23
55	87	-23
64	101	-22
65	101	-21
57	86	-21
40	60	-21
18	24	-20
-8	-14	-19
-33	-53	-21
-55	-87	-22
-69	-106	-23
-75	-112	-25
-68	-102	-24
-53	-78	-23
-31	-42	-24
-5	-2	-23
21	38	-23
44	71	-23
60	93	-21
67	104	-21
65	97	-20
53	80	-22
34	48	-19
9	10	-19
-15	-29	-18
-40	-67	-22
-57	-96	-23
-67	-111	-23
-69	-111	-27
-61	-95	-25
-44	-65	-27
-21	-29	-25
5	10	-24
29	48	-25
50	78	-24
64	98	-23
67	104	-24
61	94	-23
46	71	-24
25	35	-24
0	-2	-23
-26	-43	-23
-47	-79	-24
-64	-102	-25
-72	-113	-25
-69	-106	-25
-58	-86	-25
-37	-53	-27
-12	-15	-27
15	26	-23
38	62	-23
55	89	-23
64	103	-22
64	103	-18
56	88	-19
39	60	-19
16	25	-18
-10	-17	-20
-34	-56	-19
-55	-89	-21
-69	-109	-20
-74	-113	-20
-68	-103	-23
-53	-78	-25
-30	-43	-25
-3	-2	-27
22	37	-26
44	71	-24
59	95	-22
66	105	-21
63	103	-20
52	82	-19
34	51	-19
10	12	-18
-16	-31	-20
-40	-67	-18
-59	-97	-19
-69	-111	-22
-71	-111	-23
-62	-96	-24
-44	-68	-26
-21	-32	-25
5	8	-25
30	45	-22
49	77	-22
62	97	-23
66	104	-20
59	96	-20
45	71	-20
24	38	-18
0	-2	-18
-26	-41	-19
-48	-78	-21
-63	-101	-24
-71	-110	-25
-70	-105	-27
-58	-85	-24
-38	-54	-26
-14	-16	-25
13	23	-22
36	58	-26
55	86	-23
65	100	-21
65	102	-21
56	88	-19
39	60	-21
16	24	-22
-10	-16	-23
-34	-55	-22
-55	-90	-21
-68	-108	-22
-71	-114	-24
-66	-102	-23
-51	-78	-25
-28	-42	-24
-2	-2	-23
23	36	-23
44	70	-21
60	93	-23
67	105	-19
65	102	-19
54	85	-21
36	55	-20
12	16	-21
-14	-25	-22
-38	-64	-20
-57	-94	-22
-68	-109	-25
-69	-109	-26
-60	-93	-25
-44	-65	-25
-21	-28	-24
6	10	-22
31	47	-20
51	79	-22
63	96	-20
67	101	-21
60	92	-21
45	69	-18
24	35	-19
0	-3	-19
-26	-43	-21
-49	-79	-22
-65	-102	-23
-74	-114	-24
-71	-107	-23
-60	-87	-24
-40	-54	-22
-16	-16	-24
11	23	-23
35	60	-21
55	86	-23
64	102	-22
64	101	-21
56	87	-23
39	60	-22
16	23	-22
-10	-16	-21
-32	-56	-24
-52	-88	-24
-67	-108	-24
-69	-113	-26
-64	-102	-27
-49	-79	-28
-27	-44	-25
0	-4	-23
25	35	-23
48	67	-21
62	92	-21
67	102	-21
63	98	-22
51	80	-23
31	48	-22
8	9	-20
-17	-32	-22
-40	-69	-21
-58	-98	-21
-68	-113	-26
-70	-111	-25
-62	-96	-25
-44	-66	-24
-20	-29	-24
6	10	-25
31	47	-23
52	78	-22
63	99	-23
68	103	-23
61	96	-21
46	74	-23
26	39	-22
0	0	-23
-26	-43	-19
-48	-77	-22
-64	-102	-25
-72	-110	-24
-70	-105	-24
-58	-84	-24
-38	-52	-25
-14	-14	-26
13	26	-24
36	60	-23
54	89	-24
64	103	-23
65	103	-21
56	89	-21
38	60	-19
15	25	-16
-12	-17	-16
-35	-54	-16
-56	-88	-19
-69	-107	-19
-72	-113	-21
-67	-102	-21
-51	-78	-22
-30	-42	-20
-3	-1	-22
24	38	-22
45	71	-21
61	95	-21
67	104	-21
64	100	-21
51	80	-20
32	49	-20
8	11	-20
-18	-29	-21
-41	-65	-21
-60	-96	-24
-69	-111	-24
-72	-111	-24
-61	-94	-25
-45	-65	-24
-20	-29	-25
8	11	-24
32	48	-23
52	79	-21
64	96	-23
67	101	-23
60	93	-23
46	68	-21
25	38	-18
1	-1	-20
-25	-40	-22
-48	-77	-23
-65	-102	-24
-75	-112	-24
-70	-106	-26
-58	-86	-27
-37	-53	-26
-12	-13	-27
14	26	-26
39	63	-25
56	90	-23
66	104	-22
67	105	-23
57	89	-22
40	61	-22
17	23	-18
-9	-17	-17
-34	-57	-18
-55	-89	-21
-68	-108	-22
-72	-113	-21
-67	-100	-22
-52	-76	-24
-31	-40	-26
-4	-2	-24
23	35	-24
44	67	-24
61	90	-23
66	101	-24
64	96	-19
52	79	-20
32	48	-20
8	12	-18
-18	-30	-19
-42	-66	-20
-61	-95	-21
-71	-109	-24
-72	-108	-26
-63	-92	-27
-44	-63	-27
-20	-26	-25
6	12	-26
30	48	-24
50	80	-21
62	99	-22
66	104	-22
60	95	-20
46	71	-19
28	35	-18
2	-3	-17
-23	-44	-19
-46	-78	-21
-63	-103	-20
-70	-112	-22
-68	-107	-25
-57	-89	-24
-37	-56	-26
-12	-18	-27
14	23	-24
38	57	-23
57	86	-23
65	103	-20
66	102	-20
56	88	-21
38	59	-21
16	23	-21
-10	-17	-22
-34	-56	-21
-53	-89	-23
-68	-109	-25
-72	-113	-30
-68	-103	-28
-52	-78	-24
-30	-42	-25
-4	-2	-24
23	37	-23
44	69	-22
60	93	-20
66	104	-18
62	99	-19
49	81	-20
29	50	-20
6	12	-17
-20	-30	-18
-43	-67	-22
-61	-96	-23
-71	-110	-23
-72	-109	-25
-62	-94	-24
-44	-62	-24
-21	-27	-27
6	13	-24
29	50	-23
50	83	-24
63	102	-21
66	109	-21
60	98	-21
46	75	-22
24	39	-21
0	-2	-18
-26	-43	-21
-48	-80	-21
-63	-103	-24
-72	-113	-25
-68	-107	-23
-58	-86	-25
-37	-53	-24
-12	-15	-24
15	24	-21
40	60	-20
57	88	-21
67	101	-21
65	103	-21
56	87	-21
39	60	-21
17	23	-21
-7	-17	-20
-32	-57	-23
-53	-90	-22
-68	-109	-23
-72	-113	-25
-67	-102	-24
-52	-77	-23
-28	-41	-24
-2	-2	-25
24	36	-24
46	70	-24
61	93	-24
66	103	-23
63	99	-22
51	79	-21
31	48	-22
7	9	-20
-20	-31	-19
-43	-69	-22
-62	-98	-20
-71	-112	-23
-72	-112	-26
-62	-95	-25
-45	-65	-25
-21	-28	-23
5	12	-22
31	49	-20
52	81	-23
64	99	-24
67	105	-21
61	95	-21
46	74	-21
25	38	-21
0	-1	-18
-26	-42	-20
-49	-79	-24
-64	-103	-23
-72	-114	-25
-69	-107	-26
-57	-88	-24
-38	-54	-26
-12	-16	-24
15	24	-24
39	61	-24
57	89	-22
67	105	-22
67	103	-22
58	89	-20
40	61	-18
17	23	-20
-10	-18	-20
-34	-57	-19
-54	-90	-19
-68	-110	-22
-71	-114	-25
-65	-103	-26
-51	-81	-25
-28	-44	-25
-2	-4	-26
24	36	-24
46	68	-23
60	93	-23
67	104	-21
64	98	-22
52	80	-21
33	48	-19
8	11	-19
-18	-30	-19
-42	-66	-20
-60	-95	-23
-71	-111	-24
-70	-109	-23
-62	-93	-25
-45	-62	-23
-22	-25	-23
4	15	-24
30	52	-22
50	82	-24
63	100	-25
67	103	-24
60	93	-22
42	68	-21
22	34	-19
-3	-5	-17
-29	-45	-18
-51	-79	-21
-67	-102	-24
-75	-111	-22
-71	-105	-24
-58	-84	-25
-38	-52	-23
-12	-14	-23
16	26	-24
39	60	-22
57	88	-20
66	101	-21
66	102	-20
55	88	-21
39	60	-21
16	24	-19
-10	-16	-21
-35	-54	-23
-55	-89	-24
-70	-108	-25
-75	-113	-25
-66	-103	-26
-51	-77	-26
-27	-41	-25
-2	0	-23
24	38	-21
45	70	-21
59	93	-20
66	103	-19
63	98	-19
52	80	-19
33	49	-19
9	11	-19
-17	-29	-21
-40	-68	-22
-58	-98	-24
-68	-111	-24
-68	-112	-25
-59	-94	-26
-40	-64	-27
-18	-27	-26
8	12	-25
31	49	-25
50	80	-24
62	98	-21
66	104	-20
60	94	-19
44	69	-20
24	35	-21
-1	-6	-17
-27	-47	-21
-50	-83	-21
-65	-105	-22
-71	-113	-24
-69	-106	-24
-56	-84	-25
-36	-52	-25
-11	-15	-26
15	24	-25
39	59	-23
56	86	-23
66	102	-23
67	103	-22
57	88	-21
39	60	-20
16	22	-20
-10	-19	-21
-35	-58	-21
-55	-90	-20
-68	-107	-23
-71	-112	-24
-66	-100	-25
-50	-76	-24
-27	-39	-26
-1	0	-25
25	39	-23
46	72	-23
60	94	-23
67	105	-21
63	99	-19
52	80	-19
33	48	-19
8	10	-20
-17	-31	-20
-41	-69	-22
-60	-96	-23
-71	-111	-24
-72	-110	-25
-63	-94	-26
-44	-64	-26
-20	-27	-24
6	12	-23
31	51	-23
50	80	-24
63	98	-23
65	102	-23
58	92	-22
44	68	-23
22	34	-22
-3	-4	-20
-28	-45	-19
-50	-79	-20
-66	-102	-21
-72	-111	-24
-69	-105	-25
-56	-85	-24
-36	-51	-25
-11	-13	-24
15	27	-23
39	62	-21
56	89	-21
65	102	-22
65	100	-21
55	85	-20
38	57	-19
14	21	-19
-11	-20	-18
-36	-58	-18
-56	-90	-20
-69	-108	-21
-72	-111	-23
-65	-100	-23
-50	-74	-24
-28	-39	-24
-2	0	-24
24	40	-22
44	71	-21
59	95	-21
66	104	-21
62	99	-21
52	81	-20
32	48	-19
7	10	-19
-18	-32	-22
-41	-69	-24
-60	-98	-25
-70	-111	-27
-70	-110	-27
-61	-94	-27
-42	-64	-25
-18	-28	-26
8	13	-25
32	50	-25
52	82	-25
64	101	-24
68	105	-20
62	95	-18
47	70	-20
27	36	-20
0	-5	-19
-26	-44	-19
-48	-79	-21
-63	-103	-23
-71	-112	-21
-67	-107	-22
-54	-85	-22
-33	-53	-23
-8	-15	-25
16	26	-24
39	62	-23
56	89	-23
64	103	-21
64	104	-21
54	89	-20
36	62	-20
14	25	-21
-12	-16	-21
-36	-56	-22
-57	-91	-22
-69	-110	-25
-76	-115	-27
-68	-102	-27
-53	-76	-27
-30	-40	-27
-3	-1	-26
23	37	-24
46	70	-22
60	92	-23
66	103	-24
62	98	-20
51	79	-20
32	49	-21
9	8	-19
-16	-31	-21
-40	-69	-23
-59	-98	-24
-69	-111	-24
-69	-109	-25
-60	-92	-26
-41	-64	-25
-18	-27	-24
10	13	-22
34	50	-21
52	81	-18
65	99	-21
67	104	-22
59	92	-20
44	68	-21
23	32	-19
-3	-6	-19
-28	-45	-20
-50	-80	-23
-65	-102	-24
-72	-111	-24
-68	-104	-24
-55	-85	-24
-34	-52	-25
-10	-13	-22
18	26	-21
40	61	-22
56	88	-23
64	103	-24
64	101	-20
54	86	-21
36	59	-19
13	22	-18
-12	-17	-19
-36	-57	-21
-57	-89	-23
-70	-107	-24
-74	-111	-24
-66	-99	-26
-50	-75	-25
-26	-39	-26
1	0	-24
25	39	-24
46	71	-24
60	95	-25
66	105	-23
62	99	-19
49	80	-18
29	48	-17
5	11	-18
-20	-32	-19
-44	-69	-20
-61	-98	-21
-72	-113	-23
-71	-110	-23
-61	-94	-25
-43	-62	-26
-20	-25	-23
7	15	-25
32	51	-24
52	82	-24
65	100	-23
67	104	-20
62	96	-22
44	69	-21
24	36	-18
-1	-4	-18
-26	-47	-22
-48	-81	-23
-66	-105	-24
-72	-113	-23
-69	-108	-23
-55	-86	-23
-36	-52	-25
-10	-15	-25
18	26	-25
41	61	-23
58	88	-23
67	101	-23
67	101	-20
58	86	-18
40	58	-19
18	23	-20
-8	-19	-20
-33	-56	-22
-55	-88	-24
-68	-107	-25
-75	-111	-25
-67	-100	-25
-52	-74	-22
-29	-39	-24
-2	0	-26
24	38	-23
46	70	-21
60	92	-21
67	100	-20
62	96	-20
49	77	-19
29	47	-18
5	9	-20
-20	-32	-20
-44	-69	-20
-60	-99	-21
-70	-113	-22
-71	-111	-23
-63	-94	-24
-46	-63	-24
-21	-26	-23
5	15	-24
30	49	-23
50	80	-23
63	96	-23
65	101	-20
59	90	-21
44	66	-21
23	34	-18
-1	-6	-18
-27	-44	-19
-48	-81	-21
-64	-103	-23
-71	-111	-24
-69	-105	-26
-56	-82	-25
-36	-50	-27
-12	-12	-25
16	26	-23
39	61	-23
56	87	-21
65	103	-22
64	104	-21
54	89	-21
36	60	-22
14	22	-20
-11	-20	-20
-35	-59	-23
-55	-91	-21
-68	-109	-22
-72	-113	-23
-65	-100	-23
-50	-76	-25
-28	-39	-23
0	-1	-25
25	37	-23
46	71	-22
61	93	-24
66	103	-24
62	99	-22
50	80	-23
30	46	-24
7	8	-21
-18	-33	-21
-42	-70	-21
-59	-98	-24
-70	-112	-25
-71	-109	-25
-62	-94	-25
-44	-63	-24
-20	-25	-24
8	14	-23
33	51	-21
52	81	-21
64	99	-20
66	103	-20
59	93	-21
44	68	-20
22	34	-19
-3	-4	-20
-28	-43	-20
-49	-78	-23
-64	-101	-24
-71	-111	-25
-68	-103	-27
-54	-83	-25
-34	-49	-25
-8	-12	-28
17	28	-26
40	62	-24
58	88	-23
66	103	-20
65	102	-20
55	88	-20
36	59	-19
15	22	-17
-12	-19	-19
-36	-59	-20
-56	-90	-23
-68	-109	-26
-72	-112	-25
-65	-101	-27
-50	-76	-27
-28	-39	-28
-1	-1	-29
23	38	-24
44	70	-22
58	93	-20
65	102	-20
62	97	-21
49	78	-20
31	45	-21
7	7	-21
-20	-36	-21
-44	-71	-23
-63	-100	-24
-72	-113	-25
-72	-109	-25
-61	-93	-26
-44	-62	-25
-20	-25	-26
6	15	-24
32	51	-22
52	83	-20
64	101	-20
68	104	-23
59	94	-22
44	69	-19
20	35	-18
-4	-6	-19
-30	-47	-21
-49	-83	-23
-65	-105	-24
-71	-112	-24
-67	-105	-24
-55	-82	-24
-35	-50	-24
-11	-11	-25
17	28	-24
40	62	-24
58	89	-23
66	102	-21
66	102	-23
57	86	-20
39	58	-20
16	21	-18
-10	-21	-19
-34	-59	-19
-55	-92	-19
-68	-110	-21
-71	-113	-21
-65	-100	-25
-49	-74	-26
-27	-37	-26
0	2	-25
24	40	-23
46	72	-23
60	94	-23
66	103	-21
63	99	-20
50	79	-21
32	48	-18
7	8	-18
-18	-32	-18
-42	-71	-20
-60	-100	-22
-70	-113	-24
-69	-111	-24
-59	-94	-23
-40	-63	-24
-17	-24	-24
8	15	-26
33	52	-26
52	83	-24
64	100	-22
67	104	-19
60	93	-20
46	68	-19
24	34	-19
-2	-6	-19
-29	-45	-20
-52	-81	-19
-67	-104	-22
-75	-113	-22
-70	-105	-24
-58	-85	-26
-36	-50	-26
-10	-12	-28
16	28	-25
39	63	-22
56	89	-25
65	103	-23
63	101	-22
54	85	-21
36	57	-20
14	18	-19
-11	-22	-19
-36	-61	-19
-56	-92	-20
-69	-111	-21
-74	-114	-23
-66	-101	-26
-50	-75	-23
-27	-38	-23
1	1	-24
26	40	-24
48	71	-24
62	95	-22
66	103	-22
63	97	-23
49	77	-20
30	44	-20
5	8	-18
-20	-32	-19
-43	-68	-20
-59	-95	-21
-69	-109	-23
-70	-107	-23
-60	-92	-23
-43	-59	-23
-20	-23	-21
7	17	-23
31	55	-20
51	84	-20
63	101	-21
66	103	-20
59	93	-22
44	67	-20
22	34	-19
-2	-6	-20
-29	-47	-23
-51	-81	-23
-66	-105	-25
-74	-113	-25
-69	-107	-26
-57	-85	-27
-35	-50	-26
-10	-12	-28
16	28	-26
40	63	-23
58	90	-23
67	103	-23
65	102	-23
57	87	-21
37	56	-21
14	20	-19
-12	-23	-18
-36	-60	-19
-56	-93	-20
-68	-111	-21
-70	-114	-23
-64	-102	-24
-47	-75	-25
-25	-40	-27
2	1	-28
27	41	-25
49	74	-23
63	96	-22
68	103	-22
64	97	-23
51	76	-24
30	44	-23
6	5	-20
-20	-33	-19
-43	-69	-21
-61	-98	-23
-71	-110	-21
-71	-108	-22
-61	-91	-21
-44	-60	-23
-20	-24	-23
6	15	-22
30	51	-21
50	81	-20
62	98	-21
65	104	-20
59	94	-19
42	71	-19
20	36	-19
-4	-4	-19
-31	-45	-20
-52	-81	-23
-68	-104	-23
-75	-113	-24
-68	-105	-25
-56	-82	-24
-35	-49	-25
-10	-11	-26
18	28	-23
42	64	-26
59	89	-24
69	102	-22
67	102	-22
56	85	-20
38	58	-23
14	19	-19
-12	-21	-21
-36	-60	-21
-55	-92	-19
-69	-110	-26
-71	-113	-25
-65	-99	-25
-48	-72	-24
-27	-37	-26
1	2	-26
25	40	-22
46	71	-24
60	93	-22
66	103	-21
61	97	-21
48	77	-19
30	44	-19
5	5	-18
-20	-36	-20
-43	-74	-21
-61	-100	-22
-70	-112	-25
-70	-109	-24
-60	-92	-24
-41	-61	-28
-17	-25	-28
10	15	-27
35	51	-25
54	81	-24
65	100	-24
67	104	-23
59	93	-22
42	68	-21
21	32	-20
-4	-8	-20
-29	-48	-23
-51	-81	-23
-66	-103	-24
-72	-111	-22
-68	-103	-23
-56	-83	-24
-35	-48	-22
-10	-11	-23
17	30	-22
40	64	-21
57	90	-20
66	104	-20
63	103	-17
54	87	-18
37	57	-19
15	21	-20
-12	-20	-22
-37	-58	-21
-57	-89	-21
-69	-108	-20
-75	-111	-22
-67	-99	-24
-51	-72	-24
-28	-37	-25
-2	2	-24
24	40	-24
46	72	-24
61	96	-24
67	104	-22
63	96	-21
49	76	-20
29	43	-18
4	6	-20
-22	-36	-19
-45	-70	-21
-62	-99	-25
-70	-111	-24
-69	-109	-25
-58	-93	-25
-40	-63	-25
-15	-27	-26
12	15	-22
36	51	-21
54	83	-21
66	100	-23
68	101	-23
59	90	-20
44	64	-19
21	31	-19
-4	-9	-22
-29	-47	-23
-51	-80	-23
-65	-103	-26
-71	-112	-27
-67	-106	-26
-54	-83	-26
-33	-49	-27
-8	-9	-25
18	31	-25
42	64	-24
58	90	-24
68	101	-25
65	99	-22
56	84	-21
37	55	-19
14	19	-18
-12	-23	-20
-36	-60	-22
-56	-92	-22
-69	-109	-21
-72	-113	-23
-65	-100	-24
-48	-72	-25
-25	-37	-26
0	3	-22
25	41	-23
44	75	-24
59	97	-22
64	105	-21
60	100	-21
48	79	-21
29	46	-21
7	7	-19
-19	-34	-20
-42	-70	-19
-61	-97	-21
-70	-110	-22
-70	-107	-22
-61	-89	-24
-42	-59	-23
-18	-21	-24
9	18	-24
33	55	-19
52	84	-20
63	100	-21
64	103	-18
57	91	-18
41	67	-20
20	32	-21
-4	-6	-21
-29	-46	-21
-50	-82	-21
-65	-105	-21
-72	-114	-21
-68	-105	-25
-55	-84	-26
-35	-50	-24
-10	-11	-24
16	27	-25
40	62	-26
56	88	-24
65	102	-24
63	100	-26
53	85	-26
36	57	-24
13	19	-21
-11	-21	-22
-35	-60	-20
-54	-91	-22
-67	-110	-23
-70	-113	-24
-64	-101	-27
-47	-75	-24
-26	-38	-24
-1	2	-24
25	40	-20
45	72	-21
60	97	-22
64	104	-20
60	98	-20
46	77	-21
27	44	-18
3	6	-19
-23	-35	-19
-46	-70	-20
-63	-98	-23
-72	-111	-23
-71	-107	-24
-61	-91	-22
-42	-60	-25
-18	-24	-26
8	16	-23
33	53	-23
53	83	-21
64	100	-20
66	103	-19
59	92	-18
42	67	-21
21	32	-18
-5	-8	-19
-30	-49	-21
-51	-82	-22
-67	-105	-23
-72	-112	-22
-69	-105	-26
-55	-82	-24
-34	-48	-24
-8	-11	-25
18	29	-24
40	63	-25
57	89	-23
65	101	-21
63	100	-21
52	85	-18
35	55	-19
11	18	-18
-13	-23	-19
-37	-61	-21
-57	-93	-21
-69	-110	-23
-70	-112	-27
-63	-100	-26
-47	-71	-26
-24	-36	-29
2	5	-28
27	43	-27
46	76	-26
60	98	-24
66	105	-25
62	99	-23
51	77	-23
32	44	-22
7	3	-21
-20	-37	-22
-44	-75	-23
-62	-102	-24
-71	-113	-23
-69	-109	-24
-58	-90	-26
-39	-58	-25
-15	-21	-23
11	20	-24
35	54	-24
52	83	-24
63	100	-21
67	104	-18
61	93	-17
44	69	-20
24	34	-19
-4	-8	-20
-29	-48	-22
-52	-84	-21
-67	-106	-23
-75	-114	-25
-68	-105	-24
-54	-83	-24
-34	-50	-24
-8	-11	-23
18	27	-24
40	63	-22
58	89	-22
67	103	-20
66	102	-19
55	85	-20
37	56	-20
13	17	-19
-13	-23	-19
-37	-62	-19
-57	-92	-18
-68	-109	-22
-71	-112	-25
-63	-99	-25
-49	-72	-24
-26	-37	-25
1	3	-23
27	43	-21
48	76	-23
62	96	-23
67	104	-22
61	96	-23
48	75	-20
28	41	-19
4	4	-19
-23	-35	-18
-46	-72	-21
-63	-98	-21
-71	-112	-26
-70	-109	-25
-59	-92	-20
-40	-61	-24
-16	-23	-24
10	17	-23
33	53	-23
52	83	-22
63	100	-20
65	103	-18
59	92	-19
42	67	-19
22	31	-18
-4	-8	-18
-30	-49	-18
-51	-83	-20
-66	-104	-23
-71	-112	-25
-68	-103	-25
-54	-81	-24
-34	-46	-25
-7	-8	-24
18	31	-23
41	65	-22
58	89	-23
66	102	-21
66	99	-21
54	83	-20
36	54	-20
13	17	-20
-13	-23	-20
-38	-60	-21
-57	-91	-20
-69	-108	-24
-71	-110	-23
-64	-98	-25
-48	-69	-26
-24	-35	-23
1	3	-26
27	41	-23
48	74	-25
62	96	-22
67	104	-22
62	97	-23
49	76	-19
28	41	-21
3	2	-20
-23	-38	-22
-45	-74	-23
-64	-100	-23
-74	-111	-25
-72	-107	-26
-62	-89	-27
-42	-58	-25
-18	-22	-27
9	17	-22
34	52	-22
54	83	-22
66	99	-20
67	103	-21
60	92	-18
44	65	-20
23	32	-19
-3	-8	-19
-28	-47	-21
-50	-82	-22
-65	-105	-23
-71	-111	-25
-68	-104	-25
-54	-81	-24
-34	-47	-22
-7	-8	-24
18	30	-25
42	63	-23
58	90	-25
67	103	-24
67	101	-23
55	85	-22
38	56	-20
13	19	-20
-12	-23	-20
-37	-61	-21
-57	-93	-21
-68	-110	-24
-71	-112	-23
-64	-98	-24
-49	-71	-25
-26	-36	-25
0	4	-24
25	42	-23
46	76	-22
61	97	-20
65	105	-22
60	99	-20
47	76	-21
28	43	-21
4	3	-20
-22	-36	-22
-44	-72	-23
-61	-98	-26
-71	-110	-27
-71	-108	-25
-61	-90	-24
-41	-60	-23
-16	-23	-21
10	17	-24
35	54	-24
54	84	-22
66	100	-21
68	103	-21
60	90	-23
44	65	-20
22	29	-21
-4	-11	-20
-30	-49	-22
-51	-84	-23
-66	-105	-22
-72	-112	-25
-68	-103	-24
-55	-81	-25
-34	-45	-24
-8	-6	-25
18	32	-21
41	67	-21
58	90	-22
66	103	-20
64	100	-20
53	83	-19
35	54	-21
11	16	-17
-14	-24	-20
-38	-63	-21
-57	-94	-20
-69	-111	-24
-72	-112	-25
-64	-98	-27
-47	-69	-25
-22	-32	-27
4	7	-27
29	45	-25
51	77	-27
63	97	-25
68	105	-23
63	97	-19
49	76	-20
29	41	-21
4	3	-21
-22	-39	-20
-44	-75	-20
-62	-101	-21
-72	-113	-23
-69	-110	-25
-61	-91	-24
-42	-58	-24
-17	-21	-25
10	19	-23
34	56	-24
52	84	-23
64	100	-21
65	102	-21
58	91	-20
41	63	-21
20	30	-19
-6	-11	-20
-31	-51	-21
-52	-85	-21
-67	-107	-24
-72	-113	-24
-68	-105	-27
-54	-82	-26
-35	-47	-25
-10	-8	-24
17	31	-27
39	64	-25
56	90	-21
65	101	-23
63	100	-19
52	84	-21
34	53	-21
11	17	-19
-16	-23	-19
-39	-60	-20
-58	-91	-22
-70	-108	-23
-72	-109	-23
-64	-96	-24
-48	-67	-24
-24	-34	-26
3	7	-25
28	44	-22
50	76	-20
65	97	-21
69	103	-20
64	95	-21
50	74	-19
28	40	-18
3	1	-18
-22	-39	-20
-46	-74	-24
-62	-101	-23
-71	-111	-25
-70	-108	-26
-60	-88	-24
-40	-56	-25
-16	-19	-25
10	20	-24
35	55	-23
54	84	-22
65	100	-23
67	102	-21
58	90	-21
41	65	-20
18	30	-22
-7	-11	-21
-33	-49	-24
-53	-85	-24
-68	-105	-24
-74	-112	-25
-69	-104	-24
-55	-81	-25
-33	-48	-24
-7	-9	-24
20	29	-24
44	65	-21
60	91	-21
66	104	-19
64	100	-20
53	83	-21
36	53	-20
13	14	-19
-13	-26	-20
-36	-64	-22
-57	-95	-23
-69	-111	-24
-71	-113	-24
-63	-98	-25
-46	-70	-26
-23	-33	-28
4	7	-28
28	45	-24
48	77	-21
61	97	-24
66	104	-23
62	96	-21
49	76	-21
30	43	-19
4	4	-19
-23	-35	-20
-46	-72	-20
-64	-99	-20
-72	-111	-23
-70	-107	-23
-59	-89	-21
-40	-57	-23
-15	-19	-22
10	19	-21
34	55	-20
52	83	-21
64	100	-22
66	102	-21
58	89	-19
41	62	-22
19	25	-21
-6	-14	-20
-32	-54	-20
-52	-86	-21
-66	-106	-23
-71	-112	-24
-66	-102	-25
-53	-80	-25
-32	-46	-26
-7	-7	-26
20	32	-26
42	66	-25
60	92	-22
69	103	-24
67	100	-21
55	84	-21
34	53	-20
11	16	-18
-16	-23	-21
-40	-62	-19
-59	-92	-23
-70	-109	-24
-72	-109	-25
-65	-95	-26
-47	-69	-25
-24	-32	-24
2	6	-25
29	44	-25
51	76	-24
64	96	-22
69	102	-21
63	95	-19
49	74	-18
28	40	-19
2	1	-20
-23	-40	-23
-46	-76	-22
-63	-102	-25
-72	-112	-24
-71	-108	-24
-61	-90	-24
-42	-59	-20
-18	-21	-23
9	20	-22
35	55	-24
55	85	-23
66	101	-24
67	103	-25
58	91	-22
41	63	-22
17	28	-20
-8	-12	-20
-34	-51	-21
-55	-84	-22
-68	-104	-24
-75	-110	-24
-69	-102	-24
-54	-80	-25
-32	-45	-24
-6	-5	-26
21	34	-24
44	68	-23
60	93	-21
68	104	-20
66	101	-22
54	82	-21
34	51	-20
11	15	-18
-15	-27	-18
-40	-62	-19
-58	-95	-21
-69	-110	-24
-70	-113	-23
-62	-99	-24
-43	-71	-25
-21	-35	-27
5	6	-28
30	44	-25
50	78	-25
63	97	-22
67	104	-21
62	96	-20
48	74	-21
27	40	-20
2	1	-19
-23	-39	-21
-45	-76	-23
-62	-101	-23
-70	-113	-22
-69	-109	-24
-58	-90	-23
-39	-59	-21
-15	-20	-23
12	20	-23
36	57	-23
54	86	-22
64	101	-20
65	103	-19
57	89	-20
42	62	-23
19	27	-23
-6	-13	-22
-32	-51	-22
-54	-86	-22
-69	-106	-23
-75	-113	-24
-68	-103	-24
-54	-81	-24
-32	-46	-24
-6	-6	-24
20	33	-24
41	67	-25
58	91	-21
66	103	-20
63	100	-21
52	83	-18
34	54	-19
11	17	-19
-16	-23	-18
-40	-61	-21
-60	-91	-22
-71	-109	-24
-74	-109	-23
-65	-95	-23
-48	-67	-25
-24	-31	-24
3	8	-24
28	45	-26
49	77	-23
63	97	-23
67	104	-21
61	97	-20
46	75	-18
25	41	-18
1	1	-19
-23	-41	-21
-45	-77	-23
-61	-101	-22
-68	-112	-23
-68	-106	-24
-56	-87	-25
-38	-55	-24
-14	-18	-22
12	22	-24
37	58	-22
55	86	-21
65	102	-20
67	103	-21
58	90	-21
42	63	-18
19	27	-19
-6	-13	-20
-32	-54	-20
-53	-87	-21
-68	-109	-23
-75	-114	-25
-68	-104	-26
-53	-81	-27
-30	-46	-27
-4	-6	-25
22	32	-25
44	66	-25
60	90	-24
68	102	-23
65	99	-23
54	82	-21
35	50	-20
12	13	-23
-16	-28	-23
-40	-65	-23
-61	-95	-24
-72	-110	-25
-72	-108	-25
-65	-94	-27
-46	-64	-25
-23	-29	-23
4	11	-24
29	48	-23
50	80	-22
64	99	-22
66	104	-22
61	97	-20
46	74	-21
26	41	-19
1	1	-17
-24	-40	-19
-46	-76	-21
-62	-102	-21
-70	-111	-23
-69	-108	-24
-57	-88	-23
-38	-56	-24
-13	-20	-24
13	20	-24
37	55	-22
56	84	-22
65	100	-21
66	103	-22
58	89	-20
41	62	-22
18	27	-22
-8	-14	-20
-34	-52	-19
-54	-86	-19
-68	-105	-22
-75	-112	-24
-69	-103	-25
-55	-79	-25
-34	-45	-26
-7	-6	-26
19	32	-26
42	66	-26
59	91	-27
67	101	-25
64	99	-22
52	81	-21
34	51	-20
10	12	-19
-15	-28	-20
-39	-66	-21
-58	-96	-21
-70	-111	-24
-71	-112	-24
-63	-97	-23
-46	-69	-25
-23	-32	-25
4	7	-24
29	44	-22
49	77	-22
62	97	-21
66	104	-20
61	96	-19
48	75	-19
27	40	-17
2	-1	-18
-24	-41	-19
-47	-78	-20
-64	-102	-21
-72	-111	-22
-70	-106	-25
-58	-85	-25
-38	-54	-24
-12	-17	-25
14	21	-24
38	58	-24
57	86	-23
66	103	-21
67	105	-20
58	90	-19
40	64	-20
17	26	-19
-8	-14	-18
-32	-55	-20
-54	-87	-22
-66	-107	-24
-71	-112	-24
-65	-102	-24
-52	-79	-24
-30	-44	-26
-5	-5	-24
21	35	-24
44	69	-24
59	95	-23
67	105	-21
65	101	-21
53	83	-19
34	50	-21
10	14	-21
-15	-28	-21
-38	-65	-24
-57	-95	-24
-69	-112	-23
-72	-111	-23
-63	-97	-25
-46	-68	-25
-23	-32	-25
4	7	-22
30	45	-23
50	78	-24
63	98	-21
66	104	-19
61	96	-21
46	72	-24
27	38	-21
1	-2	-21
-24	-43	-22
-46	-78	-22
-64	-102	-24
-71	-111	-22
-69	-106	-23
-58	-87	-25
-38	-54	-24
-13	-16	-25
14	23	-23
37	58	-22
55	87	-22
65	103	-21
66	103	-21
56	91	-23
39	64	-23
16	28	-23
-10	-14	-23
-34	-52	-23
-55	-85	-25
-69	-107	-26
-75	-111	-24
-67	-103	-25
-54	-78	-23
-32	-43	-24
-6	-4	-25
19	35	-23
41	68	-23
57	93	-23
65	103	-19
63	99	-18
52	80	-19
33	49	-18
10	12	-19
-16	-29	-19
-40	-65	-20
-59	-94	-20
-71	-109	-21
-74	-110	-22
-64	-95	-23
-46	-67	-24
-23	-32	-23
5	8	-26
30	45	-23
49	77	-21
64	96	-21
66	103	-20
62	95	-23
48	70	-23
27	37	-23
2	-3	-21
-26	-43	-21
-49	-80	-23
-65	-104	-24
-74	-113	-25
-71	-108	-28
-58	-87	-28
-37	-55	-25
-13	-17	-23
14	22	-22
37	59	-21
54	86	-20
65	101	-20
66	104	-18
57	89	-18
40	62	-18
18	25	-20
-8	-16	-19
-32	-54	-19
-53	-88	-23
-67	-107	-23
-72	-113	-24
-66	-102	-25
-51	-79	-26
-29	-43	-26
-2	-3	-25
24	35	-26
46	70	-23
61	94	-24
68	105	-23
64	101	-20
53	81	-18
34	51	-20
12	13	-21
-13	-27	-18
-38	-66	-23
-57	-95	-25
-69	-111	-24
-70	-112	-24
-61	-97	-24
-43	-68	-23
-19	-30	-25
6	10	-26
31	48	-24
50	80	-24
64	99	-21
66	104	-21
60	94	-20
44	72	-20
23	37	-20
-1	-1	-19
-28	-41	-20
-50	-77	-22
-65	-101	-23
-74	-112	-22
-71	-105	-24
-59	-85	-22
-38	-52	-23
-14	-14	-24
13	25	-25
36	61	-25
55	88	-23
65	103	-23
66	103	-20
56	90	-22
40	62	-20
17	27	-19
-9	-14	-21
-34	-54	-21
-55	-87	-22
-68	-109	-23
-74	-114	-24
-66	-104	-25
-51	-78	-25
-30	-43	-27
-3	-3	-26
22	36	-24
44	68	-24
59	92	-22
66	101	-21
64	97	-21
52	80	-20
34	48	-20
9	11	-17
-16	-31	-19
-39	-68	-20
-58	-98	-19
-68	-113	-24
-69	-111	-24
-61	-95	-25
-43	-65	-26
-20	-30	-26
7	10	-24
31	47	-22
50	78	-22
64	98	-20
66	104	-20
60	96	-19
44	72	-18
23	38	-18
-1	-2	-19
-27	-43	-21
-48	-77	-21
-65	-101	-25
-72	-110	-24
-71	-105	-26
-59	-85	-27
-39	-53	-24
-14	-15	-26
14	25	-24
38	60	-26
57	88	-26
67	102	-24
67	102	-23
58	88	-22
41	58	-21
18	23	-18
-8	-17	-19
-33	-55	-20
-54	-88	-19
-68	-108	-22
-72	-112	-25
-65	-102	-25
-50	-76	-23
-28	-41	-24
-2	0	-25
23	38	-24
45	71	-23
60	95	-23
66	104	-23
63	100	-21
50	81	-19
30	49	-20
5	11	-21
-20	-31	-21
-43	-68	-20
-60	-98	-23
-70	-111	-24
-70	-111	-26
-60	-95	-26
-44	-66	-24
-20	-30	-25
6	10	-24
32	46	-22
52	79	-20
65	97	-18
68	103	-19
62	95	-19
45	72	-21
24	38	-20
-1	0	-20
-27	-41	-21
-48	-78	-20
-64	-101	-24
-71	-113	-25
-68	-108	-26
-58	-87	-26
-38	-55	-26
-13	-15	-28
15	25	-26
40	61	-25
59	86	-24
69	100	-23
68	100	-21
58	85	-18
40	58	-17
17	23	-18
-10	-17	-20
-33	-56	-21
-53	-89	-21
-67	-108	-22
-71	-113	-25
-66	-102	-24
-51	-78	-24
-30	-42	-26
-4	-3	-26
22	35	-24
44	68	-23
59	93	-23
65	104	-24
63	99	-21
50	82	-23
32	49	-23
8	11	-23
-17	-29	-20
-42	-67	-20
-61	-96	-24
-72	-111	-25
-72	-111	-26
-62	-96	-26
-44	-65	-26
-19	-29	-28
8	11	-25
32	49	-24
50	81	-23
62	100	-19
65	104	-19
58	95	-19
44	71	-20
22	36	-20
-2	-3	-19
-28	-43	-20
-50	-78	-21
-66	-102	-23
-75	-112	-23
-69	-107	-24
-56	-87	-23
-36	-54	-23
-12	-15	-24
15	27	-22
38	63	-22
57	89	-21
67	103	-22
66	102	-19
57	89	-19
40	60	-20
17	26	-19
-10	-16	-22
-34	-54	-24
-54	-87	-25
-68	-108	-24
-71	-113	-25
-66	-102	-26
-51	-76	-24
-28	-40	-22
-1	0	-21
24	39	-21
46	71	-22
61	93	-24
67	101	-23
64	96	-22
50	78	-21
30	47	-21
5	11	-20
-20	-31	-18
-44	-66	-20
-61	-96	-21
-71	-110	-22
-72	-110	-24
-63	-95	-25
-46	-65	-23
-22	-30	-25
5	11	-26
30	48	-24
50	80	-23
63	99	-20
66	105	-19
60	96	-19
45	71	-19
24	38	-20
0	-3	-21
-26	-43	-21
-48	-78	-23
-64	-102	-23
-71	-111	-25
-69	-105	-26
-56	-86	-25
-37	-54	-26
-11	-16	-25
16	23	-24
40	58	-24
58	85	-23
67	100	-23
66	100	-20
56	85	-21
39	58	-21
16	21	-19
-10	-19	-19
-35	-57	-20
-55	-90	-23
-68	-109	-22
-72	-113	-21
-67	-100	-25
-51	-76	-25
-28	-40	-26
-2	-1	-26
24	36	-25
44	70	-23
62	93	-21
67	104	-22
64	99	-19
51	81	-17
32	49	-20
6	10	-19
-20	-30	-20
-44	-68	-22
-62	-97	-22
-70	-111	-23
-70	-109	-25
-60	-93	-25
-42	-64	-24
-19	-27	-25
8	13	-25
32	51	-25
52	81	-22
64	100	-22
68	105	-20
62	93	-19
46	71	-22
25	35	-20
0	-4	-19
-27	-45	-19
-49	-80	-20
-64	-103	-21
-71	-113	-25
-67	-106	-24
-55	-86	-22
-34	-52	-23
-10	-15	-24
16	25	-22
39	60	-21
55	88	-20
65	102	-21
64	101	-19
55	88	-19
37	59	-17
15	23	-18
-12	-17	-18
-37	-56	-21
-56	-88	-23
-69	-109	-22
-74	-113	-23
-67	-101	-23
-50	-77	-24
-28	-40	-25
-3	-1	-24
23	39	-23
45	71	-27
59	96	-26
67	106	-23
64	101	-23
52	82	-22
32	49	-21
7	11	-20
-19	-31	-23
-42	-68	-23
-61	-96	-26
-71	-111	-25
-70	-110	-25
-60	-95	-27
-43	-65	-24
-17	-29	-25
9	12	-25
33	50	-23
53	80	-22
65	99	-24
68	103	-21
61	93	-21
46	68	-21
25	35	-22
1	-5	-21
-25	-45	-21
-48	-80	-24
-65	-104	-22
-74	-112	-26
-69	-107	-27
-58	-85	-24
-36	-53	-23
-11	-15	-27
16	26	-24
39	60	-23
56	89	-24
64	103	-21
63	102	-21
54	86	-21
37	58	-22
15	21	-22
-11	-20	-21
-36	-58	-22
-57	-91	-21
-72	-109	-22
-76	-112	-23
-68	-101	-23
-51	-76	-22
-28	-40	-25
0	0	-22
25	38	-21
46	71	-21
61	95	-22
67	104	-21
64	99	-19
52	78	-20
33	47	-19
9	7	-19
-18	-32	-22
-41	-69	-22
-60	-97	-21
-70	-111	-25
-71	-108	-24
-61	-91	-26
-43	-62	-26
-19	-25	-23
8	15	-23
31	50	-21
51	81	-23
62	98	-22
65	103	-22
57	93	-24
44	70	-21
22	36	-20
-3	-4	-20
-28	-45	-22
-51	-80	-23
-65	-104	-21
-75	-113	-23
-69	-106	-24
-56	-84	-23
-35	-51	-23
-10	-12	-20
16	26	-21
39	63	-21
55	89	-23
64	104	-20
64	105	-19
54	89	-20
38	60	-17
17	23	-18
-8	-18	-19
-34	-57	-22
-54	-89	-22
-68	-106	-23
-72	-111	-25
-65	-99	-25
-51	-75	-24
-27	-40	-24
-1	0	-25
25	39	-23
46	72	-23
61	94	-23
68	104	-22
65	97	-22
52	77	-22
33	45	-21
7	8	-18
-19	-32	-18
-43	-68	-18
-61	-97	-21
-70	-112	-23
-71	-112	-24
-61	-96	-25
-42	-66	-23
-19	-28	-23
7	12	-23
32	51	-24
52	80	-22
64	100	-19
67	104	-20
59	93	-20
44	69	-18
22	33	-19
-4	-6	-18
-29	-47	-21
-50	-82	-22
-64	-107	-23
-71	-115	-25
-68	-108	-24
-56	-87	-24
-35	-52	-26
-10	-14	-27
17	27	-25
40	62	-25
57	90	-22
65	104	-21
65	103	-19
56	88	-20
39	58	-23
16	22	-21
-10	-21	-20
-34	-57	-20
-55	-89	-24
-70	-109	-25
-75	-111	-26
-68	-100	-28
-52	-72	-25
-29	-37	-24
-3	2	-26
23	41	-26
44	74	-25
59	96	-20
64	104	-20
60	98	-22
49	80	-22
29	47	-21
5	9	-20
-21	-33	-20
-43	-69	-24
-61	-98	-25
-71	-112	-24
-71	-110	-22
-61	-94	-24
-42	-62	-23
-18	-25	-22
9	15	-21
34	51	-21
54	81	-20
65	100	-17
68	103	-18
61	93	-18
44	67	-19
23	33	-19
-3	-8	-19
-28	-46	-21
-49	-81	-23
-65	-104	-26
-71	-111	-25
-67	-105	-27
-55	-84	-25
-35	-52	-26
-10	-13	-26
17	26	-26
41	62	-26
58	91	-24
67	104	-23
66	104	-21
57	88	-20
38	58	-19
15	20	-20
-10	-21	-21
-36	-59	-22
-54	-92	-23
-68	-109	-22
-72	-113	-25
-65	-99	-24
-50	-72	-26
-27	-38	-26
-1	1	-25
25	38	-23
46	70	-21
61	93	-22
65	102	-20
61	97	-19
49	78	-19
30	45	-21
6	6	-18
-20	-33	-19
-43	-72	-19
-61	-99	-21
-72	-113	-24
-71	-112	-22
-62	-94	-24
-43	-64	-25
-19	-26	-25
8	13	-24
32	49	-25
51	80	-23
63	98	-21
66	104	-20
60	93	-20
44	70	-19
24	35	-20
-1	-4	-20
-27	-45	-21
-50	-82	-22
-64	-105	-22
-71	-114	-24
-68	-106	-25
-55	-84	-25
-35	-49	-24
-10	-11	-25
16	28	-23
40	63	-22
57	89	-23
66	103	-21
66	101	-22
54	88	-21
37	59	-20
13	21	-23
-12	-20	-22
-36	-60	-22
-55	-92	-21
-68	-111	-22
-72	-112	-26
-65	-99	-27
-51	-72	-23
-29	-36	-25
-3	2	-25
24	41	-25
46	72	-24
61	96	-22
68	105	-20
63	98	-20
50	78	-21
30	45	-21
4	6	-21
-22	-36	-21
-44	-71	-24
-62	-98	-22
-70	-111	-22
-69	-107	-23
-60	-89	-25
-42	-59	-25
-19	-23	-24
7	17	-23
31	53	-23
50	82	-24
62	100	-23
65	102	-22
58	91	-19
42	66	-21
22	33	-21
-4	-6	-22
-28	-46	-23
-51	-80	-22
-65	-103	-24
-70	-111	-23
-67	-105	-27
-53	-83	-26
-33	-49	-23
-7	-11	-25
20	29	-25
42	63	-24
60	90	-23
68	102	-21
68	100	-21
56	85	-23
38	56	-21
14	20	-17
-11	-21	-20
-35	-58	-20
-55	-91	-21
-68	-109	-25
-72	-113	-23
-65	-101	-24
-50	-75	-22
-28	-40	-23
-2	1	-23
23	38	-23
45	72	-22
59	95	-22
66	103	-21
61	98	-19
48	77	-20
28	46	-21
3	7	-19
-23	-34	-19
-44	-70	-20
-61	-98	-20
-70	-112	-20
-69	-110	-24
-61	-92	-25
-43	-61	-24
-20	-24	-25
7	16	-26
32	51	-26
52	81	-24
65	98	-22
68	103	-21
60	92	-21
44	68	-20
24	34	-20
-2	-8	-20
-27	-47	-22
-49	-83	-21
-65	-104	-20
-71	-112	-24
-68	-104	-25
-56	-83	-24
-34	-49	-26
-10	-11	-27
17	28	-25
40	63	-22
58	89	-20
66	103	-21
65	103	-20
54	87	-20
38	58	-22
13	20	-21
-13	-20	-22
-38	-59	-21
-57	-91	-23
-68	-108	-24
-72	-112	-24
-65	-97	-27
-48	-70	-24
-26	-36	-24
0	4	-23
25	42	-21
46	74	-22
60	96	-20
67	104	-19
63	97	-20
52	77	-19
32	43	-21
8	4	-20
-18	-36	-20
-43	-74	-23
-61	-100	-24
-71	-113	-25
-71	-109	-24
-60	-92	-25
-41	-61	-27
-16	-23	-25
11	15	-23
35	51	-23
54	81	-22
66	99	-23
67	102	-23
60	92	-20
44	67	-19
24	31	-19
-1	-9	-20
-27	-48	-23
-49	-83	-24
-65	-105	-25
-71	-111	-27
-70	-103	-27
-56	-81	-24
-36	-48	-26
-10	-10	-24
16	28	-24
41	64	-22
59	89	-23
67	104	-19
66	101	-18
54	85	-19
36	56	-17
11	18	-19
-14	-23	-18
-39	-61	-21
-58	-92	-22
-69	-109	-24
-72	-112	-24
-66	-99	-23
-51	-71	-25
-28	-36	-24
-1	5	-26
25	43	-24
46	75	-25
60	98	-24
66	105	-23
61	99	-22
46	78	-21
28	45	-22
3	8	-20
-22	-34	-19
-44	-69	-21
-63	-98	-24
-72	-111	-24
-70	-109	-24
-59	-92	-22
-40	-61	-22
-15	-25	-23
11	14	-24
35	50	-22
53	80	-22
65	98	-23
66	102	-19
59	91	-19
44	66	-20
22	32	-20
-3	-9	-19
-29	-49	-21
-50	-83	-24
-65	-105	-23
-71	-111	-24
-68	-104	-25
-54	-81	-26
-34	-48	-27
-7	-9	-26
18	31	-26
40	65	-24
57	92	-24
65	104	-21
64	102	-19
52	83	-18
34	53	-19
12	15	-19
-15	-26	-19
-38	-64	-21
-58	-94	-22
-68	-110	-21
-72	-112	-23
-64	-98	-25
-47	-70	-24
-25	-36	-27
2	4	-24
27	41	-23
48	72	-22
61	95	-21
66	105	-20
61	98	-18
48	78	-18
27	44	-20
3	4	-18
-23	-37	-18
-46	-74	-21
-63	-100	-22
-72	-111	-25
-70	-109	-26
-59	-90	-28
-41	-61	-30
-16	-23	-26
10	16	-25
35	52	-24
53	82	-22
66	101	-22
68	104	-21
61	93	-19
44	67	-19
22	32	-21
-4	-7	-20
-31	-48	-23
-52	-83	-23
-67	-106	-23
-72	-114	-23
-68	-106	-24
-54	-84	-26
-34	-48	-26
-8	-10	-26
17	30	-24
40	65	-24
58	90	-23
67	104	-21
66	101	-20
54	86	-20
36	56	-21
12	19	-19
-14	-21	-17
-39	-61	-20
-58	-92	-20
-70	-110	-21
-72	-112	-26
-64	-98	-28
-48	-71	-26
-25	-35	-25
2	4	-25
26	43	-21
48	75	-21
62	98	-22
68	105	-20
64	98	-20
50	79	-20
30	45	-20
5	7	-21
-21	-35	-22
-44	-70	-21
-61	-97	-20
-71	-110	-21
-70	-108	-23
-60	-92	-23
-40	-61	-23
-16	-25	-23
10	16	-23
35	53	-22
54	82	-20
65	100	-20
67	103	-22
59	92	-20
44	65	-18
21	31	-19
-4	-8	-20
-29	-48	-21
-51	-82	-21
-66	-105	-24
-71	-111	-24
-68	-103	-25
-54	-81	-25
-32	-46	-25
-8	-9	-25
18	31	-22
41	63	-22
58	89	-21
66	101	-22
63	100	-21
52	84	-19
34	53	-21
11	16	-18
-15	-23	-20
-39	-62	-23
-58	-93	-24
-70	-110	-26
-72	-112	-27
-65	-100	-26
-47	-71	-26
-26	-36	-27
2	6	-27
27	43	-26
48	77	-24
62	98	-25
66	104	-23
62	98	-23
49	74	-20
30	41	-18
4	2	-19
-22	-39	-17
-45	-75	-22
-63	-101	-24
-75	-112	-24
-72	-109	-26
-62	-90	-25
-43	-59	-25
-17	-22	-25
9	17	-26
35	54	-24
53	84	-21
62	100	-23
65	105	-19
58	92	-21
42	66	-23
21	31	-20
-3	-11	-20
-29	-50	-19
-51	-85	-21
-66	-105	-21
-72	-113	-21
-69	-103	-26
-55	-80	-24
-34	-46	-25
-8	-6	-24
19	32	-23
40	67	-23
58	92	-22
66	104	-19
65	101	-20
56	83	-19
36	53	-16
13	15	-17
-13	-25	-17
-37	-64	-20
-58	-93	-22
-69	-110	-23
-71	-112	-24
-63	-98	-24
-47	-71	-24
-26	-35	-22
1	5	-21
27	43	-22
49	77	-22
64	97	-23
69	105	-21
66	97	-21
51	76	-21
30	43	-21
5	4	-21
-22	-37	-20
-45	-72	-24
-62	-99	-24
-71	-111	-25
-70	-107	-27
-59	-89	-28
-41	-58	-28
-16	-21	-24
10	19	-23
35	56	-24
54	85	-22
66	102	-20
68	104	-20
59	92	-22
43	65	-21
21	28	-21
-5	-12	-21
-31	-53	-22
-52	-86	-24
-68	-108	-25
-74	-114	-26
-68	-104	-27
-55	-82	-27
-31	-47	-24
-6	-9	-23
20	32	-23
42	66	-21
59	91	-21
66	103	-21
64	100	-19
53	83	-19
34	52	-18
11	16	-16
-15	-25	-17
-39	-62	-20
-59	-93	-19
-70	-110	-21
-71	-111	-23
-64	-98	-24
-48	-68	-25
-27	-33	-24
-1	7	-25
24	45	-24
46	77	-24
60	98	-22
65	104	-22
62	97	-20
48	74	-20
28	40	-21
3	2	-20
-22	-39	-20
-46	-74	-22
-63	-100	-23
-70	-111	-24
-70	-107	-25
-58	-89	-30
-40	-56	-28
-15	-20	-26
12	20	-26
36	56	-25
54	85	-25
65	101	-24
66	103	-23
58	90	-21
42	64	-20
19	28	-19
-5	-13	-21
-32	-51	-21
-52	-86	-22
-67	-107	-24
-71	-114	-25
-67	-105	-23
-52	-82	-21
-31	-48	-22
-5	-7	-22
21	33	-22
42	68	-22
58	93	-21
66	104	-22
64	101	-21
54	83	-22
34	53	-21
11	15	-18
-15	-25	-19
-38	-62	-20
-58	-92	-22
-70	-108	-23
-71	-109	-25
-64	-96	-27
-47	-68	-25
-25	-33	-26
1	6	-24
25	43	-24
46	76	-24
61	94	-24
65	102	-21
61	94	-18
47	72	-20
27	40	-19
3	1	-19
-23	-39	-21
-46	-76	-20
-62	-102	-21
-70	-113	-21
-70	-109	-23
-58	-90	-23
-40	-59	-23
-16	-20	-23
10	20	-24
35	56	-25
54	85	-22
64	101	-21
66	104	-21
58	90	-19
41	65	-21
19	30	-20
-5	-11	-19
-30	-50	-20
-50	-85	-20
-63	-106	-21
-69	-114	-24
-65	-105	-25
-52	-81	-25
-31	-48	-25
-6	-7	-24
20	32	-23
42	68	-23
59	93	-23
67	106	-22
65	103	-19
53	87	-19
34	55	-19
9	16	-19
-17	-25	-21
-42	-63	-22
-59	-92	-25
-71	-108	-25
-71	-108	-27
-62	-94	-28
-45	-67	-26
-24	-31	-27
2	7	-26
25	46	-21
46	77	-20
61	98	-20
66	105	-18
62	96	-17
49	74	-19
28	40	-19
4	0	-19
-23	-41	-21
-47	-76	-22
-64	-102	-24
-72	-114	-24
-71	-110	-25
-59	-91	-25
-40	-58	-24
-14	-21	-27
12	21	-25
35	57	-25
53	85	-24
63	101	-20
64	101	-21
56	88	-24
39	61	-22
17	25	-21
-6	-14	-19
-30	-54	-19
-52	-87	-22
-66	-109	-24
-72	-114	-27
-67	-105	-25
-52	-81	-25
-31	-46	-25
-5	-7	-27
20	32	-24
44	64	-24
59	90	-24
66	100	-19
65	98	-20
54	81	-19
35	49	-18
12	14	-18
-14	-27	-19
-39	-63	-18
-58	-92	-20
-70	-107	-22
-71	-107	-25
-64	-95	-26
-46	-67	-24
-24	-33	-27
3	7	-27
29	45	-25
48	78	-25
63	99	-23
67	105	-24
62	97	-23
48	74	-24
28	41	-22
2	1	-21
-23	-38	-22
-46	-74	-22
-62	-99	-24
-70	-110	-27
-69	-106	-25
-58	-87	-24
-39	-55	-26
-14	-16	-24
14	24	-23
39	59	-23
58	88	-20
68	102	-20
68	104	-20
59	89	-19
42	61	-19
18	26	-18
-7	-15	-18
-31	-54	-19
-52	-87	-19
-67	-105	-21
-74	-113	-22
-68	-103	-23
-54	-79	-21
-32	-45	-21
-5	-5	-22
20	33	-21
42	67	-20
58	92	-21
65	104	-23
62	99	-20
52	82	-20
34	51	-20
10	12	-19
-15	-28	-22
-40	-66	-23
-58	-94	-24
-70	-109	-25
-71	-110	-25
-63	-94	-27
-46	-66	-24
-23	-31	-23
4	7	-25
31	43	-25
50	75	-24
63	93	-23
66	102	-20
60	95	-21
45	72	-20
24	39	-18
2	-1	-20
-25	-41	-22
-46	-77	-21
-63	-101	-22
-71	-111	-24
-71	-106	-25
-59	-86	-27
-40	-55	-25
-14	-17	-27
14	21	-28
38	57	-25
57	85	-25
66	101	-24
66	103	-22
58	89	-22
41	62	-23
20	26	-24
-5	-13	-21
-31	-53	-23
-52	-86	-23
-66	-107	-20
-71	-113	-23
-66	-103	-23
-52	-80	-25
-29	-44	-24
-3	-5	-25
21	35	-25
43	68	-23
59	93	-23
66	104	-21
64	99	-20
52	82	-20
33	52	-23
9	15	-21
-19	-26	-20
-44	-64	-22
-61	-94	-23
-72	-110	-23
-72	-109	-24
-64	-95	-27
-47	-66	-24
-23	-31	-23
3	9	-24
28	45	-22
49	77	-23
63	98	-21
67	104	-21
61	98	-18
47	74	-18
25	39	-18
0	-1	-18
-26	-44	-19
-48	-79	-20
-66	-103	-21
-75	-112	-21
-70	-105	-24
-58	-87	-24
-37	-53	-25
-12	-18	-25
15	22	-23
40	57	-22
58	85	-22
67	100	-21
68	101	-22
59	88	-21
41	59	-21
19	24	-23
-7	-17	-22
-32	-54	-23
-54	-87	-24
-67	-106	-25
-71	-111	-26
-66	-101	-28
-51	-76	-25
-31	-41	-27
-5	-2	-26
20	35	-25
42	68	-26
59	93	-21
67	103	-21
64	99	-21
52	80	-20
33	49	-19
8	12	-18
-18	-29	-20
-42	-66	-20
-60	-95	-24
-70	-111	-24
-71	-111	-23
-62	-95	-24
-45	-66	-22
-22	-30	-27
4	11	-28
28	48	-25
48	81	-26
61	100	-23
66	106	-23
60	97	-22
46	72	-20
25	38	-19
0	-3	-18
-26	-42	-19
-48	-79	-19
-65	-102	-21
-72	-112	-26
-69	-108	-25
-56	-87	-23
-36	-55	-23
-12	-16	-22
14	22	-23
37	58	-21
54	86	-19
65	101	-22
66	101	-22
58	86	-20
42	60	-21
19	23	-19
-7	-17	-18
-32	-55	-18
-54	-87	-21
-68	-106	-23
-75	-111	-21
-68	-99	-23
-52	-77	-23
-30	-41	-24
-3	-2	-24
22	35	-24
44	70	-22
59	93	-20
67	105	-20
65	101	-19
52	83	-20
34	51	-21
10	12	-22
-15	-29	-20
-39	-67	-20
-60	-96	-23
-71	-111	-23
-74	-110	-24
-63	-93	-25
-46	-66	-25
-21	-30	-28
6	8	-26
31	45	-22
50	76	-24
64	96	-23
68	103	-21
62	95	-20
48	72	-20
26	38	-21
1	-2	-20
-25	-44	-22
-47	-81	-23
-63	-105	-23
-70	-115	-23
-68	-109	-24
-57	-89	-24
-38	-55	-24
-12	-16	-25
13	24	-24
37	60	-24
56	87	-23
66	103	-21
66	103	-20
56	89	-19
39	60	-19
16	24	-19
-10	-17	-18
-35	-57	-22
-56	-90	-23
-70	-109	-21
-75	-114	-23
-68	-102	-25
-53	-77	-24
-31	-40	-26
-4	-1	-28
22	38	-24
44	70	-22
59	94	-23
65	103	-23
62	100	-20
49	81	-19
31	49	-19
6	12	-20
-20	-30	-21
-43	-66	-20
-61	-96	-23
-71	-111	-25
-72	-110	-25
-62	-95	-26
-45	-64	-27
-22	-28	-26
4	13	-25
29	49	-25
48	80	-24
63	99	-23
66	103	-21
60	94	-20
46	70	-19
25	36	-20
1	-4	-21
-26	-43	-19
-47	-79	-20
-63	-104	-23
-71	-112	-27
-68	-107	-27
-58	-88	-26
-37	-54	-26
-12	-15	-26
14	25	-25
36	59	-23
54	88	-21
65	102	-20
65	103	-17
57	89	-17
40	61	-18
18	26	-19
-7	-16	-21
-33	-54	-23
-54	-88	-23
-68	-109	-25
-71	-113	-23
-67	-102	-25
-51	-76	-23
-29	-41	-24
-2	-1	-24
22	37	-23
44	70	-21
62	93	-23
68	104	-23
65	100	-20
52	82	-22
33	51	-22
8	13	-20
-18	-27	-19
-41	-66	-21
-58	-95	-21
-69	-111	-23
-69	-110	-24
-61	-94	-23
-43	-66	-25
-20	-29	-25
5	11	-22
31	49	-20
52	80	-21
64	98	-21
66	104	-21
59	93	-19
45	70	-18
24	35	-19
-1	-4	-18
-27	-43	-18
-49	-80	-19
-66	-103	-23
-72	-113	-22
-70	-108	-23
-58	-88	-26
-38	-54	-25
-12	-15	-26
16	23	-25
40	60	-24
57	88	-23
68	103	-21
68	102	-22
59	89	-20
40	61	-19
17	23	-20
-10	-16	-20
-34	-56	-23
-54	-90	-21
-68	-110	-21
-71	-114	-24
-66	-103	-24
-51	-79	-25
-28	-42	-27
-3	-2	-27
23	36	-23
46	68	-23
61	93	-22
68	103	-21
64	98	-21
51	80	-20
32	49	-21
8	11	-20
-18	-30	-20
-41	-66	-20
-59	-95	-22
-70	-111	-24
-70	-109	-24
-61	-93	-25
-43	-64	-23
-19	-28	-24
8	12	-25
34	49	-22
54	79	-21
65	99	-21
68	104	-21
61	96	-21
45	71	-22
24	38	-20
-2	-2	-21
-27	-44	-21
-50	-79	-19
-65	-103	-20
-74	-112	-24
-71	-107	-23
-60	-86	-25
-39	-53	-28
-14	-15	-25
13	25	-24
37	60	-24
55	87	-23
65	102	-22
66	101	-20
56	87	-21
37	57	-19
15	22	-18
-11	-19	-19
-36	-56	-20
-55	-88	-21
-68	-105	-23
-72	-109	-24
-66	-98	-22
-52	-74	-24
-30	-39	-25
-4	1	-25
23	39	-24
44	72	-23
62	96	-22
68	105	-20
66	101	-20
52	80	-20
32	48	-22
8	9	-18
-18	-32	-21
-40	-68	-21
-58	-97	-25
-69	-110	-26
-69	-109	-25
-61	-93	-26
-44	-62	-23
-20	-27	-25
7	14	-24
32	51	-21
52	81	-23
63	99	-21
66	104	-22
60	93	-21
44	68	-21
22	36	-21
-1	-3	-22
-27	-44	-20
-50	-80	-19
-65	-103	-21
-74	-113	-24
-69	-108	-25
-57	-87	-23
-37	-54	-24
-11	-14	-26
15	25	-24
38	62	-22
56	89	-21
65	103	-20
66	102	-20
57	87	-19
40	60	-19
16	22	-20
-8	-19	-19
-34	-59	-20
-54	-92	-23
-68	-110	-24
-72	-114	-23
-67	-101	-24
-51	-75	-24
-28	-39	-24
-3	1	-26
23	37	-24
46	70	-21
60	92	-20
66	103	-20
63	97	-19
50	79	-22
31	45	-21
6	6	-19
-20	-35	-20
-43	-74	-22
-60	-100	-21
-71	-114	-22
-71	-111	-23
-62	-93	-22
-44	-64	-25
-19	-28	-24
8	11	-25
32	48	-25
52	79	-22
65	97	-22
67	103	-21
58	93	-21
44	68	-22
22	35	-23
-2	-4	-20
-28	-46	-23
-50	-80	-23
-66	-104	-25
-74	-115	-25
-68	-108	-27
-56	-87	-27
-36	-52	-24
-11	-14	-28
16	27	-26
40	62	-24
57	88	-23
66	102	-23
65	100	-22
57	87	-21
39	59	-20
16	23	-19
-10	-17	-21
-35	-56	-22
-54	-89	-20
-68	-109	-23
-71	-112	-24
-65	-100	-25
-50	-72	-24
-27	-37	-23
-1	2	-23
23	41	-24
44	74	-20
59	97	-21
64	106	-19
61	100	-19
49	81	-21
29	48	-18
7	9	-20
-20	-32	-21
-43	-68	-21
-63	-97	-24
-72	-110	-25
-72	-107	-25
-62	-92	-25
-43	-61	-25
-19	-25	-28
8	15	-28
32	52	-25
52	83	-23
63	101	-23
66	104	-22
60	94	-19
44	68	-20
24	34	-19
-1	-6	-19
-26	-45	-21
-49	-79	-21
-65	-102	-24
-72	-111	-25
-69	-105	-24
-56	-85	-25
-36	-53	-24
-12	-14	-25
15	27	-25
39	61	-24
56	89	-24
65	102	-24
65	102	-22
54	85	-19
38	57	-19
14	21	-19
-11	-19	-17
-36	-57	-19
-56	-90	-19
-69	-108	-21
-72	-111	-22
-66	-100	-24
-50	-74	-26
-26	-39	-21
-1	1	-23
26	39	-23
47	74	-24
62	95	-23
67	104	-24
63	98	-22
50	77	-21
30	45	-21
6	5	-21
-19	-34	-19
-42	-71	-20
-62	-98	-21
-71	-111	-22
-71	-110	-23
-60	-93	-21
-42	-63	-23
-16	-27	-22
11	14	-22
34	51	-21
54	82	-22
66	99	-21
68	105	-19
61	93	-20
46	69	-20
25	35	-17
0	-6	-19
-26	-45	-20
-48	-81	-21
-64	-104	-24
-72	-113	-25
-69	-106	-25
-55	-85	-24
-36	-51	-26
-11	-12	-26
15	26	-25
39	62	-25
57	87	-26
66	101	-25
66	100	-22
56	86	-21
38	57	-20
14	20	-22
-12	-21	-21
-37	-59	-24
-56	-91	-25
-68	-109	-25
-72	-111	-26
-65	-97	-24
-51	-71	-24
-27	-35	-24
-1	4	-24
24	41	-23
46	74	-23
61	95	-20
66	103	-20
61	97	-18
49	77	-20
28	44	-20
4	7	-20
-22	-36	-22
-46	-71	-21
-64	-100	-23
-76	-114	-24
-75	-111	-25
-63	-95	-27
-44	-65	-25
-20	-28	-25
6	11	-24
32	50	-25
52	80	-27
64	98	-23
67	103	-23
61	93	-20
44	68	-19
24	33	-21
-1	-6	-19
-27	-47	-25
-48	-80	-22
-64	-104	-23
-70	-111	-24
-67	-103	-25
-53	-83	-27
-34	-49	-24
-8	-13	-27
17	29	-25
40	64	-24
57	91	-21
66	105	-21
65	103	-20
54	88	-17
36	57	-20
13	19	-20
-12	-23	-21
-38	-60	-21
-58	-91	-22
-70	-109	-22
-75	-110	-26
-66	-100	-27
-50	-72	-26
-26	-38	-25
1	2	-23
26	40	-23
46	74	-22
62	96	-21
68	104	-20
63	98	-22
52	77	-20
30	45	-21
7	6	-19
-20	-34	-19
-43	-70	-21
-61	-98	-21
-71	-111	-25
-70	-109	-23
-59	-92	-25
-39	-61	-25
-16	-25	-25
11	16	-24
35	51	-23
54	84	-24
66	100	-21
67	105	-20
61	93	-18
44	68	-18
24	34	-19
-3	-6	-18
-30	-45	-18
-53	-81	-20
-70	-103	-23
-77	-111	-25
-72	-105	-24
-57	-84	-27
-36	-51	-27
-10	-11	-25
15	28	-25
40	64	-25
57	91	-23
66	103	-21
65	101	-19
54	84	-18
37	53	-20
13	16	-20
-12	-23	-20
-38	-61	-21
-56	-92	-23
-67	-109	-23
-70	-113	-22
-63	-99	-24
-48	-74	-25
-26	-36	-25
0	4	-25
26	43	-25
48	77	-21
64	97	-21
71	106	-20
66	99	-19
52	78	-20
31	45	-19
7	5	-19
-20	-35	-21
-42	-72	-21
-59	-98	-24
-70	-112	-27
-70	-109	-26
-61	-92	-27
-44	-61	-25
-22	-24	-25
6	15	-23
32	52	-21
52	82	-22
64	100	-20
65	103	-18
57	90	-19
42	65	-19
20	29	-17
-6	-11	-19
-30	-50	-19
-51	-84	-21
-66	-105	-23
-71	-113	-24
-68	-105	-26
-55	-84	-25
-35	-50	-25
-10	-11	-24
18	28	-24
41	63	-23
60	90	-23
68	103	-22
68	100	-22
57	84	-19
38	56	-20
14	18	-19
-12	-22	-21
-37	-60	-21
-57	-90	-22
-69	-107	-26
-74	-108	-23
-66	-95	-24
-52	-69	-25
-29	-35	-27
-2	3	-25
24	40	-24
46	71	-24
61	96	-22
67	104	-21
62	99	-20
49	79	-21
29	45	-21
4	7	-20
-21	-36	-21
-45	-72	-22
-62	-98	-22
-71	-112	-22
-70	-108	-24
-60	-92	-24
-40	-60	-25
-17	-23	-24
10	17	-24
33	53	-24
52	83	-24
63	100	-23
66	103	-23
59	92	-22
42	67	-25
21	32	-23
-6	-7	-21
-31	-48	-24
-51	-82	-23
-66	-106	-25
-71	-114	-24
-68	-107	-25
-55	-85	-27
-36	-51	-27
-10	-12	-26
18	30	-24
41	62	-22
59	90	-21
68	103	-20
67	103	-20
56	87	-19
36	59	-18
13	22	-19
-12	-20	-19
-36	-59	-21
-56	-91	-23
-68	-108	-24
-70	-111	-24
-63	-98	-25
-46	-70	-25
-22	-35	-24
4	5	-26
29	41	-23
51	76	-23
64	96	-21
68	105	-19
63	98	-20
50	77	-19
28	45	-20
4	5	-19
-22	-35	-19
-46	-71	-18
-63	-98	-20
-72	-110	-24
-71	-109	-24
-60	-90	-24
-42	-61	-24
-18	-23	-25
10	17	-26
35	53	-24
53	83	-22
65	99	-20
66	101	-20
59	89	-20
42	64	-21
20	29	-21
-6	-9	-22
-32	-48	-21
-54	-83	-21
-69	-105	-24
-75	-114	-24
-70	-106	-26
-57	-84	-24
-36	-49	-26
-10	-9	-26
17	31	-24
40	67	-24
56	91	-21
65	104	-20
64	101	-19
53	85	-20
34	55	-20
11	17	-17
-16	-24	-17
-41	-62	-20
-60	-93	-21
-71	-111	-21
-72	-111	-24
-63	-97	-24
-46	-69	-25
-23	-33	-25
3	6	-24
27	45	-22
49	76	-23
63	97	-24
68	104	-21
64	97	-20
51	77	-20
31	43	-21
6	6	-22
-21	-36	-22
-44	-71	-23
-61	-100	-23
-71	-114	-25
-69	-110	-27
-59	-93	-26
-40	-61	-25
-15	-24	-25
9	15	-24
33	53	-22
51	81	-22
63	99	-23
64	101	-23
58	89	-21
42	62	-20
21	27	-21
-4	-13	-20
-30	-51	-19
-52	-84	-22
-67	-107	-23
-72	-113	-24
-68	-105	-25
-54	-83	-23
-32	-48	-23
-6	-9	-25
20	31	-23
41	66	-19
58	93	-21
65	105	-19
64	102	-19
54	85	-17
35	55	-19
13	17	-19
-14	-23	-21
-37	-60	-21
-57	-89	-20
-69	-107	-22
-72	-109	-24
-63	-97	-27
-46	-69	-27
-24	-36	-25
3	6	-24
28	44	-25
49	77	-23
63	99	-23
68	106	-21
63	99	-21
49	77	-21
29	43	-20
3	5	-19
-23	-37	-21
-47	-70	-23
-63	-97	-21
-72	-109	-24
-70	-106	-25
-60	-89	-24
-41	-58	-24
-16	-22	-22
11	18	-23
35	53	-24
54	82	-22
65	98	-20
67	101	-18
59	89	-20
43	62	-21
21	27	-20
-4	-12	-20
-30	-51	-22
-52	-86	-25
-67	-106	-24
-72	-112	-25
-68	-105	-25
-53	-81	-27
-32	-48	-27
-6	-8	-27
20	31	-25
44	66	-25
60	92	-24
68	103	-24
66	102	-23
55	84	-21
35	54	-23
11	15	-21
-16	-25	-21
-41	-63	-21
-61	-94	-20
-71	-110	-23
-76	-112	-23
-66	-98	-23
-48	-71	-24
-25	-35	-22
2	5	-22
26	43	-24
48	77	-22
63	97	-21
68	104	-22
63	95	-21
49	74	-20
28	41	-19
4	2	-20
-22	-37	-20
-45	-72	-22
-62	-98	-22
-71	-111	-25
-71	-107	-25
-59	-88	-23
-40	-56	-24
-16	-19	-24
10	21	-25
34	56	-22
52	85	-20
64	101	-23
66	104	-19
58	92	-19
42	66	-19
20	31	-18
-5	-9	-17
-32	-51	-18
-52	-86	-21
-67	-107	-21
-72	-113	-24
-68	-104	-24
-55	-82	-26
-34	-48	-26
-6	-8	-25
20	29	-25
42	64	-23
58	89	-22
67	102	-20
65	100	-21
55	84	-21
36	54	-21
13	18	-23
-13	-23	-22
-36	-61	-24
-57	-92	-24
-69	-109	-24
-71	-109	-24
-64	-97	-26
-47	-69	-25
-24	-34	-26
3	5	-26
28	43	-25
49	76	-21
63	97	-21
67	104	-20
63	96	-19
49	74	-20
29	40	-19
4	2	-17
-22	-40	-17
-47	-76	-19
-64	-101	-22
-72	-112	-23
-70	-108	-25
-59	-90	-24
-40	-58	-26
-15	-21	-27
12	20	-25
36	56	-25
54	85	-24
65	102	-23
67	103	-22
59	90	-21
42	65	-21
18	30	-19
-7	-11	-19
-33	-49	-20
-55	-84	-20
-69	-106	-23
-76	-113	-25
-70	-105	-27
-55	-82	-25
-33	-48	-24
-7	-7	-25
18	32	-23
41	65	-20
58	92	-21
66	101	-20
65	100	-20
54	82	-19
35	52	-19
12	15	-19
-15	-27	-21
-39	-63	-24
-59	-94	-23
-70	-110	-23
-70	-111	-23
-62	-97	-23
-44	-68	-23
-22	-33	-24
3	8	-24
28	45	-22
49	77	-23
63	98	-23
68	105	-22
64	98	-20
49	74	-20
28	41	-20
2	1	-20
-25	-39	-22
-49	-76	-23
-64	-101	-24
-71	-112	-25
-70	-108	-27
-58	-88	-27
-40	-57	-26
-15	-20	-26
11	19	-24
36	55	-23
54	84	-24
64	99	-23
65	103	-21
57	90	-20
40	66	-19
18	29	-18
-6	-11	-19
-32	-51	-21
-53	-86	-22
-67	-107	-24
-72	-113	-25
-67	-104	-23
-53	-79	-27
-32	-44	-26
-5	-5	-24
20	33	-24
42	66	-23
59	89	-22
67	102	-23
66	99	-22
54	84	-19
36	53	-19
12	15	-19
-15	-26	-19
-40	-66	-21
-58	-95	-21
-69	-111	-23
-70	-111	-23
-63	-95	-25
-47	-67	-25
-24	-31	-23
1	7	-23
25	45	-21
46	77	-20
61	97	-20
65	104	-20
60	97	-20
46	76	-20
26	41	-20
1	2	-20
-24	-40	-20
-47	-76	-20
-64	-101	-21
-72	-113	-25
-71	-107	-24
-59	-89	-24
-40	-56	-26
-14	-19	-23
13	21	-23
37	58	-23
57	86	-24
66	104	-24
67	104	-22
58	93	-23
41	65	-23
18	29	-22
-6	-11	-21
-32	-53	-22
-53	-86	-20
-67	-108	-22
-71	-114	-26
-66	-105	-24
-52	-82	-24
-30	-47	-25
-5	-8	-23
22	31	-22
44	65	-22
60	90	-23
68	102	-22
64	99	-19
52	82	-21
33	52	-23
9	16	-20
-17	-26	-19
-41	-63	-21
-60	-93	-22
-72	-109	-23
-74	-110	-24
-65	-97	-26
-48	-67	-24
-24	-33	-25
4	7	-23
30	45	-27
50	77	-25
63	97	-23
66	104	-24
61	97	-20
48	75	-23
29	41	-23
4	2	-23
-23	-39	-23
-47	-75	-25
-65	-101	-24
-74	-110	-24
-71	-106	-25
-58	-86	-24
-38	-54	-25
-13	-18	-27
14	22	-24
37	57	-21
56	85	-22
66	100	-22
67	102	-19
58	89	-20
42	62	-23
20	26	-19
-6	-15	-19
-30	-54	-21
-52	-88	-20
-66	-108	-24
-71	-113	-23
-66	-103	-24
-52	-77	-24
-30	-43	-24
-4	-4	-24
21	35	-22
42	67	-23
58	92	-23
66	101	-19
63	98	-20
51	80	-19
33	50	-17
9	12	-18
-16	-28	-21
-40	-65	-20
-58	-95	-21
-70	-110	-22
-71	-111	-24
-62	-96	-24
-46	-67	-24
-23	-31	-24
4	10	-22
30	47	-25
50	80	-23
64	99	-22
68	106	-23
64	97	-20
50	74	-21
28	40	-20
2	0	-20
-25	-39	-21
-48	-77	-23
-64	-101	-24
-71	-113	-26
-70	-107	-27
-57	-87	-24
-37	-56	-25
-13	-18	-24
14	22	-23
37	58	-24
56	85	-22
66	101	-22
67	101	-19
58	87	-19
41	60	-21
18	24	-21
-9	-15	-21
-34	-54	-21
-54	-86	-22
-67	-106	-23
-71	-113	-23
-67	-102	-24
-53	-78	-26
-32	-43	-27
-5	-4	-26
20	35	-26
42	70	-25
59	93	-21
66	104	-21
63	100	-21
52	82	-21
32	50	-20
8	13	-20
-18	-27	-21
-42	-64	-23
-61	-95	-26
-74	-111	-26
-75	-111	-26
-66	-96	-25
-49	-67	-26
-24	-30	-25
2	10	-25
29	47	-27
50	79	-23
63	98	-22
68	104	-20
62	96	-22
46	74	-20
26	39	-21
1	0	-19
-25	-42	-20
-48	-78	-21
-64	-103	-21
-71	-115	-24
-70	-109	-23
-58	-89	-25
-39	-55	-25
-16	-17	-25
12	24	-23
34	59	-23
53	87	-23
64	103	-21
66	102	-18
58	89	-20
41	61	-18
18	26	-17
-8	-15	-20
-33	-53	-18
-53	-86	-20
-67	-108	-22
-71	-112	-21
-64	-101	-24
-50	-75	-25
-28	-41	-25
-2	-1	-23
22	37	-23
44	68	-21
60	91	-21
67	101	-20
64	97	-20
52	79	-22
33	48	-18
8	11	-17
-16	-29	-17
-40	-65	-18
-58	-96	-21
-69	-110	-22
-70	-110	-21
-61	-95	-20
-44	-66	-23
-20	-30	-22
5	10	-24
30	47	-23
50	79	-21
63	98	-22
67	104	-21
62	95	-18
49	71	-20
27	38	-21
3	-2	-22
-23	-41	-22
-46	-78	-21
-63	-101	-23
-71	-111	-25
-70	-106	-26
-58	-86	-27
-36	-55	-27
-13	-16	-25
14	22	-25
36	58	-24
56	85	-23
66	99	-22
65	101	-23
56	86	-24
39	61	-22
17	24	-19
-10	-16	-19
-35	-54	-23
-56	-87	-22
-70	-106	-25
-75	-112	-26
-68	-100	-26
-53	-77	-24
-32	-41	-25
-5	-2	-25
22	36	-21
44	69	-22
61	92	-20
67	104	-21
64	100	-19
52	81	-19
33	50	-20
8	11	-23
-18	-30	-23
-42	-69	-24
-60	-98	-24
-70	-113	-25
-71	-111	-25
-62	-94	-28
-45	-65	-25
-20	-28	-24
8	10	-25
33	48	-22
52	79	-20
63	97	-21
66	102	-19
57	92	-18
42	68	-20
22	35	-19
-2	-3	-17
-27	-42	-20
-48	-78	-20
-64	-101	-20
-72	-112	-22
-70	-107	-25
-59	-87	-25
-39	-54	-26
-14	-15	-25
13	24	-23
38	60	-23
56	88	-22
65	103	-21
66	102	-21
57	87	-24
39	61	-22
19	25	-20
-6	-15	-21
-31	-54	-23
-52	-86	-22
-65	-107	-25
-70	-113	-26
-65	-101	-26
-50	-79	-27
-29	-41	-27
-2	-1	-26
23	39	-24
46	71	-23
61	93	-19
67	103	-20
64	98	-19
51	79	-18
33	47	-18
8	10	-15
-17	-31	-17
-42	-67	-18
-60	-95	-21
-71	-111	-23
-72	-110	-24
-61	-95	-24
-44	-65	-24
-18	-28	-25
8	12	-23
32	50	-23
52	81	-23
64	100	-23
67	105	-21
60	96	-19
46	71	-21
24	37	-21
-1	-2	-21
-28	-43	-23
-50	-79	-23
-66	-103	-24
-75	-113	-23
-70	-106	-25
-58	-86	-25
-37	-52	-24
-13	-14	-25
15	26	-24
36	60	-22
54	87	-20
65	101	-22
65	102	-19
56	88	-21
38	59	-19
17	24	-17
-11	-18	-20
-34	-56	-18
-55	-88	-22
-68	-108	-24
-72	-112	-22
-65	-101	-25
-50	-76	-24
-28	-40	-25
-2	0	-25
23	37	-24
44	69	-24
59	93	-24
66	102	-23
63	97	-21
51	77	-20
31	48	-21
6	9	-22
-20	-30	-21
-44	-68	-22
-61	-97	-21
-71	-112	-24
-72	-112	-26
-62	-95	-25
-44	-66	-26
-20	-29	-26
7	12	-25
32	47	-23
51	78	-24
64	96	-23
66	103	-23
59	93	-22
44	70	-23
23	36	-23
-1	-4	-21
-28	-45	-22
-50	-81	-23
-66	-104	-25
-74	-113	-27
-70	-106	-26
-57	-84	-26
-36	-51	-25
-12	-13	-26
16	25	-25
39	60	-24
56	87	-23
66	101	-23
65	103	-21
56	88	-22
37	60	-23
14	22	-22
-11	-18	-21
-35	-57	-22
-55	-89	-23
-66	-107	-20
-69	-112	-25
-63	-99	-25
-47	-75	-24
-24	-40	-26
1	0	-23
28	40	-24
48	74	-22
64	96	-21
69	104	-22
65	97	-20
52	77	-19
33	44	-20
8	6	-20
-18	-33	-21
-42	-70	-20
-60	-97	-22
-70	-112	-22
-71	-110	-23
-62	-94	-22
-44	-65	-21
-19	-27	-24
6	13	-21
31	51	-22
51	81	-23
62	100	-22
68	104	-22
61	95	-18
47	70	-20
26	35	-21
0	-3	-17
-26	-44	-19
-49	-79	-20
-66	-101	-20
-74	-111	-23
-69	-104	-24
-56	-84	-25
-35	-51	-25
-11	-14	-25
16	26	-22
40	61	-20
56	89	-23
66	103	-21
65	101	-19
56	87	-19
38	58	-21
14	23	-21
-11	-17	-21
-35	-55	-21
-54	-86	-23
-68	-106	-26
-71	-110	-24
-65	-99	-24
-50	-74	-24
-28	-39	-21
0	0	-24
25	39	-25
46	70	-24
62	93	-23
67	102	-23
63	98	-21
50	79	-21
31	47	-22
6	8	-20
-20	-34	-19
-43	-71	-19
-61	-100	-21
-70	-113	-21
-71	-110	-23
-60	-93	-24
-44	-62	-25
-20	-26	-23
7	14	-26
33	50	-26
52	81	-23
64	98	-24
66	104	-25
59	95	-23
44	70	-23
20	34	-21
-5	-7	-19
-30	-47	-21
-52	-82	-22
-68	-105	-24
-76	-112	-25
-72	-105	-24
-59	-83	-23
-39	-50	-24
-13	-12	-25
15	26	-24
39	60	-23
56	86	-22
65	100	-20
63	100	-21
54	85	-21
36	58	-20
14	20	-21
-12	-20	-20
-37	-58	-21
-56	-90	-20
-70	-109	-22
-75	-114	-25
-66	-101	-26
-50	-76	-25
-27	-40	-25
0	1	-26
26	40	-23
46	75	-22
62	96	-21
68	105	-23
65	99	-20
51	79	-20
33	46	-19
7	7	-19
-20	-34	-18
-41	-72	-18
-60	-100	-22
-69	-112	-24
-70	-111	-25
-59	-92	-27
-43	-63	-28
-19	-25	-27
9	14	-25
33	51	-23
54	82	-23
66	98	-20
69	104	-20
63	92	-20
46	67	-19
24	31	-18
0	-8	-19
-26	-47	-21
-50	-82	-20
-64	-103	-23
-72	-112	-25
-68	-105	-24
-56	-84	-24
-35	-50	-24
-9	-11	-23
17	28	-23
41	64	-23
57	89	-19
65	102	-21
64	101	-22
55	86	-20
38	58	-19
16	21	-21
-9	-18	-21
-35	-58	-23
-55	-90	-24
-69	-110	-25
-74	-112	-27
-66	-98	-26
-49	-71	-25
-26	-35	-25
0	5	-25
25	41	-25
46	72	-25
61	95	-21
67	103	-21
63	97	-23
50	78	-23
29	46	-19
5	7	-20
-21	-34	-21
-44	-70	-23
-61	-99	-24
-70	-113	-23
-69	-111	-22
-59	-93	-25
-41	-61	-23
-18	-24	-24
9	15	-25
32	51	-23
52	81	-22
64	99	-21
66	103	-20
59	93	-19
44	68	-19
23	34	-19
-3	-6	-20
-28	-47	-18
-48	-82	-19
-62	-104	-23
-70	-110	-24
-67	-103	-24
-54	-81	-25
-34	-47	-25
-9	-9	-24
16	31	-26
40	64	-23
57	91	-20
66	104	-20
65	103	-18
55	86	-20
37	55	-20
13	19	-18
-12	-22	-20
-37	-60	-20
-55	-93	-20
-69	-109	-23
-72	-112	-25
-67	-100	-26
-53	-72	-26
-29	-39	-24
-4	1	-25
22	39	-24
44	72	-22
60	95	-23
65	103	-19
62	99	-19
49	77	-20
29	47	-20
4	7	-21
-22	-34	-17
-45	-71	-21
-62	-100	-22
-72	-113	-21
-71	-112	-24
-61	-94	-24
-42	-63	-25
-19	-25	-25
8	15	-26
33	51	-24
52	81	-23
64	99	-22
67	103	-23
59	91	-21
42	68	-21
20	34	-22
-5	-7	-22
-30	-46	-22
-51	-81	-22
-66	-102	-26
-71	-111	-24
-67	-103	-24
-53	-81	-24
-33	-49	-24
-8	-9	-25
18	28	-27
42	63	-25
59	89	-24
68	103	-21
66	102	-21
55	85	-20
37	57	-22
13	19	-21
-13	-21	-20
-37	-61	-19
-55	-93	-20
-67	-110	-24
-70	-113	-24
-62	-99	-25
-47	-72	-25
-24	-37	-24
1	2	-24
27	40	-22
48	74	-23
62	93	-19
67	104	-18
64	96	-20
50	77	-19
29	44	-19
4	6	-18
-23	-35	-20
-45	-72	-23
-63	-99	-25
-72	-113	-25
-71	-109	-25
-62	-93	-25
-43	-62	-25
-20	-24	-26
6	16	-24
31	53	-25
51	83	-24
63	100	-23
67	102	-23
60	90	-22
44	65	-22
22	32	-21
-5	-9	-20
-30	-48	-22
-52	-83	-22
-66	-106	-22
-74	-112	-23
-69	-103	-25
-54	-80	-23
-34	-45	-22
-8	-6	-23
18	33	-22
41	66	-20
57	92	-21
66	103	-22
66	100	-20
55	85	-19
38	55	-21
15	18	-21
-11	-23	-20
-36	-60	-22
-56	-90	-21
-70	-109	-23
-74	-110	-28
-65	-97	-25
-51	-70	-25
-27	-35	-25
-2	4	-23
25	43	-21
46	75	-22
60	96	-22
67	104	-18
63	98	-16
50	77	-18
29	44	-17
5	5	-18
-21	-35	-19
-44	-72	-19
-60	-99	-23
-69	-111	-24
-68	-108	-26
-58	-91	-27
-39	-60	-30
-16	-24	-28
9	15	-26
34	51	-27
54	81	-25
65	98	-21
67	100	-23
60	90	-24
44	64	-24
22	31	-22
-4	-11	-21
-29	-49	-20
-52	-84	-22
-66	-105	-23
-72	-112	-23
-69	-104	-25
-55	-82	-24
-36	-48	-25
-10	-11	-22
16	30	-21
39	64	-23
57	90	-22
66	103	-22
64	103	-20
53	85	-18
36	56	-19
12	18	-19
-14	-22	-18
-39	-60	-20
-58	-92	-22
-70	-108	-24
-74	-111	-27
-66	-97	-27
-50	-70	-27
-27	-37	-30
0	4	-28
25	41	-25
46	75	-23
61	95	-22
66	104	-21
62	98	-20
49	77	-21
28	43	-20
5	4	-20
-21	-37	-22
-44	-75	-21
-60	-101	-22
-70	-112	-23
-69	-108	-25
-59	-90	-25
-40	-59	-23
-15	-21	-24
12	18	-24
36	54	-24
55	84	-22
66	100	-21
66	103	-19
59	91	-19
42	67	-19
20	31	-18
-5	-9	-17
-31	-49	-18
-53	-84	-19
-68	-105	-20
-75	-113	-26
-70	-103	-25
-54	-81	-25
-32	-46	-28
-5	-7	-25
20	31	-24
42	65	-24
59	90	-23
66	103	-20
65	100	-18
54	84	-19
37	56	-20
12	17	-21
-13	-22	-21
-38	-61	-21
-57	-91	-22
-69	-109	-21
-71	-110	-24
-63	-96	-27
-46	-69	-24
-23	-32	-25
4	6	-23
29	43	-21
50	75	-23
64	97	-21
69	103	-19
63	95	-17
50	74	-18
28	41	-20
4	3	-19
-22	-38	-18
-45	-74	-20
-62	-101	-24
-71	-113	-25
-71	-109	-27
-60	-92	-24
-42	-60	-25
-18	-23	-25
8	17	-26
33	54	-26
51	84	-23
63	100	-25
65	103	-22
57	92	-21
42	66	-23
20	31	-24
-4	-9	-21
-30	-49	-19
-51	-83	-22
-67	-104	-21
-72	-111	-25
-68	-104	-25
-52	-80	-25
-31	-47	-25
-5	-11	-24
21	28	-25
44	62	-23
60	89	-22
67	101	-19
66	100	-18
54	84	-20
37	54	-20
13	17	-20
-12	-25	-21
-36	-62	-21
-57	-94	-20
-69	-109	-23
-72	-110	-27
-64	-96	-25
-48	-68	-24
-24	-33	-25
1	5	-24
26	41	-24
48	74	-24
60	96	-23
66	102	-22
60	95	-21
46	74	-21
25	41	-21
2	3	-19
-23	-36	-20
-46	-70	-23
-63	-98	-24
-72	-109	-24
-70	-106	-24
-60	-88	-25
-40	-57	-27
-16	-21	-25
12	20	-23
36	56	-21
54	85	-23
65	100	-24
66	103	-21
58	90	-19
40	65	-21
19	30	-21
-7	-11	-21
-32	-51	-22
-53	-86	-20
-68	-108	-23
-72	-115	-24
-68	-105	-24
-54	-82	-25
-34	-49	-24
-8	-8	-24
20	30	-23
42	64	-23
59	90	-21
66	103	-21
65	102	-21
53	84	-22
36	56	-20
12	16	-19
-13	-23	-21
-35	-62	-21
-56	-94	-21
-68	-110	-22
-72	-111	-24
-65	-97	-25
-48	-70	-27
-24	-35	-26
3	4	-24
28	43	-22
49	76	-20
62	96	-20
67	104	-18
62	96	-17
49	72	-18
28	40	-17
4	2	-17
-22	-37	-18
-45	-74	-19
-62	-98	-22
-71	-110	-24
-69	-107	-24
-58	-90	-25
-38	-59	-25
-14	-22	-24
12	17	-23
35	56	-23
53	85	-21
65	102	-21
66	104	-20
59	92	-20
42	65	-22
20	28	-21
-5	-12	-21
-31	-52	-22
-52	-85	-22
-67	-106	-23
-71	-112	-25
-68	-103	-25
-52	-81	-25
-31	-46	-25
-5	-7	-22
20	32	-22
42	65	-21
59	90	-23
66	103	-20
65	98	-20
54	82	-20
35	51	-19
12	16	-18
-16	-24	-20
-41	-61	-23
-60	-90	-22
-71	-108	-24
-74	-109	-24
-64	-96	-23
-47	-66	-23
-24	-31	-24
2	8	-22
27	47	-21
49	77	-22
62	98	-23
68	104	-23
61	96	-21
47	76	-24
27	41	-24
1	3	-22
-24	-39	-24
-47	-76	-25
-63	-103	-26
-71	-114	-23
-69	-109	-24
-58	-90	-25
-39	-58	-25
-13	-21	-27
13	19	-26
37	55	-23
56	84	-25
67	100	-23
67	102	-23
59	90	-20
42	64	-19
19	29	-20
-7	-13	-19
-33	-51	-20
-54	-85	-22
-69	-106	-22
-74	-112	-24
-68	-102	-23
-54	-78	-24
-32	-44	-24
-7	-4	-23
19	34	-23
41	67	-23
58	92	-22
66	103	-20
65	100	-21
54	82	-21
36	51	-19
12	14	-19
-16	-28	-21
-40	-65	-23
-59	-95	-23
-70	-110	-25
-71	-110	-26
-63	-96	-25
-46	-68	-26
-24	-32	-26
2	8	-26
27	44	-24
48	76	-22
62	96	-23
67	103	-23
62	95	-22
48	72	-21
28	39	-23
3	-1	-19
-23	-40	-21
-45	-77	-22
-62	-101	-20
-71	-111	-23
-70	-107	-23
-58	-87	-24
-40	-55	-23
-14	-18	-22
12	20	-21
36	55	-21
55	84	-22
66	99	-20
67	103	-18
59	90	-19
42	64	-19
20	28	-19
-4	-11	-19
-30	-51	-19
-51	-86	-22
-67	-107	-22
-72	-114	-24
-68	-103	-25
-53	-79	-25
-31	-44	-25
-5	-4	-26
22	35	-24
42	70	-23
59	94	-24
66	106	-24
64	101	-22
54	84	-21
35	53	-22
11	13	-20
-15	-27	-21
-39	-64	-21
-59	-93	-23
-70	-110	-23
-74	-111	-23
-64	-97	-24
-47	-70	-25
-24	-33	-24
3	7	-24
27	46	-25
48	79	-25
60	100	-25
65	106	-23
60	97	-22
45	74	-21
25	38	-20
0	0	-20
-26	-41	-20
-49	-77	-20
-67	-101	-22
-76	-111	-23
-72	-106	-23
-61	-87	-23
-42	-55	-21
-16	-18	-23
11	22	-24
34	57	-21
52	85	-20
65	102	-19
66	103	-20
58	91	-20
42	62	-18
18	27	-18
-7	-14	-20
-32	-53	-20
-54	-87	-20
-68	-108	-23
-74	-114	-24
-67	-104	-25
-53	-81	-24
-30	-45	-25
-5	-6	-25
22	33	-25
44	67	-26
61	92	-24
68	102	-22
65	98	-21
54	81	-21
35	48	-20
12	11	-19
-14	-29	-21
-38	-66	-20
-58	-97	-21
-69	-111	-24
-70	-110	-25
-63	-95	-25
-44	-66	-25
-20	-31	-26
7	8	-25
32	45	-25
52	77	-24
65	98	-24
69	104	-23
63	97	-23
48	74	-24
27	41	-23
1	2	-22
-23	-39	-23
-46	-75	-24
-62	-101	-24
-70	-110	-25
-70	-105	-26
-58	-86	-25
-40	-55	-25
-15	-18	-28
12	22	-26
36	57	-24
54	87	-23
65	101	-21
65	104	-19
57	90	-18
40	63	-21
15	27	-19
-10	-15	-18
-35	-53	-19
-55	-87	-20
-68	-107	-20
-74	-113	-24
-68	-102	-24
-53	-78	-23
-31	-45	-25
-4	-5	-24
21	32	-23
44	68	-23
60	92	-21
67	103	-21
63	101	-20
52	82	-20
33	51	-20
10	12	-20
-16	-29	-21
-39	-66	-23
-59	-96	-22
-70	-112	-25
-71	-113	-25
-64	-96	-24
-47	-68	-24
-23	-30	-25
4	9	-24
29	48	-23
50	79	-23
64	97	-22
67	103	-20
62	95	-18
46	74	-17
27	39	-20
1	1	-18
-24	-40	-18
-47	-77	-20
-64	-102	-20
-71	-114	-20
-70	-108	-22
-58	-88	-25
-39	-55	-26
-15	-16	-27
11	23	-24
36	57	-24
56	85	-21
66	100	-21
69	100	-22
59	88	-19
42	62	-20
19	26	-21
-7	-14	-23
-33	-55	-23
-54	-87	-23
-67	-106	-26
-71	-111	-25
-65	-99	-25
-51	-76	-24
-28	-40	-26
-2	-1	-25
24	38	-25
44	71	-24
60	96	-21
68	106	-21
65	102	-20
53	83	-18
35	51	-18
11	12	-18
-14	-28	-16
-40	-65	-19
-60	-94	-20
-72	-110	-24
-75	-111	-25
-67	-97	-23
-48	-68	-25
-24	-32	-25
3	8	-26
28	48	-25
49	79	-22
62	99	-24
65	104	-22
60	95	-21
44	71	-21
23	37	-21
-1	-2	-19
-26	-42	-20
-48	-78	-21
-64	-101	-23
-71	-113	-24
-69	-108	-24
-57	-89	-24
-36	-56	-23
-12	-19	-23
15	21	-22
39	56	-22
57	85	-23
66	100	-21
68	100	-20
59	86	-20
44	58	-20
20	23	-18
-6	-18	-18
-32	-56	-20
-54	-88	-21
-68	-108	-21
-72	-112	-23
-66	-101	-23
-51	-76	-23
-28	-42	-25
-3	-2	-25
22	37	-27
45	69	-27
61	95	-25
67	104	-24
64	100	-20
52	81	-20
32	50	-21
8	12	-21
-18	-29	-21
-43	-66	-22
-59	-97	-24
-71	-112	-27
-72	-112	-26
-63	-96	-26
-46	-65	-27
-23	-28	-25
5	12	-25
30	50	-26
50	82	-24
64	100	-24
66	105	-21
60	95	-20
44	71	-20
24	38	-17
-1	-2	-18
-27	-41	-16
-48	-77	-20
-64	-101	-23
-71	-111	-23
-69	-105	-25
-56	-85	-24
-37	-54	-24
-12	-16	-25
14	24	-23
37	61	-24
55	89	-22
64	103	-20
66	104	-19
57	90	-19
40	61	-20
17	25	-19
-7	-15	-19
-33	-54	-21
-54	-87	-22
-68	-107	-24
-72	-114	-24
-67	-103	-25
-51	-80	-25
-29	-44	-25
-1	-4	-25
23	35	-24
44	68	-23
60	92	-23
67	103	-21
63	99	-24
50	80	-22
31	49	-19
7	11	-18
-19	-30	-19
-42	-69	-18
-61	-96	-19
-71	-112	-21
-71	-111	-22
-63	-96	-25
-44	-68	-25
-21	-32	-24
5	8	-23
30	47	-22
50	77	-24
63	98	-23
66	104	-24
60	93	-23
44	70	-20
23	34	-20
-3	-5	-21
-29	-45	-21
-50	-79	-22
-66	-102	-23
-72	-112	-23
-70	-105	-25
-57	-86	-25
-37	-53	-24
-12	-16	-25
16	25	-25
39	60	-22
58	87	-23
68	102	-23
68	100	-23
59	88	-21
41	60	-20
19	25	-21
-7	-16	-21
-32	-55	-23
-52	-88	-23
-65	-108	-24
-70	-113	-26
-65	-101	-25
-51	-76	-23
-28	-39	-23
-2	0	-24
23	38	-24
45	70	-24
61	93	-23
68	102	-20
64	97	-20
51	79	-19
32	47	-18
9	10	-21
-17	-32	-20
-41	-68	-22
-59	-97	-24
-71	-111	-23
-72	-109	-25
-63	-93	-22
-45	-62	-24
-20	-26	-23
7	15	-22
33	50	-25
53	80	-22
65	99	-22
68	103	-20
61	94	-19
46	71	-19
24	36	-20
0	-2	-21
-27	-43	-20
-49	-78	-22
-65	-102	-25
-72	-111	-27
-70	-105	-24
-58	-82	-23
-37	-50	-24
-12	-13	-24
15	27	-24
37	61	-23
54	88	-24
64	102	-18
65	103	-19
56	88	-19
38	61	-18
16	24	-18
-11	-17	-19
-35	-56	-19
-57	-90	-20
-70	-108	-23
-75	-113	-21
-68	-102	-24
-52	-77	-24
-31	-43	-23
-3	-3	-25
22	35	-23
45	68	-22
62	93	-25
68	104	-24
64	100	-23
51	80	-22
31	48	-23
6	8	-22
-19	-33	-21
-41	-70	-24
-57	-97	-23
-68	-111	-22
-69	-110	-25
-61	-94	-23
-44	-64	-24
-20	-28	-23
5	12	-25
31	49	-25
50	80	-24
63	98	-23
66	103	-19
59	92	-21
45	68	-20
23	34	-20
-1	-5	-20
-28	-44	-20
-49	-80	-21
-65	-102	-23
-72	-111	-24
-68	-105	-25
-55	-85	-27
-35	-52	-25
-10	-13	-27
18	26	-28
42	62	-24
59	88	-23
68	103	-22
66	103	-20
58	89	-19
39	61	-19
16	25	-18
-10	-16	-21
-34	-56	-21
-56	-89	-21
-69	-110	-23
-75	-114	-24
-67	-102	-23
-51	-78	-24
-28	-41	-25
0	-2	-25
26	38	-24
46	71	-25
61	93	-24
66	104	-22
63	98	-21
50	81	-20
31	47	-20
6	9	-19
-19	-32	-20
-42	-69	-23
-60	-98	-24
-71	-113	-22
-72	-111	-25
-61	-95	-25
-44	-64	-24
-20	-27	-23
7	12	-23
32	50	-25
50	80	-23
63	99	-24
65	101	-24
58	91	-22
42	67	-21
22	32	-21
-3	-7	-19
-29	-46	-22
-49	-81	-24
-64	-103	-25
-70	-112	-27
-67	-104	-27
-56	-84	-26
-35	-50	-27
-11	-12	-26
16	28	-24
39	63	-24
57	90	-21
66	104	-19
64	103	-21
54	89	-19
37	61	-18
15	25	-19
-10	-17	-18
-35	-55	-20
-55	-87	-21
-69	-107	-22
-75	-111	-26
-68	-101	-27
-53	-74	-28
-31	-40	-25
-4	0	-25
22	38	-25
45	69	-23
60	93	-21
66	102	-18
63	97	-20
50	77	-19
31	45	-19
6	8	-18
-20	-33	-17
-44	-69	-19
-61	-98	-21
-70	-111	-22
-70	-110	-22
-59	-92	-21
-42	-60	-24
-17	-25	-24
9	15	-25
33	51	-20
52	83	-22
65	99	-24
69	104	-21
62	95	-22
46	70	-19
25	36	-20
0	-5	-20
-27	-45	-20
-49	-80	-21
-64	-102	-21
-70	-111	-24
-67	-105	-23
-55	-84	-23
-35	-52	-23
-10	-14	-21
17	24	-22
41	58	-23
59	86	-22
68	99	-23
67	99	-23
57	83	-24
38	56	-25
16	18	-24
-11	-22	-21
-36	-60	-22
-56	-91	-22
-70	-109	-22
-75	-112	-24
-68	-99	-23
-53	-74	-24
-30	-39	-20
-3	1	-21
24	39	-20
46	72	-22
62	93	-22
68	103	-21
63	96	-23
50	77	-20
31	45	-20
5	6	-21
-20	-33	-21
-43	-70	-24
-61	-97	-24
-70	-110	-26
-71	-108	-25
-61	-91	-24
-43	-62	-25
-18	-24	-25
8	16	-24
33	53	-25
53	84	-24
64	102	-21
67	106	-21
60	95	-22
46	70	-20
24	34	-21
0	-5	-20
-26	-46	-22
-47	-81	-21
-63	-103	-20
-71	-112	-24
-67	-104	-23
-55	-83	-25
-35	-48	-25
-10	-11	-24
16	29	-23
40	64	-23
56	89	-21
65	104	-20
64	101	-18
54	85	-18
36	56	-20
13	19	-18
-12	-21	-19
-38	-61	-21
-58	-92	-23
-70	-111	-20
-75	-113	-23
-67	-101	-27
-51	-74	-25
-28	-37	-25
-1	0	-26
25	40	-27
46	71	-25
61	93	-22
65	102	-22
62	96	-20
49	77	-20
30	44	-20
6	7	-20
-20	-34	-19
-43	-70	-22
-62	-98	-23
-71	-111	-22
-71	-109	-25
-60	-92	-28
-41	-62	-27
-17	-26	-25
10	13	-25
34	50	-25
54	81	-23
65	100	-21
68	103	-21
61	94	-22
46	68	-22
24	36	-19
-1	-5	-21
-26	-45	-22
-49	-78	-20
-64	-102	-23
-72	-111	-25
-68	-104	-23
-54	-82	-23
-34	-49	-25
-7	-11	-25
18	28	-25
42	63	-24
57	90	-21
66	103	-21
65	102	-20
54	86	-16
37	57	-18
14	20	-17
-11	-21	-17
-38	-59	-20
-58	-92	-21
-72	-109	-24
-75	-112	-27
-67	-98	-27
-51	-71	-27
-30	-37	-30
-3	4	-26
23	39	-25
44	74	-25
59	94	-25
65	103	-23
62	97	-19
49	77	-22
29	44	-18
6	5	-20
-21	-36	-19
-44	-74	-21
-63	-100	-23
-74	-113	-22
-74	-110	-25
-62	-92	-26
-44	-61	-28
-18	-23	-26
9	16	-23
34	52	-23
53	82	-22
65	100	-20
68	103	-19
60	92	-19
46	67	-18
24	32	-15
0	-8	-18
-26	-48	-19
-49	-84	-18
-65	-105	-21
-72	-113	-20
-68	-104	-23
-55	-82	-23
-33	-48	-26
-8	-9	-25
17	30	-23
41	65	-23
57	91	-21
66	104	-21
65	104	-21
56	87	-22
36	58	-20
13	20	-19
-12	-21	-21
-38	-60	-22
-56	-93	-24
-69	-111	-26
-70	-113	-27
-64	-99	-26
-48	-72	-26
-26	-37	-26
-1	4	-28
25	41	-26
44	75	-24
60	96	-23
65	103	-21
61	96	-23
48	77	-21
28	43	-22
5	5	-20
-21	-35	-20
-44	-71	-20
-63	-97	-21
-72	-111	-24
-72	-108	-23
-62	-92	-24
-43	-61	-21
-18	-24	-21
11	13	-21
35	50	-22
52	80	-24
62	99	-26
64	103	-24
56	93	-23
41	68	-23
20	31	-20
-5	-9	-19
-30	-50	-18
-52	-83	-19
-67	-105	-22
-74	-111	-24
-68	-101	-26
-54	-81	-24
-33	-47	-25
-8	-12	-25
18	28	-25
41	62	-23
58	89	-21
68	102	-20
67	100	-22
58	85	-20
40	55	-19
16	18	-20
-12	-22	-19
-36	-60	-22
-57	-89	-22
-70	-108	-24
-72	-110	-23
-65	-99	-23
-49	-72	-23
-24	-38	-23
2	4	-22
28	43	-23
49	75	-22
63	96	-19
68	102	-19
64	95	-19
51	72	-18
32	41	-20
7	2	-19
-20	-38	-20
-44	-72	-21
-62	-99	-21
-72	-110	-23
-72	-109	-25
-61	-90	-24
-42	-58	-24
-17	-23	-26
10	19	-25
35	55	-24
53	85	-23
64	103	-24
66	106	-23
57	93	-21
41	67	-20
19	32	-20
-6	-9	-19
-30	-49	-20
-50	-83	-21
-64	-103	-19
-70	-111	-22
-66	-105	-25
-54	-82	-26
-33	-48	-23
-7	-10	-24
18	31	-24
42	65	-22
59	92	-20
67	103	-21
66	100	-22
55	83	-20
37	53	-20
12	16	-19
-13	-24	-19
-39	-61	-20
-58	-93	-23
-70	-109	-24
-74	-112	-24
-65	-100	-24
-47	-72	-24
-23	-36	-24
2	4	-26
28	41	-25
47	74	-26
61	93	-25
65	103	-22
61	96	-21
49	76	-20
28	43	-19
5	3	-21
-22	-37	-21
-45	-76	-21
-63	-101	-21
-72	-114	-21
-71	-109	-22
-60	-89	-22
-41	-58	-24
-18	-21	-25
10	18	-23
34	53	-21
53	83	-20
64	99	-18
66	102	-17
59	89	-19
42	65	-19
20	29	-20
-6	-9	-21
-30	-50	-23
-53	-83	-24
-68	-105	-25
-75	-112	-28
-70	-104	-27
-55	-82	-28
-34	-46	-25
-9	-7	-24
18	34	-25
41	70	-25
57	94	-25
64	106	-23
63	101	-22
52	84	-23
34	53	-21
11	15	-21
-15	-24	-22
-40	-63	-22
-58	-93	-24
-71	-110	-25
-75	-112	-26
-65	-98	-26
-49	-70	-24
-25	-33	-23
3	5	-24
29	43	-24
49	76	-23
63	97	-21
67	104	-19
62	97	-21
49	76	-20
28	41	-19
5	3	-18
-22	-38	-18
-44	-74	-19
-62	-99	-21
-70	-110	-24
-68	-105	-26
-58	-86	-24
-38	-55	-23
-14	-20	-25
13	21	-25
36	56	-25
56	86	-23
66	103	-24
67	104	-25
59	93	-20
44	65	-21
21	29	-21
-6	-12	-20
-32	-52	-22
-53	-85	-23
-67	-107	-25
-72	-113	-24
-68	-105	-23
-55	-81	-23
-34	-48	-24
-7	-9	-23
19	30	-20
42	64	-20
60	89	-21
66	101	-19
64	99	-19
52	82	-20
33	52	-19
10	16	-21
-14	-26	-21
-38	-62	-23
-58	-94	-24
-69	-110	-24
-72	-112	-24
-63	-98	-24
-46	-69	-25
-22	-33	-27
4	8	-27
29	45	-24
49	77	-23
63	98	-21
67	105	-20
62	97	-21
51	75	-21
30	42	-19
5	2	-21
-22	-38	-24
-45	-74	-23
-64	-100	-25
-74	-110	-24
-71	-108	-24
-60	-88	-25
-40	-58	-24
-15	-19	-24
14	20	-22
38	55	-23
56	84	-21
66	99	-20
68	101	-19
58	89	-19
42	63	-19
20	28	-16
-6	-12	-17
-30	-50	-17
-52	-86	-17
-66	-105	-20
-72	-113	-21
-69	-105	-23
-54	-81	-22
-33	-47	-25
-6	-6	-24
18	32	-23
41	67	-23
57	90	-21
64	103	-21
62	100	-21
51	84	-21
32	54	-19
10	16	-19
-15	-24	-21
-40	-62	-23
-58	-94	-22
-69	-110	-23
-71	-112	-25
-63	-96	-26
-46	-69	-27
-22	-34	-26
4	5	-27
29	43	-25
51	76	-22
63	95	-23
68	102	-21
62	95	-23
48	75	-21
28	41	-22
3	2	-21
-22	-37	-20
-44	-75	-25
-60	-100	-22
-70	-111	-25
-68	-106	-25
-57	-87	-26
-38	-55	-27
-14	-16	-26
14	21	-24
39	58	-24
57	85	-24
67	103	-24
67	103	-24
58	91	-20
40	65	-21
18	28	-19
-7	-13	-20
-31	-52	-21
-51	-86	-21
-67	-108	-23
-71	-113	-20
-67	-103	-23
-53	-81	-23
-32	-46	-25
-4	-7	-26
22	33	-23
44	67	-23
60	90	-21
66	103	-22
64	98	-20
52	82	-19
33	51	-19
9	15	-18
-17	-25	-19
-41	-63	-20
-61	-94	-21
-72	-112	-22
-75	-111	-21
-64	-98	-23
-48	-69	-24
-24	-33	-23
3	7	-24
29	45	-22
50	77	-21
62	96	-21
67	103	-23
62	95	-23
48	72	-21
28	40	-21
3	1	-20
-22	-40	-24
-46	-74	-24
-63	-101	-25
-74	-110	-25
-72	-107	-24
-61	-88	-25
-41	-55	-24
-16	-19	-25
11	21	-24
36	58	-20
54	85	-20
64	102	-20
65	104	-19
57	91	-20
40	63	-19
16	27	-18
-10	-13	-20
-35	-52	-19
-54	-86	-21
-68	-107	-23
-74	-113	-24
-69	-103	-25
-55	-80	-24
-34	-45	-24
-7	-4	-24
20	34	-23
42	68	-23
61	93	-24
68	103	-23
65	100	-21
52	80	-18
33	50	-19
9	12	-21
-16	-27	-19
-40	-64	-20
-59	-95	-23
-70	-110	-26
-74	-110	-26
-64	-94	-25
-47	-65	-25
-23	-29	-25
4	12	-26
29	48	-24
50	81	-24
62	101	-22
67	106	-21
62	96	-21
49	72	-21
29	38	-19
4	-2	-21
-22	-41	-22
-46	-78	-20
-62	-102	-23
-71	-113	-24
-69	-109	-24
-57	-90	-26
-37	-59	-26
-12	-20	-29
14	22	-26
37	60	-23
55	89	-26
65	104	-25
64	104	-24
57	89	-24
40	63	-20
18	26	-19
-7	-13	-19
-32	-53	-21
-53	-87	-22
-67	-108	-23
-71	-115	-23
-67	-105	-25
-52	-81	-22
-30	-46	-22
-4	-6	-23
22	32	-23
44	67	-23
59	89	-21
66	101	-19
64	97	-18
52	81	-20
33	50	-17
11	13	-17
-15	-27	-20
-40	-64	-19
-60	-94	-21
-71	-110	-23
-72	-109	-23
-64	-95	-22
-47	-66	-23
-22	-32	-23
4	8	-24
30	46	-22
51	79	-20
63	98	-23
67	106	-20
60	97	-21
46	75	-20
26	40	-19
1	0	-21
-24	-40	-20
-47	-76	-22
-63	-99	-24
-71	-110	-26
-68	-105	-28
-56	-88	-28
-37	-56	-30
-12	-19	-28
12	23	-29
37	59	-25
55	87	-23
65	102	-20
66	101	-19
57	87	-20
41	59	-21
17	23	-21
-8	-17	-19
-34	-55	-20
-55	-89	-20
-68	-109	-22
-71	-113	-22
-66	-104	-23
-51	-78	-24
-28	-43	-24
-4	-4	-24
22	36	-24
44	68	-26
60	93	-24
68	103	-23
66	99	-22
53	81	-22
33	50	-21
9	12	-20
-17	-29	-19
-40	-66	-21
-60	-96	-22
-70	-110	-22
-72	-109	-25
-64	-94	-23
-47	-64	-23
-24	-30	-23
3	10	-22
28	47	-22
50	79	-21
63	99	-20
67	104	-19
60	96	-20
44	72	-20
23	39	-22
-2	-3	-22
-28	-44	-21
-50	-80	-23
-65	-104	-24
-72	-113	-24
-69	-108	-25
-57	-87	-23
-37	-55	-23
-13	-16	-25
12	23	-23
36	59	-24
54	88	-20
64	101	-20
65	103	-20
56	88	-18
40	61	-16
17	25	-17
-8	-16	-20
-34	-55	-21
-53	-89	-21
-68	-108	-21
-72	-114	-21
-66	-102	-24
-51	-77	-25
-28	-42	-24
-2	0	-25
24	37	-26
46	71	-27
62	95	-27
68	105	-26
65	101	-23
52	83	-21
33	51	-21
8	14	-19
-17	-25	-18
-40	-64	-19
-58	-93	-24
-69	-109	-24
-70	-109	-24
-62	-94	-25
-45	-66	-22
-21	-29	-23
5	10	-21
30	47	-22
51	77	-21
64	96	-21
68	103	-21
63	95	-20
49	74	-20
28	40	-20
1	1	-20
-24	-40	-21
-49	-78	-21
-65	-103	-22
-72	-116	-26
-69	-109	-26
-56	-90	-27
-36	-56	-27
-11	-17	-29
16	22	-28
39	58	-24
57	85	-25
66	100	-23
66	100	-21
55	86	-20
39	60	-20
15	23	-21
-10	-16	-19
-36	-56	-21
-57	-87	-23
-71	-108	-24
-76	-112	-24
-68	-101	-25
-53	-77	-25
-30	-41	-26
-4	-1	-26
22	37	-24
44	69	-22
60	93	-21
67	103	-20
64	97	-19
54	78	-22
34	47	-21
10	10	-19
-16	-30	-22
-40	-67	-23
-59	-96	-22
-70	-111	-22
-71	-110	-24
-61	-94	-25
-44	-63	-23
-21	-27	-24
5	14	-23
29	51	-22
50	81	-21
63	100	-21
66	103	-20
61	93	-18
44	70	-19
24	37	-19
-2	-3	-19
-26	-44	-21
-50	-80	-24
-65	-105	-24
-74	-114	-25
-70	-109	-26
-59	-87	-25
-38	-53	-25
-13	-15	-25
15	24	-25
39	59	-25
57	88	-24
66	103	-20
66	103	-20
56	89	-19
39	61	-19
16	24	-19
-10	-17	-18
-34	-57	-20
-54	-90	-21
-67	-107	-23
-71	-110	-24
-65	-101	-25
-50	-76	-27
-27	-42	-25
-1	-2	-24
25	35	-24
46	68	-22
61	92	-21
67	102	-20
63	98	-17
51	79	-19
31	49	-17
8	10	-19
-20	-30	-19
-43	-66	-19
-61	-95	-22
-72	-109	-24
-72	-109	-24
-63	-93	-25
-45	-63	-25
-21	-26	-24
6	15	-24
32	51	-23
52	82	-22
65	99	-21
68	104	-22
62	92	-21
45	68	-21
24	35	-19
-1	-4	-19
-27	-44	-19
-49	-81	-20
-65	-103	-25
-72	-113	-25
-69	-105	-26
-57	-84	-26
-37	-52	-26
-12	-13	-26
14	26	-25
37	62	-24
54	88	-23
63	102	-22
64	103	-23
54	87	-21
39	60	-21
15	23	-19
-10	-18	-20
-37	-57	-21
-58	-89	-23
-70	-108	-23
-75	-112	-24
-66	-100	-25
-50	-75	-25
-27	-39	-26
0	0	-24
26	38	-24
48	72	-23
62	94	-24
68	104	-22
64	98	-23
51	79	-21
31	47	-22
6	8	-21
-20	-32	-19
-42	-70	-21
-60	-98	-23
-72	-112	-24
-72	-111	-23
-63	-94	-23
-45	-64	-23
-20	-27	-26
7	12	-25
33	50	-23
53	81	-26
66	100	-23
68	105	-21
61	95	-20
45	71	-20
24	35	-19
-1	-3	-17
-26	-45	-18
-48	-79	-21
-65	-102	-21
-71	-112	-22
-69	-104	-25
-56	-85	-25
-36	-51	-25
-12	-13	-25
15	27	-22
38	61	-22
56	88	-21
65	103	-19
66	102	-19
56	87	-20
39	58	-19
15	22	-20
-12	-20	-21
-35	-60	-22
-56	-92	-23
-69	-111	-24
-75	-114	-24
-67	-103	-25
-52	-77	-24
-29	-40	-23
-3	-1	-24
23	38	-22
46	70	-22
60	95	-23
66	104	-23
62	99	-20
49	79	-20
29	47	-20
6	8	-21
-20	-34	-23
-42	-70	-22
-58	-98	-24
-68	-112	-23
-68	-108	-25
-59	-92	-27
-40	-61	-26
-18	-24	-25
8	15	-22
33	51	-22
52	81	-22
65	100	-19
67	104	-17
60	96	-19
45	71	-19
24	38	-20
0	-2	-19
-26	-43	-20
-47	-78	-22
-63	-102	-26
-70	-110	-25
-67	-105	-25
-54	-84	-25
-34	-51	-26
-10	-13	-27
16	26	-23
39	59	-23
57	85	-22
65	99	-23
66	99	-24
56	84	-23
37	56	-24
13	20	-25
-12	-20	-26
-36	-58	-24
-57	-90	-25
-69	-108	-25
-72	-112	-24
-66	-100	-22
-51	-74	-21
-29	-40	-21
-2	0	-23
24	37	-21
46	71	-22
62	93	-21
68	103	-21
64	99	-22
51	79	-20
31	48	-20
7	8	-19
-18	-32	-19
-41	-70	-19
-59	-98	-20
-70	-111	-22
-70	-110	-24
-61	-92	-21
-43	-63	-24
-18	-25	-26
8	14	-24
33	50	-23
52	81	-21
64	98	-23
65	103	-22
60	92	-20
44	68	-22
23	32	-20
-2	-7	-20
-29	-47	-22
-52	-83	-23
-68	-103	-23
-75	-111	-22
-70	-103	-25
-58	-82	-23
-36	-48	-24
-11	-11	-23
16	27	-22
38	63	-22
57	89	-21
64	103	-21
64	101	-19
54	85	-20
36	57	-21
13	20	-20
-12	-21	-21
-36	-59	-22
-57	-90	-24
-68	-109	-24
-71	-112	-25
-64	-99	-25
-49	-74	-22
-27	-37	-24
0	2	-25
25	41	-21
47	72	-19
60	95	-21
68	103	-20
63	97	-20
52	78	-20
32	46	-19
7	10	-19
-19	-31	-19
-43	-67	-19
-60	-95	-19
-70	-110	-21
-70	-107	-25
-61	-91	-24
-42	-61	-22
-18	-23	-24
8	17	-26
33	54	-24
52	82	-24
64	100	-24
66	102	-21
58	92	-22
44	66	-20
21	33	-21
-2	-6	-21
-28	-46	-20
-50	-80	-21
-65	-103	-24
-71	-111	-24
-69	-104	-24
-57	-83	-26
-36	-48	-25
-12	-11	-24
14	29	-22
38	64	-21
56	90	-21
65	101	-20
64	101	-19
54	86	-20
36	56	-20
14	20	-18
-12	-21	-19
-36	-59	-22
-56	-92	-24
-70	-110	-25
-72	-114	-28
-66	-101	-30
-49	-75	-30
-27	-38	-28
0	2	-28
25	40	-27
46	72	-27
61	95	-26
67	103	-21
64	96	-19
51	76	-20
32	43	-19
6	4	-21
-20	-37	-20
-44	-74	-21
-61	-101	-23
-70	-113	-24
-70	-109	-24
-59	-92	-22
-42	-61	-22
-18	-23	-23
8	16	-24
33	53	-25
52	82	-23
64	100	-21
66	104	-21
59	91	-20
44	67	-18
22	32	-18
-2	-8	-18
-28	-47	-19
-51	-82	-21
-68	-104	-22
-74	-112	-21
-68	-106	-26
-55	-84	-26
-33	-51	-25
-7	-12	-26
21	27	-26
44	62	-24
61	88	-22
69	101	-23
67	102	-22
57	85	-24
38	58	-21
16	20	-20
-11	-21	-20
-35	-61	-19
-55	-92	-23
-68	-110	-22
-72	-112	-23
-65	-98	-24
-48	-70	-24
-25	-35	-22
2	4	-23
27	43	-21
48	76	-21
61	96	-21
66	106	-21
62	99	-19
49	78	-18
30	45	-21
5	6	-18
-21	-35	-18
-46	-72	-20
-63	-98	-23
-74	-111	-23
-71	-108	-24
-60	-90	-24
-42	-60	-23
-17	-23	-26
8	16	-25
32	53	-24
50	82	-22
62	98	-22
65	102	-23
57	90	-23
41	65	-21
19	30	-21
-5	-9	-19
-30	-48	-20
-52	-81	-22
-66	-103	-23
-72	-111	-24
-67	-103	-27
-54	-83	-24
-32	-49	-24
-8	-11	-27
18	31	-22
41	65	-24
58	91	-23
66	106	-21
65	103	-22
54	86	-20
35	55	-20
12	16	-18
-14	-24	-18
-39	-63	-21
-58	-93	-23
-71	-110	-24
-75	-110	-25
-67	-96	-27
-50	-68	-25
-28	-33	-26
-1	5	-25
24	43	-24
46	72	-24
61	95	-19
66	103	-19
62	96	-18
48	76	-16
29	41	-20
4	3	-21
-22	-39	-21
-46	-75	-21
-63	-101	-23
-70	-113	-23
-69	-108	-25
-58	-89	-23
-39	-58	-26
-14	-20	-27
13	20	-26
36	55	-25
56	84	-23
67	100	-24
69	100	-20
62	89	-20
46	62	-19
22	28	-16
-2	-13	-20
-28	-51	-21
-49	-84	-23
-63	-106	-25
-70	-112	-23
-65	-104	-26
-52	-81	-25
-31	-47	-24
-5	-7	-24
21	32	-23
42	67	-24
59	92	-23
67	104	-23
64	102	-21
53	84	-20
35	55	-19
12	18	-20
-15	-24	-19
-37	-61	-21
-56	-93	-21
-68	-110	-22
-71	-112	-24
-65	-98	-23
-48	-70	-25
-24	-35	-25
2	6	-24
26	43	-25
47	76	-23
61	96	-21
65	105	-23
61	97	-23
48	76	-19
27	42	-20
2	3	-20
-23	-37	-22
-47	-74	-23
-63	-99	-25
-71	-110	-24
-70	-108	-22
-59	-90	-27
-40	-60	-25
-16	-22	-24
11	17	-24
34	53	-21
53	82	-22
64	98	-20
66	100	-21
57	88	-23
41	63	-22
18	28	-21
-7	-12	-22
-32	-50	-23
-53	-84	-24
-67	-105	-25
-75	-112	-26
-69	-102	-24
-56	-80	-23
-35	-46	-24
-10	-7	-22
18	31	-23
41	65	-24
57	89	-24
67	102	-19
65	100	-20
55	83	-20
35	53	-19
12	15	-20
-14	-25	-21
-39	-64	-22
-57	-93	-22
-69	-110	-23
-71	-110	-25
-63	-97	-25
-45	-69	-24
-22	-34	-22
5	4	-22
30	43	-22
50	77	-22
66	98	-20
69	106	-19
64	100	-19
50	77	-17
30	43	-19
5	4	-19
-21	-37	-23
-44	-74	-25
-62	-98	-25
-70	-110	-28
-70	-105	-28
-59	-88	-27
-41	-56	-24
-16	-18	-25
11	22	-23
36	59	-21
55	87	-22
64	103	-19
66	103	-19
58	89	-19
41	62	-19
18	27	-19
-7	-13	-16
-31	-52	-21
-54	-85	-22
-69	-105	-24
-76	-111	-24
-70	-103	-27
-56	-80	-28
-35	-45	-25
-9	-7	-25
17	33	-25
41	66	-23
57	92	-22
65	103	-21
64	100	-19
53	83	-21
35	52	-23
12	16	-22
-13	-25	-23
-39	-63	-25
-58	-93	-25
-70	-110	-24
-72	-111	-25
-64	-98	-23
-47	-70	-23
-24	-34	-23
2	7	-22
28	43	-23
47	76	-21
61	97	-22
65	103	-21
60	96	-22
46	74	-22
26	41	-19
2	1	-19
-23	-38	-19
-46	-72	-20
-63	-99	-22
-70	-110	-23
-70	-107	-25
-58	-88	-26
-40	-58	-27
-14	-20	-25
12	20	-26
36	56	-23
56	85	-21
65	101	-21
67	103	-19
58	90	-22
42	63	-19
18	27	-19
-7	-13	-19
-33	-52	-20
-53	-85	-21
-67	-105	-23
-71	-112	-24
-65	-102	-25
-51	-80	-25
-29	-45	-24
-4	-5	-24
21	33	-24
43	68	-22
59	92	-21
68	103	-22
67	100	-20
56	82	-21
37	51	-21
13	14	-17
-14	-28	-19
-40	-65	-21
-58	-95	-21
-70	-111	-24
-72	-113	-27
-64	-97	-27
-47	-69	-27
-23	-33	-25
2	7	-24
28	44	-24
49	77	-23
63	96	-23
67	103	-23
61	95	-21
46	72	-20
26	39	-21
2	0	-20
-24	-41	-21
-47	-78	-23
-64	-102	-27
-74	-113	-26
-71	-106	-26
-60	-87	-27
-39	-55	-26
-14	-17	-24
14	21	-22
37	58	-24
55	86	-23
64	103	-22
64	104	-20
56	90	-17
40	63	-17
18	26	-16
-6	-14	-17
-31	-54	-19
-53	-87	-21
-67	-108	-23
-74	-115	-26
-67	-104	-27
-52	-83	-27
-30	-46	-26
-3	-6	-27
22	32	-28
44	68	-23
59	92	-23
66	105	-21
64	100	-21
53	83	-19
36	51	-20
12	13	-20
-15	-27	-18
-40	-65	-20
-58	-95	-21
-70	-112	-24
-72	-111	-24
-63	-97	-25
-46	-67	-23
-22	-31	-23
4	9	-23
28	47	-21
48	77	-22
62	98	-20
66	105	-20
61	97	-20
48	76	-20
26	41	-20
2	0	-18
-24	-42	-21
-46	-77	-21
-64	-102	-22
-72	-111	-26
-70	-105	-24
-58	-86	-24
-37	-54	-22
-12	-17	-23
15	22	-24
39	58	-25
57	89	-24
66	104	-22
67	104	-21
57	92	-21
40	63	-21
18	27	-19
-8	-16	-19
-34	-54	-20
-55	-88	-22
-68	-109	-24
-74	-113	-25
-68	-103	-23
-52	-79	-24
-31	-44	-24
-5	-4	-25
20	36	-24
42	68	-23
58	91	-21
65	100	-22
63	98	-22
51	79	-19
34	51	-21
10	14	-21
-16	-27	-21
-40	-64	-21
-60	-95	-23
-71	-110	-23
-74	-110	-23
-64	-95	-25
-47	-64	-23
-23	-28	-24
4	13	-24
31	49	-24
52	80	-25
65	98	-24
68	104	-22
63	95	-20
48	71	-21
27	38	-19
3	-2	-19
-23	-43	-21
-45	-79	-23
-63	-102	-22
-70	-112	-22
-68	-106	-24
-58	-85	-22
-38	-53	-23
-13	-15	-23
14	23	-24
37	58	-24
55	85	-21
66	100	-22
65	103	-21
57	88	-20
40	61	-23
16	24	-20
-10	-17	-22
-33	-54	-23
-54	-88	-22
-66	-107	-23
-72	-112	-25
-66	-101	-25
-52	-77	-23
-32	-42	-24
-5	-2	-23
20	36	-24
42	70	-23
59	93	-24
66	104	-24
64	98	-23
52	81	-21
33	50	-19
9	12	-18
-16	-29	-18
-40	-66	-20
-59	-95	-19
-70	-111	-23
-70	-112	-27
-62	-96	-26
-45	-68	-28
-20	-30	-28
6	10	-28
32	47	-26
52	78	-22
64	97	-21
67	103	-20
60	93	-18
46	71	-20
24	37	-19
-1	-2	-18
-27	-44	-19
-50	-79	-19
-67	-103	-21
-74	-114	-21
-69	-108	-21
-56	-89	-23
-35	-55	-24
-12	-19	-25
15	21	-25
37	57	-25
54	85	-25
64	100	-24
64	101	-22
55	88	-20
39	60	-20
16	26	-20
-10	-15	-21
-33	-55	-23
-54	-88	-22
-66	-107	-27
-71	-110	-27
-66	-100	-26
-51	-75	-24
-30	-39	-24
-4	-1	-24
21	37	-22
44	68	-24
59	93	-21
66	103	-19
63	99	-19
50	82	-20
32	50	-20
8	13	-20
-17	-29	-21
-42	-66	-22
-60	-96	-23
-70	-109	-24
-71	-108	-23
-61	-93	-24
-43	-64	-25
-18	-29	-25
10	11	-23
34	47	-21
54	79	-22
65	99	-23
69	103	-20
62	95	-21
47	70	-20
25	35	-19
0	-5	-17
-28	-45	-20
-50	-80	-21
-66	-103	-21
-75	-112	-24
-70	-106	-24
-57	-85	-24
-38	-52	-24
-13	-14	-22
13	25	-23
37	60	-23
56	88	-21
68	102	-20
68	103	-19
59	89	-19
41	61	-20
18	26	-19
-10	-14	-19
-35	-52	-20
-55	-87	-21
-68	-105	-22
-72	-112	-23
-66	-101	-24
-52	-76	-24
-30	-42	-21
-4	-2	-24
21	35	-24
42	68	-24
60	93	-23
66	102	-22
63	98	-22
49	79	-23
28	47	-21
4	9	-19
-21	-30	-21
-45	-68	-22
-61	-95	-25
-70	-109	-27
-71	-108	-27
-62	-92	-26
-46	-64	-25
-22	-27	-24
6	12	-24
30	49	-24
52	79	-22
64	97	-24
67	103	-20
61	92	-18
44	68	-18
23	34	-17
-2	-6	-19
-27	-46	-21
-49	-81	-22
-64	-104	-26
-71	-114	-28
-68	-107	-27
-57	-86	-26
-36	-53	-26
-12	-15	-27
13	24	-25
36	61	-23
54	87	-24
65	102	-22
66	102	-21
59	88	-21
42	59	-18
19	22	-20
-9	-18	-22
-35	-57	-18
-56	-89	-20
-69	-107	-19
-72	-111	-21
-65	-99	-24
-47	-75	-24
-25	-38	-24
1	-1	-25
26	38	-24
48	71	-23
62	93	-22
67	104	-21
63	98	-19
49	81	-21
30	47	-20
7	9	-18
-19	-32	-20
-41	-69	-21
-60	-97	-24
-71	-111	-23
-72	-109	-25
-61	-93	-26
-44	-63	-24
-19	-25	-25
8	14	-24
34	50	-25
52	80	-22
64	98	-20
66	103	-21
59	93	-21
44	70	-21
24	36	-20
-1	-2	-19
-27	-44	-20
-49	-79	-21
-65	-103	-21
-75	-112	-24
-70	-105	-27
-58	-84	-25
-36	-50	-24
-10	-12	-24
16	29	-22
41	64	-23
58	90	-23
67	104	-21
66	103	-22
57	88	-23
37	59	-22
15	23	-19
-11	-18	-20
-35	-56	-21
-54	-89	-20
-67	-109	-21
-69	-112	-23
-65	-101	-24
-49	-74	-25
-28	-40	-25
-2	0	-24
25	38	-25
46	70	-23
62	94	-24
67	103	-22
63	99	-19
49	78	-22
29	45	-22
5	8	-20
-20	-34	-21
-44	-71	-22
-61	-99	-22
-70	-112	-23
-71	-111	-26
-61	-93	-26
-44	-62	-25
-20	-26	-25
8	14	-24
32	50	-24
52	80	-21
64	98	-19
67	103	-19
59	93	-20
44	67	-20
22	34	-18
-4	-7	-20
-28	-46	-22
-51	-80	-24
-65	-102	-24
-72	-109	-24
-69	-102	-27
-57	-82	-25
-38	-50	-25
-12	-12	-25
15	26	-24
40	61	-24
58	89	-21
67	101	-20
66	101	-21
55	84	-21
38	56	-20
14	19	-19
-12	-21	-20
-36	-58	-20
-56	-89	-23
-69	-106	-23
-74	-111	-21
-67	-98	-22
-51	-75	-22
-28	-39	-25
-1	2	-25
24	40	-22
46	74	-23
62	96	-22
68	106	-21
65	99	-19
52	79	-18
32	46	-20
8	7	-20
-19	-34	-22
-43	-70	-22
-60	-98	-24
-69	-112	-27
-69	-110	-25
-59	-93	-28
-41	-62	-30
-19	-25	-28
8	15	-28
33	51	-25
52	81	-24
64	99	-24
66	104	-21
60	92	-21
44	69	-20
23	35	-21
-4	-4	-19
-28	-45	-20
-50	-80	-23
-65	-102	-21
-71	-112	-25
-69	-104	-24
-55	-84	-22
-34	-49	-23
-10	-12	-21
16	27	-21
40	60	-21
57	85	-21
66	99	-20
66	98	-21
57	84	-18
39	56	-18
16	19	-18
-10	-21	-17
-36	-59	-20
-55	-89	-21
-69	-108	-23
-71	-109	-25
-63	-97	-25
-47	-71	-23
-24	-36	-26
2	3	-24
27	40	-23
46	72	-23
62	96	-21
65	104	-21
61	97	-20
49	77	-20
27	43	-20
4	6	-20
-22	-35	-20
-45	-71	-23
-62	-99	-24
-72	-110	-24
-71	-108	-25
-61	-92	-23
-42	-61	-24
-18	-25	-25
9	16	-21
33	51	-24
52	81	-22
64	100	-23
66	102	-21
58	92	-21
42	66	-21
22	32	-19
-3	-8	-21
-27	-49	-22
-52	-83	-24
-67	-106	-25
-76	-114	-27
-71	-107	-25
-58	-84	-24
-36	-51	-25
-11	-11	-24
16	29	-25
39	62	-22
56	88	-20
64	101	-20
63	99	-21
53	84	-21
36	55	-20
13	19	-18
-12	-23	-21
-37	-60	-21
-57	-92	-21
-69	-109	-23
-71	-112	-24
-64	-99	-27
-49	-70	-29
-26	-35	-25
1	5	-24
26	43	-25
48	77	-25
64	98	-22
69	106	-19
66	99	-20
52	77	-17
32	45	-19
7	6	-18
-20	-34	-17
-44	-70	-18
-63	-98	-19
-72	-110	-24
-72	-108	-24
-62	-90	-26
-42	-59	-26
-18	-23	-28
9	17	-24
34	54	-23
54	85	-23
65	101	-23
67	105	-19
60	93	-19
44	67	-20
22	32	-20
-4	-9	-21
-31	-49	-19
-53	-85	-19
-68	-106	-23
-72	-115	-24
-69	-106	-25
-54	-85	-24
-33	-51	-25
-8	-11	-25
18	30	-25
41	65	-24
58	90	-23
66	105	-21
66	102	-20
55	85	-24
37	55	-21
12	18	-20
-14	-21	-22
-38	-60	-21
-57	-92	-23
-69	-108	-23
-71	-112	-27
-63	-99	-25
-48	-72	-27
-25	-37	-26
0	3	-24
25	40	-24
45	72	-23
61	94	-25
67	104	-21
62	97	-21
50	78	-19
30	45	-19
7	6	-18
-20	-35	-19
-41	-74	-19
-59	-101	-21
-69	-115	-22
-68	-111	-23
-59	-94	-23
-40	-61	-23
-15	-22	-22
11	17	-20
34	55	-21
52	83	-21
64	101	-22
65	103	-20
57	91	-18
41	67	-19
20	30	-18
-5	-9	-19
-30	-48	-21
-52	-82	-20
-67	-105	-23
-72	-111	-24
-68	-102	-23
-54	-81	-24
-34	-46	-25
-8	-7	-27
18	32	-24
40	66	-23
57	92	-22
65	104	-23
64	101	-20
54	85	-20
37	55	-22
14	19	-20
-11	-22	-22
-36	-59	-21
-55	-91	-20
-68	-109	-23
-71	-113	-24
-65	-100	-25
-49	-70	-24
-26	-35	-24
0	7	-25
24	46	-24
44	77	-21
59	99	-21
66	105	-21
61	97	-21
50	76	-20
29	43	-21
6	4	-20
-22	-38	-19
-44	-74	-17
-61	-102	-21
-71	-113	-23
-69	-110	-24
-59	-92	-27
-40	-61	-26
-16	-25	-26
10	14	-25
34	50	-24
52	80	-25
64	98	-23
65	103	-21
57	93	-19
41	66	-20
19	32	-21
-7	-10	-22
-32	-49	-25
-53	-84	-23
-67	-105	-23
-72	-112	-24
-68	-104	-26
-54	-82	-25
-32	-48	-25
-7	-9	-24
19	31	-24
42	66	-24
59	93	-22
67	103	-20
66	101	-17
54	82	-18
36	53	-19
12	14	-19
-15	-26	-18
-39	-61	-20
-59	-93	-24
-71	-108	-22
-74	-111	-24
-65	-97	-25
-49	-70	-24
-26	-33	-25
2	7	-23
26	44	-23
48	76	-22
61	95	-22
67	103	-21
62	95	-20
48	75	-21
28	41	-21
4	3	-22
-23	-38	-21
-45	-77	-23
-61	-102	-26
-70	-114	-26
-68	-109	-25
-58	-89	-24
-39	-58	-24
-15	-19	-24
10	20	-23
35	56	-23
54	84	-21
66	100	-19
68	104	-18
60	92	-19
42	68	-20
20	31	-19
-6	-8	-21
-32	-50	-19
-52	-85	-21
-67	-105	-22
-72	-112	-23
-68	-102	-24
-54	-80	-25
-32	-45	-28
-5	-7	-24
21	32	-27
44	66	-24
60	90	-21
67	102	-22
65	100	-20
53	83	-22
34	53	-21
12	15	-22
-14	-25	-21
-37	-64	-22
-58	-94	-23
-71	-112	-27
-76	-113	-25
-66	-99	-23
-50	-71	-26
-26	-33	-22
1	6	-22
27	43	-22
48	76	-22
61	96	-25
67	103	-22
62	96	-21
48	75	-23
28	41	-21
3	3	-21
-22	-39	-21
-46	-74	-20
-62	-99	-20
-71	-109	-24
-68	-105	-26
-58	-86	-24
-38	-56	-24
-13	-19	-23
12	20	-23
36	56	-21
54	85	-21
64	102	-23
65	103	-19
57	92	-21
40	64	-23
18	29	-23
-8	-12	-22
-33	-51	-23
-55	-84	-21
-69	-105	-23
-75	-111	-24
-69	-104	-23
-55	-82	-24
-34	-48	-24
-8	-9	-25
18	32	-25
40	65	-22
57	91	-23
66	103	-21
66	101	-20
55	84	-21
36	53	-18
13	17	-20
-15	-24	-21
-38	-60	-20
-58	-91	-20
-69	-107	-22
-71	-109	-27
-62	-95	-25
-45	-67	-27
-22	-31	-26
6	10	-25
30	47	-24
51	79	-24
64	98	-24
68	103	-21
62	95	-22
48	70	-21
27	38	-22
2	-2	-20
-23	-40	-20
-46	-76	-20
-63	-102	-20
-70	-114	-21
-69	-110	-20
-57	-92	-21
-38	-60	-24
-13	-22	-24
12	19	-23
36	56	-24
56	85	-22
66	100	-20
66	104	-20
58	90	-20
41	63	-19
18	27	-19
-8	-15	-20
-33	-53	-21
-54	-88	-23
-68	-106	-23
-72	-112	-24
-68	-102	-25
-54	-79	-25
-32	-45	-23
-7	-7	-24
20	32	-22
42	66	-22
59	91	-21
67	103	-22
65	100	-24
53	83	-22
34	53	-21
11	15	-19
-15	-24	-20
-39	-62	-22
-57	-92	-21
-69	-108	-24
-71	-110	-24
-62	-96	-26
-45	-69	-24
-22	-33	-22
5	6	-24
30	45	-23
50	79	-23
63	98	-21
67	104	-21
61	94	-21
46	71	-19
26	38	-20
1	0	-19
-24	-40	-20
-48	-77	-23
-64	-101	-26
-72	-113	-25
-70	-107	-25
-58	-89	-25
-39	-56	-24
-13	-17	-23
13	23	-25
37	59	-22
55	88	-21
67	103	-23
68	103	-20
59	89	-20
43	62	-22
19	26	-21
-7	-15	-19
-34	-55	-21
-55	-87	-19
-68	-107	-21
-72	-112	-22
-67	-102	-22
-51	-79	-24
-29	-43	-22
-4	-5	-25
20	34	-24
44	66	-24
61	92	-23
68	102	-20
66	98	-21
54	80	-22
35	49	-21
10	12	-22
-18	-29	-21
-42	-65	-20
-60	-94	-23
-71	-111	-25
-75	-110	-25
-65	-97	-25
-47	-67	-24
-23	-31	-23
3	9	-23
28	48	-23
49	80	-22
61	98	-23
66	103	-23
61	95	-20
47	72	-19
26	38	-19
0	0	-19
-24	-42	-21
-48	-76	-21
-64	-102	-21
-72	-111	-25
-70	-106	-24
-58	-87	-24
-39	-53	-24
-15	-16	-25
11	24	-26
35	61	-23
53	89	-24
65	103	-23
66	103	-20
56	90	-21
40	60	-20
17	24	-20
-7	-17	-21
-32	-55	-21
-52	-87	-23
-66	-108	-25
-71	-112	-25
-67	-103	-24
-52	-80	-21
-31	-46	-22
-4	-6	-24
22	34	-24
45	68	-24
61	95	-25
68	104	-23
64	100	-21
52	81	-20
32	50	-21
9	12	-20
-17	-27	-21
-40	-63	-23
-60	-94	-20
-70	-109	-25
-71	-109	-26
-63	-94	-25
-46	-65	-26
-20	-28	-26
6	12	-25
31	47	-24
51	77	-23
62	95	-21
65	101	-20
60	92	-19
45	70	-20
24	37	-18
1	-1	-18
-26	-41	-22
-48	-79	-21
-65	-103	-20
-72	-113	-23
-69	-107	-25
-55	-86	-22
-35	-53	-21
-10	-15	-24
16	23	-23
39	59	-23
56	86	-24
65	100	-23
67	101	-23
58	87	-23
41	59	-21
18	23	-20
-7	-17	-20
-32	-56	-19
-53	-88	-20
-66	-106	-21
-71	-111	-24
-65	-99	-25
-52	-77	-25
-31	-42	-27
-5	-4	-24
22	35	-26
44	68	-25
61	92	-24
68	104	-24
64	98	-23
51	80	-24
30	48	-21
6	10	-22
-20	-30	-21
-42	-67	-21
-60	-95	-23
-72	-111	-23
-72	-109	-22
-64	-95	-24
-46	-66	-23
-22	-29	-24
5	9	-23
30	48	-22
50	79	-21
62	99	-20
65	103	-21
58	94	-18
44	71	-20
24	35	-19
-1	-3	-20
-25	-43	-22
-49	-79	-21
-65	-103	-24
-72	-113	-24
-70	-106	-24
-59	-87	-23
-40	-54	-26
-14	-16	-25
12	24	-24
36	60	-25
56	88	-22
66	103	-22
67	104	-22
57	90	-20
41	61	-20
17	25	-19
-9	-16	-21
-34	-55	-20
-55	-86	-19
-67	-106	-23
-71	-109	-22
-64	-98	-23
-50	-74	-25
-28	-39	-26
-3	0	-25
23	38	-23
45	71	-22
61	95	-20
68	105	-22
64	99	-21
52	81	-21
32	47	-22
8	10	-19
-18	-32	-19
-41	-69	-20
-59	-98	-20
-70	-111	-21
-71	-109	-25
-62	-95	-22
-44	-64	-22
-20	-28	-23
7	12	-22
33	48	-19
51	79	-23
64	98	-22
66	103	-20
60	93	-21
44	68	-21
24	35	-22
1	-5	-21
-24	-46	-23
-46	-80	-22
-64	-102	-23
-71	-111	-25
-70	-106	-25
-56	-86	-24
-35	-54	-21
-10	-16	-23
17	23	-24
41	57	-24
56	85	-24
64	100	-24
64	103	-22
55	88	-24
39	60	-21
17	23	-20
-7	-19	-20
-33	-57	-21
-56	-89	-23
-69	-107	-24
-75	-111	-25
-67	-99	-24
-51	-72	-25
-27	-39	-25
-1	0	-27
24	37	-25
44	69	-25
59	93	-23
65	104	-20
62	100	-20
51	80	-21
32	49	-21
8	11	-20
-18	-29	-21
-41	-66	-21
-59	-95	-21
-70	-109	-21
-70	-110	-21
-61	-94	-24
-44	-66	-22
-20	-29	-24
6	11	-24
31	48	-21
50	80	-22
63	98	-20
66	104	-19
60	95	-19
44	71	-19
22	35	-20
-4	-3	-20
-30	-44	-20
-51	-80	-20
-67	-102	-22
-72	-113	-24
-70	-106	-24
-58	-87	-24
-38	-53	-23
-12	-14	-26
14	25	-25
37	61	-24
56	90	-24
65	105	-23
65	104	-21
55	89	-20
38	61	-23
14	23	-21
-10	-17	-22
-35	-56	-23
-55	-88	-24
-68	-108	-25
-72	-112	-26
-65	-100	-27
-50	-77	-25
-26	-40	-23
1	0	-25
26	40	-21
48	72	-25
62	96	-24
67	106	-19
63	98	-20
50	79	-18
31	45	-17
7	9	-19
-19	-32	-19
-43	-68	-18
-60	-95	-21
-71	-110	-21
-71	-108	-23
-62	-93	-24
-43	-63	-26
-20	-26	-25
6	14	-25
31	50	-25
50	80	-21
62	99	-21
64	100	-20
58	91	-22
44	65	-21
22	30	-19
-2	-8	-18
-27	-48	-19
-48	-82	-23
-64	-105	-22
-71	-114	-22
-68	-108	-23
-55	-86	-23
-34	-52	-24
-10	-15	-23
17	25	-25
39	60	-24
56	86	-23
65	100	-23
64	99	-21
54	85	-21
36	57	-21
16	22	-20
-11	-18	-21
-34	-57	-22
-54	-90	-25
-69	-109	-26
-74	-112	-25
-67	-101	-25
-52	-74	-24
-28	-39	-24
-1	1	-24
24	39	-25
46	72	-24
60	94	-21
66	103	-22
62	98	-20
50	79	-19
32	47	-20
7	8	-21
-18	-32	-20
-42	-68	-21
-59	-97	-25
