6.281538148904618,11.32195305413328,11.038711898795535
8.483195131635085,14.318983376835769,10.668312705030505
9.891517539226427,15.531602004949809,8.355488500357012
9.918840358744296,14.628988068321794,3.802727334598891
8.113656989021086,11.430858745192346,2.803898448162027
4.277735081213052,5.851105970826753,10.85563080283773
1.4448887803663961,1.990333069979976,19.375675143476233
8.538883089981313,11.599369898340951,27.156852728425097
16.140850106049278,21.93096913748542,33.07074264580948
23.153378079462243,31.455764942287338,36.20868062175666
28.404854542947497,38.44541025358436,35.96538378167737
30.795261727407127,41.24359094646147,32.1846539421587
29.465114006669086,38.53303786512063,25.239297179491583
24.10408231232348,30.07847759891554,15.92069086817511
15.176149573046132,17.225196782912004,5.1804889877363856
3.7720521674987153,2.1020859188862215,5.896244630757275
8.616320183291274,13.213394458365919,16.138000329965802
20.303160426374202,26.94084571548572,24.558681605464564
29.725052043972305,37.76697900745686,30.494843862158202
35.67158946132802,44.65335217254121,33.73422772952962
37.441298952362,46.72482848466871,34.600068554073744
34.933902734655035,43.471653140737395,33.81601514115579
28.605343264969598,34.98912631392013,32.24830112950328
19.381070943904167,22.274659458885132,30.579224320824288
8.5216732527698,7.182866526665793,29.07066130451858
2.541989911087374,7.966432038243436,27.45300357570769
12.383792172064851,20.904143906236342,25.094668396403296
19.770891197890098,29.920456317967986,21.413533143069355
23.808342866941942,34.08061362168336,16.09672373953267
24.05836773553385,33.19078461960599,9.144738944693064
20.611821809836616,27.630094251331403,0.8361390874999035
14.069675938085817,18.1917230288416,8.31780497717058
5.4537816183474055,6.052464308788227,17.583302246508453
3.950955664872633,7.226251672313332,26.13196278391835
12.783498298967674,19.767203920074465,33.15206284237315
19.778691270390176,29.61446535890398,37.936557607668355
23.922338571983403,35.11756873187402,40.01792401108951
24.567922354994682,35.31228548875247,39.187048359418945
21.5123222189909,30.14659468776935,35.48162882138851
15.042337952912716,20.45546821260045,29.2899091346887
5.927094569196368,7.73421793861371,21.47614938765033
4.654567509439676,6.178254773186185,13.301837514385271
15.2514350809504,19.390719210094275,6.044824762608519
24.342579421020382,30.15970981166119,0.5109798058799179
30.574317908691086,37.03737489156392,3.207613324539662
32.980946046059266,39.01554904761311,5.579351528055701
31.147028017903676,35.68388118266055,7.327307843593963
25.284569262701854,27.363693098342083,9.115135442105103
16.205992541311208,15.137170854560315,11.254635385612046
5.201151517619585,0.7329457672121477,13.51480591006339
6.157905817946329,13.724513426540051,15.165097130080758
16.25458229528431,26.042804854509757,15.456798544327688
23.659637503349067,34.27583528641232,14.071114879432837
27.327632297124822,36.99948984410161,11.167844541443237
26.73920961278934,33.55733190853497,7.335616871099189
21.966505710864034,24.24212506370492,3.3493161667436477
13.66038061835214,10.361719172210321,0.11523358380864353
2.970172026116862,5.901076511446423,2.5723649348585935
8.602008289614576,21.894266188800156,3.7450121111867665
19.399719179736458,35.08272782827149,3.4941959944164926
27.829595129406794,43.63135981549505,1.8579668960956843
32.579287244187306,46.765752040751785,0.8684524740185603
32.81503861257937,44.74649383996234,4.132283821359645
28.317033240147374,38.48163738280112,7.128351765243392
19.534907097951713,29.01159049946189,8.993742049127963
7.550960938576583,17.165796074714827,9.064814104594218
6.062777559186107,3.558027821003893,7.083346855933808
19.474548011186773,11.128312555483852,3.4129517071919313
30.86977066399632,25.796358446750023,0.9105744306963036
38.71731973919785,38.83376714924351,4.55487588475118
41.98151420775626,48.41542775563799,6.563812973479687
40.25664388549011,53.089935063535656,6.618405922271811
33.803183805398,52.32996786933516,4.922310267915787
23.495812419808683,46.724134580775115,2.092422458228009
10.695815077814588,37.68951170001551,1.183575171425773
2.939520715506207,26.88022450518225,4.327849998785882
15.675980451277976,15.62879688681502,6.789938640682635
25.923813631280623,4.721313796675752,8.152511789277314
32.437327190570656,5.412599604541218,8.163983265097718
34.47093991434443,14.310155113905939,6.810765389366036
31.877797797720948,21.216462864817522,4.397973645414019
25.135497106457233,25.17641949468256,1.3263681172566346
15.291764355076761,25.48169532533389,1.950181512827634
3.8280807406409303,22.2083550347722,4.846654229674679
7.551946373580689,16.462045626798744,6.847058555534127
17.174738170359916,10.140734709958595,7.7848887119300825
23.64565220354486,5.306708049832153,7.91777637954367
26.057058927786837,3.4514999461423845,7.675787328127316
24.11781461933309,5.013785906091908,7.387419045992878
18.191863279934825,9.359041098217693,7.192939713035861
9.246147749384015,15.150010530955052,7.058994270463562
1.2917306205022252,20.8723416409923,6.896863164078396
11.742615503085563,25.252423847519857,6.685665648927181
20.419279616294943,27.418256801236556,6.536602620474929
25.86896681443802,26.852713608022817,6.597483266547134
27.09318819557635,23.280091009668762,6.885189942629009
23.72224566690411,16.62667385286026,7.305828719992655
16.105138330211048,7.1139425369818134,7.62618591718443
5.2931973341666785,4.608984002313509,7.462361393067259
7.102567923962092,17.410244728028214,6.431054334544659
19.16945589009977,29.752546303655354,4.162247800778855
29.009053895835425,39.923208354890214,0.42241225057337756
35.05559247707109,46.34806739799607,4.659175817266128
36.3253410806975,47.87283139487117,10.658147838258373
32.54938799656247,43.97320170121053,17.000279620791915
24.183422862200302,34.88640078741597,22.911414494078173
12.306130462883191,21.637378270052924,27.3779927068618
1.5444926973645972,5.944295903424168,29.497292987088642
15.580007601997558,10.022276786790997,28.812473773588522
28.00176950959317,24.01184177577471,25.24650263391436
37.22061368092904,34.10371574305133,19.096283915100276
42.05265350809785,39.04517558484463,11.038715212272942
41.87948310865167,38.420405753592114,1.9569091526016211
36.732966862376124,32.61630192653973,7.226413806000557
27.3007889120191,22.644668441958725,15.663311939858213
14.846453598477341,9.9153487522035,22.527068495746395
1.0336216160703862,3.949149181401108,26.98398320986417
12.312096792048738,17.221373354444264,28.442362613727212
23.451435208170576,28.145695974245594,26.842212182046655
30.963171916442572,35.07083053756442,22.69609961684665
33.92732170162266,36.67850485936432,16.800401450890966
32.0356006080792,32.27248291560799,10.019377278361203
25.63527681620825,22.04995298175812,3.344512048561408
15.691351405306337,7.229154641165493,2.2490835688662667
3.6652728384075295,10.060481168442147,6.1930999699069
8.668632734867494,27.115688044854192,8.442798558928713
19.46323858850128,41.14280449528329,9.180073344508934
27.062407495768777,49.75103612118937,8.601812716927618
30.24024799673276,51.335130817810395,6.959941521350777
28.389000397788593,45.294031789377286,4.574660026474975
21.624849773582508,32.09012731076011,1.8782590698940693
10.788512985111947,13.189977044553268,0.6510652670399153
2.6534877981655787,9.066418968114457,2.643985912254447
16.808206374861314,31.659222353411906,3.7765651844309414
29.641796983219443,51.20591638373976,3.8342856890552817
39.28286850690952,64.44338465827609,2.8703535098310438
44.29366005243442,68.84029306798337,1.1027352124754393
43.875976443538356,63.225257656624834,1.1444437713008258
37.96897217408612,48.21936412708073,3.455450583917646
27.240969933574828,26.25564792127478,5.443634722819441
12.991262180213159,1.089667507027573,6.818437735825728
3.02240433452262,23.089810828380127,7.441816397215535
18.87394020849933,42.86426843843231,7.326389687000816
32.80241849594757,56.10141471364876,6.548963848103924
43.44695457463846,61.84394055039642,5.221098593328025
49.987311559789205,60.31076186861091,3.5273482500305273
52.196403940976325,52.6931959636657,1.7358696348919653
50.40772212843861,40.833493918179556,0.15125698241477464
45.40926119606735,26.882070234525184,0.9705598102585454
38.27531045981716,12.98391367669445,1.5650937152790145
7.757873440807943,2.643859337430016,1.2359244140046293
9.412143058476804,7.797734024168576,3.8896285160279582
9.79259458138004,12.710551146159812,6.83527145971363
8.449874278269684,15.883861079200624,9.40788921249843
5.1662018241685965,16.21707934945714,11.064712223799132
0.01388395144174301,13.308387936830803,11.513175804163476
6.623882939321834,7.4477056383658,10.554870628752903
14.067358228413331,0.5989351160196178,8.184147387235223
21.37803375515708,9.830983079858084,4.5912463002926165
27.46175045174187,19.133726257470173,0.01353839178474383
31.207237583580735,27.278310692896035,5.147242162125964
31.627683452562156,32.90374461258692,10.329681118405027
28.024072249261376,34.57862680834503,14.908698517265629
20.2887141060175,31.0369379268968,18.273852735867194
9.123838748844129,21.721714944256178,20.090194478944582
4.156737743455259,7.417058732682603,20.39152369017398
17.91074021594582,9.601285591656593,19.45309648479182
30.38213327822814,26.062224653404154,17.636499829136966
39.986557126014496,38.61029655587064,15.23812239174585
45.49222524055554,44.7854198804943,12.415215900401012
46.132712022246395,43.62977786443344,9.147598955150835
41.71059705880377,35.731061241906474,5.243158944290207
32.63056109189729,22.805743862406835,0.5063750776223196
19.89727324276906,7.090456225791539,4.968023696927816
5.020474001836846,9.143207905502491,10.812518306055548
10.165454487525572,23.8329942373676,16.573394953980323
23.7412001281707,35.18665630917268,21.612293107377532
33.98589744357766,41.7187251422381,25.25230555326394
39.624885039188406,42.398980089815126,27.04084285639864
40.01074841532539,36.89374302778901,26.66015308327253
35.200458526688564,25.774950621300388,24.001008687260065
25.927959183989405,10.544739644148555,19.27389789522832
13.495911834595269,6.581525376740531,12.902289623577433
0.40006584624908487,23.086421005525267,5.488530467762009
13.885345352540936,36.63481063802043,2.15703590181289
25.159438191134555,45.47150659152006,9.058299618857276
32.741150461268354,48.634450588667136,14.327953529794197
35.65080195885433,45.97251005526682,17.403838484768045
33.53683604915352,38.03614553796045,18.086911262389822
26.724968365591508,25.910191274181347,16.555712955709886
16.16709234565692,11.035780332540796,13.27086020406944
3.309955589418123,4.935462951959509,8.847698604646437
10.099169680738264,20.26702014682087,4.01027876278792
22.24618297683615,33.26339346079558,0.5370093910730285
31.490109894541984,42.40891961894567,4.338232665853252
36.59449488392213,46.539228149202074,7.316279216674137
36.90359477940222,45.04126564623858,9.650278130911978
32.42381594790237,38.03882003374151,11.57141265817645
23.82775174256537,26.479115638885432,13.202353368818326
12.36406531955859,12.055458863989188,14.408485037170916
0.3189197143599782,3.0515881064902133,14.79473551212222
12.39488449861506,16.574101784164654,13.907824462703308
22.12388797002757,26.57809969380311,11.48818366323242
28.104803545415898,31.78177014578907,7.570037154139639
29.470645037644175,31.698785974876508,2.4386448656083335
26.036801856772094,26.609662927330124,3.53515789516228
18.364858930469428,17.440624389595524,10.128799039549934
7.704718987297328,5.61546610034616,17.12703453908064
4.1839351327723735,7.090420506589883,23.983618170178715
15.310473952324186,18.698466881417048,29.844863824867915
23.78704491600234,27.24547289849914,33.706097005845685
28.156939938967305,31.103297258566876,34.5933541064212
27.641665114407793,29.34517992212437,31.7892949841165
22.259330280939878,22.06088768577124,24.964422675981247
12.808065327831525,10.487520506134324,14.444960026945349
0.7255013327744327,3.1568398579859522,1.4281205818424816
12.140886936611636,16.14965722141963,12.264223975976467
23.819318066687305,25.924243336065455,24.621876374708666
32.51407832184409,30.69862604249244,33.82591722434242
36.87663075707073,29.868314858367373,38.59710945083097
36.20973802444531,24.04098831423769,38.35162753012667
30.56271948800345,14.727897539148731,33.18287159616989
20.716872622140702,3.840979091714683,23.75949990837604
8.066570971677677,6.79647218116462,11.119374802480317
5.606720975401134,15.76462384288086,3.3057112200778316
18.41502031699129,22.13284033366173,17.5842913700395
28.63945239159543,25.363550719578516,29.685736680684812
34.968189770485765,25.1644047246293,37.993982688935674
36.65783210989512,21.43229065699397,41.47977500168221
33.60025914381545,14.331982456140487,39.77583530296824
26.29769823064803,4.44308122326046,33.221296999843226
15.763000199927712,7.143908016414501,22.86975331177749
3.378044786882372,18.903140833076414,10.34653477675657
9.284935699948896,29.13658161778445,2.6590608290967905
20.654530448145696,36.33704895534857,14.870745287768216
29.328093953768548,39.50973553562586,25.41613412748796
34.226572890038234,38.30460564736029,33.606013233427916
34.71801015600786,32.94418003294982,38.956827913452635
30.68927972303477,24.03826904270452,41.30766944776334
22.574064974421894,12.405998983111447,40.73421830832113
11.329537811893426,0.9787856475826853,37.46082494063421
1.645749355102009,14.919447653440796,31.89388895412688
14.671596434479843,27.917902290708724,24.595384119269887
26.015577313608443,38.216965486331574,16.187299146450716
34.142581954675975,44.05041324648448,7.31770534707695
37.94299447742391,44.08552018413387,1.3689774250763502
36.89647849810162,37.913117724970334,9.33356646759972
31.14373391754164,26.360440370934146,16.225328605948267
21.459994736526653,11.452992646797835,21.866084547298833
9.14360744317304,4.011680578324162,26.060726499440154
4.153876421464278,17.154303598590104,28.468771641439766
16.644539816123537,25.723404198237823,28.778631162005755
26.634282249492745,28.586090796430486,26.91503708046547
32.73965914185911,25.848246232370496,23.172101270645122
34.093048446062596,18.595286974455906,18.212350795110773
30.497732347091578,8.426685597378986,12.768902589644078
22.491843774823433,2.9964415966339235,7.42120141738905
11.306190104367507,14.234059653515702,2.6060383504359597
1.3044736381509712,24.11115482214143,1.4348767175743251
13.345345234347212,31.600197953004088,4.63003963999184
22.919223814218064,35.71349442731114,6.92709310979589
28.537164173447227,35.55757646300945,8.315021722988588
29.338863400330464,30.572896291023874,8.86798305184285
25.19484039563349,20.840240007629458,8.670029965171736
16.688500585100872,7.283540885488905,7.835666079366182
5.0072588428514075,8.381869294343325,6.5033548256603595
8.21840847887467,23.97437703130454,4.732671139404621
21.11646146539812,37.322171822085814,2.60559551001819
31.803477343470657,46.702373795648825,0.4013297130371723
38.62493064842693,51.072951003488356,1.453656823522501
40.39427315286387,50.07328803635632,2.5867502626217296
36.59654230955002,43.89053956531051,2.842017634997107
27.51259157046411,33.12343292070163,2.215626242051642
14.2216454391631,18.7489926073576,0.6976107870661019
1.5422368724022086,2.1754556324973047,1.63906961911159
17.651968475442395,14.739818985195265,4.4409853919117825
31.916754477522606,29.8270572797498,7.105064491689258
42.41522355821515,40.93959037379183,9.005206569056343
47.7673440926489,46.4113818023028,9.690829731538019
47.30857779855495,45.45610550085528,8.912171729535325
41.152154204950016,38.337703486651925,6.551788422161626
30.150194775850345,26.267480457164787,2.6013261126060607
15.779632116731468,11.104968327044771,2.812106049344375
0.04200243459610891,5.023054026741285,9.337054405567654
15.216403537897314,20.0722708309268,16.30328100576199
27.76292930662299,32.31791198607431,22.706622189624944
36.09762335269334,40.48714503621485,27.345475267840076
39.25857822824656,43.8268564461891,29.193801033560753
37.033074497492834,42.11445852049306,27.730464464682644
29.957367369120956,35.60798335803752,22.893276724211148
19.218719689058595,24.932503713909206,14.984756786819064
6.481347485931748,10.954361250424721,4.792743611042663
6.465286753536842,4.851946202112983,6.515649724030305
18.046497989295787,20.56498309247012,17.779382178757015
27.073452478416996,34.52278359426924,28.0731747451634
32.85112922612429,45.512999111252384,36.675029972547364
35.200780190355225,52.84161694290314,42.95779794300358
34.40422286242208,56.300898220771074,46.37300174178556
31.093368021348013,56.088231319115366,46.57979809378662
26.111710512625123,52.7166880328541,43.64413081648084
7.923492595879758,2.7319621079192786,5.309095505174269
8.818641727224268,13.996866447474954,5.1711461580873115
8.420492648273182,25.584131685831238,4.045894853521368
6.405525712236254,35.77562120144165,1.7265808142914325
2.6366087901411404,43.01869844807157,1.711857482529588
2.787498879893518,45.834258241094304,5.851433431806455
9.49118348650744,42.76506048515285,10.164031408851395
16.816915045145333,32.571856896958316,14.055367887078825
23.855525726365254,14.880943953055898,16.82311493451004
29.5367515118626,9.094373847072264,17.832105978259623
32.77821407505403,36.1650031633524,16.664659653078356
32.65280692296961,61.31192880016653,13.302229626229098
28.555776436062914,78.5604898628278,8.245594286902856
20.43912147071458,83.17722013881317,2.2669689246239866
8.934654553928512,74.03680589736142,3.8699116914926495
4.82106475276086,53.830156694183216,9.35773388851697
19.388118866135976,27.767242897945625,13.41780150267427
33.16902643772493,1.7873992601655342,15.644001330700728
44.59262068968349,19.51636353975117,16.011020564657017
52.243925147880354,33.87929788701504,14.753476915425994
55.01222511635011,41.12778555443208,12.40620884409489
52.26763928192138,42.30451647176392,9.61475437111104
43.999148582703825,38.65429340836603,6.900972040515227
30.917996715462394,31.343019365424897,4.577447494778083
14.424939909403621,21.780013295756618,2.7651028116460243
3.567444862160625,12.056674815491132,1.5574748689192537
20.89956485235662,4.913289210105026,0.9923223151696593
35.4844627491863,2.842233572576594,0.9128367845926685
45.603554545089516,6.820380512138359,1.035723519267038
50.123285885555745,15.402164903745117,1.0710059058828023
48.62130253080409,24.9206334471986,0.8465908602015884
41.436408349777764,30.93200128062671,0.3048647471321247
29.63226570249032,30.200937471013038,0.6343659316464958
14.872932741570247,22.23632387122364,1.998987123663735
0.776188665744435,9.488641969568423,3.6497074254917874
15.130469289776748,3.8903838529733044,5.394196747687552
26.20807321555234,14.01590423129515,7.041509129009227
32.52771486004231,18.954991903219423,8.306442308327634
33.33690330996166,19.284885742914135,8.945632825528902
28.71768050394308,17.372017356815945,9.033383867135042
19.559686946147806,15.923573473029757,8.797743728028317
7.415232839573091,16.654363246063046,8.29457420197681
5.756520162322507,19.703505504322216,7.519370564035101
17.89927065589465,23.907913740804986,6.494043045553881
27.1648143409054,27.583273789029285,5.14002325911445
32.179569452631895,29.303099114659435,3.3797977779198463
32.22386088423324,28.337337220186946,1.215833694172503
27.305616695477614,24.707232070794802,1.2475504631582313
18.12740964786287,19.021527795023875,3.713624638274547
5.965304021808704,12.284080928458897,5.828715519043676
7.4994447758286205,5.704855363784743,7.3451538205582185
20.38389422847041,0.45826058237435074,8.169647583531022
30.83759311257419,2.6134908653064746,8.32567492596331
37.2901656273021,3.279591589858979,7.847235425555244
38.684875401967304,2.021601413801213,6.784942774684703
34.67014886989566,0.1400736252953405,5.187026817605003
25.71375773430954,1.9927389066220256,3.1278220808584125
13.076743208148066,2.4656288844523715,0.8333476970788743
1.3829998615733592,0.7859972793999358,1.3487564269152459
15.536876221083546,3.5612175594530435,3.0833989927288075
27.36090048942925,10.886812087881792,4.16873562751324
35.26233246851776,21.17321723856266,4.588922725680976
38.29228724789669,33.745153239359354,4.548775695395617
36.22957978716975,46.962601889295705,4.353049327459136
29.558285500942677,58.315928952208985,4.1379713903480155
19.375451516419243,65.08947529838268,3.879460039859648
7.243724650529259,65.3596016331016,3.429144411280207
5.004162759546149,58.814163912363014,2.459971064640733
15.521199619970057,46.876860455836145,0.6091627463776397
22.750613535421337,31.965460150599036,2.3920481023751115
25.706755368573887,16.26708406917833,6.518619994862084
24.1623497645766,0.7718636771107767,11.286156829716912
18.684203883718368,14.833920921754446,15.925530247570272
10.498983855450568,31.347282174148482,19.585117407702185
1.2243821505228696,48.83103407098039,21.45720616618004
7.458062027951351,65.80771832335783,20.881166533783286
14.08052759329858,79.4291333719489,17.48116549175765
17.56563061712676,86.57075653629617,11.434604111820999
17.321773741052723,85.21630242576819,3.447849130725899
13.281995023345178,75.34166389343879,5.600088448639361
5.909780565804828,58.83767751608133,14.686490528543695
3.8264965551652286,38.60614314598903,22.617013529126925
14.545489913642921,17.447884698826186,28.436933220133927
24.63428907946629,2.603611763639052,31.653208171497646
32.50147781023975,20.242838051348883,32.12124812462663
36.84560363841499,34.41236078789802,29.9655461021547
36.8698000241218,43.930563709500085,25.49821339681421
32.39051865507641,47.608311208081545,19.26327572952522
23.831550779146635,44.817565604242425,12.011553260351546
12.13704017491393,36.1176631511074,4.438745079032764
1.3667322365815178,23.43902659762453,2.8891686026362433
15.137165295001225,9.60571921123784,9.438096535638671
27.590709974064183,2.5527462863252937,14.762004372498083
37.282452980839224,11.014404120926763,18.590603765726378
43.08272033143554,14.911692267438056,20.794735036453666
44.33952185440993,14.331477063176282,21.429102127170765
40.985627720574804,9.836400421404349,20.787350176235464
33.54494286338079,2.0997595697625346,19.338423261378836
23.04140601470823,8.125137252673298,17.596118352210315
10.839722160324282,19.77341380219092,15.793035884143706
1.5416109185647902,31.2730900073291,13.860832279009701
12.611246931008363,40.66329553157801,11.764766971025612
21.07135616753887,46.04324057218951,9.441768456634382
25.95726008160566,46.137717286059484,6.7693820023175375
26.746073940916236,40.68453563534213,3.7243818550774237
23.434194576973123,30.45177047107468,0.28129416460429024
16.567284258082598,16.94211787960111,3.610020113104645
7.200276245797695,1.9878151590633741,7.910027824355427
3.235718431376688,12.576481240193509,12.44857882539643
13.132725997841094,25.084888149892546,16.9076880820023
20.929318620087518,34.139160735073325,20.811167248237123
25.33161850011635,38.77177965306753,23.61962958494881
25.489220466262168,38.68951579961194,24.937207483167192
21.119736122482667,34.46298392238729,24.552081035030973
12.580147021966724,27.49096203939905,22.38522785599734
0.8642400018678941,19.66227294243432,18.522059153999468
12.486435279525239,12.808122991483682,13.242422154306384
25.569352513730472,8.16203331738774,7.077717293143848
36.39590240884944,6.039878700414292,0.6637186818017787
43.21913156300919,5.8491112098936435,5.545960964879907
44.83032247760387,6.383769624863384,11.27653169878795
40.75955630148607,6.27839822972976,16.384530834129478
31.366480684023994,4.495849107506637,20.84177211656975
17.797845302074037,0.7481159350444531,24.486968422454108
1.8297046888214477,4.226669554589752,26.995080387960865
14.378250845922658,8.67125614483762,28.128827456995367
28.601893301732485,10.253939645487591,27.720954732871615
38.88527529649108,6.92954962463221,25.678719931562302
43.83772552096531,2.0297793816213385,22.053603165431934
42.85562520767398,15.27589271040763,16.798686375696416
36.215937154929684,29.374479232365196,9.84406321901125
25.02048201146706,39.737348353461634,1.5403728888432342
10.99595626093428,42.197257770620624,7.324880903854064
3.802148170849663,34.537248874340044,15.849324718535593
17.303835528988547,17.26430204726559,23.261946222162432
27.69807836971629,6.7046869827368205,28.9583675672681
33.63429953906127,33.187457444017596,32.299903723765226
34.34975148729522,58.0366108695847,32.53291444164789
29.736642409384338,77.9389644111413,29.22358269815056
20.372951655540223,90.49018540370075,22.72593821851505
7.494477257855202,93.89570518835207,14.084530058339348
7.139092486834224,86.89359043015233,4.742003160256029
21.604645554984977,69.82981114841301,3.9608724098267496
34.21210804511029,45.27620300872091,11.067235654225286
43.72056100246827,17.42177958920982,15.86263433398235
49.44893141372094,8.699161389574229,17.97376613605226
51.278499575349116,28.447765051500873,17.3912643599156
49.56644553001687,38.92148383606625,14.453947709496587
45.00428618438545,39.84674306051323,10.018381395107282
38.46300999425232,33.549176954233374,5.234978752540514
5.619079705669156,18.547462084102758,5.464268196664043
8.791372435923773,23.100422279424674,4.053812189034517
11.496914608141537,24.406661435358448,1.5290654367033674
12.967569399924816,21.976387596658856,1.9937321838326374
12.478709126509814,15.795310376602231,6.169626234056359
9.512483921648533,6.100686096284025,10.380030755265999
3.912635821891467,6.589865981472747,13.919290439933778
4.023305434010855,21.255143831855893,16.237565660360936
13.506052520145584,36.137377170374705,17.056127080891933
23.319797202108163,48.87836575982999,16.332695043690826
31.96972680415331,57.05434628316505,14.190899222920773
37.8560894573952,58.76313939840238,10.904613829054826
39.49674880639511,53.02627752788215,6.969486948642933
35.97221477523481,40.397199368811506,3.136087605006781
27.31014714970346,23.28668349758345,0.09210731044234982
14.381660491180407,4.905942227118339,1.985322563389494
1.294577136955922,12.103123586104292,3.412171377018812
17.713365952356444,26.257740555368837,4.698681953053368
32.73203825900715,37.21459537325036,6.481935305898893
44.37192045595291,45.04089216890955,9.450288864463634
51.080435161278416,49.472988239314354,14.048589162395016
51.973032121742705,49.81535503319695,20.235796110265376
46.943554827847535,45.35604250030949,27.265177877040905
36.71114529507298,36.11450895304245,33.62055778654424
22.738947212526202,23.29047488059863,37.53033196178495
7.019544831646256,9.08170972863894,37.749196292824564
8.228102200113737,3.982417910639714,33.875523208716515
20.926040693584245,13.846105564554293,26.16277702147858
29.468106658530733,19.362285400016773,15.30456675698948
32.959339613733185,20.254499331214653,2.33013524514711
31.305287292370647,16.782578665540214,11.431216883892088
25.151413840798938,9.43688439033324,24.278500470248588
15.732218669460796,1.0743744627715226,34.28575948457173
4.663382869454189,13.619681679736441,39.91626670545609
6.276352057509574,26.446084078440002,40.550359404738835
15.361007052248532,37.27128391262748,36.474210164869696
21.13524033394373,43.760635096753134,28.609657468580235
22.614801793039728,44.1921701766214,18.34164904571176
19.450205362921384,38.01503618996302,7.442028145393314
12.021955455806497,26.02348677201548,2.251247551035791
1.4189205181279347,10.072764374853417,9.33961827420785
10.719062459576792,7.511404189811289,13.18902650794431
22.465309647083636,24.581656615674987,14.015016310463627
31.931252356462384,39.608223549073045,12.53881924712718
37.572862441793525,51.76998285204577,9.406935847984181
38.407543573562464,60.740671738637694,4.9958891524035165
34.136910029533965,66.33466875882841,0.4231746800635791
25.179738323584743,68.22166797902211,6.3953334451188315
12.617407903114527,65.85266464053676,12.050951236190079
1.924743782441788,58.6319258252595,16.37277127026193
16.459289411525337,46.26305848433849,18.75984039642578
28.898633436359432,29.121309293620843,19.105483132131635
37.3665314402895,8.487165775187908,17.540077617226505
40.50016074213914,13.467335310002257,14.463184646382693
37.69157721299913,33.930081297873166,10.49751210276985
29.226781623917393,49.8608827276743,6.189659338156054
16.288999204907515,58.48096185830676,1.999130073058572
0.7977138711256592,57.78443709444524,1.6620937923225663
14.88399033119296,47.04453059159466,4.567639726109147
28.308336435910764,27.24599429868671,6.741327844305925
37.33104847074087,1.311616830652889,8.472474277089065
40.46369948991288,26.06914389836083,10.144676083826184
37.10746369503271,49.183851216453164,11.95598649047867
27.642385064544634,62.555001396052724,13.835864287036367
13.375071811140607,62.38302424996732,15.561246791849891
3.6660042500742205,47.69888793740256,16.945183862358533
21.052577470100708,20.75719757062589,17.87897268623655
36.32663141338299,13.5096139935767,18.254686653004093
47.370255495602706,48.7565557515372,17.938831029524756
52.70928818550056,78.73398851958355,16.849869265284546
51.690275483984664,98.53394036790202,15.047788052755925
44.52377086724765,105.29468940600137,12.70556596289261
32.21023971422625,98.37058178069788,10.097820980157437
16.367913150956397,79.1729038222922,7.519036584554324
1.0102877161274693,50.887059874620704,5.099111580996603
17.827968587515677,18.079448918528968,2.8423077898288964
32.14134793730679,13.927821973127873,0.7184263836758987
42.38844934800078,39.978575926031986,1.4192599833847916
47.567733223996456,56.17099893275384,3.8702389409682922
47.32918128200648,60.782203530723685,6.9286950847969635
41.98329847559764,54.63709249699696,10.642999185404676
32.43102857134271,40.7294877885776,14.71183167544119
20.02005184991045,23.259364472259392,18.536440508268633
6.360350689068616,6.48730918128325,21.398280071146743
6.8769459510971735,6.171411225342877,22.640642344488036
18.147649065157367,12.584032082024397,21.80610699186108
26.185977997763295,11.927332833032724,18.90234104714986
30.1220141705264,4.5271423010118275,14.407845891842424
29.56979427845006,8.286450436743575,8.976086439327071
24.692602021611226,24.29548310089401,3.3378207910710187
16.234285323767484,40.63514834388553,1.8352097438168908
5.47356346915393,54.25414588853478,6.1560631498128675
5.925628210231011,62.52585662523874,9.552299973048168
16.16580640104603,63.7864137843706,12.168192237951235
23.630982000339106,57.545389811308404,14.208133010181841
27.173470248849544,44.3068633984063,15.763019528126808
26.291734793338318,25.20692973305939,16.635990054855316
21.17289787302357,1.796127436426475,16.314562326664028
12.604018032326536,23.857262495770684,14.226999441250102
1.7955633867040237,48.8778475324327,10.114999669275566
9.804558125695765,69.50586805463348,4.242236393735881
20.67349631558696,81.6288131274809,2.6772179317570655
29.36195451541345,81.93726949972196,9.628395639210629
34.637168194095274,69.26733755337047,15.540839005084482
35.64274471719207,45.43406376992947,19.667570527895503
32.058743149747386,14.99569191632425,21.71094147897592
24.20749689596295,16.03354192628838,21.679766648212862
13.069629277237242,41.9618780964458,19.704227087525087
0.16846437424588137,58.884900417603305,15.96754163924228
12.690371631805835,65.210257756852,10.91735588915018
23.742937093083228,61.22702869296775,5.349018386204875
31.555436967924614,48.237222772115686,0.0691497829396911
35.23038808283241,27.90632502325568,4.346630179338847
34.49680700055009,2.211493359784722,7.487063900046763
29.68970007097468,26.162749437687218,9.10419970591241
21.662986916409544,53.53079330246619,9.313119060030278
11.65186694853797,75.56338937959393,8.817072839999112
1.0973037836153177,88.38296061462275,8.715592635879503
8.546097243743136,89.90514051300673,9.728894925438311
16.008569537731955,80.67752424710703,11.672469061939784
20.38939838664118,63.658767064251165,13.75260210001023
21.289679059102077,42.94997057265407,15.158774451129702
18.858974787696784,22.112019470513278,15.351673851671963
13.746988685896527,2.959591999397427,14.098608030230935
6.981552564183885,14.561496694205813,11.64174778257622
0.20237323274064462,31.44749832021692,8.70182034834002
6.5613116021504965,48.27507728276501,5.975155130836281
11.03220107104563,64.23342762522155,3.796109746572301
12.874176014678754,77.10711693056459,2.256533101759018
11.758135221605805,84.16278809159122,1.215995416918617
7.804781737811858,83.39186015480271,0.07739522135671704
1.5592602613818543,74.41392991141309,2.1533084628210397
6.082922912368045,58.59648383572441,6.124191103678809
13.988619580480552,38.44957239288722,11.398687501286068
20.94176719788146,16.73622173377425,16.73282919169707
25.808816089490783,4.18796032416871,20.84864392723363
27.69018924270378,22.53922747168761,22.769000673226767
26.057107462353844,36.89666569264862,21.87887321340309
20.85652920509016,45.96186933806216,17.946530365589776
12.562422534437946,48.58611052121385,11.139253732666466
2.1575609615169116,44.135695355949075,2.1703776758449944
8.979845151338333,32.9859621524152,7.7560166043314585
19.426769767451443,16.97117327824522,17.449106497092032
27.985592992848122,0.9442083698435284,25.795816069893267
33.76644773424088,17.637680460223716,31.608899517398378
36.31223338500112,30.64202696455486,33.966817027833144
35.64960181263245,38.69627156206235,32.503662973359546
32.24928509402523,41.828996429624056,27.51187521440238
26.90823721976558,41.00627432371465,19.937630503795166
20.586406682287752,37.5587073707712,11.265618516149733
6.631311681027578,2.1147304345586875,2.6762384754219686
6.194277877069435,8.669142807694179,0.16815630749085803
4.60937712492927,15.244908326117235,3.650045290763596
1.6825864093988365,20.442650613383687,8.391587121905284
2.6357615987182923,23.037185038776645,13.519434179057559
8.179416189969945,22.274977378567158,18.263570675516142
14.528225454391889,18.057284510431014,21.606952578878627
21.01033620380804,10.925738387716862,22.49380057463567
26.75708803788323,1.931444106701777,20.10746842217341
30.799537533657382,7.641343330563136,14.130803400481563
32.194839879681375,16.581868529469293,4.848222988902401
30.194086372024074,23.88668992699013,6.839587412586631
24.434396781610793,28.710226723504913,19.39125890381133
15.025981328875808,30.62021307515089,30.770301171215884
2.5232222187295075,29.88240541132489,38.98295757741995
12.076304547713494,26.99521279738334,42.728910512751256
27.37025021530305,22.22876132868676,41.556517987621
41.69495695868564,15.605747965816432,35.79704986280889
53.31445235199312,6.975217047768249,26.596942960137202
60.68055366355438,3.5696112595333855,15.609669647966816
62.70116741924744,15.25147593211719,4.544059649078164
58.9205686184214,26.476559788013986,5.149970013490713
49.60358774025782,35.015399101915484,12.548942665115174
35.698128388533355,38.624102317503926,17.304701379807348
18.69117497587199,35.764246240607555,19.58650325210142
0.4033855732315778,26.165462531562472,20.03730074667203
17.24256711864815,11.050190169077014,19.69981464472179
32.445883286421214,7.11272903235995,19.722943232057194
43.73537224166723,25.13845502234197,20.750452198157426
50.147961781132224,39.773360584573865,22.69815265246757
51.34859518980734,48.2501497067724,25.010559755912617
47.67267303393891,48.669411800132586,26.75823967688281
40.08642309468266,40.268667908234384,26.809214101853527
30.043609234996016,23.599745348248234,24.24668016867371
19.2353886947243,0.6225193973072704,18.633511411652787
9.302968075566255,25.398109676425726,10.074483123053913
1.578545098451419,50.30768371125471,0.6976443682212098
3.1111920210292494,69.80280886000176,12.288482068969472
4.530444560945123,80.38295039048172,23.042171525063115
2.9974564786101907,80.22406810345636,31.548263149043947
0.7225084384475985,69.63994020095784,36.81859937771354
5.556002473719502,50.932238941972784,38.50921001179354
10.2840778327325,27.688174397142355,36.92493582545126
13.705891942992947,3.8007475049499337,32.60225189830614
14.792834860629599,17.440980881890397,26.02995192774343
12.842443136654195,33.91672534265701,17.56582332751211
7.6112092213617295,44.8097217172403,7.570406417949735
0.6102918263257732,50.40157268246469,3.5176397540281186
10.99737655203006,51.70737853621404,15.310004071313703
22.277615076388734,50.1047428750507,27.273114605344684
32.90610147907284,47.016426860858374,38.60302070423191
41.30538578122119,43.64912682618704,48.20214185303919
46.1242073156011,40.77495392401876,54.496291746228465
46.44693881403849,38.59177431882981,56.007462764237445
41.92177056643897,36.74815470844706,52.04974462570031
32.82337958206996,34.56159436006393,42.55513249850236
20.033531249185298,31.33912930894711,27.975294314983444
4.937165496871306,26.650632370106894,9.476234920397202
10.730317440901516,20.426632989977428,11.04231966466206
25.072970054798457,12.822506431452467,31.12589194275867
36.25596610698751,3.9691421482794103,48.100359799105824
42.741576236644434,6.164620814669434,59.472656912435454
43.5123334158754,17.66875125238647,63.51413880196723
38.24764596441113,30.37730840316036,59.86451091413264
27.434032601045068,43.55160732327952,49.79711552368212
12.389205696393265,55.82412883326338,35.79562074575522
4.8442219880511095,65.51458354018443,20.608617526621195
21.759748925545885,71.19745339313585,6.684905184725195
35.76552080475321,72.20207143750164,4.021777374455982
44.617698979235804,68.73199921674625,10.2394301762678
46.82871551206973,61.52414561985452,11.537990294646278
41.94145364266527,51.25495239962568,8.562558132035562
30.601279898848325,38.087112805987466,2.7998989557712872
14.433569974254592,21.705143284066516,4.055238340210427
4.240570649268647,1.8765441165440049,10.265863224042008
22.77724493651331,20.788493382807385,14.081814173871354
38.5778488170804,44.360328503708075,14.255785040174466
49.42475127598042,65.74401071284755,10.660967479645931
53.77700376706269,81.4700081102709,4.143257916829413
50.99196512293773,88.7639808392644,4.1235807906837065
41.44962999287941,86.37464577489179,12.780297779917044
26.54725729012405,74.80345950852555,20.48000986791495
8.516506767342378,55.93201103014016,26.419153161187502
9.939137663285097,32.34069405102802,30.532862715770946
26.119276509833806,6.720554180198442,33.471846272832614
37.79473024964598,18.390552989533912,36.04425811179387
43.54575474514157,40.60945814400707,38.41328191661233
42.902097107683495,57.6904826560596,40.07474553859385
36.287732315353196,67.72530395505997,40.28067137889541
24.832131484301136,69.57532277653372,38.47240426428895
10.142621617809555,63.31431651024256,34.43533892303878
5.894364319414137,50.37756013630817,28.060626602233693
21.287395929804582,33.22840967419019,19.298553636335246
34.115160787957194,14.646277662211407,8.284321370659738
42.72185987827372,3.030876286905918,4.662596150955046
45.93201149964385,18.34242478310289,18.88042561688272
43.2270943267328,30.62766795624944,33.04555221622026
34.844165890846035,39.5678953713649,45.38152934120312
21.78045432969986,44.693262847184776,54.31957836258418
5.674302592875516,45.21583123035066,58.77443177747882
11.41672098737109,40.3557555203342,58.14457967772238
27.287946416628238,30.00078562621997,52.410386275074906
39.88476508504928,15.32618452259914,42.39880618738263
47.59012145545178,1.0322122828013314,29.90239797345372
49.44773336852397,15.452518046732324,16.99376836070942
45.295472089129774,24.3146842959999,5.2438759283276575
35.7894588495282,25.142692198656906,4.448337150107774
22.298276818345116,17.45662333763628,11.809192307959506
6.691700074876721,2.9992354017202323,16.929964953692963
8.935699212068082,14.748169344501486,20.25779898715703
22.564203170111416,31.538125705607758,22.741733991297163
32.51310228569494,43.408207493615016,25.230590123689296
37.64145595852916,47.4822379360652,27.8221326649151
37.48095136723696,42.34574526519024,29.908257255382328
32.28991752214321,28.041744841618293,30.62290141826832
23.013795409787065,5.912348915632521,29.301724973194055
11.125585770997171,21.539379461120085,25.644686830740394
1.6332740331648086,50.73723682507846,19.825716725259486
13.55109524520907,77.23109482463515,12.56635127629738
23.212111873117713,96.23024535268507,4.7683462165357
29.643790112380053,103.54147429110535,2.8805547309287176
32.32812671629901,96.736466651618,9.7787699047608
31.135901976586386,76.09175557831423,15.283971430294386
26.261022970327122,44.82088357354807,19.008239743457928
18.210842281829617,8.379460673738846,20.89972246915912
7.844734893662355,27.003728110656134,20.991752528890732
3.605314182637529,56.02368540230614,19.4772312307797
14.612778127360412,75.53270071196155,16.925147912561528
23.569028203466175,84.82926202005989,14.269898129188833
29.09414298367699,85.02267418112747,12.608674229501112
30.343330207004986,77.96245995719173,12.550083165757808
27.192631382794424,65.34705680453305,13.713901782240152
20.243305029335094,48.45689812579193,15.122649394016907
10.656651427869718,28.526466079777542,15.713404692806758
0.09762879290979287,7.3325052272586255,14.529390565587853
10.474637851124324,12.551746439367232,10.979288169344867
19.026615476776936,28.15431843464972,5.170859915347566
24.53264408429079,36.99787190781053,2.0225347466393644
26.12364592497368,38.010699720127256,9.417275617819595
23.43338820976118,31.95835622942246,16.009592452339927
16.742577512592913,21.122501918628174,20.987733374165686
7.033048840689977,8.420200630087395,23.657728628172023
4.183019369037815,3.6821833830322706,23.837733017699584
15.225635776118063,13.697903468296063,21.916024398055473
24.602482494158323,20.98737539344869,18.376274313338687
31.272562479456557,25.456659962902812,13.698977407549911
34.77978517163025,27.190356787363655,8.497171788618024
35.22901574197941,26.272262940828078,3.432061149973547
33.130381410380835,22.87171332874512,0.9598397674177871
29.19728237005973,17.466871518239465,4.358844154701503
5.78719284644229,8.417595532340867,3.8598058103274786
7.981611636988279,12.500540324524847,5.818444084704983
9.564305748991398,15.524371761223449,7.210795733400274
9.905613597915973,16.52566870594302,8.38222704492498
8.447296669537883,14.821300995156525,9.586491946650225
4.8497151878501725,10.102345201204294,10.865540263623577
0.8737472024030956,2.4543223081303522,12.007686617793723
8.291468709280693,7.659220972424217,12.511511468268864
16.560822198370573,19.404014434512973,11.784642150903958
24.512789317090643,31.589979832601777,9.374798343589847
30.803332259694546,42.71564478171222,5.089230640288471
34.09959771232049,51.04443826929138,0.9151145142105184
33.291824417367984,54.758146299962284,7.996086928114178
27.817918756040328,52.35620366420717,15.214347123447562
17.92803080031142,43.18670651754584,21.94055031804205
4.627541123300134,27.706988638788875,28.07619862638101
10.486070395266161,7.465682016896271,33.74287820484008
25.414043794719838,15.125389079559406,38.65016879625303
38.09400690071832,37.261302607710334,41.637699777669205
46.72406447066917,56.23878426851593,41.26458055408631
50.02830147850565,69.87069430141963,36.748874056857225
47.45432767632313,76.79305293579573,28.298367238621793
39.2364533884827,76.59230025409265,16.90227126375868
26.381837054286535,69.78113444507247,3.888380855320332
10.562854764474656,57.62188338897723,9.39387470031909
6.100980317338037,41.826463333420584,21.761913764138146
21.3258511546966,24.20609543853872,32.253985503299724
32.99902397673638,6.3758534471328,40.172470659527306
39.531730386096534,10.371650555437219,45.18848406784519
40.13831307458049,25.019450074607782,47.283062659479796
34.96245030866919,36.687207938758434,46.7182239663908
25.037702183663807,44.54796516887598,43.869310300642915
12.078804336422575,47.91278674788646,39.049900911285725
1.8564779713113904,46.4750920077602,32.79505422160181
14.721001801037296,40.59441862796888,25.863261966206558
24.763780530343833,31.420856896401748,18.87360460683397
30.72467259346653,20.73290921792864,12.284202115051645
31.93344212099332,10.505497274079223,6.448262280341313
28.3311596110152,2.371886436355926,1.56174823120402
20.457374566519693,2.7774216056444145,2.3518740148026116
9.391035503842309,4.909485542059389,5.504995821113455
3.386195500567712,4.684371312891258,8.31891636509022
16.18868973795776,3.124129733598482,11.27672921692719
27.36876237294465,1.2633118228695042,14.82734360175547
35.553907994341685,0.10696756115023127,19.16694243198334
39.826077152890484,0.5833580992482715,24.090030586959195
39.810349255033074,0.23863607596375294,29.185139247145298
35.65904260860122,0.32343393600634524,33.93600740865513
27.96335543467611,0.007446656862301561,37.67060846555528
17.62899696109425,2.5307400231710235,39.56752034517961
5.748398479893703,8.397613920620014,38.7442643312306
6.516094874000946,17.879705722404044,34.65377991874202
18.03845576231936,30.02218330690484,27.4780160465004
27.81402373840451,42.60983212974888,17.994494871587417
35.03008247573864,52.65078754693714,7.213461580951249
39.120395854274065,57.19085090243924,3.6753354535374623
39.80362782007392,54.12807679408717,13.254726423133121
37.11684943053495,42.72469677240784,20.313131296174678
31.429117998001647,23.669174346953316,24.38154566011271
23.440687663608887,1.208905744061413,25.551831462676848
14.16030692303608,29.325249492945083,24.036078213723503
4.803262547147854,57.660652707321276,20.26295980037635
3.3935858801958703,83.02823394482785,14.970684585723225
9.400772156078853,102.40674984702915,9.05718336480473
12.620980979216405,113.43433822856706,3.677040836208393
13.0275343128171,114.98389140269529,0.0506905183582776
11.1574902389101,107.53176290273888,1.7232661297414593
7.965891988163721,93.03109439863121,1.6530985084862007
4.597386382100018,74.21004468228718,0.522827385447983
2.1482651503721937,53.53936540568108,0.7959349337393903
1.488819826524833,32.39212838686201,1.5111423363213392
3.1664619768496203,10.861453616704596,1.1287005020704295
7.351619211278568,11.669214930593114,0.45499407130237984
13.792600689532916,35.5179644338472,2.8260337253815186
21.77246367863731,59.8536463837157,5.083225906777302
30.110887942025133,82.53691677704941,6.256946947677277
37.274307264208566,100.73533041566462,5.89990293197518
41.62421226081026,111.932341810264,4.346939017757527
41.778408316308244,114.76932670189875,2.280075898437491
36.969801613853534,109.29640031375824,0.1552140950448984
27.277149016798035,96.6064229979977,1.7651917397055734
13.654063242249718,78.21331356139224,3.221706791202272
2.2663460817567858,55.627876514559546,3.8790935015673695
18.507578695673622,30.375893414209198,3.2762295130288943
33.105257896536685,4.316092592881216,1.219453221676106
44.390069824774116,20.163435568699267,1.7285046405280713
51.14353968227612,40.38070299116361,4.3879069076695805
52.66932558079815,54.02342710096956,5.591575985879699
48.84043444412222,59.945624877433026,4.651960691749104
40.1328625418608,58.61923033302722,1.3893340285507532
27.63325454990831,51.92485863186302,3.9998063187452324
12.967837314574908,42.380269709178606,10.961531932823847
1.8918661872907043,32.204810626189015,18.392192316857088
14.933777035174517,22.68882615304658,24.686735172677995
24.449789966195492,14.156314547691233,28.422943684913523
29.320160312611232,6.4322838574291525,28.94654478064662
29.16294777148234,0.5598879491287615,26.240378429225867
24.321549654932756,6.460055979661425,20.635260687494835
15.736491402574734,10.565962987151076,12.79252691943013
4.773073359028972,12.232109075705825,3.724425685536875
6.962272514475481,11.277214111479951,5.272936757606297
17.800885877280027,8.13576898637609,12.940945029780616
26.18292158941445,3.6598418910435697,18.475242185765488
30.834044694286533,1.2706517401763988,21.55721083671578
30.953834468598828,6.046942364158775,22.218832091423394
26.381250687531644,10.37580773404303,20.930397626763277
17.67253841815355,14.091790346872143,18.683515846312627
6.052823319277896,16.898724881347846,16.56784023147072
6.770489764205901,18.281760757500845,15.114664264052758
18.91166377460779,17.716891984083937,14.156718221637247
28.64975209507817,15.069935536044257,13.086585972905102
34.7204100494364,10.935586253919228,11.257406664651441
36.49243437493069,6.663112624767137,8.426590140113966
34.0110663113647,3.987288969151893,4.872823628890291
27.928739905275393,4.393078920634605,1.3232498973703184
19.344782763917735,8.467140891282876,1.3363997701799404
9.602794543077504,15.541393061322761,2.6123549778372612
0.09280657471258545,23.785784960585882,2.4510799577484854
7.936029724424536,30.677652896825556,0.8868304539266068
13.530621386394635,33.66145809679072,2.039550180129792
16.140293236806055,30.774068034891222,6.113229826320887
15.677746968527767,21.069273388781994,10.79037909923193
12.521506665815648,4.81179471419662,15.32381167054991
7.45046647101269,16.522457712443103,18.89762775480923
1.512197586665308,40.42889775028888,20.472591324837808
4.15624549257371,63.71935922269519,18.905937215541424
8.520407221662877,82.99773208347109,13.583995024328129
10.812021439291652,95.24258425775292,4.80521705869548
10.620158267574896,98.38577186750452,6.398484033723346
7.908046905378444,91.72673972805268,18.45152216499328
2.98082997857687,76.06021969455898,29.373969244833845
3.5771331773181783,53.467444061725686,37.200983026065096
10.97516308509743,26.878745422675017,40.56303326448888
18.29119037261166,0.431261236190583,39.072717782991994
24.54172086610313,25.31937430838089,33.197029931433896
28.757472082118465,45.170076296824824,23.91578852982582
30.088649232650614,58.229046626528714,12.856449111429924
27.929751341434063,63.87913908453979,2.47720593005068
22.03951860469279,62.773936652547036,4.458991028421626
12.634084175213536,56.69503260316775,5.871969389966939
0.4411426120153085,48.02181664012397,1.1963757214539674
13.3115548931672,38.87747730278279,8.460523962946255
27.107174192413883,30.802803578900352,21.3061922510593
39.4714630318669,24.7908710489228,35.24411174554351
49.20041934179884,21.148369919818204,47.90969971085347
55.48619998106089,19.56346175094295,57.42862947124628
57.97539064301776,19.345381302015547,62.54587366714321
56.76644843219331,19.715399363685084,62.49246935633242
52.355268468760094,20.02143380274562,57.17083854070497
45.533154360453466,19.81748198140159,47.45381287137281
7.864775580074051,32.74205524591671,3.623182206307492
9.889363382886728,15.33492818069305,2.0812683040923554
10.837725501820964,9.656293861036193,0.03799118604805915
10.334680897429537,38.038733977265956,2.518600572437229
8.141929439822615,64.82273792942614,5.0179410515252
4.176833671161035,85.49217113511627,6.996769486267707
1.4535628111318135,96.86217820759799,8.150616838745883
8.411565653732639,97.32459609233067,8.618642102730782
16.055729865977316,86.68906053030712,8.550180888707937
23.44678729086089,65.93831828735,7.97895303167508
29.446064969774106,37.1065843035104,6.964925533243538
32.846028476988494,3.4082807777391464,5.59323107967159
32.56302964736493,30.481665871914828,4.110497160294365
28.075930799652575,58.769416255477395,2.9686439564267575
19.754125721227485,76.15676337045672,2.5367586520975727
8.622130242650453,79.82309199339979,2.800799985160819
3.9291955138143733,70.50168121271584,3.29354732403525
16.306369784348906,52.253006037046546,3.3276788853091186
26.963272047282587,30.98075648610844,2.326607169832699
34.53332224550389,12.385910211749623,0.022217595184403093
37.97092076528385,0.3316830861783397,3.656072491743748
36.74723099626451,3.8144197035097407,8.166361377139873
30.981740523939028,0.7937831054316806,13.052581785443218
21.535912004660496,7.450353326477472,17.63370750771371
9.921001477767408,18.596176969599394,20.942971772899433
1.957194092076712,30.37682661705378,22.287554183021182
12.140607820220374,40.68051923981774,21.54584523994703
18.993017590806485,47.6723286530982,18.88910116233003
21.466779085681633,50.128113590385105,14.79992187077115
19.243689000328622,47.85575046479304,9.910517049850515
12.747022512567245,41.859625450596475,4.5331718849047045
3.0634759036561854,33.93088855406751,1.218525048987586
8.197852196818232,25.746315703158402,7.055091923219066
19.128847182395084,17.970275943191393,12.34542845040951
27.809388685382128,9.934265019486185,16.250596092847662
32.64276283572763,0.15627360766001808,18.161106649393073
32.65321036937299,12.5608076883822,17.76945789259824
27.65820884353403,28.139440252979046,15.0042642641241
18.282835569708276,44.99574510402637,10.262838021866642
5.798505216839022,60.69914367577177,4.337320349169882
8.143069455874615,73.09360997054739,1.788506621859286
21.784786647787346,81.15044434798925,6.9579363391754265
33.49263743041894,85.01848914356336,10.223866725263447
41.911737742223295,85.34586351611581,11.296943487179174
46.073616115303935,82.4498242592155,10.41401241909346
45.493271823897885,76.00636396034916,8.0529874478434
40.261647470737444,65.5465624643647,4.67380618674292
31.075598897058732,51.38499144060589,0.35880730298119456
19.152520817278937,35.2168109889486,5.036930688093029
6.038665388715425,19.80615609389774,11.332120196957826
6.654360689823136,7.791044615527975,17.87599931388692
17.49885206408026,0.275105582184009,23.865879082926796
25.404695984436536,3.8832414602070293,28.623874078689248
29.66763452962013,7.564391517183209,31.47699582963392
29.955262648831003,13.894213109197258,31.737107610131453
26.305972880789245,24.60889841640838,29.013169322247197
19.167287182371265,39.205674137660225,23.355565327520626
9.438982443553204,55.284162676264415,15.292434445159174
1.541315410610893,69.76117830298713,5.623546133030106
12.138130643538954,80.17512348340387,4.988736500532038
20.68497211774236,85.33409287819516,16.04179099764619
25.798450010943327,85.09513847499991,26.900599459155522
26.635181156896298,79.68480632561337,36.543213716809625
23.011993482654404,69.21987614168941,43.71750587266786
15.37478328488873,53.836549899553866,47.31250589465641
4.672142363453425,34.31287977490225,46.5497072855643
7.789829048785604,12.634724773440835,41.35372658789742
20.47146454089127,8.064751970467603,32.651537850476494
31.718038296534974,24.340136810098855,22.083409484387587
39.92186996769431,33.65529800031387,11.501653793961724
43.74950547915613,35.32129802873253,2.6033233034726853
42.39110938347122,30.644269871504257,3.5156241395302312
35.76316270460112,22.243125216103426,6.778249592432032
24.590105875992503,12.970793955099643,7.95530670000844
10.30260949520541,5.045087047234287,8.17514883508803
5.225796700632722,0.26267429054627034,8.54778988050076
20.011423430913425,2.447442305200277,9.762821822138383
32.269659563724076,1.4404857172730796,12.111855821561184
40.635906871159484,2.539400378621825,15.808405800112352
44.27909981817461,8.880245642282414,20.85763306713261
42.93869120898921,16.428320460726344,26.976806047266937
36.929082721678235,23.5926303102918,33.63508931806722
27.12100479545883,28.810455838896104,39.82047588950296
14.874890096568679,31.176945272877017,44.13412441045921
1.8934833634037562,30.83713859664228,45.23057061118209
10.016863854103725,28.848433043081076,42.25694728524542
19.244096238907964,26.559072978149555,35.06312510542075
24.649343617820346,24.837634996892834,24.025107559134387
25.743062578827555,23.59792370737147,10.080796911609905
22.725319265555026,21.878000692683173,5.303945103965864
16.40931054478004,18.384186792252674,20.560110830294395
8.061332535057835,12.164630921904612,34.056504844458466
0.8093006299440286,3.042263765258739,44.126988077316774
8.658039606226772,8.35009713033477,49.49237890582787
14.09342116114859,20.810873194064463,49.657805514335
16.064633804274795,32.84802528191906,45.06130404310682
14.03722383528638,42.83396257160898,36.73777319119913
8.13462051582678,49.069837319708974,26.000368633319827
0.8056327019998529,49.92673731749486,14.41943221716016
11.316962000543107,44.19483066220809,3.6790120692738415
21.536935997510998,31.592590828891232,4.610448808422914
29.565209667268835,13.19630513350939,9.252615649514404
33.85532043798925,8.490813631584887,9.899522497627776
33.512147212143624,29.960559964202282,7.084699822644889
28.429286245058645,47.480920277055134,1.8956187744110042
19.255303778642848,57.91866834241037,4.2561130352495855
7.225516729680596,59.311438222224034,9.767217113274466
6.064863620088615,51.08521376988837,13.277991568438038
18.890319400465486,34.033797420689716,13.928999539394043
29.60730911864336,10.22659872981904,11.292912529103567
36.84358740359987,17.11095814069743,5.62841660723379
39.660150936333274,43.82749912262691,2.0070535984512468
37.68458637826545,65.36039590773525,10.206757410737083
31.190893484809425,77.61925239393727,17.857972960440332
21.09150088212526,78.01176231749217,24.35186881797156
8.829477898489797,66.18719342547043,29.08492032660787
3.835675903175167,44.15652020458045,31.3705964935006
15.101865133459533,15.710738124955272,30.851943831841698
23.39365323289549,14.585742149208071,27.425804737524096
27.590689858008265,42.3380533165238,21.288734868251815
27.166987442705285,63.84949015088121,13.2710124963749
22.239196875531132,76.23755983068428,4.64058293803862
13.539715902837106,77.44220932685259,3.393299827824646
2.3037171521307362,66.47726456731198,9.87382118186387
9.907485200299133,44.01222208164122,14.123690679474848
21.40898811774268,12.961850538831234,15.95270107220003
30.59582745879763,21.478088054696975,15.722243818849078
36.125583626839244,52.73700301052251,14.083400807746806
37.063207250551024,74.56838938514242,11.70765848595471
32.98724981678754,82.85388445791754,9.128258950310444
24.06842438457064,76.69724105427673,6.710040084817005
11.115274709898218,58.321998841604525,4.800241971352776
4.4477506293871345,31.887466169040504,3.928055742573673
20.71554966526677,1.9432295565713957,4.547277671988041
35.566522821687435,27.634818735811923,6.542474569739255
47.01055582501473,53.84790177382783,9.247902907814888
53.535918438876294,74.14703344986107,11.63516795882913
54.35750257853575,86.02187476327207,12.378222409384108
49.49807150365022,87.20717018792917,10.21973227982677
39.70496329267357,76.55363104573556,4.597923821382332
26.254742744777733,55.017155256288156,3.932092997109224
10.744097544188339,26.024464962065757,13.828010972797777
5.099950769675202,5.515068447111565,23.36251510001236
19.657255891385347,34.651122388058255,31.092854311868972
31.60181476432165,57.50132563210155,36.04311563408942
39.993941022632825,72.1027354483355,37.95472596196717
44.359149111531586,78.4984995693118,37.02819108855827
44.73455720799548,78.1024557536609,33.62680342328991
41.65622461663692,72.76172435015366,28.237693812178932
36.05962987858225,64.04604601756856,21.515295430980572
8.338974467679572,2.438255767529676,0.6125466992524227
10.22962364665901,3.2813851647888304,0.4143415710414351
11.11781247804919,10.214451239632412,0.3944129977696654
10.521316528646162,16.36362640897948,1.6379326718211455
8.02827236928205,19.900365666188755,2.8222623245512843
3.3924930985692794,19.850835204405,3.4600782028613724
3.334900371114862,16.29280187590919,3.262432915646911
11.696182670347602,10.055725268714987,2.040691427884301
20.77636248665835,2.210672263560749,0.2862679491965946
29.296380421981063,6.277887348580019,3.5046442552752897
35.818258430552206,14.57088243616152,7.0325882315373685
38.97700689916498,21.771269442420696,10.13265520939085
37.72283134819936,26.78031272177143,12.080721741525835
31.64840032582819,28.328183055944553,12.0528634911
21.180032052417175,25.391561857642273,9.287741941775327
7.387322622340395,18.0288074592297,3.7093600970951437
8.238844380672669,7.9389792004094275,3.7736681442494286
23.914718399795696,1.8768666124737663,11.790125641084776
37.74825173711144,8.257679131729615,19.13846325780585
47.90212269242625,9.301152563722317,24.81986121683835
52.83825737861962,5.236046820791779,27.8752124380729
51.63260948557399,1.7901696242756693,27.357104489949577
44.22756901581127,8.82591764979625,22.52421343695837
31.573980306744314,13.478553294294057,13.375234915992941
15.517859893303093,14.743000920996865,0.9591833781306074
1.5379106639619533,12.898943481131864,12.869545660186667
17.087952806564708,8.716953564353581,25.800032817600894
28.982395585564316,2.630319209078537,35.53030992388821
35.727774156558645,5.521795229876391,40.41894435085274
36.62622380528881,16.06750573219263,39.73909017882603
31.790594706097778,28.768976674591016,33.614074345888156
22.07875362108116,42.34900818977489,23.032872165679517
8.991005552201248,54.63681777759033,9.725411246990117
5.489808870419741,63.235571425503466,4.178053738272183
19.134258528690868,66.27805663129179,16.51105549244346
29.789289119244568,62.830654268338826,25.42277711577687
35.7342079120297,52.81556795880928,29.76246075146361
35.97763166916474,36.674833758239565,29.112052390000084
30.43059366883115,15.149764048312408,23.57946954850019
19.902672822873175,10.589113651080485,14.007822924723895
5.935270189317687,38.59203005721587,2.147074452282279
9.463565906063137,65.94817485630733,9.60998486419404
24.12293300249985,89.08480878576941,18.859660454003315
36.00527885183701,104.52955520071923,24.05900119698161
43.467157477094254,109.7929198798413,24.818320452669376
45.46958979635089,103.94608857323149,21.678856400901626
41.72526456635015,87.6568700964938,15.749880244482924
32.75615085918575,62.79217619475627,8.091576594886616
19.834240176647377,31.936484741776088,0.35869832313615957
4.795277068907442,1.8786415750014334,8.518657121941585
10.239553958476458,35.2269032875804,15.460635666357698
23.1693890986417,64.39214919203407,20.611554328424283
32.1985638507843,85.81498076049925,23.640253255578116
36.064639875623115,96.90445731926299,24.639084228886937
34.19938655181941,96.86246165592843,24.16813119360733
26.825579408636187,87.01551903767471,22.778931795131523
14.962905788975853,70.3642803810452,20.732167663547617
0.3118661405185525,50.48426679312414,18.068882886285735
14.984509999698144,30.31145472386469,14.718994493562498
28.669239289015472,11.428066024197637,10.867949561941218
38.72261731429335,5.840921993114568,7.03451396357914
43.65174438041702,21.697211979542857,3.628238812650505
42.662474598494,36.055355403642366,0.862831689432917
35.70912283286339,48.170492980634585,1.1597650495318115
23.454476989167688,56.86786267168278,2.5703952862839072
7.188437255701722,61.12431911350079,3.6571536768369204
11.276565827941031,60.55467645947673,4.748934672888248
29.764107840371743,55.512546117615976,6.205251001300103
45.96529708611804,46.833567020300734,8.2733073475313
57.74371309395243,35.49594129698442,11.121841089580537
63.47509625134199,22.495695870450856,14.982365605042945
62.326180558904895,8.968076540736082,19.91253754364891
54.395559265652885,3.6712177838057025,25.585866731974694
40.676213420475456,13.844834616048676,31.300990449242015
22.859043182273957,20.285695869702376,36.02381766753217
3.065251642329047,22.61656715997175,38.598286216234854
16.41565161000762,21.649220907878846,37.87703659052776
33.360103323723855,19.149057871878195,32.994576393533606
45.83688454648129,17.124912323582706,24.046936222928274
52.45057193916396,17.036555092236345,12.152501380366981
52.581352990410785,19.37186722202656,1.196801306761887
46.54984211005361,23.777657900231826,14.37591613846763
35.62566166733127,29.54163082045769,25.676065503129355
21.81321327312545,35.99550523742446,33.78074552765698
7.43999434556789,42.49761693200837,38.028981638906
5.313283698625826,48.020466455508085,38.1845802144665
14.803207682811541,50.75909799632148,34.52149046796144
20.14048570078901,48.250905736555865,28.027741758578703
21.19469816855965,38.19478443613374,19.976175122199137
18.448601170708415,19.674699588511967,11.507781708569258
12.808893129896395,5.873949144361937,3.5871636093221815
5.4438842873647255,34.588293682187,3.027860620330532
2.337550641064889,61.18006528183789,7.725654859424172
9.204218959600675,80.60343951187143,10.06933797103196
13.959430492788345,89.59876299131632,9.994589984227602
15.73709178025643,87.42061817986941,8.126840867141107
14.18530640430439,75.52058268122825,5.754035734927194
9.54752216381982,56.50185401902859,4.020017836396724
2.6031447691721064,33.03444583279175,3.543851371180105
5.5069875094220455,7.33248363833852,4.694239514898799
13.524999913567665,18.668942642477386,7.404696061166697
20.30602320809101,42.76789930964526,10.823844606813102
24.95148629498354,62.154794223425824,13.504532951916735
26.849264842017572,73.71275014514954,14.05324845255839
25.680648974747694,74.94873122220186,11.762812010650318
21.426216370118105,65.09727216886604,7.017404737055729
14.387735188716327,45.765715848426744,1.0821194862555097
5.231167628933823,20.713233387390733,4.813325043604415
5.002040619595689,5.201020383387357,10.012704789090433
14.982312500873936,27.452709915932545,14.530949376688849
23.282456753536206,43.03155362438151,18.81827822491657
28.627922660971027,50.8878849612665,22.891705328216972
30.14114370497446,51.59148914884324,26.15794932446403
27.50575327228288,46.54739563421193,27.896535293962458
21.014676256812233,37.25451214112931,27.40932715236299
11.508301537731105,24.97302636578446,24.32702877311426
0.24055049781557025,10.84663809723384,18.754380509828653
11.294726416006142,3.8001210429040375,11.23457654645094
21.560473178105973,17.337286833453263,2.7958313506783763
29.159829013925567,28.05583569618464,5.521117431486841
32.99700524692407,34.64484862678507,13.09356322564819
32.42745037042408,36.604937630460356,19.723729426181674
27.372185201229794,34.30622924859098,25.443213758003086
18.361028325554084,28.641617047518373,30.029252828804374
6.490457318041813,20.511051789885556,32.89577908999599
6.715021350900489,10.476005820708338,33.54287943424711
19.531274491541975,1.1962105569517574,31.761646073336095
30.287590190338864,14.133376644783537,27.634318206995108
37.58527653083177,27.41174364126463,21.858207342668425
40.46319106696929,39.42119759037587,15.663569759965517
38.48935863850144,48.17403038356516,10.018194210324948
31.79174593466272,51.90481913671889,5.510935314504186
21.056396602841243,49.6220728837748,2.5483110273458593
7.487788129057365,41.29236252475952,0.8864957089427681
7.284578197878066,27.622447598044335,0.2841493305860762
21.381506156353307,9.690036446693885,1.7182334333241869
32.93482586750139,11.269688492392104,3.7672782878514486
40.38469679668304,33.75723673273247,6.275713947980217
42.74587836595845,55.711913033187045,9.036350267007348
39.7748878836286,74.39741573805519,12.079080973798765
31.991374430731938,86.78739250675693,15.376935742345472
20.5540883495746,90.4413371677932,18.658249149979845
7.060592882722897,84.66174261106043,21.42119809057696
6.745500166037579,70.67796858429818,23.27755072794612
19.263956182135274,51.014270658328236,24.24652454470068
29.21254490064102,28.919264358792223,24.419253752587803
35.75315005137363,7.565594998986765,23.724231297398394
38.558956643898334,10.643080798749025,22.148900168779257
37.80982712906974,24.374462510947396,19.815111243705807
34.13231638633463,33.24868587038179,16.911128178183795
3.753534089668923,18.874265839759225,2.4227958287314677
6.362559350684959,18.755516781458702,0.1820231377711131
8.540364006600536,15.782599729677168,4.044429839594606
9.607430938545297,9.38350996470353,8.580123623815844
8.976741143935968,0.7866337825908306,12.90900090595408
6.28840850038841,14.48070252086256,15.912259467138005
1.5227716646372857,30.52147778287638,16.73277049360405
4.941405078909514,46.75616275522854,15.048978108145844
12.318437816739634,60.409715534718806,10.96790832835063
19.490824380121,68.75904096271609,5.039371469598476
25.172439012690955,69.79530501532845,1.8948195964426287
28.10581540446825,62.601700601738685,8.975279486238264
27.266449933413487,47.45914734726517,15.420337496615213
22.18024814404395,25.839233299419426,20.572379347596993
13.194308419064992,0.056329769306101,23.80827372220186
1.3970760996086056,27.397534277094294,24.548554355887138
11.614651520912998,54.07056042247193,22.655313507101205
23.99785903823143,77.35167004213707,18.600461335462953
34.019286315307696,94.4418576158358,13.218529487796143
40.32179670129098,102.62605441140143,7.556512729642177
42.086825712623416,99.93415591595995,2.4966966016720606
39.12780029925676,85.8827920174653,1.6947261264620135
31.87789296922645,61.816996263551516,5.096718851632787
21.322042141908586,30.70235206216768,7.87465264711344
8.844523482498357,3.5851492896382777,10.286845184623559
3.9898533519696557,37.05721926510418,12.240818736112494
15.66605727474988,66.12632798517707,13.244594250202292
24.930175848653874,87.7526905419271,12.980507998290303
30.92228651256961,99.38856103075378,11.309435856680775
33.21926919772009,99.10007840013895,7.997248892530268
31.807944039843285,86.01274973393424,2.9948549104820072
27.04230916396167,60.910599369205805,3.1171791234781883
19.61936161386862,26.628873567643794,9.080370912873695
10.550803090915592,12.15513935882702,13.283644028460785
1.1084934330427128,49.811091357033824,14.119156827598527
7.299837030665453,81.0006067120642,10.363407626639608
13.33900352164322,101.77317356779098,1.8190379919402007
15.981725917576735,110.11677078711817,10.3686626817884
14.717653163226455,105.86721306276299,24.312592407664248
9.68306865694771,90.22750783934157,37.92297569667603
1.659947471821702,65.28789253390688,48.81472231217435
8.041355755240946,33.76985382073055,54.627066882461065
17.767918404972907,1.0348264230520554,53.6312673731011
25.744181930164377,35.356110518490695,44.88626980498195
30.321124400060143,65.29126558110276,28.566708619841567
30.255561050849686,87.4173172283478,6.287812975677791
24.968388979415998,99.46889188253189,19.30899079510078
14.723945776970266,100.77908842273594,44.90613931652985
0.678133649304692,92.27959652178829,66.61664759559656
15.269501210678051,76.09861448108619,80.76825952234437
30.811455703762867,54.98380523651993,84.94947106360482
43.65817387749456,31.803406023335118,78.55374782267846
51.93344466906688,9.262550545745317,62.90892147786112
54.45268514042482,10.215574565555649,41.05510154569898
50.855534850864686,24.61844378397788,16.946451040016036
41.60922816907775,32.60040539332057,5.80588713299619
27.927171685769203,33.801849057831824,24.707023479557158
11.624378167048032,29.033104888368083,38.24593902390571
5.099117664890397,20.15532675279406,45.58158485007197
19.955540684592986,9.643145349391416,46.612061092227066
30.931866603253518,0.021764346727591453,42.24700455259146
36.6507011109095,6.878583173875255,34.266055807031464
36.652097696101904,9.736796609054146,24.761095711590087
31.49574789605141,8.150019132599002,15.602693715096569
22.60828514668201,2.282604651027578,8.020874768297588
11.944326363727527,7.146718619968938,2.556977318467781
1.566689427705547,18.76399513140257,0.8392181618032343
6.76176139979703,30.42033219249746,2.831845944823094
11.85691213383486,39.32517282711694,4.230303989701441
13.218081076195231,42.5990688419328,5.454554817414427
10.991570812197772,38.17924983428408,6.622097528418879
5.837986615161517,25.749147587869516,7.645194538128674
1.2383724418450133,7.208226379418833,8.21522193603578
9.057115037489508,13.651521131573613,7.969591022569399
16.41705693129449,32.204230240846016,6.653837588662738
22.222324092930965,44.36032049932043,4.246180092650527
25.588701575078858,47.65511688200441,1.0420636554577467
25.947617365040976,41.624503730230764,2.4948972661679703
23.117752224624265,27.45319113102644,5.9904206793127495
17.332344368215995,7.2517772646023895,9.097182131209484
9.218638897259346,16.54706572352098,11.39547111476517
0.2958771838736797,41.36591218097204,12.659653903060264
10.135226199911756,64.30904298019391,12.954903644647732
19.234187536796483,82.03494686792362,12.444569382928893
26.660141524528836,91.10089806169616,11.19048208058571
31.674060778578767,88.8755088255943,9.015252597921455
33.73914718766632,74.64723050732871,5.691557863556483
32.51933676475438,50.28110543673386,1.036649925804691
27.919228846309448,19.92745240951675,5.1413126627229015
20.16978803880343,11.221516899588798,12.691932783504114
9.92140814050254,38.597891120973856,20.948432841356073
1.7203034071987438,59.52520044611555,28.73977150317347
13.292699667426193,73.47163256209845,34.323156412814456
23.209310823397896,81.28822133012663,35.95215666302857
30.06691568902238,84.01128134835032,32.75041045381456
32.93502583646313,82.00548011030969,24.999203998785163
31.51871588023688,74.94142205630695,13.713830792348826
26.162190746523642,62.524247667491636,0.26005687153726886
17.723778283744007,45.38229949250676,13.540529005222808
7.392523669980262,25.442051824207923,25.701778891920483
3.480917290428478,5.513446664158371,34.58018876367306
13.531380673823264,11.657246040854105,38.90169465327065
21.511391645876017,24.280043204389937,37.83370115864171
26.415981907062182,31.826016173270457,31.214546573986265
27.608616064257575,34.64965416264262,19.857730194551465
24.929313498770046,33.310188429762974,5.661463292889458
18.740015466400713,28.137791911931927,8.944915086756614
9.87470036194332,19.364804453055836,21.65993190729472
0.4746132464508425,7.6864053817611655,30.726237179117003
10.896788273663509,5.231651542727609,35.176557590927594
19.917820390552293,16.769717768747547,34.878508105299325
26.155775495604093,24.009396747372914,30.639979765437968
28.487362232641804,24.705671486881556,23.9275701524
26.248461772132877,18.054066513365566,16.030042249365817
19.413460517668657,4.900474970889839,7.747814218541087
8.688525399880238,12.58476311313974,0.23920435268975634
4.5359648660954015,31.477977184082953,7.279483137120376
18.409860153393716,48.58937623322977,12.998710419641203
30.966533474961345,60.75189423008771,17.18779142921714
40.47669745935874,65.09870693386567,19.665196440681278
45.701535769014086,59.58199114220962,20.643525249397573
45.99001264754701,43.73631837923825,20.851309095154395
41.26805693317305,19.33450374916683,21.096005876083932
31.992253436826775,9.564591769182588,21.696161122156823
19.105537421358473,37.46097415370999,22.157306022562093
3.990671408449222,58.945050250155695,21.55436690476025
11.620858649891701,70.26550564562277,19.22772928869753
25.846429680034174,70.22483246875969,15.135842283985696
36.96718719517095,60.04087602503616,9.82430565209002
43.76183290738901,42.37669650836922,4.0894690458436305
45.738932251202655,20.201861292035304,1.2855088304805
43.1817485009358,3.860014991522931,5.7010814913421
36.98102314091392,27.51551891304891,8.943624251272537
28.35779659223653,48.44963083565518,11.078330413647295
18.594113923070697,64.18171093773775,12.338282177633868
8.852903803684212,72.48257618632805,13.108743099758218
0.1361289642844717,72.19964687368613,13.663739600004673
6.6944887777429045,63.92992686472389,13.939146739128663
10.941091094250561,50.00100365058506,13.55811557873797
12.16668647872974,33.61147042293971,12.157189968816729
10.335646978107327,17.53973965231423,9.666667862099123
5.9281860619272475,3.156741332273583,6.280283227046356
0.11188090215347601,9.542470388746654,2.2561709848391005
6.642198781624305,21.275918297048445,2.3294250757987807
12.612006074366008,32.632061901981714,7.5286799547200625
17.262019612669384,43.27232001347572,13.18612654289734
20.219303487988984,51.818800339830666,18.770896811184166
21.456720713482625,56.4792850104142,23.503406041049672
21.170875689028968,56.02635942297906,26.56954006319521
19.65469532078585,50.53532154381156,27.387903355923594
4.140917829401818,9.871490051984404,0.36764095233133903
7.0571684410423225,10.436585175000546,1.9882910142029195
9.693952526531632,8.704514527687097,3.6539819175807815
11.456506721742443,4.176259156483883,4.804257932754772
11.752221891489025,3.143217967178345,4.877834272638862
10.087820143003057,12.551696614838209,3.5890447241365453
6.198378208508231,22.612471477128608,1.0597469279917515
0.1644710738229587,31.38606010397437,2.19879371124028
7.487121675218797,36.900365087423246,5.500074806849193
15.792157415016636,37.71043790297817,8.222252473231896
23.46982671432274,33.27776614666507,9.795642007543371
29.098216895920952,23.977730257617957,9.828164318651112
31.336081032090814,10.805151070627682,8.234327625748309
29.34664588132703,4.872836786442311,5.224692680787396
23.158774374922483,21.449896969885767,1.304122858952225
13.524821336161905,37.26731888376944,3.0367509896893097
1.676879048134092,50.6746575519995,7.434539440162508
10.824601697345624,60.0157129541986,11.456058299769502
22.343641718910664,63.80488196141359,14.650979541723034
31.33557949026939,61.05668517904162,16.61384479621715
36.50860418289516,51.69369155657652,17.06540198155776
37.04055338399649,36.782443130597024,15.835527043625207
32.74249782628209,18.344774411836998,12.680982850133377
24.189988569462848,1.1966835603329775,7.347984689720822
12.68577551343431,19.708796942175884,0.23818878360860646
0.03458999176438669,35.790335640794765,9.79385534381812
11.80952172327774,48.74229544053439,20.510672217303615
21.147043943785437,58.16456885158618,30.881949139317072
26.81528840748986,63.502341749199665,38.882433670168965
28.308676287928286,63.92772513917264,42.605951127481156
25.731857525440162,58.67546256797478,40.58104687554208
19.655398928767497,47.631893740744836,32.045191118991035
10.986402317269528,31.78975134601258,17.396801081129475
0.8560458489961008,13.229337687601681,1.8324516950421155
9.464755593029324,5.413802038106331,23.273819907886146
18.65156196252463,21.700963728307062,44.07519025937687
25.47876544056376,33.944651520323546,61.267784500379726
29.01035018971238,41.32740505452701,72.25675486129151
28.766430961005828,43.64740485562758,75.48264702546852
24.808974812875366,40.99886976309065,70.48424348037227
17.707014206704667,33.70339391222526,57.69973868330145
8.41230047069791,22.53745444349791,38.6086438963834
1.899682525054102,9.018777697144472,15.492108159325088
11.986590835552684,4.576698603971252,9.15351148268775
20.654471623483403,15.649277726256873,32.94504934170947
26.835713499271503,22.04050350757181,53.723102987746756
29.68021045997932,22.75712747354972,69.6389665311673
28.68296707340847,18.2784817082074,79.4637973106734
23.813580996205417,10.305980039776587,82.82295720874781
15.603191127486184,1.1147525068941613,79.86852030068918
5.135452848587637,7.142094666667116,70.99896335366176
6.095750517478684,12.882373663344339,56.98152188146178
16.409473949052835,15.228220361083961,38.878739542762304
24.198467352691647,13.958977947381426,17.988333284919026
28.19189571989484,9.466610492112274,3.9332441638900857
27.64929687713061,2.76600454863367,24.848133826204197
22.470447293292295,4.53806065231948,42.77768651823893
13.217733470862731,10.471370469677904,55.83590141611754
1.0507115848252793,13.15482957637251,62.61333611022244
12.411003074889397,11.388495915248738,62.742810256338366
25.308803321552677,5.076669502406247,57.03646043328922
35.820775039048755,4.7553300705775685,47.317243973047006
42.422619248484345,16.359481822704865,35.851387934922904
44.103274117445174,27.851198048624983,24.550810429022018
40.51012783256357,37.673985716589044,14.452128072478262
31.99107435425207,44.73186147248397,5.671301925794243
19.539328703630208,48.22693481770663,2.1242956629805994
4.665900418297326,47.43796066379259,9.243041544960644
10.791568355153036,41.69456205325359,15.943350282838432
24.905593796918552,30.6369365581331,22.301280817583805
35.90767871305578,14.60637730584513,27.89768480305444
42.42623165232469,5.1276891481612346,32.074794928268695
43.67566404041519,26.513676010590466,34.35704366073215
39.56085367222346,47.18548360942276,34.44662979904264
30.697234055679886,65.00111734999297,32.25758623463191
18.343341246867844,78.38935290753965,27.837777531940688
4.249529692603258,86.37832001311831,21.234217383436402
9.554493453073407,88.41007850802639,12.775467052723812
21.025196259393056,84.18495811438842,3.2080231433306103
28.400274861812285,73.71642500549198,6.330423178048969
30.46857551438551,57.58933619117001,14.437371925358612
26.78608157674744,37.20669490559043,20.080762370121594
17.80202686012218,14.760267296888133,23.106366731038925
4.826546306609311,7.169518614848176,24.099769784722096
10.169200657706613,26.245795214391105,23.925676687616583
24.871358155431256,40.93945340541351,23.465862247527568
37.00294905253926,50.73664512012083,23.499785794246748
44.69084640691585,55.92095544434149,24.349890454383157
46.740321305072584,57.120436177622686,25.663429685181
42.778520110993924,54.913511171347615,26.58124588655704
33.27611793275554,49.723718062188674,26.176531501484206
19.46598439223654,42.01408465780198,23.844630357472948
3.176354192040211,32.55758424103121,19.390502994620178
13.419604674502935,22.540472824615204,13.073463044550918
28.119156899159467,13.390744960295372,5.384211016512707
39.022094779215976,6.410884184809032,3.2816983891337905
44.84119755820722,2.4260709946962113,12.529028962237982
45.11733388559536,1.6246080708924837,21.909932447226257
40.2711858902067,3.6446222957347367,30.967794022289116
31.499998287201773,7.78953701092347,39.0843627924757
20.533373789076883,13.181244255393018,45.42996121131032
9.29324952803588,18.77963757367148,49.24539490948486
0.43999825191716435,23.333875770141894,50.11096720056542
7.299141590119459,25.405884397848922,47.86703787993184
10.511392699061807,23.597031680592856,42.519876274036854
9.965195390730878,16.97393352781458,34.26130190130535
6.178464835410659,5.505503156314244,23.591482290692436
0.18478414392337847,9.7364227728216,11.476373120395213
6.643320492448999,26.750843760889584,0.873229701157091
12.803175737684448,43.12099824103964,12.31754285282511
16.884229938578546,56.65381466867503,21.92923422959149
17.788610107387747,65.84950633902547,29.170967248185356
14.924405934641479,70.01117138783131,33.953287314353474
8.330690466214342,69.00988598714287,36.53191147903686
1.296132524774924,62.90853443272835,37.382911345935206
12.690141865400218,51.72446977973108,37.040865864041656
24.21934954194373,35.51877380619583,36.00834000012672
34.16569219521436,14.79906515333867,34.73893509545148
41.01999499307946,9.011781800881316,33.4354863228408
43.72506524513486,33.39211608081967,31.846670001330608
41.80751133136796,55.02995254764181,29.419177334082143
35.38123668174454,70.60004574564671,25.46032851463092
25.0563355263471,77.73936426894157,19.190917717212066
11.823991595648334,75.779593547303,10.055127488208873
3.0351024617021336,65.89904014754907,1.874756554925575
18.024924191636586,50.64133133198591,15.629431563234679
31.51744957719123,33.042322537798356,29.55875032020724
41.889791287745716,15.778234544551639,42.08370140322171
47.737161912322286,0.6848353282038526,51.910338800384025
48.13394997796521,11.234982904215721,57.78010820666101
42.87052033450477,19.49551261360659,58.73138685894654
32.562308313995246,23.85744741094598,54.399834917716426
18.590882816677894,24.33078244362693,45.06357542148591
2.893044380564713,21.425214830446997,31.66738367372569
12.361902598362395,16.401355673766112,15.533519448037895
25.11134872346821,11.199427920433852,1.7781514666861162
33.68459922364402,7.9230531824410635,18.298747778447428
37.02242856455802,8.078262634582515,31.974545233594355
34.82419307264986,11.983468836685974,41.15138204651086
27.618128378055275,18.706532569065985,44.85647024168492
16.73356073918915,26.573001602825656,43.11552154856558
4.131478471933818,33.959580914635595,36.95710094910318
8.174868602727333,39.62587165179777,27.832973767662107
18.500396490955726,43.014418930051605,17.061633057746185
25.55117566708592,44.456891004836514,5.7082384433916316
28.648129467992764,44.69020207922446,5.175029563750852
27.82646785152593,44.293935682002925,14.272640750840601
23.780302106822905,43.36055248853946,20.378418342912756
17.661633554281867,41.55424897753496,22.982614414294133
10.794912892935432,38.461620728185736,22.304621142627507
6.524595219985885,8.528935361345093,2.098194813200641
7.418863741716993,16.24114333477387,4.187099773211926
7.402097642572298,22.344821448114384,6.444429482389028
5.990256310971993,25.763760961927602,8.646692606889882
2.8546279928650224,26.02750626245662,10.45325706601113
2.040822251875351,23.13874475796526,11.120227348748928
8.37565442596562,17.394792089054235,9.807595762138176
15.486178232932792,9.260452719525318,6.139574167967263
22.443853787312854,0.5841940782062506,0.37875916167287244
28.16298661708153,11.239751529399985,6.639213389722451
31.52338391345654,21.665219658168784,13.559326767602617
31.53101143714606,30.672322430121856,18.88944071420797
27.524845962651817,36.88699118085024,21.53820273060972
19.365804006428057,39.43644568544078,21.009549481912348
7.542592018523457,38.74254721029019,17.46844371973222
6.783964796062955,35.90167895360236,11.565826826505779
21.845970175706608,31.780617779106663,4.133827933810565
35.53005891818059,26.704488529166127,3.6788864748441394
45.77568596781002,20.31193390838629,10.408148530778654
50.98890603626472,12.04854185542671,14.745642156437116
50.34653314682735,1.8346273843224332,15.808462523232867
43.897014132909746,9.65581039514025,13.214293594075404
32.48078910309878,21.05832002445877,7.221312019940788
17.545252061688547,30.849517875281208,1.141830007325375
0.9329544805918818,37.85956080874002,10.00386194765607
15.312352599066596,41.49935607359116,17.09398499166118
29.149402416968908,41.7148531253921,20.74091195938083
38.79008574394935,38.753277595813884,20.372985813073885
42.9904501894202,33.08545012505939,16.256942556469664
41.31144979087484,25.507739562860035,9.178487840052949
34.24963204642257,17.300219037399536,0.18860829495143902
23.167826805809298,10.171897144147875,9.601313628066743
10.011040004250118,5.805954522042592,18.992296143270288
3.109542640934798,5.185908376626176,26.664452692483867
14.314750605033591,8.0136517825579,31.42267795198272
22.236033465871632,12.63271467716365,32.4687670839187
26.139188999056934,16.59707976986371,29.689342358511542
25.91132445775457,17.59010242247311,23.913541128072172
21.98601296568883,14.24396974873597,16.530619654992286
15.249266507046562,6.468055587416751,8.881166886576253
6.919921278897251,4.793540429105507,1.8938213035306863
1.608694791962231,18.117726522809466,4.121648041322823
8.987701326266444,32.072489904560456,9.218481810660075
14.161217222542886,45.33329761996312,13.638250529813652
16.555294809894995,56.5038200593842,17.73303119384276
16.134494319341325,63.958325571048185,21.35897596197989
13.312694579998462,66.00120229607522,23.622512866782003
8.771925400623639,61.37047295470739,23.50040764628481
3.2805171147989136,49.859462571240215,20.56354485142911
2.4140266139069797,32.67569957854294,15.04740734510098
7.606222539681889,12.252007222578895,7.538262935392381
11.617092664474276,8.412017920089253,1.1007720936038516
13.809077637847784,26.55711112816127,9.770753141261713
13.668461968471119,40.25896140114298,17.099160843015607
10.937128160727568,48.56987797574306,21.67423942243315
5.738430940567352,51.26695878345281,22.68549311569224
1.3724655440921714,48.48741167825247,19.8920740581101
9.471589370542329,40.52487464404335,13.412768423532455
17.405849079979408,27.90720548732317,4.01684597708135
23.958900660780337,11.658345416184034,6.641607147455115
28.018979440045182,6.475530033502917,16.24429322817798
28.725151602874906,24.02977606434399,22.76761651413265
25.590042840652508,38.146674184208955,25.172588559502355
18.60916572033137,46.15083803569188,23.247296241496816
8.343938088568626,46.17884561177106,17.541077923953797
4.069008436426294,37.67178407674259,9.321523562448832
17.03020546279333,21.600670337491426,0.22301733962732434
28.707536291767923,0.338827210562145,8.106329620910195
37.348016774867396,22.809497133784017,14.186678951637122
41.59725193388084,44.292390048633656,16.910414110606247
40.73624678899401,61.02065743954033,15.838663739617408
34.79293642522293,70.89659946795172,11.323366731165134
24.52461336039463,73.01330074276767,4.474621518812493
11.290382485561157,67.52326703585177,3.2267832939177667
3.161704462611942,55.31249598252865,10.505011060611587
16.949183819765317,37.70557083446527,16.357302117145032
28.306848361414975,16.358290723365283,19.98209175422077
35.82927786159026,6.696964473699087,20.83675820949502
38.66485077688398,29.0206892931084,18.656541945501953
36.61185002855457,47.94632441630362,13.462563744430264
30.113105271714726,61.06381917712844,5.416959203864203
20.152571651469415,66.84892385361756,4.952583215139859
8.086766621087316,65.12010053579884,16.449930749648853
4.551098727858637,57.078334811387045,27.604730582782977
16.241974861457066,44.87678266280783,36.84388085454173
25.62884854701843,30.908749900679908,42.36536302092902
31.63958892733802,17.161087925926267,42.63560447544528
33.59449918097923,4.925239244222379,37.074307964220196
31.290660816704154,5.080746760562173,26.08840216578297
25.063484172785493,12.382695779624395,10.827922371704604
15.774958725237719,16.512818707023694,6.521454196552885
4.713201093211571,17.058084256007152,22.915352188695035
6.578965662285775,13.961465545641222,35.626381445224105
16.54205020541129,7.861601543825304,42.734025365910746
23.841046409988724,0.21082841633257587,43.06365506328333
27.55201050555971,6.970862382870172,36.53687963248173
27.279801718348622,11.61761279519207,24.274952354510447
23.19643291719606,12.180224806015909,8.535837522264737
16.010748105858728,7.996868752021916,7.443275249154532
6.870430739809235,0.6439567974214793,20.37851824976464
2.8021965064457355,12.673451367111632,28.04390147903269
11.51588160828312,26.465046130514583,29.516766557611138
17.939010717642933,39.980578397306026,24.902953109642567
21.120376010055487,50.8498526008943,15.20603903943051
20.657299436684927,56.51967788619231,2.211724759999565
16.75987466810112,54.61788911731078,11.854321854059432
10.186810612375043,43.56881140649559,24.832330725532962
2.081533488534358,23.322305821607024,34.660868328209474
6.249459839715103,4.119257595915802,39.332013734377426
13.551598014296443,34.7166675998924,37.82150866629807
18.78073297162572,63.09403274123107,30.3796335642312
21.197352446514266,83.7695884777535,17.7782438062734
20.402867841037136,92.51038275764995,1.418071962409032
16.3644370393334,87.32653095529783,16.423803557919094
9.448922415095605,68.78920003357617,32.9223546867281
0.4388263344223828,39.65807165211929,45.183783260042034
9.504194140686637,4.078021875917988,51.137427244914
18.97361815807486,33.2567487735331,50.092301626869094
26.534209089434203,67.68267105719158,42.524527306580296
30.96201323216671,94.88970656636701,29.8735816262797
31.454752926248435,111.19728290290979,14.319299990194004
27.745544637514783,114.01793018850817,1.8767693486860624
20.104811901157817,102.53575253341947,16.779053572156233
9.276623666104744,78.31869887140567,28.67123984987271
3.6009463328150293,45.43715780784251,36.25408160570576
17.066401878940916,9.755440534867832,38.864626788306914
29.417970554262094,22.549462947429866,36.595715372679166
38.86445759480291,46.71502007543248,30.449968985148512
43.77872760285058,60.65064634668782,21.870767233600038
43.03166970023192,65.16650186654587,12.342012061064398
36.326943567039756,63.08406654217415,3.3361563279593445
24.397162577542623,57.73211913797816,3.9823216414191656
8.950579946847673,51.614129228033136,8.982437501941778
7.625589545940827,45.832395633314185,11.754110954329976
22.738794752434085,40.39409961048952,13.005616189196585
34.10414991782183,35.033559015471056,13.556667030345587
40.13268012553769,29.911869138856403,14.058760878222612
40.13740401550404,25.72588837984113,14.879219431595901
34.355000375796635,23.217274547198247,15.981327653593208
23.822936360339583,22.479227785924092,16.92804241491708
10.190123624936364,22.579870747993276,17.124108004995595
4.512374910436438,21.801131674528957,16.071524254607816
18.284180525800053,18.753275903290092,13.650661701672867
29.483040513197807,13.126925934676121,10.195974096153378
36.95849881514803,5.610269375789737,6.23361522614453
40.200802634650934,2.3725891435346207,2.3034902559162673
39.38421182626155,9.268690763014417,1.1163972919318697
35.273730930831164,14.028297303569497,3.7275491368564584
29.017520804064937,16.431174075997912,5.49618037073897
21.87448408899413,16.953350198040784,6.564204707451284
4.483092303274897,9.507967089239374,3.7197072398504982
6.888720349522632,12.470562136715426,1.5004449352609266
9.080146585311264,14.357615216325366,2.271964044235412
10.530769658283836,14.292579242477451,7.198709237924613
10.691198667285114,11.627085814585103,12.256352701117704
9.083678752264934,6.080836399121061,16.301518009657674
5.409772180551921,2.2321116140022172,18.449513490818237
0.3461642400948984,12.828995707798478,18.16348700136813
7.826192271876533,24.853186446549262,15.399755765109852
16.26777692262029,37.028756388448976,10.609730535901225
24.54653563097581,47.62372516833776,4.4471692908459035
31.287655159345334,54.54681000531045,2.347751201635701
35.060275173372794,55.67688372213542,8.80535077735872
34.75317248787275,49.415379273244845,13.933038329719592
29.926280164216433,35.29864214910396,17.242754369713232
20.848271977219007,14.416533006155861,18.751157789862134
8.440663426342482,10.551654667396267,18.541291525450195
5.808796220493753,35.799458842815355,16.78525302911956
20.08585493813625,57.253627208216656,14.0095437976376
32.5056984626845,71.50056344574293,11.012349824198834
41.374358671481694,76.48018294125498,8.778964884939652
45.44382241731405,71.7780037170854,8.323163581812269
44.10389673982251,58.53480001436656,10.035626955534518
37.51750044116243,39.12680077189721,13.247925009109153
26.63220714617646,16.74727195659473,16.59596309186076
13.06226488355974,5.048089788352932,18.552755845914202
1.1506806291558436,22.875354563034122,17.734222016526378
13.871605293657899,34.15799699148933,13.404661389790856
23.22567341394517,37.73291689975305,5.888259611480694
27.911584914326305,34.18554509884918,3.9120689241315363
27.400748499446184,25.676307529588616,15.011755330480801
22.001871147786538,15.226484769474649,26.006209037185208
12.790792788488679,5.7041164921130365,35.18796675307726
1.4217235874335055,1.0792184178245516,41.49969335141509
10.13510213827199,4.754082733270568,44.83840937993001
19.902204359123175,6.116518944675869,45.36734901020481
26.20385331587037,6.405098011116158,42.92148318409902
27.919380203335393,6.559242359129754,37.11788975526086
24.634349353563433,6.848060947318662,27.869807970541963
16.685327336080498,6.997298155094403,15.87054206745477
5.107501209685558,6.619643131396899,2.622304542230022
8.517315847839352,5.589756455792986,10.030200717360328
22.281607181901556,4.100709751173932,20.46089554477654
34.21366312808313,2.4069045214172746,27.79211411286469
42.55070835009642,0.5183320133203742,32.01891794181393
45.995512204328676,1.841220041235239,33.60373004782627
43.92791759929928,4.9179786072160105,33.08039096586776
36.51881135591647,8.470950923981187,30.89057075873428
24.714161422027622,11.558242115588968,27.52883913137093
10.077313089139952,12.83254819099068,23.543641713667814
5.485491655159205,11.273414626065765,18.99153333045121
20.04232665720674,6.949052316933261,13.35826009623191
31.91522495573331,1.3045325298614057,6.375245996215692
39.85813568285167,3.2878283856478285,1.5216279541443107
43.12963372914517,4.548217975481196,9.554593701611685
41.50829395101213,1.3465002507642219,16.924668297501846
35.28520327745244,5.788060141100322,22.87042426477597
25.248698137903144,14.96848903847661,26.752023002274594
12.651209114436453,23.860601293875657,27.984777560983403
0.886006497404133,30.68010728748407,26.03338562093078
13.56844078429797,34.72365590081263,20.670390364740058
23.704627777095894,36.185259422786004,12.193026386625586
29.99207549781997,35.478192829762214,1.6351056421296803
31.738305009880904,32.568806740695194,9.40988465774289
28.953786491395736,26.792732195155164,19.43169714886676
22.304291704879482,17.29228541428707,27.114843849173553
12.959380804405743,3.8022186656728327,31.173278114226427
2.379206197652602,12.698635395889275,30.765884054076082
7.89777690386008,29.890984654575934,25.940246939872765
16.430092202066287,44.693960037985626,17.672781463198596
22.019975744016303,54.269798544561894,7.759411067144833
23.851551790047218,56.98321944926988,1.7097119398996252
21.634362070084965,52.884389029584426,9.074497980350664
15.703692942185219,43.52961611583358,13.40923956477608
7.016016890714959,31.272942284259845,14.698892662934304
2.980980543773446,18.429494464615278,13.72657402939675
12.599496151895547,6.705355540526378,11.413467688781875
20.231413724940374,2.9248979462924423,8.440772928569874
24.661490002630977,9.93782365180126,5.352646651645146
25.285726201490235,13.860952613710205,2.67693755058274
22.16166122202689,14.10354328240836,0.9093258185572581
15.914104326794801,10.179322142732492,0.3430707608983456
7.55647934254851,2.2158791136903053,1.129169937051939
1.717874756076239,8.584109262870673,3.4560498366584707
10.709130603041272,19.899698845482504,7.355229100150967
18.329773788602797,28.83135182419584,12.535067580674275
23.68007710134598,32.86985195619556,18.42329100997099
26.112069169381755,30.847391473298018,24.121877383424977
25.31629903622519,23.37007128806541,28.416182952678213
21.40339487335367,12.46727562858654,30.122654289628642
14.92949190653938,0.6209388588259436,28.467909590733946
6.829851155101955,10.282343989535189,23.05647889167295
1.7394659805956036,19.49692356767666,13.922555893480457
9.60720561314581,27.18577535901795,1.70437478159747
15.776972754890524,33.626214075977046,12.376917397563137
19.540888571354653,38.428194180128784,26.520840476644928
20.50634724185459,40.32648121051664,38.688672743400815
18.57332667514968,37.77313179167475,47.061277826517
13.912288727481206,30.015971896401837,50.40829943380827
6.985617642561036,17.990201233095355,48.55961640359041
1.406405981746409,4.4262829460980395,42.30018052216749
10.124206907589555,7.007931873529126,32.98914417480991
17.791701124861827,13.13274030394061,22.314581981297998
23.027875459906415,12.515043208003437,12.012071248213424
24.754170066269587,5.91967994086123,3.6047703720084203
22.473620585724714,4.249850687836933,2.159432202029248
16.424249885860153,15.141158248675595,5.508504694772912
7.546529571479645,24.60282809518738,7.2719436458474185
2.7051037538402674,31.71756195491102,8.52655458041595
12.638406613608124,36.52868078767938,10.099872080171286
20.61666050304358,39.291383961320214,12.479505901214889
25.30177331756085,39.797718068002304,15.87737319976261
25.848067489355625,37.20466354367933,20.05015742776274
22.05010266123239,30.463656558728125,24.533052103327453
14.421367409139458,19.04378151962073,28.698339260164815
4.183324890399094,3.4822368481674952,31.5953531715533
6.886295861735719,14.567131125639216,32.04204070565303
16.753786899243273,32.79749014562546,28.946441128182027
23.515147022579146,48.9558003625953,22.023092991245505
25.789075738149705,61.428519654073455,11.986003540218732
23.01090295457081,69.42113558618199,0.23867510040513173
15.533569740570504,72.73155273663986,11.174843729525623
4.528204007315362,71.36306447989801,19.892033571232325
8.26142528524115,65.27079075594486,23.937406980468445
20.842004115760503,54.443514935880515,22.63563324331663
31.29848086927286,39.276076078951746,16.94388872533641
38.06737460745977,20.985230390177236,8.669365521670764
40.12936603615804,1.7681617836215793,0.24471144095917818
37.119076173133536,15.50551164972255,8.166218405581708
29.35804134032421,28.01838343835146,14.074228878379445
17.805277076286895,33.872758600496496,17.286878643881643
3.9163860298948037,32.72487026142068,17.251583934123506
10.565419375450464,25.873157674488436,13.584939032853207
23.85827689898156,15.754609137792023,6.280015410719775
34.38831147981554,5.09085185072349,3.8711471835747795
40.9730975132267,3.920815387332123,15.226422598705277
42.93788125565543,10.012376443103888,25.682216921131214
40.17695161799366,12.701778333780627,33.31623196794917
33.15204467374617,11.7799433854079,36.80458606882244
22.830790052124392,6.8383099303213815,35.39264519778862
10.564042762097278,2.78667727514637,29.146959095204046
2.0943281288043147,17.53680022848304,19.22487944289064
13.695895231373303,36.53987916795583,7.588831331039074
23.113687040595792,57.69232259499923,3.920730835694511
29.59320301339655,78.5899480252966,14.350220492642602
32.808083590175954,96.83657326964101,23.33647492949114
32.86312206943969,110.42736296382746,30.669903488394233
30.2397811692888,118.06471786252168,36.15301195729431
25.68785594091529,119.28548804590008,39.380487976004865
20.090755095419645,114.37816084631248,39.91904522978214
4.804017077698086,8.599771137281294,7.5688513646799
7.357917083516547,16.321512768759405,6.702269148211973
9.504050672781966,23.154298215646662,4.556316945102889
10.513157640947226,28.53260331971772,1.361367201046871
9.735693135250195,31.89382563957986,2.6361418858617425
6.795516267701273,32.41558010867981,7.169543963060982
1.726429784180278,29.059560771304195,11.714014652122625
4.991073458974918,20.87441990851548,15.64317897142593
12.498574438024695,7.6116243549187725,18.448044953224034
19.721786123724897,9.85561374978996,19.529652555285892
25.557379296299437,29.448065933988556,18.04943197308562
29.011306490042863,47.96211335412321,13.33837528423258
29.29302659327661,61.49257692388916,5.515849957107146
25.97724627498704,67.21570380224986,4.387986170419734
19.15531738887624,64.99960640641989,14.562480591387956
9.418182135604445,56.36723187610388,22.681863558505363
2.17451098845151,43.11162116405216,26.7039094260537
14.145712853066561,26.814034778586915,25.510072779341627
24.826229121218645,8.387496050268526,18.940278251358485
32.638991820763685,11.394827336592101,7.772636142275115
36.394648799724884,31.164964819064295,6.231430016782656
35.54700355542795,48.76289551277758,20.586904006763863
30.276721459275667,61.41901470398207,32.67250900480857
21.413336102619283,66.74021552343326,40.16599304636856
10.242952890045238,63.723896725056136,41.50929782634994
1.7211433804802458,53.310482461442795,36.4202595386339
12.938108001471191,38.241585914970834,25.61065086409377
21.986911246213698,22.074102200129733,10.271868556287892
27.660523931860926,7.991577708887134,7.8428946894013025
29.066792785270728,2.154761254649418,26.38340792992773
25.768836287451467,8.110539356991321,42.87048197800614
17.931241182659214,10.735918101175269,55.22996523004312
6.411814921645304,11.221918858802955,61.940505671422635
7.262134088889054,10.401677907765148,62.06615996707359
21.076476459135364,8.577287360844569,55.375038051336034
32.8672401514561,5.845869766691318,42.522648131799414
40.72036956344005,2.605375567019993,25.275186730827816
43.311006148012666,0.14243790058359784,6.185071867898434
40.11125028043827,1.0000375489477407,12.100808796616102
31.446325646801352,1.2018570651446556,27.278013590855544
18.40819528390241,6.714587346783251,37.72115136060835
2.6663049270681083,14.554641148728619,42.66557908629215
13.77823076437686,22.80275608375259,42.25395287001256
28.864242114535795,29.37366067174021,37.34509508127356
40.74523935183504,32.85355069910289,28.933734450226396
48.0369498745046,32.93413300252323,18.019121082063247
50.000480338667245,30.240405419268793,5.965896363171313
46.63486541819816,25.720499085567987,5.426862189645319
38.65577693426653,20.00287255565162,14.176584039799558
27.352988410837227,13.14602702914657,18.59766405822706
14.372142305387246,4.919256910120526,17.76989643071916
1.4666334866683284,4.6023062220594095,11.748482486904466
9.757939821132531,14.559688703847064,1.7080307435120972
18.05004043865799,23.31105975790312,10.134979849861555
22.641035155551457,28.948647258593713,21.262989143484713
23.312727040188985,30.06181065272376,29.816085523814063
20.39000862639226,26.33452988995137,34.80055312687344
14.66521716235523,18.666656297882096,35.927353683851585
7.27735192621336,8.793831936661126,33.71911257875943
0.4532940346907676,1.333253192369431,29.188262589127582
7.212960004733052,10.045134063089783,23.127881481706936
11.875460796265118,16.13087164452845,15.81701172548423
13.661396037625584,18.748271166948562,7.160981925203091
12.247788689019572,17.27399717137328,2.825788535284364
7.811488990736428,11.331972752158668,13.648440667124646
1.0072690028561688,1.0601132366923058,24.566648146679483
7.13362475616018,12.55397853438267,35.00635014465791
15.373426191529395,27.50442137764877,44.571997626920876
22.466936417764874,40.949701131539506,52.61265686684494
27.362243239567594,49.7788430173091,58.04904141740521
29.35970405754269,51.39668945912463,59.78749086940269
28.18548999912254,44.47655354091759,56.93722033984073
23.988275745704623,29.44148212080785,48.91129650945812
17.283520055966413,8.504358024045752,35.95675808178247
8.857220492376475,14.771338510642641,19.386796943484317
0.3377515522276378,36.300387413671885,1.121388370046455
9.284371522248946,52.48322983954838,16.816713724267792
17.025016419395993,61.07613437411256,32.48479475111547
22.78699793524712,61.630149472337976,44.201223952533844
26.0874822560573,55.342250048589904,50.93735721656517
26.79908638458543,44.388283843017994,52.42064460753122
25.134765478423063,31.063654869588312,49.02999246490622
21.551160546625276,17.144531947851327,41.85511770179025
16.61628841200417,3.728666138713672,32.42315059285915
10.888506485224354,8.48847927726313,22.20691326028937
4.851018273084432,18.815993449119564,12.418249712994083
1.0757623877455764,26.427891040361537,3.8868391657355645
6.474753397454798,30.660866161409835,2.990275045462058
10.89714442599066,31.555105452497987,8.084254448427814
13.898040237624373,30.188909943648845,11.372490932428079
15.13954887751886,28.42425541319341,12.974497884121755
14.530114890599386,28.0578363289313,13.172767653108664
12.331063870816216,29.821024498504837,12.295935077705204
9.149933710235372,32.857171794687076,10.713684268080454
5.8040380327490535,35.08921926648109,8.825176616571026
3.121535672702269,34.36062247761414,6.960119755977001
1.7463919538854258,29.712499866705752,5.320129344005012
1.9956889003358456,22.013582348145977,3.894174495025782
3.820993000579189,13.51642815705779,2.5672423393851846
6.854453855341957,6.576952479877892,1.2696679114523424
10.48274559755441,2.3001636508547025,0.04127324607028875
13.925738496634038,0.08201110522804847,0.7577906073339715
16.323051315592533,2.7508744163782226,0.5373808678044844
16.842412477613806,8.064492227850792,1.1244202378090493
14.816946181937935,17.28910198552176,4.102678075731103
9.912175731890779,30.00681159544876,7.519971719705536
2.2766238678334405,44.44018822934532,10.214408777176267
7.407906662540013,58.34913571076226,11.34906348606484
18.00995618247764,69.86051287222783,10.488110303282289
28.137975937842445,77.77294037770902,7.7410550056349665
36.39271942357113,81.32320519929804,3.9127397395086034
41.61881897779544,79.78177346865256,0.08494343565330097
43.06658088563192,72.32962864371369,2.8569104377224357
40.44348173013521,58.39659896970696,4.370715506128769
33.90710151165221,38.25065080705553,4.34612035253451
24.023856447914042,13.398848824492255,2.908282448905463
11.718648919552972,13.538739717094499,0.06872140460166452
1.7634347241562938,39.454209522599825,4.032546287454804
14.929364905130605,61.52407306363987,8.67901277450925
26.175205454235385,77.70091712245481,12.604407856639812
33.98072067354241,86.73642044287294,14.36625792427588
37.1515213080214,87.92450515089375,12.822470171474565
35.05787801512619,80.90877852476,7.352685656348554
27.812686606010445,65.79241042046759,2.1050182101452077
16.344125171991905,43.542529092432005,14.843188237901128
2.325929310414281,16.39514460628365,29.22793942860515
12.032842728921025,12.1319226231217,42.88304212056259
24.308264418239407,37.79272360406125,53.11285985993357
32.25632385323865,56.536568700767944,57.552765262042904
34.21781096988917,65.40665392018589,55.05898336968159
29.434183262115468,63.08208405968975,46.07706562271992
18.216514294947313,49.93466505765237,32.18413799647956
1.9491011702571703,27.739276087776787,15.458804215662116
17.08931791781845,0.7018082480058832,2.1469084428839458
36.06144607983433,31.85970321545196,19.051789416382718
52.015120759255396,61.72959703697202,33.84061459358853
62.3714362984281,86.17932637069215,45.49324136977438
65.3601372947292,101.49488984447581,53.705102478630444
60.33038763807772,105.0750894472909,58.57943396569365
47.88407081868377,96.04948945729059,60.327994647114636
29.770611686195156,75.53732219337898,59.31057285077393
8.56018103532825,46.43607561077422,55.994176536111425
12.875382131850348,13.064889619484614,51.05202375625363
31.927507713577675,19.842717539207563,45.338803467668235
46.65078126374426,48.382994263221384,39.46447674670511
55.96405302534753,69.9944945298971,33.68115944835376
59.67087345249652,83.53297420651575,28.001466361881924
58.323974137792916,89.04628456402244,22.200089251622448
52.990480398536214,87.4429603640687,16.133436321985904
44.99534650904491,80.17621650003333,10.086636117395395
5.606103147723409,12.522260547722365,0.029270544648648728
7.393786542317052,17.38552604773513,2.57005465589349
8.447512763619011,20.240745567570254,5.771150408081868
8.20384006063533,19.922610250009388,9.132816563083617
6.259233950286853,15.67475261347366,12.17090495342334
2.496026705967001,7.346553555106385,14.381528888163148
2.8636490313556653,4.448758684110842,15.178899387761515
9.282549129802758,18.32214014372734,13.836183827322863
15.976392302930343,32.24801674462119,9.731032447386688
22.015080358600027,43.945680795794736,2.720969964007102
26.42302659638012,51.36093939202999,6.701826485519383
28.27130324498499,52.99043943572173,17.31894231417739
26.807086898246496,48.00997152653506,27.287336283841263
21.665996091860922,36.60406565884279,35.066172677316665
13.059304771591531,20.192145019278406,39.75539638652626
1.803831910057948,0.8848841115993596,40.40849101041595
10.736528507997908,19.06106010812206,36.26671482264822
22.821221046966514,37.422472283466526,27.25941438280286
32.65026565269283,52.240277198603295,14.051722353942488
38.68362482966813,61.91606843392077,1.8903512487189544
39.90839994948768,65.38070556181296,18.865358669322575
36.00886631628642,62.37717994550955,35.28373850947319
27.40356155593383,53.55975343937242,49.34094851103558
15.201555363396551,40.40101373523049,59.11580921338542
1.079348030363997,24.753957027872804,62.95428894751029
12.91892486492766,8.258537036945382,59.87100298020767
24.66250026995877,8.04348140310249,49.92061163390392
32.28394757808601,23.69302858668506,34.17213183363515
34.527188113850734,38.33955606601252,14.42451330858831
31.01924004974973,51.15639221512132,7.072262991015925
22.36983603607586,60.549192351284645,27.957145888602664
10.044258902882465,64.40975411338006,45.86853174356271
3.9552209146735664,60.90028892569055,58.33711950684103
17.489444106578453,49.35791079714011,63.42164175236476
28.6380887434973,30.837663065433834,60.52541041760908
35.94673135607202,7.994000874746164,50.197644703059474
38.54513879917957,15.656409801738059,33.81897364223287
36.17465925407853,36.69349715102415,13.607268643966297
29.182498715526197,52.50435205267134,7.683547982434854
18.48379443350371,61.50586350216409,27.14298408062883
5.470915972471608,62.98008227545142,42.126253468514264
8.159741423317934,56.84335547529457,50.86744455662294
20.6799887329083,43.639664655728176,52.77108335466339
30.64009479035199,24.795430885361434,48.311856381377176
37.09766861083204,2.887443181192566,38.85318478862699
39.686589137627315,18.449998129595784,26.225789991903653
38.53319772535146,35.17649671309197,12.217332066401767
34.08288494789811,43.89463536718977,1.6088600994102107
26.94377104061077,42.890579406843855,13.94951434677109
17.825805981038624,32.70574886054107,23.970326842463862
7.564435558554125,15.990018710444902,31.486305074421054
2.8337710633967994,3.25083502559452,36.84643751096359
12.220323471293614,20.67003516132281,40.49712985362053
19.464162028132716,32.482293060971436,42.48103991015241
23.68424303560037,36.054895909560486,42.61835902904756
24.457399786242764,30.208089114855284,41.0331345632716
21.908835980744467,15.346786371038817,37.917619429606674
16.64481197149533,6.4990637436811,33.121868881689565
9.593717363728832,31.808162033371207,26.355201630624318
1.839810686428134,56.03412053416982,17.51867465320416
5.505044610639836,74.45349168985517,6.735112768177583
11.375634340616038,83.22247123436277,5.743667181158245
14.824319077467688,80.29855944555699,19.296552452980215
15.159627835020961,65.87675115954691,32.59725012004063
12.143051295253308,42.177030672860326,43.955611144626225
6.15419054677074,12.749730734933642,52.111905575109084
1.7802364350846316,18.351042701602264,56.54558777423645
10.155753221126885,47.227157296741964,57.23397609210624
17.331295556818255,70.49930127033511,54.39298260590619
21.91787213551887,85.48622037724142,48.23236667805208
23.06359006275611,90.42134850569174,38.94526752888689
20.556723591401404,84.79001961619944,26.966076738334557
14.761838172030423,69.65195452551596,12.946287297294933
6.468130940617934,47.671512643253266,2.146858754721552
3.251192407555802,22.648405569681625,16.79982021558808
13.125517282127669,1.3828143609048829,29.348981259036165
21.75697781802462,21.14233384207758,38.391577635576404
27.757264864793036,34.7495990559173,42.79750064932566
29.992911489427343,41.758495114737634,41.95990277271972
27.8777863836873,42.67663426232696,36.17199555003097
21.59260569252873,38.355821352356934,26.660705239065884
12.109182302224667,29.656647385974477,15.26148042783624
0.9669234665346134,17.55793276162721,3.8388512909927224
10.114678167249417,3.5455440172716104,6.069227150689174
19.62117093125404,10.121772518184804,13.191248644376588
26.486000565651047,20.603226646880273,16.607618821724472
30.129158636777365,25.174714232387753,15.946538098732718
30.336361020711408,22.15671725141014,11.46630490442238
27.115777633710305,11.608908910189095,4.204747424021581
20.659791782288043,4.533376650550163,4.075549644312723
11.429360858792744,22.94424174340793,11.4417851117211
0.27281765941143465,39.80305106805357,16.504312429526433
11.530184317733426,51.70575093481754,18.60057205664753
22.385342939941395,56.29304174097984,17.485786153592915
30.66240496501744,52.505963341457324,13.1706326661542
35.028515110123436,40.54876965854001,6.093114651776899
34.717446079146505,21.70530764045164,2.563379379205884
29.648006392932633,1.8888589861675753,11.11944289924109
20.368514046980508,27.476723366314626,18.077273243725553
7.897652386215751,51.939106227635165,22.234319596467444
6.436495654625976,72.12385585808212,22.679977211011476
21.09436979271451,85.23143918570275,18.96651933086644
34.39060056757328,89.20773972860583,11.155512001247347
44.610462398412366,83.10712723804406,0.10526050525749611
50.20732807057109,67.3668452326719,13.603494457074282
50.074907367668644,43.881107211644434,27.43061570647912
43.84421272832052,15.790671184457773,38.97957019774086
32.08447065669548,13.039986446607726,45.71988004021064
16.294234415904345,38.7815716202122,45.923489216277
1.3507517379900698,58.40062874864087,38.776602667935386
18.415174794841693,70.14631017808975,24.497164993631813
32.65961434995731,73.60086561521987,4.734386947262933
42.411534302858676,69.3479899963609,17.547292663913293
46.75610173400197,58.507336055855966,38.900689424796354
45.5566015861648,42.42083948554431,55.90158584717705
39.36906081730311,22.656664166629646,65.7444954197586
29.30845100678637,1.2414475445819084,67.28086595857668
16.920563056277814,19.20513567031604,61.00404150820776
4.05349227493587,35.72932076248836,48.372433423258826
7.324214505798626,45.71313458463429,31.660321832480637
15.402118710571642,47.682720057846154,13.586090192786967
18.862991962599555,41.83324080966324,3.332235057878915
17.1592914360968,29.942571669613482,17.12042852185666
10.660652504159156,14.693401767491025,26.662585073307653
0.6149898658466215,1.2306970150253433,31.790952072764604
11.108155037341085,15.806938411797665,32.96419740242859
22.395872283369282,27.814990530635438,31.043576940355436
31.259809422954547,36.56089693423657,27.281678328943443
36.11304963389815,41.54832018333982,23.104220965303874
35.931564484243886,42.42299718788639,19.42549371790659
30.323836810682142,39.248611034256925,16.10247011914535
19.554658235616586,32.836028004299514,12.406270268981077
4.571194387429439,24.74657315005325,7.85892749430043
13.001483938354434,16.813928936903018,2.3607101263219885
30.985768335183455,10.370522001947128,3.796505682099835
46.93257025689117,5.650750132349407,9.624518789348429
58.52207096194346,1.798323051646752,13.67065739128132
63.99436743261152,2.495089101777816,14.750026357683941
62.4891056815379,8.099816448914709,12.427069503516567
54.18174724045407,14.870776529065687,7.196060178104453
40.19870135901504,21.761187336224854,0.4373303281887495
22.383081542529037,27.526205258514103,6.015523283650313
2.958963175084802,31.362433069150974,10.603510911521141
15.857129970632935,32.95556375626141,12.512727485025314
32.14402944274724,32.299853406689536,11.737057381633418
44.43926819624001,29.54525296142643,8.743937232423587
51.860953935958975,24.820755599282577,4.079283117248217
54.176385141862056,18.231743042969548,1.627277810536116
51.80519361399577,10.08014422931435,7.510143984206094
45.73833107639086,1.1463116111128842,12.477429314602725
4.516355747166163,13.442144472423289,16.18973388128558
8.75867604856496,12.411376326932341,18.35969771749551
12.797848921152333,9.890414084300646,17.85016021542182
15.743554900527332,5.676242489384449,14.264676122566483
16.749974098597182,0.6202969842470036,7.902603057252946
15.163883893380833,9.302341298571381,0.5126278294019793
10.660492579983863,20.213088967841973,10.150431178639089
3.325138368659875,32.47952774393417,20.067292932614716
6.284323967297966,44.48442358925792,29.35940341466158
17.151837956373853,54.134125761076,37.24273712252859
27.879392539561625,59.28539214343677,42.90839232223978
36.76501539616353,58.19757407260898,45.561483924983115
41.95504465678703,50.006326339967885,44.47035537112457
41.951796109087276,35.12557547330833,39.4456861101514
36.18644307046056,15.096215464050912,31.22522287349842
25.09261104140409,8.082539643914833,20.80245518259243
10.005146589988234,32.28991850091189,9.27203384971751
7.006798862400195,55.269678458533164,1.9627226042283337
23.561094202052537,74.67174660706101,11.927396659527105
37.341702029297856,88.15183801729799,20.324099495222594
46.44530466489194,93.72797859277547,27.25427192630174
49.66955628641347,90.29495983378098,33.39771095660336
46.61852425858344,78.00595882511631,39.80712532436393
37.75586720569921,58.4027644994298,47.0770366515287
24.353483110343564,34.14923672120277,54.759138213552745
8.339618484283145,8.480374492530958,61.476077530915845
7.931761710203209,15.468416988942149,65.48820997197848
22.021304769016314,35.274561371853245,65.40653771653731
31.783493771956902,49.56431186670267,60.49806352904801
35.7447028158754,58.03697956224582,50.541070225644745
33.38185953889257,61.18152232991142,35.80402480065978
25.209433953998133,59.821185055346106,16.899844598511514
12.669008124789219,54.72564863937103,5.093235433463277
2.1495490225923093,46.43728909166883,28.391582339741237
