10.407385661770881,5.1344117902099295,5.371754657022431
10.319739326169003,8.94275664892341,3.1971902363263225
8.184553956934327,12.333216110457075,0.2627676648108664
3.7371290914693103,13.858221752369822,4.7146006469658985
2.917772311084781,12.338235226586027,9.641109717367659
11.25111729684565,7.263751787933487,14.365841229437779
20.326426961255837,1.0633661828032372,18.142878627286997
28.886322145870444,11.624623415167015,20.263528669380598
35.50174804146975,22.9059985537348,20.057901832586392
38.80164257891176,33.11728621242135,16.979466832677566
37.72845598877479,40.396124689893185,10.91531989973402
31.760214408348798,43.06887367456346,2.4471709088560276
21.086196064000266,39.971938656506076,7.153690333714662
6.72734145423827,30.700297134007787,16.327541613267524
9.571738321225952,15.795613265732618,23.72022805281987
25.742538707953805,3.0374171758497988,28.36006697056146
39.783470645243035,22.98118413792389,29.720403015591476
50.03891648095839,40.64887153020776,27.68987547596443
55.4212596489522,52.92009893086311,22.433713582089958
55.482922379158815,57.76271721974537,14.442490215865469
50.39107912404335,54.70546241531527,4.610259035485551
40.86488326784388,44.815235373026844,5.988920263727822
28.056858626717815,30.297289340236997,16.338321579007683
13.410742440179552,13.915666361847553,25.28244291714026
1.498406090927954,1.5497879042535985,31.502967450135237
15.122922464761611,13.74927312864749,34.04477191009527
26.104750637427706,21.143627179872578,32.505214925918025
33.43438750899542,23.29565255700993,27.024898139743474
36.564148011783246,20.9960505887272,18.39317250766348
35.47636141592478,16.075272895326783,7.663232036172751
30.688545785390062,10.839063371725496,4.13930427785447
23.190607457000546,7.295720890751338,15.859322372723472
14.319074518355045,6.493731439967975,26.29446403815906
5.561134925736142,8.276478279433514,34.36106337514401
1.6620227088550412,11.570357919782634,39.15923628393866
6.192778726784544,15.035095208437964,40.14972959698242
7.308131026747153,17.69295759519838,37.22099501456498
4.840261304594292,19.183813807617874,30.599082815587586
0.7723613469688958,19.567455619508255,20.81771345501373
8.522194985218375,18.89890537574991,8.672174847362484
16.95727154299492,16.933763662024965,4.6919281626119735
24.370560922138033,13.193317840563184,17.68629170010985
29.062559439256084,7.325492239730513,28.78780347663483
29.655212440706308,0.5278723388614246,36.88663191133744
25.376954778762087,9.669979734929461,41.03191481360502
16.259077601836076,19.1843744063555,40.7581059526863
3.190814635505674,28.42253315327706,36.454353963012956
12.208673423522413,37.24965529817522,28.898305925633387
27.873076144646383,45.790384998009756,19.108419766920193
41.645799807976616,53.74992826167951,8.420790160549926
51.63054465496256,59.74493652285823,1.8378099936856906
56.466652899794674,61.17617363800824,10.399411850826977
55.47665875603432,54.90272956262841,16.131737226061542
48.69965318772566,38.5288298984829,18.379427604090274
36.85392443932487,11.739895021495721,17.14574437872294
21.241518149406968,22.966648280200296,13.232439277600571
3.6043803521037927,60.56243010536576,8.064742739020579
14.059642788546022,94.69807010081287,3.3287160903948716
29.71084862737598,119.31732608179576,0.5954466741968069
41.51658279960688,130.04820639778703,0.5715174058808616
48.11429218879669,124.93441100238107,2.8364400398726852
48.80385559309129,104.44270287326064,6.496800034699035
43.63863517522737,71.01881577170452,10.575774725655219
33.421433057391255,28.52976133234756,13.97328615162354
19.587552246932773,18.201995597536513,15.779054076758896
3.995640752857177,63.78527801550696,15.553647634145648
11.320558446600987,102.74140005993588,13.088214310750647
24.398010662033975,130.20272655275195,8.36293758568517
33.57293020552503,142.76188386895547,1.8942548540231325
37.67205039485266,139.2215004196859,5.223958013830635
36.15263332993316,120.92271398681476,11.582226721724462
29.189170101438748,91.45007501451191,15.746123372034477
17.677383163855495,55.7678109063439,16.653612819392162
3.1480017904800146,19.075644453294125,14.050476756037224
12.408476077084163,14.239885018983308,8.620194062830588
26.80425462398588,41.24867802463325,1.6330081432331243
37.965231694356206,60.5922795893339,5.4472128466672185
44.24931740130564,72.18266618182174,11.33022153798233
44.70601631508371,76.71866514476737,15.464177004293076
39.2284486207708,75.24728283391319,18.01947646038401
28.588493851765598,68.90616500979274,19.082512588997037
14.33019247527858,58.85346418603769,18.25066599202272
1.4709915224380006,46.33071509080266,15.078115031089895
16.53768363247437,32.74851529492883,9.498449841789231
28.742948915122486,19.684016346445723,1.8940962181014358
36.42587339608631,8.769098049058377,6.758479608206129
38.62686736419907,1.4529665686803817,15.092836979931917
35.20072169981835,1.327701038997438,22.011585815895625
26.815427008932645,0.557147560011472,26.832791838160684
14.847185588474062,6.263863877891678,28.99657102970408
1.188962538798741,14.017807500654598,28.147607819870032
11.987342571072055,21.43309839790359,24.56164797090804
22.517538863846976,26.033342209956007,19.199917221251948
28.56465275888855,25.81398845158206,13.092637142545005
28.92862572354097,19.680629098045195,6.93622590907114
23.28560147922232,7.629096132243343,1.382706414012277
12.283356611274096,9.34180588917191,2.814141915916793
2.5253356263436633,29.48200311141258,5.084798553981367
18.91825399656373,50.562536059893624,5.332321462588334
34.378280594036724,70.06215676993433,3.986950697350671
46.49856924289651,85.29705056813283,1.8223317060694777
53.330390100763054,93.63215303958225,0.26047142648822313
53.629259975469225,92.87899677530449,1.3773073436915246
46.98318803735117,81.86848141853713,0.8724631390704547
33.84705331094876,61.03726202209495,1.3498427383686322
15.51831125285828,32.71439536752583,4.879835466994635
5.955508409711134,0.8586500001847905,9.134545806166814
27.982926978634826,29.74532118360654,13.332968772167641
47.752700672594266,54.58944827694381,16.46265737394599
62.653238223342036,70.41456587502962,17.451049307521476
70.72021133942864,75.68981199796467,15.668067457615136
70.97485543951692,70.54969624767864,11.471192555091624
63.55758813789229,56.384858146802024,5.836221270396839
49.6350560975442,35.42043603130118,0.21830338901043714
31.128939601983173,10.535640998323792,5.601892422956699
10.378888191047913,14.731356573157207,9.234331880314109
10.17792082384128,36.280049627511225,10.489099853047152
28.266376668745437,49.937358156559526,9.445825296275455
41.964924480406395,52.41350485787757,6.6686494308692685
49.88058636966059,42.43376282871339,2.7948644991558087
51.31922996461461,21.485852241401734,1.6711925056330816
46.40549338491234,6.282881876099223,6.187651960275469
36.119379689006735,35.098577441253,10.022329479413925
22.18544393202744,59.15770041673331,12.55374155121731
6.781846806130881,74.09889400908524,13.60910120778763
7.843615902618375,77.77053569015463,13.608632336985675
19.741545938707606,70.15173820943374,13.42431979101906
27.525770888889564,52.72539806410097,13.82790220703585
30.482163651139086,27.84675755844464,15.02092856495643
28.550914403854676,1.525995897402065,16.43111408245095
22.247732691442366,31.777545891757384,17.034975280396548
12.56927077975941,58.62949359941462,16.042492653806796
0.900458132896459,77.61789112127431,13.074240867033932
11.101395742549908,85.1288057010272,7.972676112116364
21.690573935700915,79.59782971501991,0.6887955582749364
29.284762812723706,62.24177840053427,8.551569062350575
32.73356112609135,36.83481582971319,19.015227904366448
31.531090174135784,8.530948616316731,29.472452675932004
25.90681900569667,17.753348575815682,38.38090079628659
16.77336965770177,38.6115325664965,44.32672009190428
5.550261663230412,52.52611958384223,46.138540399553946
6.09497899032382,59.377082430540504,42.86949210813475
16.67862699597152,59.894709289886265,34.48558643352435
25.146552022483796,55.19197138170433,22.09878678073596
30.84477318631208,46.386912361187925,7.582345248589733
33.515928301648195,34.68567409985154,6.803607298541331
33.26108503160748,21.59892772654453,19.033249143833423
30.49269813946331,8.97670887235528,27.89948724354011
25.86570117623925,1.306480687392465,33.227181598720556
20.184507364807967,7.912727389177849,35.413846603081815
9.015586926382648,18.906079502722612,2.0311874182294396
9.533577589140055,16.3300404566618,0.24995475047241017
8.542272714664994,10.16079532877932,1.994371776097018
5.701258274743936,0.2102522237896221,4.485440938769179
0.928495696018748,13.106232351973576,6.982553046944513
5.532580166469238,28.52799330532131,9.451396806291633
13.089075629612683,43.90844618865325,11.917405808691605
20.832460706329247,56.50770445917922,13.99149607730003
27.6338582369852,63.583789754422014,14.889628387354145
32.29556708659629,63.08553640327274,13.838880322248473
33.734454515868535,54.184228203466155,10.396811671705171
31.17039222419401,37.52531952948055,4.785180628396716
24.324476662710378,15.241491246195192,1.917175913057672
13.601914444676847,9.364294059508293,8.444819553767648
0.12185437988813645,32.606492477190365,14.094075924009887
14.453799506719877,51.294760483134176,18.37340453400642
28.166051130694907,63.215877029053885,20.744689292760093
39.04917496474737,67.29141043237361,20.83489461752349
45.46487818397117,63.56252678094121,18.459222740881863
46.380662704170774,53.055793466733036,13.835325363553627
41.554475419831505,37.6163544492957,7.61318864889735
31.6008818286721,19.65373910306066,0.6985583150703848
17.898859577368132,1.782903842595456,5.792539285416543
2.3732577843342124,13.57151419159078,10.790286956951107
12.792548084587374,24.527804373191163,13.349497218137627
25.47217436610708,29.95096545369786,12.704019869651171
33.898337676505015,29.499326131799112,8.79364457293656
36.90117136989898,23.566698190999848,2.4434675600361633
34.066840986271046,13.185074357910452,5.033900128685255
25.81267001229172,0.08628038268315161,12.052312277939137
13.35397400722104,14.336430439696008,16.989157193183686
1.4507838556888326,27.567038591453915,18.694134864878095
16.370316574738865,38.0115359550514,16.71132719421778
29.14998081884137,44.393878728655,11.237033128985178
37.87475609948259,46.00152028689825,3.0274869390162067
41.25585394510968,42.58074792338676,6.813951776818221
38.78289645088538,34.177529186442385,17.071861941611253
30.749199580072908,21.088004059101333,26.556123017567256
18.169664087887202,4.011590234571147,34.059934972208374
2.6291662270700393,15.682425467250857,38.455981439045864
13.906871445212097,35.824641286419656,39.08441188157019
29.312827659220915,53.69555348652542,35.90647927068609
41.54664562141488,66.67006276454191,29.141200596707765
48.92307248394567,72.99450889381791,19.042238279848377
50.38188638432956,72.30892182674289,6.383984300328482
45.67710626609471,65.62017188484586,7.347672147765032
35.44259065362023,54.737490334985324,20.411541588746378
21.10758160372836,41.49877300868174,31.004778662583746
4.664363880472101,27.229732864334128,37.65152853430616
11.651792064359016,12.701724261131384,39.86622298277118
25.692185891884815,1.5060212244535571,38.04004563954874
35.6835208225332,14.589564860341419,32.74879013407676
40.44238295349496,25.42611272929869,24.54695400998271
39.50363080450466,32.933732871051,14.390967893347645
33.181219410979566,36.63168888446676,3.693802718353724
22.54965690898276,36.96162965128756,6.175484545393506
9.305751859631812,35.06203802862491,14.190271112146554
4.49030014890017,32.08123225083811,19.670710082012878
16.75250647604769,28.46942338018704,22.221223628279557
25.720699633003843,23.746865314233577,21.668311685911114
30.24459980568272,16.995045191286163,18.003563386950105
29.927584015131067,7.814976103281981,11.56753893676356
25.108526743398386,2.8940683896814092,3.2899135147796494
16.716093722835115,12.912520185204205,5.609637850060586
6.0691229120047625,19.557901921310574,13.915601485504107
5.312074548237597,20.986560689627844,20.50484704254581
15.873681261671033,17.18720620096096,24.615615558090532
24.174266075143986,10.03889202955937,25.735773407296232
29.026550338494864,2.347837396713078,23.38955128581375
29.658899611305564,3.5666157117192947,17.548368225660735
25.852726455136395,6.893702393824764,9.069621647179549
18.012013776726345,8.3946409353438,0.5188006636761865
7.135947657137317,9.535217661370483,9.577926011074602
5.321931749142916,11.296545668291667,16.596755112224926
17.676837161273077,13.480807579852488,20.287330379571497
28.269797916993287,14.98480736134351,20.033054564825132
35.684748591235966,14.817248552797405,16.234325541746074
38.89684541840016,13.105801206753686,9.986177311108234
37.37683336694636,11.360902972820337,2.67598930046443
31.14875454923021,11.727249382506916,4.014473710698026
20.817174162252535,15.622714898228589,8.369089860624143
7.560774020266986,22.636583364305373,9.213052040070663
6.961755090454716,30.418956657295016,6.1684308934594
20.817833008142205,35.669689568596866,0.3314504494273889
32.09560908793416,35.65333528568671,9.176019805581078
39.23637436631503,29.355402337578223,18.821868732184893
41.332296525024866,17.637660065172483,27.36837147684872
38.298264724376786,2.3917716576378516,32.82344427122135
30.871570625409003,14.644273841054066,33.81518076058541
20.447877103934044,32.5730171775957,30.063773662595143
8.79433200897217,51.10226774915191,22.24317876839886
2.275343739187585,69.61005343335053,11.771852858917509
11.200827884789915,86.24490524797044,0.654151398725688
16.896107474486687,97.81137043181482,9.205243713954504
18.853019207614736,100.68560070929523,16.7587910296096
17.156939118886765,92.31710769193455,21.791381818107684
12.42846024025465,72.4737425972501,24.4435337048542
5.696687704083535,43.55121182897204,24.92738430583082
1.7679222945252147,9.826169889971814,23.645166975270104
8.647080287635886,23.87537953965104,21.22489579348486
13.768842838579573,53.3718839927251,18.20287958740555
16.265421653679002,75.68054929233402,14.905204801557982
15.675969985210447,88.92970552607709,11.53255650634674
11.999256224137532,92.06314801902712,8.128041071708765
5.685914084098525,84.80432056463778,4.5901957446328465
2.4351401001133666,68.00903761511977,0.8378762273205566
11.269396439202223,44.10390896030756,3.0447396594142253
19.60417378752681,17.095987330735575,6.7638464091878125
26.261926549633895,8.140815345428047,9.897165604442998
30.233779014034386,27.133514116297057,12.110737368890724
30.81099135620063,37.07658980971548,13.110654852531983
27.68058868966535,37.47436622030312,12.411302582278235
20.97899739172496,29.875559699048512,9.63696099509094
11.32244322641705,16.9390204071323,4.970778078294439
0.21844054655967837,1.4193964721495107,0.9149230911824116
12.208566878470124,14.401250826443707,7.158889043678465
23.015684552336495,28.678941321073253,12.926257256813436
31.04749740923761,39.64898663793805,17.401628966627396
35.01169726533592,45.43455290598989,19.838718968791223
34.15769341835791,44.31389667292073,19.836263298800453
28.426772878303872,35.377324490293105,17.448282931383535
18.472549356264373,19.1985141347077,13.134011737346936
5.560830317060015,1.9393158347467592,7.565793749229493
8.627552558952754,24.479691193384056,1.4154956411194803
22.234386154663635,44.53702202842181,4.66504401421794
33.46194305035682,58.899432840085254,10.127066849961933
40.78249094183774,65.66173336981227,14.64975875174868
43.12230126947455,64.32703737506475,18.054603903962537
40.02214322425733,55.50010714347429,20.086329762043206
31.730917747966704,40.48653665586469,20.548777690402748
19.223040208058656,21.053023699443088,19.66363590138276
4.111445835958196,0.597295340803424,17.914521215437556
11.573813740247642,21.78913400574645,15.698087459593802
25.69499956814368,39.515962381326176,13.21340226545817
36.34196088356015,50.86201633502124,10.50331083665388
42.115710479302955,53.641371299942925,7.619385408083187
42.3072469837426,47.037133144347706,4.651760829869143
36.97069996204514,31.978432140699773,1.6962650317724426
26.89548017775486,11.103919780906566,1.1127379770715398
13.501763195073439,11.707399702156827,3.573122367755454
1.316903843119788,32.13164127039736,5.469091822945294
15.410122168392625,46.32331657428826,6.839399803897084
26.944783957260576,52.372733635210956,7.892555483763215
34.73436260828149,50.40586084014876,8.75238477986296
38.17904810436718,41.53693266213692,9.422303210416919
37.338066821764805,27.552568382319045,9.867406199360955
32.88739986645013,10.61518980356373,10.163335665231747
25.957399144802647,6.985367895636598,10.338020903241397
17.895991923249333,23.05854141009754,10.302460417087016
10.00687063067112,35.73466681144416,10.008163950822784
11.097336814528221,10.734898784000594,0.21270027960856866
10.22433461040593,5.842084596764428,0.9448675900276476
7.011399331963316,1.948911433485402,1.5775979998280842
1.3065438282889594,12.45205548998416,2.0716436289275046
6.576479943477515,24.695088264467262,2.3038522751057564
15.836640383243042,36.91719651034106,2.202804295533919
25.26209009885016,46.91935008222163,1.7315351061762914
33.40121528425669,52.608609035613455,0.9729152901252546
38.79212972951074,52.5868740870851,0.07572703543379089
40.198672458125344,46.435687397303276,0.9150625088269504
36.810321023789335,34.65966027404296,1.9070033879501924
28.405659482435784,18.526795874133455,2.655569210653035
15.488333907399328,0.08810952860530012,2.8074017752319382
0.6741198510206383,19.363485288989093,2.223227995476995
18.212971669236158,38.1526034878992,1.3217936227718534
34.958048801138204,55.44066975645745,0.72629791472729
48.741837681281325,69.78808204119275,0.852286996702876
57.70985557643581,79.48686284068482,1.7051508534085116
60.604825054958525,82.88201790638222,2.7327699105876104
56.94849045842039,79.03842628459464,3.248923400385219
47.11558406857325,68.22740418255071,3.019207110383507
32.27833295713191,51.84398414067576,2.2183210082693905
14.226790243529141,31.993396146269436,0.8464714442142828
4.877673772647173,10.812359644322017,1.3202909714598292
22.782615549596283,9.965066777619995,4.268018561717565
37.41460233742426,29.033951112482203,7.893137715908287
47.10403377295778,45.2756879419117,12.139135572743225
50.76855581702489,57.44131539086708,16.84407430011262
48.04688264608112,64.15557288037084,21.697520032055134
39.3683371777314,64.28020098009117,26.007993881327373
25.933639893926994,57.50555842520029,28.80875339327595
9.581162642490543,44.835460283508276,29.213862649986105
7.457706893595649,28.61416325224712,26.409122848028606
22.88096930876714,12.07420198439134,19.68575950100003
34.65104938849214,1.4787624665903343,8.81141899277476
41.27984336772901,9.51954220201204,5.5302241467263995
42.00620215984612,10.85852063320724,21.812596739490747
36.84278552048167,5.780790596823015,38.19152155483401
26.53176049008012,4.192030906050025,52.69281734532904
12.43951241025366,16.74972587694858,63.26361783862953
3.5953001683378707,29.281646165348903,68.32977679440035
19.46419987684481,39.294512377663914,67.22639824382537
33.05242567710533,44.71583336409084,59.930277517488896
42.53889634979832,44.11655538159334,46.83019589061286
46.69333761693696,36.88021947568144,28.880359402532836
45.084492071128196,23.300997154092226,7.727635800561208
38.11933323874473,4.583398250085828,14.39206947681135
26.925218402197316,17.270877081220387,35.03658063673334
13.11669524357158,39.694651611517344,51.91151587558661
1.4907961956723257,59.89478162410453,63.083130555966726
15.137536818926955,75.24773690821388,67.252412643032
26.296634600419726,83.6935741488246,64.20481995576762
33.77551904929344,84.08052366235457,55.25868854872542
36.78883420786866,76.378837460019,42.566823673000606
35.03739478092215,61.695183935904446,27.86143507814813
28.790284284940867,42.0763486568224,12.578559354809522
18.92808147201801,20.14530738101926,1.7100095869938576
6.883080008521099,1.330653117298916,13.692737508523917
5.558077606540508,19.825945630968445,22.526098301801984
16.560773815952324,33.31503982776202,27.66993910533074
24.56247541444418,40.42319775560063,28.955609943963893
28.509801746730695,40.56622090144793,26.780877863104514
27.958604830729314,34.12406225282204,21.95576259566207
23.04440958885674,22.61257755897564,15.532126220139695
14.404677306729354,8.72281924455479,8.774575103143281
3.1084217920993056,3.9586639961477323,2.8752028009418518
9.416707730654737,11.63673989630176,1.2753676771153364
21.48086850994367,11.295367159181525,3.2980306182442503
31.293276873524913,1.6915750182327853,3.491560878710901
37.21875207509486,16.03711738156118,2.5506023882083784
38.09090406865706,38.45565183563511,1.2193406268176339
33.49940478405462,60.63721369455708,0.015155831665845691
23.949481462613488,77.42229334344925,0.7396774318760363
10.811001864023373,84.67538960627179,0.6948904728081912
3.93622569722496,80.13309052578198,0.16402159799406346
18.0804209647232,63.680299825189145,1.3664177361968113
29.573342029919505,37.13215283400751,2.333674023967882
36.84392481878568,3.766894956607758,2.48983636558895
38.986421869596406,32.15618103964441,1.4419893538717425
35.834168281677144,65.87529817557655,0.8279239083865799
27.948255824948642,92.71832708697336,4.041755153387059
16.55243962793138,108.87034896082048,7.750818469310305
3.400864133999779,112.22541338859627,11.46777934363958
9.464957342296422,103.01893065809604,14.543890088229698
20.04476819961693,83.86362803055825,16.068332990308008
26.72868251593165,59.013961812063016,15.146508132659225
28.605602593223026,33.043431840773124,11.22340753105507
25.625261854055,9.464181193368047,4.366814851579981
18.553791573214774,10.084819090480279,4.685393169898627
8.769352688863178,25.72716992038033,14.730515027696617
2.0409639103720094,38.45096555920046,24.20475296009717
12.196064737740441,48.98283205539041,31.505812415610755
20.258384402852855,57.09892749018849,35.42115236326989
25.17419006334708,61.726641112528704,35.17253996983264
26.335749819627726,61.67921466787001,30.526977278363013
23.609469024434134,56.505325488393424,22.055042136902408
17.34954622685662,46.896355477378094,11.170689015072124
8.37549513141661,34.41485989088623,0.12883460689744602
2.1061414943240644,20.787125266511687,9.889798213855231
12.658333639821079,7.272928867240473,16.655331711003406
21.838440517210152,5.468329674924605,19.507306809726114
28.4319244580701,16.980139100094625,18.19938592000481
31.62507377052621,26.43962039989295,13.317701641641182
31.08454073796625,32.4060954594227,6.300658596699127
26.950349086489677,33.17074479431384,0.6961263944276588
19.758038503715294,27.567897977639927,5.142102031889969
10.338695549791467,15.760990428803604,4.75121904265396
0.25772822602783324,0.49814296214800696,1.5289837806092486
10.831405068243397,18.30465321433495,13.00019604549919
20.12908996803031,34.48605055227063,27.58796249283622
26.974018355389838,46.45397038747151,42.22966794150162
30.42078011520559,52.613718969647486,53.34333503230129
29.9198563315319,52.278083699258275,57.82390074514154
25.44196452891465,45.347685789126785,53.87665898115645
17.518444811867056,32.11253259718219,41.211422693754805
7.191876026627187,13.356104854464904,21.123985884049386
4.116661859521838,9.366426213697043,3.4901100789465014
14.798608341728324,33.561436493593334,28.95248283373204
23.27596206828201,56.00501568538472,51.89878865201834
28.221499894800626,73.36552489708424,69.50330648285598
28.75968350668384,82.97865800076977,79.44151657049848
24.631591351201404,83.44882249105605,80.25245354329333
16.279164382635578,74.87523295989592,71.7457065041345
4.811357104826206,58.698584906871424,55.31753514745674
8.131923934158195,37.346330144859635,33.862614821377655
20.606607880959388,13.853499972598089,11.13254597678956
30.669436630394014,8.49407597551675,9.192054867628027
36.6881632620267,26.563045729683395,24.439782551865548
37.57988272833856,37.88727030895562,33.31239242672318
32.97309517788338,41.20896699064585,35.9344890822806
23.288224577683444,36.827003479623414,33.76914179110506
9.702343439687134,26.535204201588076,28.727353670609823
5.986220725964067,13.09390868833592,22.412873449296505
21.584685288775,0.5639428063361249,16.18420562768493
34.82216983679202,12.030072495647168,10.975910078632912
43.700126152784975,19.72679975727629,6.993912849385212
46.8220013102706,22.790092302441412,4.112706399769004
43.629584812398775,20.76871183583906,2.5515363840551704
34.49344131832733,13.466271520712292,2.7886718523928393
20.654924554152952,1.1140358696263566,4.962557890285177
4.010583255693009,15.227802057973935,8.713234742260209
13.188020293615446,33.38709207634,13.344235348352468
28.836408043978007,50.814677304584634,18.06352547587335
41.326442117539884,65.28401420751216,22.189679930928907
49.594570143381624,75.02978265460027,25.256895424241367
53.18360319841679,79.13141513938376,27.22893380264715
52.237916357736324,77.65283618651178,28.295729834012306
47.439302228711064,71.46886878413005,28.446808079208047
39.878764932878866,61.89265482596752,27.55796498108379
30.868663703236287,50.31234782704069,25.513189204555335
8.466878761948442,10.234029992798563,9.450681399298514
9.456774625037925,8.938879975816775,5.191206337826123
8.889666223999411,6.633275133599148,0.8770533244267334
6.356463547592304,3.0091064137527104,8.139405742512475
1.7500220349834013,2.446821039257913,15.76591146444307
4.667592292474424,10.17232176990422,22.675670718506666
12.263499775573038,20.129307406449566,27.684665851879185
20.104943659580922,31.437394190949867,29.740147940901956
27.062831559949977,42.282052471716504,28.304216389904337
31.962616193204273,50.22411035193813,23.55892446146857
33.748132992394375,52.861482659530644,16.256170201713285
31.616318787240132,48.69528902366613,7.604667161674924
25.163959046628165,37.88216004201484,0.7451427472091934
14.61879402891624,22.259690395434546,7.2565830880169
0.9663924097518579,4.499306025439485,11.202186678392632
14.222334617213493,12.893226017363093,12.547535000846
29.045443202717486,28.24238956876325,11.713552795841096
41.532092347292746,40.89467649440914,9.61815865394797
49.97204893353019,50.83719074059247,7.582948796532831
53.172115252460884,58.081900733169086,7.004169313217416
50.63120983960691,62.22615714288099,8.589942618946978
42.60838729528754,62.45820506847795,12.073185992784717
30.053260641297445,58.08591858470393,16.837180761824435
14.480099965632684,49.226977677528986,22.1904347538928
2.2328681762292346,37.19927421835438,27.198113897633274
18.084295859099452,24.29177356769075,30.738165133048877
31.181815122905416,12.926330425839932,31.855383867911648
39.97570893156257,4.670486105359494,30.216553056173684
43.46352057974804,0.33043767697474025,26.141681094862925
41.346791675134305,3.174100289148527,20.25710074000544
34.106014443066954,5.380762859312052,13.117904624884503
22.959202895326978,7.940582454070089,4.997981788701588
9.694657458433117,10.83649377545706,3.782414435479301
3.6206319390206545,13.338321832801872,12.60238424015183
14.991766289646963,14.850963925443729,20.812478583098848
22.810403107125694,15.715661469967904,27.798119302057234
26.075074430806332,17.36304023421215,33.022377278910376
24.489870965476385,21.64381760992089,36.43870281027279
18.45120201195604,29.688013207771867,38.4516455853641
8.954344816941552,40.98363592835851,39.269962662766474
2.5545269919609512,53.290110464983975,38.7484147779765
14.343548879336131,63.48961895086883,36.783452698705034
24.576070420895654,68.91574679055303,33.37442110267636
31.52670355090142,68.41136770211953,28.59514728601581
33.81363131369334,62.55527906262915,22.72731151375591
30.63262106267406,53.02018834606916,16.27638466157068
21.949738510061298,41.5199827010623,9.955746785078468
8.58306688166708,29.025608040515365,4.380914961814022
7.847112509397421,15.67998015510004,0.3119788341431157
25.100802929276053,1.3206305407834489,4.560291275217523
40.61966151126918,13.851803316018223,9.390732935092778
51.89148654786928,28.94640669736085,15.920522498193726
56.81435405997922,42.58451734333347,24.506052688060816
54.02766233775415,53.43956917686173,34.39747078994666
43.18688625119027,60.69012877909822,44.0277516593093
25.129912940414066,64.06689681000485,51.646860250631676
1.8821329925066779,63.552096394500744,55.87866786153907
23.543938360896103,59.05150393631056,56.06074737731579
47.56715618318628,50.39745136195593,52.31330467208003
66.6062066039818,37.80662693562894,45.31804781803267
77.69583557508483,22.49939491885674,35.793965420784204
79.02073056417869,6.9873710618794815,23.99780283431079
70.22670995309763,5.327237965428116,10.173234562343726
52.45373134765346,11.18276325060583,4.722309470170706
28.1062740373718,8.67073007773557,19.096818572047695
0.434137473770212,1.9296262731627114,31.112168583794325
26.967093351991384,18.120956373255076,39.25594128149357
50.66302369019692,35.95880325643024,42.89668142784048
67.83010533746909,51.192004658258675,42.284695866808825
76.5978754298677,60.266816159477315,38.391189815282445
76.269667192724,60.901903406314254,32.726211758847654
67.3981060550008,52.24348431673862,26.820049005711535
51.68389663423324,34.79670617906913,21.660062303667164
31.67990534733475,10.332716036298521,17.589191032251314
10.343186986764504,18.205077594477284,14.539970250939326
9.465202425257543,46.96620603728758,12.205369902469748
25.42422076005966,71.77322617603787,10.220110855949128
36.03484430984724,88.95796146360588,8.4011357797181
40.701383056705495,96.18852600637112,6.726389896965174
39.64981972259145,92.96062102390874,5.01636213971486
33.750913060447665,80.56726874334687,2.723086118694369
24.330297902918762,61.62090919102762,0.8058448642848043
13.007124299225863,39.423300099990435,5.699712210208149
1.5475484102635098,17.449392170662865,11.302896587164938
8.305827543210889,1.010186078756514,16.664741819992383
15.049177121558829,13.170313155991776,21.180050191531443
17.64181674142103,17.200408432855987,24.674480065934066
15.686788806523513,12.787075660880955,26.91319471947479
9.52115833783037,1.5225271272783023,27.334743444755627
0.1785700609645916,13.221336637990058,25.340957930628424
10.786892342617728,27.099677998730673,20.654062783076814
21.58146233444752,36.07811749769592,13.645632698250752
30.466586120025465,37.62297923101146,5.364981718345149
36.00427200752922,31.23914022962563,2.711732961733722
37.238167472539885,18.150196225215982,8.96376762363246
33.78921909571971,0.3951405928942067,12.362557787291914
25.8805320697012,20.03573111477213,12.894178119426902
14.313424277900559,41.492159641490815,11.129432470106892
0.38415068305374533,62.32937636242236,7.917001410959642
14.253763972976273,80.37861821337323,4.182009866417552
27.782049524252397,92.82518069060333,0.686299898774512
38.461508295132035,96.83644570092622,2.0140640225153494
44.8819497755382,90.71627658931217,3.5957655470088197
46.175450630868156,74.9053013361923,3.7658753911709146
42.16446467872158,52.145237510488165,2.057911155899691
33.41212049255932,26.58773184521042,1.8351900903900034
21.157246869535925,2.2998775315917097,7.55332884564849
7.137705354933447,17.990043140403852,13.957560884542868
6.6784732870856915,33.26511056236675,19.43876073098968
18.40357493386957,43.63840386037047,22.466230830282274
26.509965902520698,49.35716102435731,22.125911653044597
30.034234656396656,50.210956059570265,18.314809475198388
28.68648332944305,45.79325393572742,11.812615067628997
22.850055262400225,36.39921553287329,4.121834135085659
13.496522328664467,23.85929021775462,3.1894687499917715
2.0511705866046577,11.551193056797329,8.979602627328495
9.789728682081398,3.347341799275454,12.794855877997858
20.27798300944298,1.9902913232772521,14.926459313417594
27.841502416293608,7.806453839379287,15.936707849575408
31.301888625274394,18.50937686577333,16.18393795766279
30.057049197511926,30.198867391753616,15.720258580851564
24.191897074598707,38.96754151133211,14.481993971063838
14.478347866864375,42.240330225289554,12.51498334534743
2.2575268708938414,39.23596813614077,9.913441633683679
10.76586377352199,30.53136907658588,6.815861421330964
22.774814262413475,17.273095108343554,3.792667318933097
32.09883707333554,0.7012090080876519,1.866046957036387
37.443001825670414,17.752889550620516,1.588635843524827
38.05253377362935,36.064038720549796,2.4875612130232
33.81459109968066,51.491358922550994,3.6723178378879178
25.290766674449134,61.152394075775035,4.472693481733477
13.657946529562905,63.129361467313196,4.591244678278099
0.5718332695205015,57.46789474909533,3.9294563936984908
12.04820455285333,46.357903302854055,2.4542507464915784
22.307738435848748,33.2072758035467,0.32761549722466987
28.64020555741449,21.044323040185382,2.3631174051799855
30.061257672524572,11.15252768645407,5.813325233499145
26.33590743914719,2.7377789534676245,10.098165767805865
18.03669197110998,6.1579051420859185,14.884945772500442
6.4720243883879895,17.064192193304827,19.417112187030696
6.503034606917069,29.806051177124417,22.786890956005447
18.76130232835411,42.285001360402475,24.27453167856144
28.548182538480386,52.32638884735634,23.4356740381741
34.810895955209205,58.6861487644063,20.204634954520202
37.07623783841787,60.63356190604477,15.171951094799615
35.471711519716834,58.16049157769313,9.567177479258309
30.652347457384785,51.816772921507884,4.482723427496001
23.65524310510845,42.369013208951976,0.23284848256307059
15.700533884439906,30.583830285241664,3.263986436944667
7.978391657737756,17.311187716561253,5.919112981603661
11.388096195503927,10.258011154663201,1.8793219835708332
10.076451751535517,8.861927548803934,0.23673122296476048
6.44711602927621,5.522466881010284,2.5792477728280456
0.3795316337657088,0.39191634702619554,4.861522941951342
7.822131494097728,8.800425744575234,6.975776992313854
17.393212443320966,18.705206667735535,8.875718673830512
27.17649466081198,28.451869297873188,10.42126563372262
35.76345815551711,36.23981363619374,11.435586042426165
41.697769291547786,40.67717930020699,11.850947180254975
43.69338173704919,41.034884574606664,11.565334544170714
40.819885408659054,37.18848435872495,10.200460994238687
32.68140172258975,29.551716869783856,7.33395441342582
19.600632593964914,19.083230280162,2.962479657949565
2.663514294749329,6.76229538649812,2.4951145139826156
16.43916593375427,6.908493209564174,8.448834912362816
35.5989864646407,21.234137942898084,14.283693296647742
52.501951001215645,34.7679021334154,19.30584392559537
64.93616016828153,45.63317866003695,22.766895086616568
71.10549021932866,52.07008713826684,24.254513569413444
69.92916621760484,53.24233621342658,23.557008692396654
61.263377677176095,49.63498006780648,20.312155236534107
45.95890675378718,42.66936016769709,14.59308327100295
25.765768613444155,33.95333542226485,7.378324859930869
3.080024957832994,24.409835727460784,0.14218372223242315
19.396667071379074,13.914489412540945,5.808154683056343
39.00396689751934,1.6158200597118917,9.746170714800613
53.45679144430103,13.299850368513777,11.367184488585242
61.126929576739016,30.72040960299219,10.496917265763923
61.25425825888729,49.124599112654614,7.23365193050073
54.07320650017031,65.68306344208376,2.190389451852419
40.81492063547343,76.92553554961208,3.6531946180370753
23.546687406040792,79.72442660378704,9.23144660279085
4.845238370616643,72.202924254861,13.452988108613518
12.630254182092976,54.30033165604996,15.257565288940073
26.56544670827444,27.840092281735938,13.744663597059754
35.329406211972454,3.8376633594357292,8.56473863788437
38.1592136216586,36.56048061962924,0.2504069132954574
35.175420458695044,66.1222040921548,10.265448641336622
27.271650683595052,88.95105224814593,21.87811727581753
15.930710541090553,102.56247410165975,32.872909105403956
3.0025091530378276,105.78185939923196,41.25105760961711
9.532532227248817,98.80611853782877,45.56830201921187
19.81604254988952,83.16182633326115,45.23941742588503
26.364500239944654,61.50799403030614,40.298859131321926
28.274825796895144,37.22613838457218,31.039630492346927
25.358333053926504,13.75772832681371,18.06371282863044
18.16773505483038,6.218404409380154,2.5801448536424707
7.891550525011942,21.481325559847207,13.533554041449003
3.841415943411151,32.49805129651025,27.968608180592486
15.19770829370282,40.99830879702161,38.56511341369556
24.38237215570893,49.01948691351319,43.919515266425456
29.871582987283713,57.84981633966766,43.568009531820685
30.618156807870772,67.39521730984978,38.02603484937274
26.213043387264246,76.26234734428736,28.79870920728766
16.988394301912166,82.46632638017401,17.854888022231787
4.014590256459998,84.37100755390645,6.988479899826271
11.025351312375328,81.33072437703291,2.3827155106744304
26.072984085271177,73.73529152229922,9.564082214663925
39.015996114931035,62.57325652634245,14.734436059399954
48.00692616712896,48.86934565477342,18.45753832167037
51.71971081339132,33.38632194436061,21.347732587772978
49.508323360875494,16.73137597878253,23.692082867625118
41.465847332799484,0.353564987330605,25.12046105740614
28.42016877852137,16.84934037028941,25.15142185503472
11.842427492366221,31.63518447986903,23.61380507127622
6.327711823284342,43.890306901465465,20.350796547874616
23.91893244042674,53.395571741269436,15.112041749062668
38.837330356567435,60.426685246673955,7.767739225116893
49.38577448017088,65.2605062339278,1.5948569114971123
54.51395272663869,67.63571512225339,12.842786551125725
53.938780138490664,66.59680639377305,25.695147482847133
48.1106792866409,60.936152030652444,39.1458625675476
38.074581699327716,50.03607620811715,51.30726215404324
25.278275968820612,34.61815856254596,59.99777100694013
11.383699130943576,16.89790366048207,63.36756733354869
1.8978300067962008,0.022837091255294355,60.18248671282922
12.971461650356126,13.202304244053039,50.16789008401626
20.531198710138447,20.789945814351004,34.22049110201274
23.74783058262639,22.411472726666144,14.216655773710075
22.438511060318454,18.907211369964656,7.10832764516738
17.142262715924467,11.71267248663186,26.79251990718346
9.050387425369818,2.33450634510912,42.69666117218678
0.21637752375358976,7.815584608838411,53.601132647095554
8.916756965876584,17.300072877108047,58.98553588006972
15.498627476943366,24.535129799391502,59.18172515146605
18.833768468657453,27.938823179050804,55.16501189180958
18.332558977356758,26.387394012171228,48.055228489180905
13.969711666210147,19.711837997498,38.90258882032646
6.252799200319406,8.878499756597348,28.876320988264567
3.8441355234751096,4.2877482029222564,19.11793039291212
14.974964931930662,17.697403675454314,10.169074271063648
25.57539766402061,29.57661480469319,2.033209635519007
34.07383567704241,38.725716666879016,5.553114586663964
39.13552801909252,44.40684580325543,13.092307698591222
39.89601945641892,46.10016362925626,20.93090783907445
36.11308882394028,43.437038604919344,28.881833146655342
28.20721268040978,36.43268703418886,36.16322025214996
17.18344678804647,25.854750732622257,41.479698201114594
4.461533237245452,13.38651644409041,43.40608864696885
8.33159644726122,1.3405211662345415,40.90085086118913
19.580461569571348,8.027939325595467,33.73322318462297
27.877942500457753,13.262530711438856,22.767321233322207
32.1891770340331,14.088667151993183,9.828838213437482
31.992358197301588,11.26210420568854,2.869748781415139
27.368794590915584,6.034745010948387,13.421244373136867
19.018807413306643,0.38175317700069467,20.803443604586548
8.187404956734673,6.99685493702303,24.96547442496151
3.5143578081809363,12.813777782491616,26.35595292578887
14.360380403876093,16.486277237143796,25.599575688585926
22.771714860062676,16.286390018952364,23.333311666274824
27.530875209636072,10.604790777132386,19.93087046807178
27.92581711842031,1.1820170068146094,15.649496260993326
23.830298430820832,17.946734115224853,10.85808453026209
15.710994710451354,36.6768281503727,5.794892153947324
4.576278523599561,53.199749519821765,0.4593660744101359
8.116240506672513,63.50199842744703,5.139173186945128
20.61577762154112,65.0329463953597,10.692352934678203
31.104899502457172,57.40376752200389,15.55170563310967
37.97655456202354,42.22068515258463,19.01670505663489
40.107480333440755,22.2388413665541,20.529296607862264
37.070071894558104,0.376082468714381,19.559383536822356
29.236264622023796,20.906273958334094,15.589634230559296
17.72462674139702,39.690711660042034,8.595344907723096
4.205346689090213,54.33351150440808,0.4234216978272481
9.38231579753861,63.23623664712155,9.541108094034591
21.139664574894688,64.97884579544352,16.56933293082164
29.481352681750614,58.81366165693239,19.858842516153327
33.34279307267756,45.23862406739588,18.86617881110996
32.306976174846774,26.229294255224715,14.217651667374023
26.655016650712824,4.891438867178436,7.280451108242383
17.34296017655407,15.345938903076686,0.3857596394257072
5.8788985215666685,31.66882817855071,7.303460167945373
5.897441337487197,42.515876192128964,12.21172449772586
16.107760565769993,47.6140465783889,14.279888655249373
23.149018549325895,47.50581653862814,13.315203301765232
25.951990545057683,42.92233110501064,9.854488771094395
24.13594311843742,34.352433274136125,4.850940431959087
18.03337096718855,22.02752893883092,0.7883007458655396
8.595890313042705,6.292120244515821,6.192535041922935
2.77903930834839,11.928650945502598,10.418270097934618
14.467294350552095,30.885016563537935,12.610948656853017
24.83743211564121,48.15708545947348,12.334564332097415
32.6579598031211,61.48212044223356,9.82557550413646
37.289802135380015,69.42350206050291,5.783089353453116
38.565330200489804,71.49287622974947,1.0764708095485005
36.74584433403878,68.17540975365402,3.401116502558956
32.43538013855194,60.68186039315074,7.026768048593976
26.46522633194612,50.5643276366762,9.542294426335344
19.755410680622767,39.3525057735991,10.881182430734246
13.17207565758852,28.312996770945645,11.062517871610169
9.290429345055763,8.978073958011896,1.7254824775306332
9.777680026542779,8.818692566280653,1.0072120352946545
8.377682988239286,7.03704298465998,0.41007577467895306
4.681015005383552,3.311255709946711,0.45955876341689195
1.338435269708247,2.4009638865082072,1.3685140645643148
9.24753407496007,9.75453956728996,2.776983587189523
18.17063122532778,17.966928570874824,3.987427640030146
26.888063814292025,25.855770406978472,4.509399080389545
33.983340804752686,31.99914700906045,4.167238765288023
38.02582455732006,34.99772007417954,3.0679609179935867
37.77773935937314,33.794159548471285,1.3723267327554551
32.4068918556937,27.99908233996549,1.0156171119959327
21.71069804933507,18.12900902312419,4.090384663037655
6.362344529804803,5.569932364469394,7.48133353262281
12.014031918267133,7.7923009330159845,10.738391763682246
31.081609132938464,20.04757517234947,13.371646474089543
48.172752055186876,29.670216165086128,14.799988691911132
60.72658371357927,35.77176344556085,14.820964913643781
66.75371661345596,38.10362530800875,13.833654722038004
65.18346767501063,36.892491026496955,12.257672170983204
56.02635399173626,32.64002836239478,10.407289609503978
40.342200102483424,25.992013153362294,8.849647301904865
20.042330132686313,17.753113984241335,8.146255831130407
2.4086560721316848,8.979256294659992,8.410198213608064
24.321080804821182,0.9998166726221459,9.008835195772093
43.08668189939636,4.758322256335685,8.656058816510594
56.47603383106352,7.130440302698819,6.271778324246303
62.91542262736981,5.609287107978764,1.7482456843326581
61.70604367156317,0.6085133598002056,4.050210948548285
53.146381028427435,6.5493773106670865,9.963587757637793
38.517591023769356,13.9244555620691,15.16928003348394
19.911379473458933,19.397566564995568,19.14757661929118
0.08758176009205433,21.08827849118284,21.660240547323784
18.78979870422162,17.654194056318442,22.935333487510515
33.78728711785159,8.508163120398807,23.426377314729198
43.26622830389037,5.996973139002276,23.432667588350185
46.20211092175966,24.418238068385886,23.188106348475156
42.448121206885325,44.20718721106659,23.01510828903887
32.71196136622193,62.01808395423917,23.055668590795445
18.445384029275424,74.39023482774795,23.11728004118967
1.6569268194241924,78.65322794195698,22.83459993656985
15.346255879507941,73.73777219380847,21.750289009348403
30.243897800889567,60.50406205445413,19.395465930390753
41.011691776062065,41.39025430622539,15.350903771366855
46.198562955053816,19.50478613933817,9.214926457289524
45.10140659482807,2.407869734322875,0.9012335545294536
37.846535740568186,22.621783373854463,8.851781496880296
25.37011008731733,40.45105538086055,18.542742880895453
9.29041245263131,55.740257911159354,26.540785410346864
8.310234224776426,68.21933665241248,31.692863584628764
25.160673054325947,77.1632760436373,33.68752901083207
39.08985554502574,81.54716209928529,33.04730180472713
48.316668610456574,80.53921796959962,30.779590132297997
51.694999502605086,73.9502732849589,27.977318366585518
48.85340693190935,62.32646653150806,25.38575690073197
40.22504673583614,46.648019148757186,23.09231003128252
26.976359726388008,27.903357982324344,20.72888063215614
10.84824939538362,6.916215853943738,17.910501082506915
6.06976174777279,15.41934088299256,14.334299661813885
21.611061702209348,37.65679061345351,9.8649883902486
33.81940798954496,57.4631453029833,4.82895954131793
41.217856964267924,71.83235983788013,0.27090651966851553
43.01546847644489,77.91679760335404,5.181976681071893
39.22082519354765,74.16573166562723,9.641025023880445
30.640784323382483,61.206467443130755,13.238780227639683
18.740844666268686,41.93807481436922,15.583637318093254
5.387874859272027,20.726997526421535,16.361846213669136
7.4572020155024505,2.0457197948793175,15.468775072748524
18.03649305122972,10.848013675235086,13.184449975058184
25.037329088933525,16.63640410048504,10.190810874950014
27.740584507501175,15.875573576663577,7.174863952664135
26.06199986169951,10.33016562816715,4.546562977825292
20.50811595126243,2.138152809839887,2.575500310603202
12.074092356783975,6.7747992774002865,1.304830525627077
2.095915664631589,14.87796331335354,0.4221677630372426
7.931254250719058,20.94042698786478,0.5148210630919966
16.551728827433255,23.89668746280965,1.6857125828646655
22.539551234231293,22.8630655882964,2.9824474751776027
25.04915931984347,17.33956078472971,4.0545469909822085
23.711599755555557,7.467961810101315,3.9605494470214198
18.674685646610694,5.828099004409573,1.7292585281415827
10.587862122667838,20.919998739856556,2.6098274956086267
0.5343784326876331,35.74541656576187,8.092942700800643
10.098532653498903,48.1529937184984,13.29747286012459
19.80334731632235,56.20646766199119,16.890499625463892
27.150943421283568,58.42147618598635,18.096773376011818
30.991839864558553,53.97067541824353,16.783048382005404
30.64111530066517,42.887672314046426,13.412842366055335
25.99795441351322,26.227214068836957,8.609949470809022
17.58994680780991,6.073498580774817,2.940755822253013
6.540807809737651,14.689762013350359,2.8693143885335712
5.55827593873714,32.86931094085614,8.198361454193911
16.86529721717036,45.612030117769415,12.687063159230053
25.567175600556578,50.98641630531384,15.983960060181971
30.186855489587717,48.299996682164135,17.804395839431155
29.85672621929696,38.093399831297546,18.019003592610286
24.50214408237509,21.886028612227946,16.607518052008807
14.892005179239879,1.8316835289973814,13.858176721052887
2.523042194231854,19.571230021730045,10.530928425891744
10.640585808232995,39.67503568795709,7.504231365369929
22.507794320368514,55.864436874310876,5.173340881204673
31.212286107157954,65.82864593359551,3.407957588959602
35.39122012353342,67.94903392503761,1.958587745646202
34.346781655100905,61.70267175319665,0.5778956193206545
28.106175977357022,47.89787365665536,0.9274542154531511
17.389107554174693,28.57921757976989,2.5290480476406194
3.5024860749496702,6.5688722538353845,4.038699577491939
11.810658148191843,15.209666845311984,5.421424805546858
26.578565879919992,34.379951978489395,6.968411109061463
38.856002723079776,49.501296470294356,9.00848187940839
46.98709377418562,60.07580899249547,11.769679642614216
49.84043592680096,66.2248724967314,15.387989012222956
46.96496912768306,68.23668528766594,19.540516026847158
38.63937084909683,66.23483130714476,23.49312822186621
25.82985143239565,60.13076998012887,26.37891282544209
10.065838560335433,49.87819603665288,27.205893443697537
6.744240778755998,35.89598503290072,25.183607540415025
22.523715405678043,19.410301396574994,20.009994404223104
35.26655433602348,2.4830515232910875,11.915746755545205
43.31044928499127,12.363712366967126,1.6880885743201792
45.60282544033745,22.823110908109182,9.348007645338493
41.90725019220532,27.501513485886754,19.413712649464628
32.89171548374361,26.319709184181775,26.893278050937052
20.039682974590605,20.42448702119608,30.854598719990697
5.398358527223812,11.646374985893074,30.963861756014623
8.779156235870527,1.8019992269182197,27.55419778167359
20.418331701020126,7.745612440969124,21.617774144361274
27.92791742438047,16.045301823789362,14.485973475285027
30.390253432441444,22.130106754635722,7.474293276175523
27.642994985503833,24.575043884337674,1.609990351956322
20.255483881498204,21.5075134522647,2.3604662807739136
9.442917810717342,11.268664810645125,4.083096612272523
3.0761149682155673,6.535857844051408,3.708103029403136
15.308188007456653,30.18039106417193,1.491333954424549
25.28961015652163,55.758566388393646,2.428226267064701
31.420936239879868,78.1491420701877,7.695762305916249
32.751297242995854,92.66401863938674,13.579947320452076
29.136345004627977,96.60789017706946,19.133988394563467
21.226662879973627,89.97509691053241,23.094287621019117
10.298794304906622,74.9747781484529,23.882304189877402
2.013726166674359,54.73704704786505,20.208217144949042
14.010137729484832,31.981571338055634,11.5719908322672
24.29105262612897,8.798277747921242,1.3933123573748103
31.939136538347586,13.008065361624483,17.17558662422508
36.460551651155065,31.75064359551466,34.06817766798248
37.75306247052538,45.68652122295524,50.40157878872651
36.06469666857104,53.22892969216952,64.65795413894843
31.946937296657733,53.51915136196214,75.50580493513333
26.182612989877907,47.03502586319798,81.78401214783358
19.68195165604692,35.78741340270064,82.75376568102354
7.301572767616259,0.04411739028949879,0.27170968397294465
8.313749597729664,4.83646650151332,4.411319217529288
7.895256412005496,9.741164964101836,9.912214159307467
5.627403003266313,13.74825251320814,15.513586803665188
1.3987186410875743,16.06439498248334,20.331090001952585
4.511779849787769,16.091779056878437,23.54976904063606
11.434155507863121,13.516269914507824,24.56812897850544
18.396930433791493,8.421849319644949,22.912916815159285
24.262377925310055,1.3908576900272465,18.318709467763515
27.914841091480483,6.506869322002132,10.964166042646001
28.44140668685415,13.883047117956632,1.2208855723975516
25.26046159321216,19.261867691952826,10.519227851307516
18.231438364444582,21.265499548465627,23.35296806643549
7.824482526897452,18.965663895249033,35.94745147549219
4.798867262887378,12.419834481916402,47.211854880117954
18.00186856560036,2.8147935832867916,56.00313385585566
29.95708824314754,7.918167096522893,60.66278304507559
38.91140023562029,17.642140278526778,59.61270590053883
43.50616574242813,24.509970844491637,52.03022306467738
42.98496116176251,27.239107254733497,38.10077426299105
37.31085014859777,25.16527054338345,19.025341052090067
27.200620217280267,18.238238358910213,3.3638437144459523
14.0044357934364,7.0397645922140395,26.935525285222123
0.49339518262784854,7.152823501869455,49.3117689533778
14.344473796023092,22.37815603268817,68.02893198791944
25.722474686363743,36.19505434670337,80.86888715403258
33.17068733432686,46.087775205746226,86.19865185664877
35.79916866873537,49.98765782797125,83.19662372956917
33.38229798609933,46.739134791335914,72.09164511915631
26.380352335322716,36.374977131803256,54.510635818066
15.876367830741563,20.133979788586803,33.356567272149306
3.424752603910287,0.23764300608665515,11.98709189954156
9.146175680905628,20.493506700063868,6.6879203213772325
19.979188771048555,39.08915792368736,20.745578602828235
27.448814367318985,52.873252355860515,29.558277328018914
30.394732129160975,59.87229189960943,33.909702271827804
28.285950372585862,59.14307253616106,35.428535934921165
21.29356413015065,50.966608207429225,35.66674497965074
10.293125947208724,36.84617960185522,35.70034597069239
3.2357860427849654,19.243757113558658,36.110511194555
17.416356451381265,1.0664541974269244,36.961352378182895
30.22550483348169,15.000283928428596,37.80504648399964
39.76682939316661,27.139395403223048,37.90258514954696
44.54339648153411,34.78759056352443,36.57383374421195
43.68233704188241,38.5842406804034,33.269044991262774
37.07465691075846,39.87269729901267,27.481426105173917
25.4139919136678,39.934851181370334,18.987785610879186
10.122475253943882,39.30880837194105,8.351338975015409
6.841744279764336,37.52255387142066,3.055385224354369
23.267073625082144,33.38712413293063,13.730314807081477
37.01813227070041,25.71996282129095,22.52642108893227
46.352325152444166,14.128040505459545,28.61231946341319
50.165363646118536,0.5679706734597069,31.52335831948837
48.13883189146587,16.5196588777353,31.353346866208653
40.76408806437305,31.540145867117914,28.679876184747886
29.248518550975003,43.88348828431615,24.313474649340733
15.327546237528912,52.68933047172046,19.14534861084494
0.9898325799606561,57.877283847442285,13.96057088739347
11.838281990315277,59.62330106863046,9.24454570392467
21.588334318541392,57.83506012770782,5.095365578905249
27.29114772233056,52.015187693062174,1.2019425232105265
28.721702873754136,41.63059192248608,2.8777413243213132
26.399585405989583,26.761228411932738,7.473020015470194
21.43422477891864,8.5745522535754,12.910431393601403
15.251971378011866,10.749573182394148,19.206923450353155
9.276317244181408,28.67406813321234,25.527598551877404
4.6394823615704714,43.18588007437193,30.565594354524926
1.9955360825446802,53.39905940512441,33.21079720536733
1.4865145859085664,59.53947999545809,32.59573109234689
2.836755850806027,62.356520049120576,28.200064190093133
5.498717131021612,62.37033153926,19.99134216057811
8.802618922898132,59.43220949360658,8.409762279210643
12.064864280547004,52.88153341694117,5.569581438965637
14.627355155185223,42.19319554166363,20.765208939860894
15.870140997585976,27.66914070594405,35.904989727558956
15.248498477025949,10.731096736871024,49.30022491301051
12.35944432191845,6.394493108720412,59.11057135285521
7.0191187909853126,21.451425608342436,63.87093909620729
0.6682566697371768,32.95188092934242,62.85066235986277
10.277387728592293,40.58417521445993,56.20775604169297
21.08360606836793,45.06396780033838,44.829601056842264
32.12782385596607,47.54803715587722,30.352938820018032
42.29857973845489,48.93875532970943,15.079771109217207
50.40193160799323,49.42553525378711,1.0664537866608075
55.23876593511017,48.42961001060273,10.768481008667
55.73219384616852,44.914267605555935,20.253309866880972
51.10054479697972,37.88099385413272,27.319353793475074
41.0643589864742,26.82744829467345,32.19344150394096
26.033246581231754,12.035442416514721,35.43523209128516
7.184509067905859,5.3393591332366235,37.669071091416214
13.608391210628165,23.39211536589814,39.25864218283633
34.01701547100805,39.802200558300505,40.087127643091264
51.619228448072704,52.29682669078701,39.99485430452568
64.2755679053547,59.14471490024416,38.943611181448674
70.44448273473463,59.558646518186904,36.73434767614252
69.38031843307901,53.86299792740593,33.086795323884694
61.21688880886831,43.36442896421913,27.950278274866168
46.96165294113809,29.984561733281748,21.937706677620415
28.389628805895516,15.795688594518717,16.18317826957616
7.845334093289912,2.630491993998011,11.64660535097024
12.035380832163606,8.1219774451668,8.852754317007031
28.68556039362154,15.555977403205489,7.817671656731733
40.005901955875636,19.230627647814092,7.917000960850723
44.704686864753064,19.187429864974156,7.812360095061679
42.49859163321445,16.021984892860225,5.6365591613921735
34.13309764191017,10.917889632299525,0.1919017349653923
21.215918448517726,5.540222082987326,10.249138221262815
5.927785453658063,1.737097436352336,24.11439614628546
9.307110799636652,1.0652059992143565,40.53994758693652
22.149363775150142,4.305159303570351,57.44764916261268
30.637387798297517,11.185477600261963,71.96461504128553
33.42935486003388,20.438399823591133,80.96589599608741
30.001777765370882,30.184002886387297,82.23807749967794
20.778498080600183,38.498415540107935,75.13327131720126
7.132970050125329,43.93172522085059,60.22243757576695
8.78414738645304,45.7805088895184,39.16391140428422
24.38760896114811,44.06052916292012,14.853351723745368
37.09667319880537,39.255263553600805,9.118817891754938
44.78399225742451,32.00545389854958,29.340769729641256
46.13454460690744,22.905514111624125,43.31701090708737
40.82445220164796,12.458496141667217,49.99135576422024
29.5209595720874,1.135454618914073,49.7579013228994
13.749498360487744,10.575797617068325,44.217051938541196
4.346390402650156,22.2195758290375,35.775763196587725
22.30376213674464,33.485973386296465,26.914878474218817
37.644524643003564,44.27794521867604,19.658014641979303
48.19432509208372,54.61160947882689,15.354274794853092
52.398971297482724,64.30688049711439,14.462127693328323
49.5650739426772,72.60152889674805,16.639281936621114
39.994715046350834,77.95894640741076,20.790879789572347
24.97560203503559,78.29358489715362,25.11676327634861
6.582886845760636,71.63035358565217,27.97719608389197
12.657310922758425,56.97218183679137,28.47387007462632
30.153672045356597,34.97908259932722,26.16185554809495
43.61630206050941,8.096352276435264,20.986341668091015
51.35311192441128,19.96398980381761,13.311167393190203
52.46076221996736,45.174797392698146,3.953203857804495
46.90396957238091,64.18004243693028,5.562629169241862
35.503526918421684,74.94103772807789,13.194261946466286
19.836543951394184,76.88787836212168,17.29489357390561
2.04382002263182,70.69665566857464,17.558583120670505
15.452389998994853,57.963801275335754,14.905666927223239
30.511558679134474,40.91898869392742,10.378437859115712
41.64805097577622,22.1951232878866,4.833050617277191
48.05741764322734,4.5533988966451835,0.7986714884461761
49.65540036602928,9.524167785237623,5.765096559821449
46.995782632531004,18.302232995012258,9.604214142645574
41.100214646291725,21.200891061934975,12.00182305831693
33.22993125289469,18.95045681268661,12.782705024754948
24.65629591252817,13.35830031125502,11.96507889316429
8.94980684327155,6.7257952746257175,8.325201236870726
9.576431215900415,3.3361686007378064,7.955260094634754
8.65790105573437,1.2587562657934521,5.942437657551069
5.779508624476585,6.024717756729769,2.291629909974071
0.7935451951047272,10.112116669908536,2.641572088715826
6.0869264871056945,13.161425589197151,8.228509323418253
14.259680678455554,15.228922186789056,13.669598849819831
22.77979061499584,16.409253704345517,18.26638165993187
30.46581865459417,16.437852674179393,21.575525955780403
36.053243315330995,14.610797054894917,23.467778812272208
38.36583904778826,10.16002808362036,24.067237330331942
36.48842443526164,2.9045883486052992,23.563163485546575
29.95292305362271,6.186986931957634,22.05981445848704
18.92549482840791,14.914549351059526,19.416038999689768
4.267511222731184,20.479783230352343,15.200468674055541
12.583070840419328,20.636402361345848,8.904474158598948
29.79053727753618,14.730253804345068,0.28102902993245477
45.33595622851159,4.039182741629609,10.460407215237952
57.28169512779359,8.754532055067711,22.48499097881268
64.03108960051993,20.643187545086903,34.259558564162205
64.5572136030304,29.30791872051794,44.09970206504231
58.551666660454586,33.56314650788465,50.439799778737665
46.477358407876295,33.141520932790456,51.85121092859438
29.54262000802046,28.154308847688842,47.96079545305571
9.581374631842081,18.72807013257283,39.66220929308328
11.14795020130881,5.096543423508787,28.322104534331523
30.23251264415902,11.967609786713714,15.614269645290575
45.42159579217986,30.777393833648315,3.360233333360835
54.9458350203641,48.80749731920363,6.8283249965375425
57.79132414328454,63.31486769343615,13.881509703826422
53.862999217535574,72.20545030896582,17.649590929915806
44.0021171191375,74.65937319415244,18.53858411157724
29.852938926284036,71.16955008227474,17.170138959658846
13.593562457223566,63.013577589932645,14.664073193557607
2.408390956850893,51.50933100959635,12.419698289608265
15.947875683546714,37.49694984949552,11.588805148615219
25.303269609845284,21.304159139370615,12.871995442920218
29.480885189554435,3.127629197858873,16.24681735130853
28.336524671849368,16.479254353408873,20.79390100436469
22.565652832501108,36.3522690485838,25.08924854381964
13.566837315850844,54.83799971151524,27.580829035849902
3.1879722363695064,70.17917410448187,27.01791567621408
6.604128049351982,80.9338268125957,23.342579622573545
14.07193859960904,86.2364367849685,17.604609531655573
17.995987595767343,85.84886537862849,11.033843974662846
17.845670535642146,80.09033885281168,4.771274284478557
13.832758889296821,69.76512473086034,0.32740098948979846
6.838070644691811,56.09765716623406,3.880442269295007
1.7836639384429194,40.6096961892364,6.017085811556615
10.450822222438823,24.906919639252724,7.425703067925604
17.611684520016272,10.388854056039674,8.565209801033799
21.984188197884194,2.026279092955343,9.1871419911411
22.732077529599287,12.018133422228939,9.073224640522561
19.562968384863975,19.743898250459974,8.349841316284223
12.751088134039586,25.556267372455903,7.237330915356073
3.0962431758345748,29.742415026943636,6.007953796651104
8.175822695792917,32.418993376365215,4.862809072990937
19.568998419181877,33.60766023193562,3.738899465641679
29.49911227440761,33.40189588524,2.393776175489713
36.49383719479099,32.07487149261468,0.6545886101563186
39.398795691929955,30.06370941664085,1.3292797636740077
37.54896074802703,27.870999941590515,3.0005184340090265
30.873568795296347,25.949417228040165,3.740579995926422
19.921160605887035,24.62591476742862,3.219067231650549
5.809070466115644,24.072373097756934,1.4221512528604845
9.911334465849286,24.273660369641615,1.3794393999315235
25.44572614268106,24.962867169948712,4.755964162433795
38.94862722510218,25.583249794861157,8.205030078802343
48.73204338047256,25.374349698652072,11.225648098291186
53.4808526173469,23.592812267045435,13.564815639839939
52.43340450494359,19.779896997790225,15.098236516797552
45.52755213779195,13.942125848454351,15.568881922245893
33.47582049960647,6.530813036939284,14.92421688327118
17.719243651087204,1.7715549909653756,13.473060742274255
0.25025654536023784,10.30358600720346,11.388232513439604
16.665252069698113,18.51472073435989,8.638250330630576
30.81477688899392,25.823884917419054,5.363736054971146
40.358933248811454,31.39330245614381,1.8200095771292288
44.080732691800115,34.072206748846575,1.738930998749083
41.539687413653276,32.69636086031637,5.036715490290472
33.13219049083828,26.679341982336314,7.920218512144201
20.05926256107147,16.566700673280494,10.249131963534042
4.208108992320659,4.156723885874281,11.688273526169066
12.067871598731,7.995357693572725,11.895494761601718
26.267983003408137,17.48285602735757,10.78177645447991
36.12427481790169,22.88143129444272,8.567964102084424
39.98665485410346,24.034155567773112,5.586296312192635
37.11895881840048,21.653132118779997,2.077083321976931
27.83340793197143,16.57635497515442,1.6643515897131829
13.44144030937433,9.219521205112882,5.095880921878945
3.975032496047306,0.3805442973088456,7.409648223212638
21.90781435720632,11.962578498369258,7.724115589983125
37.803699603019574,24.360898377007075,5.6130167573843694
49.431240955878174,35.33110626883661,1.4009296182909396
55.173517355361305,42.164517305340006,4.085028503103839
54.218992786229855,42.83549170989935,9.774225542364336
46.65640280774815,37.01639569075962,14.523779733734031
33.459544325216044,26.32468545512722,17.518565132612153
16.354942564807455,13.618073558597525,18.67741630381507
2.412959799177787,1.7540041368564656,18.400551535957426
20.40232468098983,7.4742640850213204,16.985867240358132
35.32963542136911,13.670122844983014,14.580241682524708
45.39098381166776,17.34719867804774,11.39449509206341
49.495647286338645,19.08790968469955,7.7240356769473655
47.37915473362363,18.993716858149,3.6814935704980485
39.60389492790281,16.766058579839058,0.8823940321906076
27.464434914965704,12.264055299871794,5.833347993596837
12.807711484127006,6.012162618585348,10.693523009120538
2.206869643492113,0.8222051725101729,15.22935298353403
15.38990645958471,7.027062207562514,19.499811306376355
24.83028525932951,12.09137320068074,23.327901279189856
29.17929478777883,16.495809333537554,26.012477795264783
27.85605715451352,21.22688566078402,26.93484776700686
21.145780666592866,26.75338764944634,26.105841285743686
10.16300284859469,32.16526407616077,23.827368897599374
3.322032191740709,35.12822314226705,20.48983485268463
17.152010612869905,32.813272508251835,16.573560010764027
29.109165585285854,23.357583342655253,12.327329453063209
37.24873577755463,6.991148891656835,7.405086472016269
40.17383408285114,13.852497558805588,0.926163556360114
37.22698165367696,35.46099506770307,7.8992079053144195
28.590799131199873,54.257173045330056,19.16352953219427
15.283407284878598,67.89768484262136,31.901424147832568
0.961954853145112,75.48989393641456,44.307453243722954
17.94000921186202,77.04661421694544,54.40132806845734
33.312234821848236,72.79192744637179,60.11327613230845
44.97925075179596,62.91802492529608,59.52875561993539
51.41501630889506,47.99451008088745,51.61798107520556
51.88665268452146,29.643267177401306,36.447749147451965
46.51722103780509,10.781872786329682,15.125532968443771
36.1967649223335,5.015365355444988,10.141489141027622
22.38869853026445,14.88919396309117,36.10627290086197
6.899469499397961,18.076642654821878,59.12358645590153
8.351696699629203,16.43382488328989,75.99874633910902
21.541587464924007,13.687613644784081,84.30539967761793
31.124520494158837,13.747057012655684,82.80568888506063
36.0020898168468,18.93184705272626,72.1008937209646
35.66209429749258,29.043566730678997,54.51773685974182
30.261956839790926,41.70673514584564,33.13350030693266
20.64261683830151,53.62753922594726,10.933644912933998
8.231851705287278,61.997805088504364,9.536835471656264
5.159047325318291,65.32667480636583,26.577337620682815
17.768364870958358,63.52253693368972,39.31607469087595
28.219266920105113,57.3898701692505,47.517931637651856
35.59233136528474,47.976120648114595,51.63457607912842
39.47408484644697,36.240975067817956,52.50540060200514
39.92093255340352,23.111444310286036,51.02936911631571
37.37281847788839,9.743095291753296,48.06369200966027
32.54280275556142,2.3620034143477002,44.29511790360202
26.303944429878594,11.603997155374541,40.00555475152507
9.719472630207202,0.6976131656607059,4.350289811741531
11.572906580101145,6.396546755835466,3.445963362458487
11.621027844182825,12.633781358383809,1.876712164524158
9.371518883737698,18.264439028374785,0.30742818052576315
4.7281992942178945,22.326017142476285,3.0113573576818626
1.9810617083601876,24.149499342348594,6.071034174118374
10.048379056511607,23.30953846178333,9.285181360620232
18.488933176197612,19.542828911303644,12.35719418634478
26.142770258796958,12.77071407931271,14.785571625636928
31.812453854595045,3.2257898569187726,15.991559821609542
34.41285967094897,8.43253331968016,15.633541955067615
33.08989456913567,21.091828515284462,13.731782282775672
27.34909415179367,33.260424920227685,10.456479609465278
17.374706557907274,43.34656907420781,5.686628283020602
4.262480345490164,50.114484912037675,0.8139949280305007
10.266860784583228,52.97412688194991,8.570143515974596
24.258007959224432,51.93123607021239,16.483180885450846
35.801211591739225,47.29945806654347,23.516367177053876
43.36916010933733,39.35584318448252,28.780636309347972
46.00326940405771,28.20548136764373,31.513553745948833
43.383625269674404,13.956144504042701,31.074152724170666
35.842065243487184,2.936983702383256,26.959798171906467
24.2887785329789,21.402307374519246,19.111547940363813
10.14173083095236,39.77797584922518,8.080022014881454
4.818839079160953,56.12850853688741,5.020118729337867
18.658953521166307,68.66970149586982,18.639028700433162
29.535653343972978,76.07613376746579,31.033958701705302
35.97974418601077,77.5587227963806,40.43591619333185
37.11781535452542,72.80649900657254,45.133822353327155
32.80988973323445,61.95982435344497,43.836078674923144
23.68000696607349,45.71203056668564,36.313900309759454
11.0400555041828,25.47090393523339,23.730243603661922
3.268637056333666,3.3944520970720307,8.50415590689079
17.124800859272565,17.84334344587579,6.444651962855448
28.42791269836579,35.56689392989957,18.88245568622773
35.415979727229534,47.72782860898488,27.5938943979411
36.969843386202626,53.36083182345074,32.010701344335345
32.82310356117366,52.657992407913284,32.12282582887778
23.617183086815565,46.67923657671615,28.58744301833694
10.799172291952926,36.892823734780706,22.792816033954637
3.627994157515149,24.795197340915877,16.443735636857213
17.461365292950568,11.777078890580352,10.943302039649772
28.662384562800483,0.7683528884952917,7.174824622360712
35.65648749492733,11.265560516160797,5.389673220676598
37.53471409330899,17.943251568410016,5.2879076307334625
34.1436636715887,19.139383251750633,6.215945220695832
26.076394743435337,13.886189815637358,7.059320170042753
14.571888549804621,2.5342696100810205,6.349380910979535
1.3332893526487157,12.890878148143349,3.024713708088349
11.704737808633052,28.843017226472483,2.8685853919191633
22.636081428467133,40.99940622320173,10.280222884404274
29.84955909722437,45.4115675021788,17.624497415523138
32.259424104061566,39.69054924274953,23.262633933153854
29.456127505493413,23.779318299784066,26.112818501326636
21.757336477236297,0.0032070486778362356,25.932183554331456
10.148698406329142,27.617238950836462,23.126411193476507
3.8728119155479006,54.35505978591751,18.3565012776644
18.51297615145573,75.85528629829568,12.273673844189013
31.929995527187273,88.70767603682842,5.630746716403756
42.469813652507135,90.5931048699836,0.6404828181827076
48.82379125571985,80.21268057088527,5.611469431895381
50.12400384662975,57.35957025282754,8.53301825010083
46.00155226731438,23.30404928762273,8.925987092217483
36.60898173030824,18.700752809707193,6.796505026345036
22.6250866940693,63.25363455919898,2.7963862226129432
5.250449245563817,103.4274626170964,1.960063433326915
13.827941790022503,132.26222076840287,6.21163074705772
32.55132726742717,144.68554436172727,8.947461215561425
48.71864507478514,139.04340518963582,9.488696057153907
60.30831688293305,117.46937125382135,7.483393200920956
65.81335877570514,84.87966266120893,3.3692737662262253
64.50115704486419,47.07864064740044,1.8838042586857082
56.54729338927623,8.895762563902398,7.515245924843795
43.01481274362326,26.767170653688915,12.92944409664503
25.68478302634211,58.65988278266774,17.54219610328055
6.797877942171751,86.07564849396866,20.82558510758861
11.240966568311121,107.77032164445521,22.303839780720743
26.164736963592816,121.6743676647359,21.63714526818911
36.13251207802502,125.58080966659509,18.816750613367763
39.99095881304107,118.35278153516954,14.392189415530547
37.472351339713114,100.8629500598956,9.482336117010432
29.282957973284446,76.04070043701621,5.327632337447061
17.04117046408293,47.957577019566486,2.4590646610220137
3.0326252530508375,20.481794928517715,0.602624625347281
10.199485999657092,3.7504087420355927,0.6738339200350854
20.33454031581819,23.55368486284019,1.9298510994660916
25.694004765851368,38.616697808266224,3.8401564207171255
25.507791885716966,48.672920362049595,6.8472798728450766
19.98370613177274,53.07084858699858,10.911581625063706
10.188523688147308,51.029764256741466,15.187483272248445
2.1977063702759816,42.4088833041598,18.46643629107349
15.19576429899866,28.45305478915821,19.83503374865413
26.837344975376492,11.956432442357027,18.43887494115764
35.41490904903915,3.3591397049537646,13.736026067188828
39.690487599475674,13.99696563655665,6.374538554798271
39.0574143785043,17.794289949051738,1.887491830467909
33.612689405961355,14.478982171153401,8.982947094206851
24.13618282960316,5.500139275739631,13.164582368070993
11.979610198566617,6.702088317087472,13.350533177008247
1.13384910883112,19.56707606117831,9.111077983969906
13.377133896114197,31.01548932696248,0.8673725736077023
23.100612103194347,39.616680487777174,9.645342489977569
29.05660934294599,44.44722490353256,19.791810778587962
30.53341344959937,44.904189118841366,26.918528391797953
27.403996091149093,40.65541201780096,28.83660765373404
20.110585081171795,31.783722023311576,24.449364669928126
9.611977180624624,19.00492695548099,14.426953205492412
2.702933909348481,3.7621103327297774,0.9877099941198264
15.144894722130418,11.899871799563357,13.02193828531814
25.89879823541058,25.680874493529036,24.854542888190664
33.24995355773623,35.46761644020213,32.226659987536806
35.851407494650196,39.72282872882371,33.47318794260099
32.97116600835109,37.7500028526628,28.081452188136424
24.647709040031124,29.814006484020627,17.367599913764668
11.719271225827981,17.15471291016421,3.9018072083690183
4.281947800218481,1.8743551456099374,9.594797102609233
21.34460329917812,13.347458079767511,20.749084886025422
37.24237656727081,25.69711715416974,27.83500907294828
49.81436373173291,32.79071685171811,29.83956622101421
57.24536799849574,33.22842671948808,26.456394921415654
58.31266051638424,26.95213645761062,18.284964904705703
52.57976539576049,15.284370534004355,6.980828260522934
40.52058187722192,0.6345243678957337,4.999588092916081
23.528807629730135,14.018205565232448,15.30941928225234
3.777574396452876,25.713516140097695,22.55461234998263
16.06669038890513,32.06838626036637,26.500473379065895
33.23806607542902,31.758499285387284,27.79830755431783
45.29468074461488,24.882339695471043,27.277446653249562
50.49831022089004,13.119351506725321,25.530681797321854
48.09799176872338,0.4525898490786468,23.119423156733113
38.45912546272685,11.99488159640281,20.44692295970618
23.033721815239513,17.949554171869327,17.396129291598946
4.192296923947336,16.20541580910776,13.586428284016506
15.099199850516714,6.955568541769967,8.759713394059828
31.728721513389843,7.20072728548032,2.9574443535890746
42.9403347906396,22.070371390671514,3.358781809681591
46.80576989326877,33.29506379489286,9.629527502793746
42.56246757250086,37.802458701266495,15.469811717634103
30.734316427930402,34.667281183826375,20.57309762442291
13.013366407314132,25.06884695733786,24.701425779452197
8.045545441561785,11.50489175140216,27.57444256661034
29.444712760753312,3.233471751969308,28.87334225150553
48.3755556543031,16.576874144398754,28.530431365761473
62.68090085046102,26.24330240597517,26.789259944993525
71.01327648982146,30.459093907437047,24.056790319191524
72.95344495875918,28.293757438239567,20.86104979856643
68.98865523412535,19.94011976265369,17.65742014781667
60.3627211661729,6.857847114295011,14.59920178654673
48.80965145340641,8.350457656104213,11.7774082221744
36.224455659577096,22.442254902385255,9.291952725697017
8.158427342374504,6.356273309345549,3.669109330654822
11.021905390097233,8.6049833270765,6.156582900450094
12.678491781190834,10.795313201531693,8.234177951559014
12.307430788094681,12.120803205259392,9.39272206277709
9.335933918020539,11.894610547318251,9.217750206953303
3.6162926537535656,9.866374024558562,7.647685309753241
4.470544424280432,6.224732506185653,4.962191716083854
14.027423810328134,1.2767749850891639,1.6315727701215557
23.742765926347637,4.8981730423174294,1.7876951925739943
32.093357397833486,12.531612292670122,4.878784431406694
37.58950695788898,21.83717002616119,7.586382452328768
38.97961838810548,32.444674180520586,10.141113990193777
35.416133188858694,43.04429801979132,12.554516225511225
26.75867317167269,51.54512816774298,14.378768361221082
13.808807433521679,55.5876070976548,15.237105727022419
1.8849069531367484,53.27018769475103,15.260513439710248
18.320473617735257,44.0278777129159,14.903249931933342
33.30572531106791,29.030238449575133,14.493366785228659
44.83534457198873,10.715542236343577,14.043446643062456
51.37217664934745,8.158952008466773,13.380214668001521
52.051204511426626,25.448282053021764,12.128205101412156
46.81622842010386,39.9711249486983,9.527381378430368
36.40567178275471,51.16603055038437,4.586170964132666
22.252763479489712,58.55254248604326,3.1443824687838893
6.265726288964925,61.47678367308934,13.347829670242367
9.458310002717173,59.423641277532724,25.4371675367352
22.918152625091448,52.70000788462835,38.105879605834936
32.480248031074645,42.86804383550471,49.106777339348874
37.07793223477633,32.46523620598678,56.17533792068229
36.32132286248713,24.01162691384088,57.49611007497093
30.51077972919195,18.823075257272798,52.01433727570756
20.588566260259583,16.372383234863925,39.72228283423387
8.036202274750359,14.637116703740974,21.37296426035843
5.300309608360181,11.264801566398527,1.3673131783968864
17.430064888743992,4.866867067403155,25.484035373254553
26.482475273422214,4.323437783185609,47.21894439842187
30.989435384715108,14.755425908992374,63.41772117049443
30.13140857892466,24.535848255402115,72.2548406870027
23.910404566915712,32.41142672361562,73.13127477233719
13.196932979654747,38.14958363618462,66.47812803026746
0.38517421926237994,42.13989207164129,53.77075471444855
14.722024975801423,44.59213392039393,37.30957092191706
27.559091890936156,44.986304939298094,19.4532977031818
36.871978325385356,42.19785434932385,2.489608139506697
41.19181410722885,35.20203295491156,11.129185990544652
39.82004256270336,23.890126778779283,19.931887240762
32.91174108872807,9.458540643015494,24.207002946178932
21.42793403371765,5.8894578202779275,25.284543370866036
6.973832847767589,19.702740036323096,25.147969003133273
8.43913340128912,30.014314112212805,25.89313903566166
22.67583729787008,35.66162056443103,28.631569812205253
33.77076873370721,36.149664043677944,33.22124240216366
40.193143841230786,31.351572700742096,38.645303944301254
41.05201424025783,21.409737609463107,43.27948761964516
36.21928725172011,6.977124826554838,45.163905162352016
26.360868032680084,10.407651396578695,42.73438079813512
12.859341766238378,28.214942509013877,35.67575130511657
2.3846364833462443,43.3540065736689,24.90627003759037
17.236673341023582,53.03585521405228,11.903722330791386
29.64641048955303,55.66475911824194,1.8266692723626585
37.95568990476679,51.30916023910513,14.92311764077198
41.13167179807917,41.49815073506456,26.087604616103324
38.869035721684035,28.468775631329358,34.016751345675665
31.566596808868457,14.313307580453843,37.49172064172963
20.23177973354369,0.44610667127077547,35.81661838728287
6.340794567093997,12.463481666905988,29.279087891301735
8.339377204456122,24.197592151493534,19.069543843573317
21.924958289366657,34.61655326842846,7.016113093542454
32.59939496109719,43.45830759656596,4.711248915640789
38.85053041210852,50.323720737690955,14.126728195824434
39.71458368063087,54.71625802177719,19.91925997247806
34.97329471955274,56.02122640563539,21.528906701924996
25.252239826766495,53.43758943051813,18.85633071806049
11.960602063338444,46.0438123318211,12.285320691698013
2.9300317889376064,33.153327090037365,2.8146695100175556
17.225090645590214,14.909321086346367,8.28933318505908
28.874258350869614,7.14669184264882,19.80122829595426
36.2697813826239,29.915200872001236,30.61066349056867
38.431002341388904,49.24227736632432,39.68170854591946
35.07951312564754,60.98354370433732,46.016468986504115
26.635910341907692,62.22874313259196,48.86015078763571
14.164233188971824,52.20001164946601,47.847370572803456
0.7240518087767891,32.45618139668411,43.083189557110295
16.038969793542808,6.392911093579474,35.18529658674074
29.678643448889584,21.64811079573098,25.139458489117978
39.74466057594192,47.29586001430909,14.21057408762998
44.85703958869825,66.83970287611007,3.7486398531014875
44.400917879818856,77.63490858704772,5.246264555606978
38.611563052617534,78.32899973952871,12.531433875158493
28.48365771552217,69.01578157519025,18.75586199987894
15.547492813136085,51.30457641261939,25.06406732085945
1.5786686757105313,28.166518567796945,32.29722180978828
11.680900504586957,3.4203706158869442,40.41581338149293
22.742467005389308,19.101607956921228,48.582133435152905
30.50282843750128,36.44676463963587,55.47513772526314
34.29686736484719,47.16101129184692,59.557439557292895
33.90759514370164,51.39635654294758,59.533316392180375
29.559008952518365,50.47647001265511,54.67076389058039
21.892274341791367,46.17738170277721,44.934908255466425
11.916767104645924,40.107401974310136,31.042810880373324
0.9297110126356727,33.420051395324656,14.23837813816628
9.61185938428175,26.888183510427854,3.7872131973629775
18.274762998920746,21.158968751541742,20.88812585654435
23.85871445332619,16.90446410727116,34.93002183159327
25.588911862156344,14.72669285965915,44.16499294045266
23.26382894691391,14.891062240444192,47.06980367414401
17.307677306271735,17.0811248452309,42.633486898856944
8.691071893874366,20.354464070484628,31.330940974255107
1.2475935870730035,23.367359286387106,15.517847914054409
11.035055794207853,24.7676520102335,1.11478491504332
19.297255115512918,23.548430780523148,14.79795021076842
24.933049153495872,19.22307398994732,22.95685907917858
27.222204698627174,11.821050983932585,24.407413123110192
25.8925917898584,1.8191314581613298,19.28996384108935
21.156669795310812,9.891563676196816,8.980944650318332
13.725309676696348,22.0189420236122,4.657331774054959
4.775913262636226,32.94972518112226,19.669451167892557
4.181102433609004,41.02125073011078,33.980141708390605
11.544461512543164,44.996649942440726,45.56219338435479
15.932263763650006,44.51289027375027,52.64480983871495
16.4958942852251,40.20150013482094,54.03813571239125
13.127423089662857,33.3364005848924,49.33410652103361
6.48822355225452,25.142760206213513,38.68499952232334
2.134399078184834,16.16403735540048,22.735438727795348
11.108563100141353,6.140264920834,3.1871014978736776
18.791386129190627,5.425054593639188,17.219528923477306
23.803103110008458,18.29638950142556,35.73189506015695
25.197711121818234,30.760915102590623,50.159093076986316
22.544158409432118,39.702931275654244,59.05535542365045
15.944875802639524,41.615041780927,61.85480693764771
6.032119962902263,34.07739941269924,58.620494328031974
6.060586998404861,16.932941983354784,49.94344777207684
18.796398234190214,7.515383727802631,36.8875291148711
30.405096840832645,35.37971505366664,20.925963208325452
39.135208221213766,62.54295408611677,4.123259241202322
43.564321008418275,85.66478517226264,11.152506828368155
42.86326373953614,102.29338808310905,22.950380718313166
36.95886979671759,110.23114487347029,30.199367986680095
26.56692904661582,106.95171809078973,32.69854730831942
13.078336783278031,89.88586513770015,30.81874616685358
1.6591902721922975,57.77041348349029,25.366432223344788
15.610476224072128,12.40281512571011,17.604643724074144
27.098320469197006,40.97841652747433,9.0980079105405
35.09482999264457,95.09080574652218,1.201202963557666
39.12044936025163,142.42036333355682,5.276397871406236
39.23478055454774,176.98109278372053,9.973174613247316
35.970394622958594,195.68720458351825,12.901293355877932
30.212726210793537,198.727087991089,14.323144169308437
23.043276263352524,188.82660309971837,14.544242968034435
15.568697721305394,169.83947017017334,13.846603163841095
12.256600876263095,19.14775136351264,7.4994072999565855
11.689729095047934,11.436809543698045,5.9286110381446475
8.751001163684473,1.270645375980842,2.4670076007458643
3.317008923594817,10.296186969427367,2.722476002823632
4.330837989915596,22.64414265988172,8.86255941069823
13.535125022561372,35.2683693769149,14.655856272961355
23.334012417051525,47.251125054641946,18.71907531995718
32.559571616385035,57.02064518379776,19.955444225299267
39.941041218925655,62.60414161194979,17.868097588120563
44.223261592375685,62.30252456224471,12.837775131059741
44.307263124059524,55.31802929466284,5.925292995911202
39.429704195364074,42.02335405543747,1.6286930217044806
29.39284353873692,23.990388020030075,8.646653960185436
14.766497135010821,3.806641241867566,14.20815853007889
3.1169680400737505,15.932997341093513,17.682368715984257
22.400327914467702,33.91193938038382,18.4863124501255
40.98201572238062,49.95974641182393,16.3198846710452
56.78617518639395,63.92841611397702,11.492331600585187
68.02223922191168,74.86037866508623,4.664200037028056
73.35449532450029,80.82877304635475,3.309510482753914
72.02052353153715,79.77360028544035,11.159971788254014
63.92242513705367,70.71905730694286,17.20398114461824
49.670453533196905,54.470551609821875,19.90562909552021
30.588177832134928,33.48640098916643,18.590230359397005
8.627965112196962,10.943830941039327,13.690594966624142
13.827145538509416,10.307539740237234,6.5196976464378125
34.25430920696891,28.295218476623035,1.1826776819456102
50.342389060139055,41.84226483676566,8.01768257440704
60.3356213920281,50.11509590886863,13.614141771871761
63.296898048778075,52.37022014933988,18.137638752396786
59.22942364883411,48.14890875578451,21.29560853395568
49.048443730071746,37.803650837402586,22.35231657342752
34.43519104792977,22.929010075985044,20.56994704905945
17.588072243744723,6.243092641023392,15.481023595999611
0.8972701997576045,9.108541798312816,7.238799147144565
13.400637799811241,20.497853030502863,3.2205008015035177
23.527287329890218,26.51489735670567,14.265187345540802
28.392286913113086,27.080791803379057,23.74302944466703
27.726812663861015,23.02160888927184,29.33296074735852
22.086754167730952,15.490788347737697,29.387431319931288
12.73246216184468,5.635223190643544,23.898209259825567
1.423127251272571,5.382838227531352,14.393295868160594
9.850956777485314,16.176426344442994,2.9279710141006072
19.151230987022085,25.080074019787094,8.676338855602769
24.850653786607495,30.452670498997804,19.1332046405996
25.85860792842487,31.220469778254536,27.597594815916818
21.781528766471247,27.345928124586695,33.17935093119924
13.000199501363623,19.876018456216727,34.75453862129531
0.6506347950415846,10.507091926079788,31.64600719783043
13.506343812270934,0.9359415147176313,24.301923698929507
27.318017897575672,7.646356986072417,14.010553034530185
38.56141369826966,14.630726028319215,2.3798661403419126
45.30360313989434,19.64590607849773,8.732036114316438
46.21806399807289,22.13319657268064,17.48718638927682
40.81312217756471,21.196349022322167,22.659366295525395
29.535977317412385,15.882799198144268,23.996234561742362
13.72128049686787,5.78500238372922,22.248332868781407
4.600417187856509,8.396140702435588,18.819812776752475
22.99945389310194,24.700381418688785,15.189669972407168
38.9957031645297,40.276199065665814,12.30876249285278
50.404366118241086,52.094176356427305,10.338649079763556
55.64571553956753,57.70431306500591,9.084077544814148
53.978513015790995,55.7216866349568,8.387271583391836
45.618476681437265,45.91289864685937,8.133806195562494
31.726243642908674,29.008829943748353,8.175391681220555
14.253053423591929,6.450580184336029,8.148591756928683
4.3561369410930295,19.761553308271225,7.558073226309071
21.5486249982546,47.099838526033814,6.07913386661205
35.06052611249073,72.5649432127094,3.629335564359008
43.25404136106065,92.91169923571967,0.2521739065823046
45.32047136693003,105.105591104271,3.987337146317012
41.32699518029307,106.91482765595428,8.85819636252847
32.140831725278844,97.42128499278023,13.817316750387086
19.258876886687112,77.28083047804958,18.107904010736785
4.585134497366543,48.66228654822992,21.01665292241517
9.808589776543055,14.900560439354816,22.185838310955695
21.930556745053114,19.99624492910725,21.567013171643914
30.1140092321767,51.87604331690857,19.26711876849677
33.243378770110404,76.97833899084472,15.607284736927314
30.923294107175952,92.43311850114979,11.05253931214734
23.548187796040892,96.65691388672914,6.127954843379174
12.261198580663782,89.58425260998911,1.3745279492094264
1.204692639459224,72.65034384380559,2.782961640715082
14.792109359013706,48.480910301600545,6.177492664590006
26.434066867827788,20.410977239610123,8.918047808240104
34.35843477917644,7.976045854895819,11.09639497186257
37.34737108413001,33.17035110158707,12.507382333383386
34.91804554766142,51.87996193782176,12.72444458110925
27.40451706157864,61.12792950194188,11.414869948831564
15.93532762248735,58.55232996027404,8.680612131709763
2.2838177661869454,43.03335082509792,5.048388964587374
11.410813775099566,15.500596237289173,1.172114567376879
23.002615082715884,20.487649377335188,2.329906270680445
30.705283123369064,58.85718107947494,4.852855964920807
33.39291265614461,92.06436171646828,5.825299393168989
30.780000235183916,112.88602057926016,4.876835056018981
23.44403484161097,116.33495187240621,1.9608329047993234
12.691696079711745,100.9505279765007,2.448118970794688
0.31398105033787505,68.96968866768731,7.2327061421598975
11.714389099312129,25.41308156700676,11.100678734359269
21.540875814225576,23.40528790001946,13.138198538135677
27.699834101808463,71.25131237415025,12.925983038838911
29.29305442558999,112.73101138478593,10.406566241953518
26.072184554307057,143.46300966740264,5.823778058713587
18.43612109021218,160.05159528877826,0.10130005453618143
7.350267314388276,160.27249528930793,6.131304940005487
5.791191478114975,143.66639072737522,10.902476006669328
19.33832089501252,112.25067649327121,13.583746900991978
31.5835443301542,70.74526318993007,14.130744061409393
40.95399823732762,25.87679292627098,12.776269518781465
46.18743030189681,15.210539881812425,9.594981573780608
46.487630393451994,46.86196454667161,4.641405896815927
41.62609194688951,66.30348084121003,1.6598372612819703
31.978811737414095,73.91290885498694,8.427563006550018
18.49570698519485,72.33825745946292,14.607023384605835
2.6006179206899245,65.01677316190681,19.13980520841759
13.954960027615504,54.88347421718166,21.334913075118884
29.275344040319712,43.85834604760785,21.208805867065628
41.54248343232985,33.15821511290432,19.157098304619282
49.24725664309162,23.959631102972164,15.569541676626006
51.39873321480465,17.797243760427257,10.813124421804726
47.69803849025893,16.32449055201114,5.303675060427675
38.640374681462795,20.547052617523445,0.6783563200437004
25.492925463905703,30.015503799333068,7.063705880279363
10.136768206460253,42.51756817487845,13.810867849911714
5.202461062209962,54.553059284814445,20.803932816810317
18.29904973714807,62.404688576080126,27.43593433398907
27.28177546045418,63.28653652947266,32.51323542995992
30.9243660931592,56.05883096823835,34.93861646295808
28.823824313026158,41.27726951192688,34.28969337473461
21.443154655752178,20.727051671359163,30.988131158766343
10.030624928999451,3.1970766059507447,25.905748557540058
3.5645873202557294,27.94104869171983,19.953030025508806
17.15653232942233,50.95699141532703,14.014831107900687
28.52541952382231,69.7420098502359,8.735399528149557
35.7312531174153,81.99983023085373,4.393020180475446
37.39462655728038,86.03046148543264,0.9668530546980838
32.9024765935846,81.25307756727553,1.7703967208036235
22.523138675912982,68.59546959036953,4.245722937857332
7.401980756587975,50.47811930966175,6.938216934065873
10.572646992518875,30.31478035174345,10.038142252226763
29.018359573855353,11.676432053216852,13.598499313407698
45.630234589840704,2.8303190294689933,17.55159073203785
58.611850051865936,12.062728277249247,21.63187217478391
66.76762158174672,16.085248325781063,25.66989988937248
69.60735681267364,15.831852594192245,29.459154844912202
67.34659734675702,12.632955298986058,32.568990573934094
60.816027102021124,7.819621072928715,34.45022838528547
51.28383764345357,2.510828254443683,34.59031792965554
40.222528185344345,2.435978111627207,32.80383589409342
7.895183890014622,0.953814643277305,2.3514709856035676
9.709575900762095,7.199473726658101,5.407861786249096
10.26970047238156,14.02000798768375,8.279735438291649
9.008576788556198,20.241771832646858,10.343509001196988
5.602514440046757,24.764992919110746,11.050218157545649
0.08660769890793092,26.76880414825103,10.159647082227991
7.090610322237287,25.802362496230483,7.6876847543709514
15.092968926283897,21.749562359599516,3.8557309132286646
22.780370814384632,14.775346647760351,0.947493825414965
28.86377775846967,5.242603053345933,6.232231821047581
32.09631035886362,6.350318738890712,11.34502183191773
31.4578059456233,19.295253741732736,15.416761670572136
26.356733078339285,32.50773048969054,17.58186364626488
16.958816262533567,44.694346630155785,17.307096522326365
4.374860251462458,54.68584566387133,14.530385840569268
9.594981505945551,61.30277316614279,9.720787245435247
22.826957369465052,63.21699957434832,3.727350567980844
33.23424255027029,59.1516134468472,2.4481092923454884
39.20071146587009,48.16899103759585,7.667292084039975
39.85360430023815,30.177670054327887,10.98469277061073
35.16865614356794,6.387637116233889,11.960356540320078
25.92987160829405,20.63392321397068,10.567017499034844
13.530884767970957,47.34381134489704,7.214269427806332
0.2577888079783432,70.01908999580162,2.5387245009678305
13.527744291815557,85.60632215366725,2.8738338421690677
24.445334537920775,92.30214822346474,8.320886240767742
31.439046872322766,89.67215365277475,12.90334138382895
33.39205000875953,78.33346727940364,15.610756187118838
29.822295588306815,59.55581839146253,15.705705884021583
21.01549742358482,35.05512926154628,13.28106688015325
8.043752518629327,7.062558983880295,9.005657432485187
7.3593489551843705,21.52278363212245,3.3194023331887967
23.064032338417274,47.23441385763358,3.6924100126185393
36.88248985101167,66.58119600123854,11.653003185364598
46.886406781057104,76.9393042584898,19.53234352009444
51.649002525351605,77.37545492350938,25.85091490344927
50.37127254391159,68.9229301743703,29.235925854317763
42.925976869765016,54.096059052258994,29.20622554116293
29.862177746298997,35.86621437332155,26.068461847092493
12.389060362778965,16.640872472581417,20.247531409414716
7.6735141534087585,2.2138747038396205,12.389041538943767
28.044913626448245,20.081812172986425,3.5037158096640133
46.24096260138102,36.330212868436035,5.2626562331639
59.91770768594188,49.651228807484536,12.873325343426451
67.25578380814574,58.006422309361625,18.593754375810132
67.27548689845375,59.29764703370031,21.994191287128874
60.00433204668709,52.38953615236017,23.13828669645943
46.4603708465521,37.88173334925409,22.424988516745394
28.478035589579147,18.15396945745212,19.984547344886405
8.427426079176378,3.368613451763015,15.977866045237633
11.12926091075796,23.302016311795985,11.176411050938585
27.766557978639252,39.17012586132922,6.690791569553497
39.49308898127421,49.676796135742805,3.261552970952903
45.00703410408286,54.40429203846385,0.8904777599747414
43.856592496373565,53.28781029667891,0.7489877378745547
36.501266620499045,46.28151555258524,2.0137303240596354
24.254572490427183,33.4572252881766,3.4321719535881274
9.089741259809864,15.438564823016574,5.473743131557406
6.6635301349805385,6.169178253904812,8.227193851308888
20.678919872757447,28.680960426297045,11.327719738165056
30.96542886305187,48.70050434786223,14.086073472542111
36.12781786144541,62.83776407302364,15.85833891464544
35.526601157395376,68.49013412859597,16.347427834834196
29.318729031958267,64.42215875755598,15.606323115073618
18.408565139596387,51.01965712439987,13.842470677474825
4.305500423424858,30.208095115456366,11.346321790963554
11.099119293323989,5.105845009615749,8.409217922487674
25.797434013988852,20.487709846376966,5.2066170569140375
37.94177170194868,42.708429073639664,2.055847538536758
46.08127132712286,58.27451679781605,0.5331364996896544
49.335546864993454,65.04639229362249,2.2061591815674633
47.47287729668718,62.373021662919825,2.895802791671176
40.88171665257699,51.12774529366169,2.8502900542365115
30.4790827554067,33.45228442138668,2.5214828271718037
17.56884366244336,12.34405228487786,2.5019074523390206
3.6756652283419218,8.77727133002451,3.68635008622219
9.614983140058023,26.47924640337111,6.806767299931202
20.81779991689863,37.7394951233055,11.775905349322821
28.709620860516843,40.417271172684906,17.80693357878875
32.47688112921952,33.7478375512105,23.758523180801717
31.833993553969513,18.712618444078338,28.41645085181552
27.101062579481226,1.946704414456562,30.817303438148183
19.195500212660956,24.224442555112407,30.530933046801174
9.51915452161873,43.79200313712182,27.719368564891337
0.2296149858413689,57.06008313400111,22.678887661580745
8.314855869149941,61.95659570692727,15.538399595613857
13.247907750600406,58.148205454314095,6.621582786855804
14.035354669604901,46.690213652783086,3.226080987625998
10.356309889777046,29.387962119550114,12.832038236530586
2.628693326005916,8.257806108208005,21.104544518212144
8.037059711089443,14.681882520646258,27.136783886386795
19.983284524640265,37.32895620371666,30.322414214351713
31.23285846736664,57.38963904551247,30.72362652799657
39.76919550273583,72.53893757399952,28.977990971777803
43.845756417577476,80.92231867414671,25.872556558008192
42.2764273501925,81.76648677066906,22.134342758324177
34.661958689522294,75.73608683031216,18.2710583503716
21.519077289779442,64.78137548214464,14.468005836703538
4.266898138162878,51.49604794621321,10.603876578880927
14.949632856201552,38.286263597455545,6.342763483826635
33.58130501434013,26.756680158022384,1.2992523113328927
49.08338683616797,17.57219902746705,4.6642690675765195
59.332152958141634,10.730387828238024,11.195866972524074
62.958749476859495,5.9293086762307565,17.61840477986422
59.53342670988669,2.73517284066203,23.02315619450989
49.5953791195691,0.4943528037625204,26.29181446208059
34.53510224624141,1.8325743791258724,26.461624299979853
16.36468256960306,5.6425219934293525,22.931375789144138
2.55785958127553,12.296667124579413,15.486625689513739
19.829373569989258,22.512362778865956,4.439889537208617
33.30898173557972,35.90121138077462,9.05542542842963
41.396469258082526,50.953807928014825,22.779168154203603
43.25410367459326,65.55579174830494,33.96867148925851
38.924752019017575,77.76420326532906,40.20336057699101
29.32528239565567,86.38774499828848,40.00158015662984
16.114223573537114,91.06910299434534,33.15927468702695
1.429729329648288,91.88323877930131,20.7885939625896
12.444273581712565,88.79444985519895,5.052579773462626
23.41364863425717,81.38836857397808,11.413676292908324
29.86568846155373,69.08217075488199,26.04843388282057
30.87235129710309,51.688905512220146,36.58933138450302
26.29799810212216,29.919879188299685,41.45596671042446
16.819040550204726,5.429533103523492,40.33587981114264
3.8449945488500283,19.658722191484305,34.213969511707155
10.669782984888313,43.4397786030666,24.639628958935457
24.505908975563365,64.68338418097892,13.246285391823454
35.51675043399736,82.78148577556875,1.8438986109386803
41.978451099351346,97.2371210493165,7.557559677124582
42.86135027363655,107.09927328069921,13.101424550974272
37.970712853426114,110.82252194561478,14.049610889313515
27.954003687933234,106.73467524088072,11.192393623470485
14.167676890836642,93.91631172086576,6.087387073543075
1.5457626846345107,73.00054404589285,0.45993456509732683
17.115813919889657,46.40901042371851,4.325142962037871
30.517225518964732,17.86308457323499,7.684792643568183
40.027747980006424,8.605425296077328,9.664456209921305
44.453147593182145,29.66008731468187,10.676372434336528
43.29245418032967,43.27622639589088,10.965650963885658
36.81518529763488,48.84427465225481,10.366388602492323
26.02977937246575,46.901046240471786,8.763551266617425
12.519651497637815,38.79314808724819,6.186794672124812
1.8249713068098652,26.47283407700797,2.407657986038692
15.218553618295346,12.094121115048134,2.72221510186266
26.2971271793405,2.1351279144062807,8.768354349672494
34.20552725608471,13.939864347282562,14.993374060909659
38.60692073027292,21.43115738781218,20.67287511929228
39.60825231423334,23.625639724870044,25.275068121210325
37.65356902211345,20.777194164158526,28.587742857612092
33.41486613397208,14.3094540164211,30.41997795209503
27.68846337283797,6.338865705833978,30.4544079585979
7.0499820359692125,8.492656081013555,0.9502094818302955
8.276518118271012,11.279301362405533,0.8134066815461043
8.368646129547857,14.183438543031436,2.4864212312875553
6.865390730618353,16.302003411398392,3.381607929441367
3.507433970254188,16.299737743495506,3.1597987402304466
1.6735693977941912,12.762356273876456,1.877613957142788
8.312092555262257,4.715053273118908,0.25296837600857713
15.714729525877749,7.872828955626291,2.867283537487831
22.9087941751133,23.822007543493903,5.356185214907087
28.743850545270604,40.864374653249996,7.015482616265676
32.04457737464446,56.12927959373748,7.23830617799074
31.800297927033117,66.8321602595246,5.7044452523800375
27.378792637665292,70.91666775098938,2.5099782574540375
18.772252227294263,67.39380842308948,1.8853605328233811
6.731544901031885,56.27890507712011,6.800775230085835
7.348256603547511,38.32324830165099,11.503918009877491
21.662761168014963,14.842688817393391,15.20186327355541
34.292477097176665,12.272510500061763,17.0840135047063
43.539971921442074,40.470486061364745,16.65990407143451
48.182063475051635,66.56544033106574,13.90024302411012
47.615675799993745,87.10077694761063,9.288873991277299
41.906915568466374,99.06229308854608,3.890129189229316
31.764811628247752,100.68231843443087,1.1040833801477794
18.467651273622707,91.98078780084103,4.94252398650517
3.7168208011215884,74.7900834106174,7.2758668021803965
10.5652201086849,52.225271409841234,7.762570637211958
22.498999766979868,27.82153498472678,6.151712317435745
30.55673525849781,4.725993162705762,2.882353478488727
33.82395021162968,14.760772932942354,0.7455233786381505
32.14209875346472,29.220807127228408,2.9860910213287037
26.095413252300837,37.89514224491257,2.3409405412378352
16.861483856707874,40.50423166279932,1.8097498840435422
5.982105645683595,37.28789647697311,9.131709893294142
4.880947527746529,29.190279912434367,18.42331030789852
14.153340722307199,17.97502680384111,27.818625517109048
20.501286621751508,6.061318145315514,35.272558934931276
22.95167110562319,3.9606327556651055,38.90970445520684
21.01747825185801,9.950602968137185,37.42861943743527
14.814587788996308,10.692472391515594,30.411771024804157
5.124346472625072,5.990863235820675,18.39353269991133
6.652717379019787,3.605864952894865,2.8441628367227523
18.698769603666253,17.18651884844612,14.32684890992765
29.102795352030125,33.673941104208765,31.170772556098566
36.21471233399728,51.72031768080266,45.59372980736669
38.926356382146494,69.42393033597095,55.48316555678086
36.804261634854406,84.20109771925705,59.087070038569294
30.074267475021227,93.08425971441385,55.416487497581834
19.522309211399484,93.42859013478838,44.75901332030234
6.373452421084991,83.76738763000989,28.9338658220553
7.833195948875409,64.41085351279784,10.68234967922132
21.3800044060672,37.45211765904429,7.288069063520097
32.54803035154591,6.183185689272282,22.66834290563958
39.851943730909476,25.76615314875988,33.77120700147098
42.28136617752638,55.1534478790045,39.90174474751872
39.48385129045605,79.4511655479797,41.32208002755382
31.837309137017026,96.81952045136022,38.85745236077118
20.379243030176045,105.98281032664717,33.586353759884275
6.613590615592135,106.2818190483139,26.611135791793078
7.737434649266251,97.97535347866996,18.646909853076586
20.950253040199968,82.58675935249096,9.982049799199263
31.45343034122234,62.94542351994178,1.025006632174567
37.94142548273027,42.69028590529646,7.601394638241358
39.47769161039451,25.317531707483887,15.446741090417964
35.625403608361054,13.138687672722257,22.250514120867653
26.582355414580253,6.640102781528009,27.73206051925149
13.25566591647513,4.565910207530968,31.692878535338817
2.7717888076150796,4.634861798624515,34.09278273271841
19.430476947258327,4.514466377286739,34.73521974726806
34.46938848199665,2.6080694036526517,33.01886477159013
45.793143385698045,1.6816381948753127,28.06646359288064
51.77100201373887,8.2130248559856,19.414436356965705
51.451580231291395,16.585801450364944,7.609261003922064
44.67824227259808,26.492092710542703,6.176028801274019
32.13057836381174,37.727537705940485,20.51299732576591
15.278113451064689,49.90711390165476,33.7075344298502
3.7691724209201203,62.13944491913911,44.197264381241524
22.51776645873253,72.92039218402205,50.97220492489692
38.43937940129096,80.35315687319856,53.53655001034868
49.36897840249219,82.61887291011062,51.718495553281606
53.87259734364645,78.50489967982921,45.73877598096264
51.48636324647691,67.77612903990055,36.220011067616724
42.770592982761144,51.280042596979605,23.932295629226946
29.17623082645998,30.786100332298297,9.790221752223156
12.779126483727273,8.63457853449116,5.16987689707411
4.0523318800429395,12.67321581347576,19.969668824144534
19.010642371939014,30.880779468954817,33.54541568543439
30.155093168023853,44.33546520722451,44.61570137824784
36.148013970485714,52.205369513640555,52.09351604546978
36.42477053446607,54.5077844816132,55.71225677452169
31.25960117966224,51.956733750382085,55.7558345124622
21.721712373871526,45.682456600124794,52.141077184899316
9.51742811340968,36.94807216135482,44.50582289940368
3.2898192277363694,26.989197884208743,33.07923316173125
14.623880139710243,17.008295583062168,18.996097131846785
22.72575992284151,8.255283305294324,4.040379566241029
26.40648355696267,2.050222650669069,9.809572557594729
25.191556926393197,0.392656774083413,21.01296753771563
19.354285682740194,1.6712505635900998,28.691706600377493
9.851360815330754,8.122902546588517,32.28937956967881
1.8135872388921241,17.75565559005141,31.64468763466358
13.794320201437774,28.384681095180124,27.365660353256533
24.152230177141327,37.30240686858965,20.808354496024187
31.12298842667265,41.937895679469314,13.843707907398228
33.39203404126601,40.506453472289145,8.351401094037922
30.315189729517037,32.43678907889382,5.572677244276269
22.02973631330282,18.474409307342505,5.833197415405772
9.460218193642792,0.48470160193045136,8.685305176747923
5.791179239443951,18.955454659204104,13.265700819927597
21.659592725442412,37.06856165880419,18.426795525058505
35.899908442565724,51.39409130107681,22.581540651785684
46.40387853395543,60.210051527334684,23.94956933939339
51.512364986608574,62.7717543225664,21.47187298402973
50.278784766564264,59.321908841134,15.42389968563459
42.63115347462164,50.8804229465848,6.939835023364496
29.39881721930356,38.910723807027814,2.739558713370772
12.205738434654236,24.991711933571427,12.534421712437705
6.76115706850251,10.598449042950602,21.439795607716075
25.084582291294204,2.985147475704199,28.4053656034722
40.48020038748882,14.705315209331266,32.519006532108094
51.10247178013002,23.815289168430244,33.26765979875403
55.762800600957185,29.99801985108174,30.70099203934653
54.05792942639182,33.446819935228135,25.5014524184443
46.38376648539418,34.776576474564415,18.663491723776268
33.857528010166845,34.72533884830756,11.100255168131508
18.18382461456075,33.7471404252258,3.5437097835979494
1.4439104364478192,31.73298840940681,3.4260102185104215
14.178653871628612,28.095923215746673,9.26728732194182
26.690230401560402,22.230057073402293,13.565756739754324
34.568659572376056,14.10840556316048,16.365623847847147
36.979392954204066,4.656064970757685,17.948741137272187
33.8758307176396,4.413230554403055,18.304292393398107
25.97507481024126,11.283930698335638,17.275040891477857
14.627464440353044,14.902543455791605,14.795737276273604
1.6110794692049228,15.550133082622118,10.898958260697746
11.122801344466357,14.75676778841805,5.918075977542617
21.713825193921746,14.570252882351399,0.3754885426426117
28.621438179206777,16.574508539699053,5.196172717588657
30.812925139150373,21.188803622018916,10.221280281349836
27.91049904987058,27.591047315332588,14.302692506533093
20.262120293313185,34.20679454554806,17.223538953108385
8.916192526569814,39.426867102024524,18.74392206920331
4.4989306065083765,42.133080765687936,18.57628311148978
18.125311889925925,41.831543480485564,16.681583016930887
30.250819237702487,38.62934782032321,13.385387862055593
39.52219685071308,33.09692561405127,9.216420648880012
45.106568638433416,26.02218637931384,4.723746269185461
46.75838939671977,18.26636931811389,0.2840729190010784
44.78355164848505,10.719126845659169,3.6916620290091546
39.921806887837334,4.261671420273157,6.776171135660956
33.17833526955004,0.36891223071036183,8.811348343072241
6.501068149651241,9.506892296542759,7.365473239160421
7.74771904936664,11.903231384892905,3.776114864923857
7.981048264545254,13.531441847966946,1.2388681313379861
6.802077023765325,13.967162425672406,6.9172692718602775
3.9770915103592386,12.498651871056541,12.305976662064618
0.49273358327476646,8.216836143358389,16.634194178013797
6.323350761702459,0.40665886747373664,19.389500494679876
12.946691621154589,10.95019531422772,20.084572216094536
19.549663609238703,24.769550364619285,18.420025848776973
25.165408575871304,38.84673040037023,14.750925312742302
28.801550300215755,50.254613626581,9.975425208673299
29.566891779691375,55.969396973356034,5.226547121394656
26.797397795601814,53.609428680544625,1.7686167165597928
20.283569755791124,42.37765287161961,0.3693128643481639
10.432464430416259,23.59659268221133,0.6571724142842198
1.8515287882804772,0.16473797111715444,1.572270812372387
15.29992483882669,24.23352459284797,2.1937373435754393
28.376121770240232,45.7142578885216,1.8033690746453381
39.476882510488764,60.85240848439812,0.3392820196856734
47.10787274931895,67.16050453611756,4.587535320965171
50.07991083935432,63.527943197696146,10.473240781093057
47.737243941028474,50.62925889486327,16.897263537298944
40.098785958547936,30.97250552349555,22.560700626016803
27.92543799938452,8.539574374818212,26.482267793044723
12.65945782351061,12.067906302893636,28.142889484255434
3.7837333999437717,26.73639777287776,27.14558290485227
19.312840403403104,32.79853278866951,23.15950958708275
31.996554233170393,29.546807782033913,16.30861073422704
40.35476951402505,18.133766308228047,7.544988259961026
43.546694321753556,1.0832755328596084,1.6229022006642329
41.44114523914141,18.285351567316255,9.713792518231706
34.588740756791395,36.311636171121805,15.563813109781702
24.10883914070178,49.298202003115534,18.696335220123576
11.524891047210977,53.865413225586046,19.315168615784607
1.4086766471130576,47.5332878231451,17.741259787561223
12.909458425581565,29.537770055663408,14.31469718876362
21.39276005973801,1.563116694079509,9.736989041139974
25.693793408274285,32.1146926317825,5.031846723724542
25.273117533709136,65.38281222040023,0.8864114205515364
20.340067277691052,91.82078726664957,2.693236242420607
11.8399807401723,106.44830552880686,5.8653458662269
1.295985073665712,106.97852595258188,8.426430653072327
9.475820398783997,94.04536979071422,9.75473193845943
18.710208335699164,70.41166320801442,9.31774846540106
24.9945036072657,39.70305179293194,7.210256739225621
27.448020329459773,5.363012736696268,3.970371602997754
25.76690730434272,29.678793903301152,0.2786215673787293
20.17704532905312,62.666239574475235,3.103561610360233
11.35240143453403,90.53055080709902,5.460601086236751
0.33925396215057607,109.86151100383152,6.373572512875455
11.5062537009905,117.61937329654518,5.955202433825667
22.60061810176215,112.28315724507392,4.699107016291146
31.289749719145473,94.75237249220281,3.2208035747437367
36.09548556995799,68.38171915591721,2.178241338149416
36.00710128750458,37.9499525796039,2.0577132949798065
30.728804687215312,8.016649086193926,2.9253210385525037
20.800656731248903,18.468681829225968,4.419673458496307
7.555525373236911,40.585750324798575,5.99087347243049
7.093845407692787,58.760205509487776,7.087600973431167
20.97549027066717,73.49547648594128,7.234498999913493
31.99856334475153,84.3264286457456,6.201201265775138
38.470839705612256,89.64920645649968,3.9900512395723
39.338405104374104,87.53542842481112,0.8441553769224659
34.32654833895562,77.00097310537703,2.5821773805995387
24.00311695910506,58.94818638638533,5.517228246675255
9.731969342733706,36.223878805664164,7.419076594618515
6.495420248944669,12.760654186612145,7.871955418469335
22.322237000040065,7.720575947712824,6.602118923041076
35.36894183035513,22.7698733177019,3.724461133769302
43.60805097031848,31.561788265418716,0.1596544238638392
45.6961282914328,34.55784955737827,4.096205578335321
41.20448788428057,32.838730352222555,7.042588758873894
30.710864504963393,27.534217745597925,8.31569979488865
15.731347668790082,19.64724996377781,7.962028314860917
1.5036414238437297,10.24016382684236,6.545506916488441
18.399067799057814,0.6886327366227393,4.7330663811893485
32.428353748276855,7.273157611581017,3.172504778961341
41.56266928594863,11.816011623981874,2.5092341695019003
44.596807155667804,11.49823828840772,3.148731915241451
41.313209340998746,5.746303584921635,4.801877742510407
32.44745651332166,4.886664039274359,6.632193662811527
19.4900660112882,18.780398996599885,7.685621442142042
4.40090124190623,33.59138143387063,6.885673914276007
10.70467265496815,46.77209002879465,3.3949958362570216
23.819148847024877,56.118670669831914,2.7949292589143786
33.24332805485083,60.19806597151987,10.849577593057235
37.76372821384204,58.54847670930719,19.382834999338804
36.78961501906049,51.61325985273159,26.964904444940657
30.43656649086687,40.45987716711942,32.54604738596384
19.546910960223002,26.425470879048614,35.37242122989205
5.612153852110039,10.857220899253072,34.84176942426348
9.41737731212776,4.938719228207564,30.74518352640752
23.41522504176841,19.58843452633357,23.555553024582284
34.39462086542684,31.567342786330386,14.191476680709254
40.79304262609358,39.31959275430621,3.6383324212317705
41.676647166732316,41.646874516476046,7.138674158636832
36.85007172217185,38.22726613193592,17.306568139955576
26.886580833295064,29.95565061366376,26.202393395607366
13.068325671353945,18.836244407815347,33.26735243989999
2.76525506579474,7.392913073390046,38.0330739576402
18.446385847632346,2.1560674198447303,39.976116866195106
31.770320082677287,8.545294691639066,38.64706087992825
40.805546134511694,11.577932778286709,34.21208850535221
44.18388168166933,11.674207898967913,27.407017564225093
41.32243029450282,9.156850469263494,18.83238903803457
32.53058465769291,3.7420089052416645,8.823275035580028
18.996558480727977,5.3911429543011815,2.013274772497862
2.6429965059807494,18.952785182027775,12.62298970746279
14.14109132795199,36.66929838842996,21.828527511718512
28.855676726405083,56.671878105198104,28.62455316447087
39.28872260728315,75.54826656446049,32.310546321142354
43.87781305864375,89.1225059148932,32.55133515543182
41.94736216552109,93.63745277807122,29.4999831549683
33.788085888950924,86.85330144810193,23.929075443531456
20.584069479933156,68.67615755468329,17.017591510950645
4.1999046009834675,41.148556979145084,10.031752978505567
13.114797210826435,7.88623423972125,4.231962353030916
29.027572541836506,26.738615151436495,0.6281933566714457
41.40364743482652,58.36561521291616,0.474274749204162
48.55573546809633,83.22989881696013,0.1823052908370778
49.45511713421466,98.53574778564133,1.150054239580694
43.88899768680305,102.67179343618636,1.3136806531879095
32.53612893650601,95.36283720122422,0.21883323403503474
16.913670204813734,77.78597012325558,2.4227249522920165
0.8365868744129934,52.59458922171898,6.728472480365028
18.272045663048083,23.760728377947228,12.24936424160673
33.01771185288152,3.861915881387076,17.951319527855663
43.119876237120806,25.31267071092331,22.560714390848155
47.30527225505983,36.549436647397094,25.075230714081112
45.11573609574178,35.45742402783929,25.184070239504813
36.938747507949806,22.487130732654947,23.085328931723062
23.963596324520136,0.6455842104514862,19.162002748469835
8.054012525749656,25.22582924890446,14.17479789676166
8.489093472761594,49.70721808832411,9.08847035713219
23.248205685371627,68.14624205614311,4.553660991034063
34.05545462946689,77.57255575931488,1.0202472751236353
39.34568149074017,76.921876880135,1.1308047663590055
38.403732547092844,66.65750080055872,1.9589195196142846
31.451693646349465,48.12421739488048,2.1675437572232323
19.58204630746297,23.061857692614737,2.625125922799132
4.57342545835618,6.479605292190045,3.7991227876468185
11.374755733557654,37.92507735855981,5.819551676368688
26.12738871011322,67.93152173917207,8.695017664502384
37.99406522501959,92.86174049153531,12.254171882919179
45.84944776392775,109.73510287618318,16.048426535574702
49.22623503419258,116.93280999743658,19.341870144242744
48.30071639372506,114.62379478559414,21.275275003745044
43.7988572308425,104.67207194537471,21.28054102388673
36.83373767002356,90.00312579842056,19.458270270598938
28.685147228776177,73.67339745513718,16.398399564719558
9.861999600740013,16.63394343120698,3.8696655383515157
11.59450954671873,20.16235220030208,6.697213503881154
11.93514035083301,20.718976235144858,8.99171777132634
10.392738719356359,16.80880934340272,9.732467354860193
6.638296681094448,7.632127786494731,8.206990521249832
0.5931777927392162,6.423965055807316,4.37577054504281
7.467960464593462,23.609555324872208,1.2173220072566309
16.858771821262565,41.11695961038553,7.615971000404672
26.48378193023455,55.76229242810516,13.53590994482681
34.952580991324325,64.79795591646257,17.64515788999073
40.78418889755955,66.48078152635028,18.881482515257673
42.62954793446441,60.19057211417591,16.547195878535184
39.509450860830526,46.240295485791286,10.470044549151106
31.188216721699153,25.8422348014404,1.288420836235061
18.384462178717612,1.0967341718936798,9.583539764442339
2.5117395272278826,25.376477583308898,20.17891967673332
14.612400078397567,50.64860452446811,28.26610670643286
30.96412824893494,71.58229643274235,31.854363313762136
44.588402199555,85.3149607427524,29.628752040906605
53.80172580900818,89.87380633386884,21.275607737391567
57.39991803412684,84.77304675708123,7.661890426257348
54.86392324022896,71.28791897715989,9.210984486192277
46.472015432743,52.070236983380084,26.481503744698664
33.345918444813655,30.31561925240418,41.23237400129612
17.318023607573625,8.812402818221374,51.24885261333644
0.6550849097168981,10.653865754121457,55.15929832024389
14.288889337901825,27.277010789595035,52.4311070428932
25.45543323054149,40.72409666148773,43.4646003012015
31.393536627344684,50.52200364315653,29.68223968555471
31.468578903811512,55.81866792674695,13.257235753511145
25.940829903722776,55.64307247879322,3.5760152272941705
15.914025831705032,49.48266298907727,19.01840499716696
3.169097783276591,37.829051358980166,31.76953535737719
10.103214081678196,22.314405540497365,41.002045686903024
