25.3675389931435,16.942468424152914,2.2543500112863284
13.984380504247653,14.821420490497776,4.3001096972545785
2.8467906526757543,9.415579235661427,6.529479209308372
23.95024280266091,0.7301864963466649,8.46486527978465
47.07132188163757,10.802977271328887,9.40995559626409
69.03496790540089,24.248584789306587,8.720452912683767
86.28553658768357,38.09693184890831,6.097064208654232
95.56450215614593,50.32878349844175,1.7513232148943518
94.65100283392393,58.68711957120782,3.5802098547246537
82.76316869671656,61.12765850744388,8.849160921468926
60.628781814720156,56.29731315728722,13.037973258565348
30.607432673796506,43.88315509023415,15.385472695723413
3.1748662612827423,24.786810664552924,15.406254496794544
35.99665578646721,1.0713799031707731,13.017916963733379
64.28340148071452,24.44579670868632,8.740909771112905
85.5478098963488,48.789477183111025,3.5541881436127625
97.9872660187057,69.2227168587071,1.404207842952432
100.75326927030551,83.41453769431324,5.075630014119028
93.90128916692134,89.5491772250753,6.682615141285803
78.6261284940097,86.48275812042075,5.809338661169284
57.3253362477072,74.05501593880969,2.466761918687383
33.143623533574115,53.420527274832395,2.8184173869433713
9.495180482633515,27.12551801632806,8.948984278383026
10.619812583702927,1.2158988632236076,14.383311973624423
25.048343402781136,27.63113008837059,17.54994424989321
32.62847379602757,48.61823825068385,17.30722675236378
33.241430031966395,61.76191428240626,13.300569716619249
27.716726853561934,65.96708084599557,6.073667218798755
17.794935275513506,61.35464832211493,3.1471873346217287
5.964514162607724,49.02716054644189,12.800395976977823
4.91080809932619,30.876826360413503,21.397225779162497
12.143349414614322,9.467499284135114,27.76804491537296
13.885264352205986,12.123847362887437,31.11206043641137
9.57666570817908,30.65966333636079,31.162157587597676
0.010700815807964037,43.30384665598768,28.205261144446215
12.994058140527816,48.23707288653538,22.836625302758865
27.128221033089343,45.05429965791977,15.824773674721296
40.039754604753256,34.740597296405696,8.08773371077804
49.5647246630045,19.24909131561122,0.6194178043302471
53.78497643025746,0.8927115670838998,5.692990506235927
51.11718833888662,18.146909723018865,10.260834512312009
40.59910221417433,36.00886497696079,12.84824363781174
22.34792828902521,51.09219680923031,13.560926326513844
2.0299234867675984,61.93165128991574,12.806501779597887
29.391402802240506,67.23128208459003,11.187299206229484
55.5476605674781,66.12081691388805,9.321557169307827
76.2017081613997,58.47562065891146,7.686114176929227
87.96966454654344,45.075163488522364,6.544902494122304
89.05901147625735,27.471519114202007,5.920511595081753
79.39012493326929,7.63885468376287,5.719253357611583
60.23120880681823,12.404151945539269,5.858129848292173
33.643384006624544,30.82029055539024,6.205026782532206
2.077914008000578,45.98959201145453,6.610665598129821
31.73019363041214,56.49247942291644,6.916772934081621
64.6810968272423,61.20495407628281,6.848915329467506
93.30120217539935,59.58304142119872,6.144897569692672
114.03897650535856,52.0227261959854,4.741671580627378
123.86952656089719,40.030586599129734,2.7775205516475885
120.99018179946191,26.01764090141469,0.5456207200121319
105.31937992864192,12.723455833570387,1.524645355930076
78.59241838219585,2.4893883207203356,2.9801515031115144
44.04089384699912,3.303900508402983,3.6522557091389514
5.810609815141627,4.427197292372798,3.8144311921248297
31.66893343988964,1.621653440986538,4.0004573133036585
64.20483071419828,3.7628417489611405,4.765612652347604
88.20701167431145,10.068758477143492,6.435604790544739
100.96548579834786,15.477688026031544,8.862235722492699
100.9141015574252,18.1132874127228,11.367897375897307
87.87960171540985,16.26866653848381,12.951680033303763
63.26984412301188,8.829274923160987,12.660404602363954
30.107733608551438,4.216650278467377,9.887743045543667
7.181494859076185,21.46417229863681,4.572480727895637
43.249729869548624,40.22394388261345,2.7118502340213824
72.54727828250203,57.11924836996814,10.852759712539378
90.18157284112218,68.94277738785372,18.36411450659383
92.76143919386274,73.42170236553905,23.64599415041166
79.09218920347881,69.57977879213792,25.354722426792488
50.54535121160544,57.65350595184033,22.71635847511643
10.954308215463595,38.77850410037132,15.694363175554713
33.965354266655204,14.720051482529405,5.078415450218669
77.56502041542647,12.196179010403696,7.419637271610768
113.37821426752015,39.01794541728318,19.38382759595611
136.1302323429958,62.22067951954647,28.379617579907787
142.46181000655494,78.122523288783,32.60452124425468
131.31037547011937,83.67959526983559,31.237821830154424
103.97091725081262,77.39137998039956,24.584579000346487
63.907498917586054,59.89846030917628,14.019402701396102
16.337944554760224,33.97907255958238,1.6237983075219717
32.42591660781338,3.906525156889245,10.42431978968318
75.85915664917565,25.5839805803389,20.303954330513804
108.23345646471171,50.29077809324932,26.74552560588904
125.5656275577774,67.1719455408287,29.157046734489157
126.2664911106071,74.51760455272978,27.639809017811498
111.32220813606415,71.81847123323038,22.91669504796279
83.97888674770894,59.578857393225356,16.201551589912008
49.027507454519736,39.23848389297162,8.915802872146486
11.900665919182286,13.191129596402995,2.3396178849661875
22.171277500487953,15.270539498106302,2.641158421875895
48.828572487158254,42.25590225911317,5.657638964900099
65.05618943426501,63.85953297131052,6.886034389261366
69.45981151535737,76.8947990865423,6.944523499244516
62.3673831838658,79.53850190608955,6.639961540460986
45.73428428218927,71.66805784350177,6.776589129279996
22.817407733515495,54.79014434399406,8.06905212222787
2.36442105791718,31.641713623596633,10.952059731391206
25.707271020531458,5.646145904720611,15.394216249939154
43.676351577622356,19.627635373621942,20.871024014585842
53.79654865314281,40.90988650617789,26.45012007746976
54.90618664311308,55.561715577094816,30.968447171254514
47.16425266906125,61.83143437234005,33.30736268742242
31.879188077353056,59.05510404780641,32.71265693358859
11.234608007868502,47.78441247676642,28.875527818678215
12.031375945927426,29.788149180865627,21.868638728688364
34.95779812002952,7.86943941780633,12.246900047379327
54.67563587260107,14.507933516479888,0.9846606307054898
68.68401787327612,33.74130734825675,10.779698172347212
75.08609733925394,46.688658605336094,21.877060301949264
72.7743978758174,51.23453948499286,31.194928222551898
61.56073082472658,46.69199988382055,37.813758784226145
42.23199378885639,33.94485842928927,41.17448963138637
16.51419975920394,15.277225478843892,41.158902212895136
13.061239905526577,6.100984508529292,38.142961390673705
43.405269363701834,26.711817211110496,33.02566110091697
71.18351339795727,43.4677181399926,27.033272195164937
93.13218131799499,54.17762601853,21.439170144902423
106.36990857073646,57.783613464979574,17.23922521327216
108.71119885186737,54.30184343479457,14.7666150839593
99.01787919452968,44.58144955048503,13.466714381614219
77.5863466507851,30.03401283306265,12.080981321269908
46.44516440007685,12.432319923672882,9.25188519484925
9.361623040998028,6.197841718253441,3.9622321150820694
28.599409062561246,23.65490710120925,4.222540450710707
61.978579597241186,37.71317134283287,14.757194330365403
86.07741689398564,46.413387343877844,26.117191727722282
97.95476214790884,48.459362320948244,36.377506699772226
96.90216141249059,43.582819098042705,43.81318620631222
84.25977328844405,32.71312557108543,47.23133928234615
62.73408492626903,17.84970789550154,46.11391277435865
35.62293499917396,1.6304471008280135,40.6629276874958
6.281928713937479,13.27551423102012,31.621072258880602
22.063550146198207,24.728978041674292,20.015864907416482
46.31396791840074,31.458403495029913,7.05941150871136
63.96404684456152,33.01986871281949,5.865064622472885
73.67753212973003,29.589283784963122,17.23828193830328
75.4340481101128,21.88517991359398,25.600584199301675
70.51124912049508,11.143619038137304,29.895658626147597
61.18102373535927,0.9709875000594658,29.834041955519137
50.10645826566254,12.572591384088476,26.0419399633928
39.59295974005505,21.86944200345463,19.840329985434384
30.98672232323567,27.531149999337746,12.90103847826693
1.962648818493212,5.771761520881993,0.9294731513997764
1.0200287766207061,10.42909080393197,1.0465908203637957
4.933477397374959,14.130142050397767,0.9569764419050423
8.919794004536891,16.015071331857094,0.5981936984610421
11.968190277437259,15.611067634749247,0.02131177087841189
13.30062541748252,12.850249693059252,0.8326415258141583
12.615097855379858,8.01219765161374,1.677199138837504
10.053104470504417,1.635026120927416,2.3380348888407694
6.016777536295683,5.520219388069642,2.6474947189187126
0.9445487523944323,12.521385846398104,2.5059631499482014
4.770735824634164,18.37333454376468,1.8539806106769188
10.626265734909314,22.122720292418638,0.6645950978787805
15.81057245627556,22.952958084616995,1.0195038316357061
19.382027144942324,20.533774880066645,2.990838815290681
20.53461873854013,15.431642437839756,4.757580904859871
18.55820801626654,8.930242489639303,5.5980315754553756
13.124084684763295,2.545693367392922,4.956509937529372
4.741669689508587,2.3575865274664305,2.814685290471194
5.255395024202021,4.895233161897445,0.26994941090451097
14.997277219452497,4.702917870594894,3.3377683640944884
22.63771545471594,1.8150639536875859,5.318534940887716
26.93987221078673,3.3728621552378844,5.3993698730529465
27.50108190623728,10.066168110343433,3.410652455486116
24.688508911225757,16.955180021610655,0.0030024962843285055
19.30586915328432,22.247087833265613,3.627021366522126
12.231545286318044,23.9751496130289,6.196220373772509
4.230362819699181,20.542542368834855,6.916428010166737
4.073534485228783,11.33208621221637,5.713412372364056
12.077751197855115,2.953417877390426,3.1403797689601736
19.105441776821564,20.373086837161654,0.05585396463495733
24.449087865708822,38.22717982290043,2.7688049596329196
27.574245529588367,53.71795508508755,4.91193977868656
28.386804087162123,64.47055476492552,6.368117020215054
27.39629135407172,68.79477765617168,7.380549194228911
25.669079046434188,65.74365779882727,8.1487524925259
24.48981906490449,55.12174165524841,8.7362501504293
24.821374114556896,37.590883583832,9.155439033740807
26.797444574501,14.842292701352523,9.362021315008416
29.484291237548494,10.360441499794485,9.248009751426167
31.084082981907404,34.46077648331531,8.720946484245232
29.54622864303995,53.77679377381698,7.652364067390296
23.34313307446896,65.39047017290859,5.798493417001827
12.075175703522433,67.88486421983477,2.9026117104984435
3.3660626001578855,61.62934974644285,1.1855863377486935
21.137558542021736,48.524640178691996,6.3774805034149855
39.075477226879336,31.33463690112757,12.148130975427943
55.27385152193214,12.935916779373313,17.535633667443115
68.36907355306258,4.21143219511253,21.39426918336064
77.45933089105759,18.267839442565435,22.699066975935075
81.84335462043146,27.975560243461025,20.88775782753282
80.8943387786415,32.5594722108784,16.155959733347665
74.20901285836801,31.72168994393967,9.442424290278813
61.975318364619,25.75585393453504,2.1496801579688127
45.31806642104672,15.664530737106366,4.261200441388943
26.304971030720356,3.1455693880668014,8.706777412844062
7.5042570832420274,9.620877155535412,10.714862687040846
8.749915751645975,20.350094212658714,10.458235771662498
21.048845898604164,27.062588629117496,8.63514999552045
29.220342445025146,28.420982939155987,6.190556707196934
34.12932255171446,23.939174941512007,4.037771162333553
37.09782216349088,14.052135825721827,2.776559047566742
39.27063379168639,0.06583515968889815,2.478152898664618
41.247764649983836,16.01251166829341,2.791581465154405
43.10304096780721,31.75227759700462,3.277395747307788
44.66097096133896,44.6727848557891,3.6456013102626943
45.78348586069864,52.64825728119067,3.876908224923885
46.4837175460439,54.22984151868607,4.232450204339731
46.820009244036,48.827872304302666,4.944189698608702
46.68922438766356,36.735035847397526,5.887465657882258
45.71251430786985,19.032921775931268,6.605331650237249
43.31287671570745,2.535357289702748,6.429042551729402
38.95870726707417,25.697645852892823,4.604119572893147
32.423520387599076,47.81876459134674,0.5888471967870431
23.883254107557516,66.18063168184193,5.536673216289523
13.815154703313059,78.39742730018023,12.906705992310172
2.783574838825527,82.87166368633838,20.199611027578715
8.764450968739913,79.14786438539737,26.086155438338057
20.56462974735225,67.99980730581093,29.4734750221037
32.429281356328765,51.18876033886973,29.66030852075784
44.04533224360975,30.99083620203259,26.438438968586837
54.78489588069155,9.701051577856678,20.157637028930385
63.64254665307481,10.67218052549495,11.682507017321097
69.33266201986054,28.467822059992166,2.1118748914231094
70.51340869871478,42.27686249526683,7.464763176162436
66.08578056171272,50.88414123177465,15.998573293866654
55.48504351329549,53.43577110814117,22.596104454841218
38.92288462089133,49.798233404791944,26.7686030918658
17.521188566489457,40.92529782146404,28.558308965351696
6.739780926812196,28.989748383705084,28.44217408118176
31.251865383553643,17.064182566648494,27.086352477004763
53.14868574900673,8.37066769695844,25.12108740354114
69.7247343251841,5.3432542779184535,22.961546462282346
78.7887052304999,8.863786586630631,20.607682436985925
78.8885991056522,17.98223671874212,17.688293753843368
69.42014919696653,30.198358219624318,13.851268588868292
50.726353476955715,42.18140294043027,8.972811224292252
24.2387796396647,50.65900734070556,3.037037410921552
7.406731252441106,53.161827674368794,3.8241086926415515
40.40451192231887,48.44427074517661,11.128379829810362
70.1410700443287,36.56112582963751,17.996100843416198
91.93993021893192,18.70000191507344,23.248109695403343
102.0254902567517,3.1001435831084145,25.685203394632154
98.38986910963249,26.257058274042006,24.539194285474277
81.24757376967092,47.96046156254055,19.832816809598953
52.966252552239766,65.53587612609414,12.462642634474204
17.56019447064512,76.83190476900232,3.9679199986168228
20.01795980017562,80.56639470200199,3.863881812948035
54.55377273919467,76.5537753597655,9.425756243898554
81.16095811310277,65.6906769834574,11.73733087125218
95.85081651338595,49.69724534437488,10.654673394547872
96.18173285921365,30.70057135954122,6.741807960060152
81.93976129866857,10.785856523763586,1.0124365011847745
55.5675158386001,8.2978233967313,5.392291177302742
22.016399172514586,25.218757234416035,11.461241618788861
12.163256770749143,38.96197138845311,16.328175936275596
40.3457762597727,48.62047191776723,19.183101867415598
57.486460002835116,53.268222776290315,19.35097430578399
61.34456602245415,52.03023088230239,16.538439078335205
52.832134446131974,44.344665430337706,10.990898436511142
35.414385661170904,30.35668283756554,3.4804508570412467
13.886884416093354,11.2763062918009,4.773182180194776
6.981247965386534,10.486253417844534,12.310558557677478
23.499935833464562,31.519143589489232,17.81632908566343
33.59892959256679,47.96586857933283,20.46223025275155
36.87633627160458,56.35136270935931,20.049097964007277
34.286971236249364,54.47074895775744,16.9749429179061
27.626233048628205,42.07907165481963,11.993345937541434
18.94667837988608,21.150604746572707,5.873599966336338
10.039441391617679,4.435031595492205,0.7497178110652938
2.0655482796711437,29.73369389775554,7.3553503082389335
4.5692438033272165,49.87124662089119,13.527277247152062
10.027569504397606,61.16695656428475,18.898174688631595
14.660687207896373,61.90734581576152,23.000154886695544
18.635586760908332,52.553860181294446,25.236484489742264
21.739260840657483,35.4140201365752,25.058884071892827
23.438164941307125,13.95504100877272,22.163734104087407
23.11227760369212,7.992060595038807,16.5769518385855
20.340629464533887,26.923996594709358,8.622014786059474
15.108205065794332,40.160959633975075,1.1400421397735323
7.8773394666438605,46.14815637279769,11.914200578121546
0.410624678793279,44.601519363371374,22.706006835387463
8.391131505365692,36.50865788627854,32.38788840775992
14.62854255268853,24.03426379483322,40.00487743175686
17.802639298569968,10.0567187014611,44.93555281991
16.81424942414911,2.5942131604802583,46.82383168866212
11.230946874012139,11.794401102557494,45.675782139507625
1.6432505735341807,16.573053709727322,41.86710114108777
10.265372932213944,17.198612206162284,36.05994466572044
22.04096924163533,14.884230218705616,29.075227327458474
31.12787785211618,11.240290466480747,21.760452648088123
0.790260695576174,10.363195166054954,4.203552249053215
8.428144568026186,8.794160257311514,0.29756982417250954
16.468381734558495,4.347158789105376,5.370110814479192
23.841960961837028,3.2504055900428996,9.886330949031326
29.7271544968461,13.538507069326538,12.881080211265582
33.49808458120538,25.24969028941973,13.879548137578965
34.584183504676915,36.4456049681594,13.012810247303053
32.361017623861734,44.82121556757516,10.831312227836847
26.25348153060955,48.14568739131613,7.901965269506735
15.964116313597025,44.732616992229126,4.628766927537539
1.7279192866025481,33.86294877052479,1.3622656079858249
15.420176019974248,16.123871908260913,1.5548241007994805
33.49820119705546,6.454479480320912,3.7041836047239034
50.15839482704311,30.704071673815186,4.581954152293984
63.57303493797457,52.968959727327174,3.9441044027484
72.48087274007919,69.7513191552415,2.1891953718366834
75.98574623683508,78.38523262539678,0.323721741972982
73.50527922876523,77.61784414327322,0.5841280103131542
64.58186767965606,67.78945923548137,0.07860209956664005
49.070875199934434,50.661188744415306,2.3273006316478075
27.54458932516467,28.942517893997433,5.514546406680557
1.576793152700152,5.677371322760269,8.479998750300403
26.16740517648187,16.254131065115384,10.05887499383685
52.3211761528095,34.456144926931714,9.513029323738893
73.45064697718838,47.161108963111516,6.674768567829973
86.70314662862212,53.31851676752733,1.9416926745792384
90.31258030751074,52.71329622353077,3.8889008166464922
83.80954558743625,46.05437384397078,9.93334293368391
68.0656127065775,34.95142134917595,15.305813524133073
45.243215324124456,21.671242057443187,18.953130827520628
18.67852585996948,8.671748769438912,19.71801877184419
7.398017528614841,1.9298246331065911,16.63247377486352
28.4581604384172,8.74793803010314,9.186737180816813
40.570251258279114,11.232950688042333,2.301535712242372
41.38722162075043,9.502409996339777,16.32093864631968
30.863196529041176,4.070560157013696,30.35005056787724
11.393071270590257,4.311253752762332,41.59477091063821
12.707869328300106,14.601577569401591,47.757232718897974
36.203003099604,25.30100447990785,47.57067569257123
54.04833134598577,34.38134245769784,41.01496219328434
62.28170191647085,39.47572998122117,29.21664196295222
58.54510374386339,38.37644772846934,14.098600449108535
42.30385086502838,29.70982290663175,2.0922970128203784
14.886902986593292,13.499047488037778,17.188405086926114
20.57744791069449,8.638682034825766,29.474357157458975
59.39636793519265,33.73408374045672,37.90832003791438
95.84494524683082,58.04236626531255,41.96561122158272
124.03226529688463,77.74763398149217,41.46806049294045
138.99245080185324,89.6042665842235,36.7713492612088
137.70287392430794,91.41362483383818,28.998877939573685
119.7055155128918,82.31615434238485,19.87852515886471
87.15222664195893,62.92647340722129,11.307279599474203
44.28528343363217,35.30991728065309,4.931865944858681
3.4243906572200737,2.752078219295492,1.7435044453977069
50.212953943408166,30.690944804263975,1.7776103511790824
90.83427603543018,60.80303471698796,4.187361278341191
121.1629022900665,83.85536149816859,7.741724063506801
138.5995917193645,97.13139689117136,11.267230310051753
142.26181897897368,99.22349584104653,13.73467698503439
132.94205486977458,90.112532008629,14.373423893488821
112.80646691469718,71.10837096302208,12.801482119308902
84.85499937106262,44.69315587291129,8.899621544279288
52.299221364312906,14.264662548293856,2.6892211033028066
18.053759205521555,16.241729165712595,5.669340268832803
15.489014481568487,42.880879302496744,15.811422198824005
46.378622515139476,62.331387561579206,26.968869618756795
72.87700089140918,72.47595397046459,37.836472847881595
93.27850822039235,72.73956359067486,46.79401313073663
105.94103858412755,64.07434340221651,52.407403800103346
109.56228882819988,48.62417209793959,53.74365221675194
103.5673488691211,29.213863123785803,50.38359479351513
88.41958527654566,8.8412127841898,42.49005504813464
65.73018014193933,9.706034180079117,30.868637193293118
38.133074142084844,24.12108980046377,16.766634048507413
8.989648521627954,32.805259565863345,1.5831457270669738
17.99302483159934,35.08441561922761,13.273105610465638
39.2221228717935,31.37189672290961,26.467168062551817
51.767465534209165,23.14567136124318,36.866604683320084
53.95555849547954,12.638961349931092,43.67045724274338
45.87753203962289,2.273360158947396,46.51623786553358
29.61111154788051,5.9789549032016645,45.47636922651596
8.989584366752108,11.035003336315224,40.980926764220655
11.123061205388042,12.768836081316012,33.743054605289956
25.882895420943928,11.712284802857138,24.670779109237955
31.53180908290407,8.582350046427663,14.809175912986504
26.17828329638306,3.924110381753869,5.185209565475165
10.11379117824925,1.95222395138512,3.3631409955485236
14.308950437898476,8.769836996013327,10.197993762904831
43.108945212265596,16.011154222198957,14.928697834063891
71.30355732428383,22.796511744976033,17.452427608038565
93.65335604969172,28.020758442717007,17.901088891360278
105.51524687321164,30.67730663212599,16.599705203574807
103.72263240587316,30.15788052115669,13.995134866214697
87.33182634038202,26.33011211767287,10.625189838474698
58.02989759106918,19.381262496503783,7.056035657775965
19.96134049323726,9.571329941894538,3.66063535515112
21.081936116697847,2.8778469963731608,0.5702353945950791
58.90029241673186,17.605350069092705,2.15108648387857
88.18505231287888,33.746064371461046,4.443113245269777
105.46976061541484,49.62918951788028,6.238904989189768
109.48284472697871,62.812037263566936,7.4110475349286515
100.91763122681519,70.5846697568712,7.80328533339166
81.87716694998636,70.78791008600973,7.23426040858338
55.29922493567747,62.601714371997836,5.448576524580797
24.56761314518797,46.936732782248264,2.2680997064638673
6.665579205654546,26.22864601216107,2.252537320112316
34.633246517594955,3.7499673992365965,7.849762373013856
55.77672230967182,17.244062943404636,13.940683567965445
67.2956586704282,34.19684230219302,19.497368796104634
67.79634425459415,45.554532895628505,23.27300526277212
57.75456596035855,50.70859244519374,24.185796003292825
39.54103932758542,49.77378885463978,21.45946161750966
16.892570059030437,43.44530359334297,14.596445578059855
6.0426751677410415,33.01604741322962,3.6155120284527316
25.72122780253922,20.445049436469052,10.51355324689782
39.9102427814932,8.280363441647772,25.72707571308899
47.84649880156369,0.7370301019472573,39.138695606106374
49.873816247108074,4.344432834477465,47.6291420763426
46.840769032393005,1.4584721590595795,48.7466633073307
39.61168552863119,7.39725055135236,41.587224526566914
28.928980346254896,20.175089335468442,27.082774544020594
15.615112449023938,33.8723271978121,7.678203509924128
0.8966756024852685,45.3436550798656,13.23476189492462
13.460734963549031,52.04463410517875,32.063689697737566
25.415135605120387,52.44524001628906,45.77157031311803
33.21873626155785,46.07872267911227,52.275264273526574
35.989483110985596,33.36648714173376,50.677954420653776
33.95027300145598,15.40477082823225,41.508465008394204
28.17942003390177,6.150059316066897,26.566785350813603
20.014788240585236,29.117255336688167,8.415255288210682
10.479308671154136,50.89200792698949,10.005200118471324
0.10493854578005092,68.75108280369639,25.673820519820783
10.762759560339553,80.35951300905786,35.926054128185015
21.43109567331562,84.30386014200124,38.98104328113575
30.49438191700979,80.41996596895758,34.53269274168941
35.990024883875826,69.74780398194797,24.10959541329211
36.084823692018325,54.12852031434307,10.751913242901985
29.92724563254862,35.64006783329656,1.9368915503332453
18.19091907419587,16.13085467787581,11.040035479793959
2.961682954692567,2.9652342293936305,15.29301621011989
12.976599976568211,20.545687617644088,15.154824395584614
27.05159116074595,35.66362311755903,12.21281293632718
37.48016310882103,47.519880167137366,8.162237794143818
43.329737534051425,55.61641916838049,4.212861050980711
44.372777224234326,59.85110563522275,1.1265799484972991
40.91577639906025,60.525466850471815,0.7525117243214284
33.64947542615473,58.273439278915525,1.4082656806451324
23.610810825531804,53.892288612386224,1.039111810545406
12.213431321145828,48.13178934838464,0.07393492454546077
1.1873585314854675,41.54816103435796,1.652169319114452
21.855915785268202,1.462001770728578,1.351941371756537
17.449250051954586,9.426921418256788,0.664267041244416
6.853581783940257,18.63117135159108,2.853901996359144
9.69592666777558,26.892403083042698,4.6530955672766146
30.549350594426123,31.74348693749548,5.5801169931792085
52.90814998226259,31.203375381546028,5.413174265193392
73.31408543361896,24.468081413457032,4.219974019722506
88.17502107351649,12.24215172516792,2.2942809815718705
94.26929144668797,3.3793384070499473,0.10927503657829461
89.14938967120324,19.475581379814376,1.7728653797573246
71.49434154384043,33.06880398846109,2.848539340917087
41.49146238752929,41.77740090069165,2.7740958050854982
1.1922764768537222,44.19837524302779,1.4292613605162596
45.49036239845143,40.252282554101456,0.8730803002183611
93.1036839643309,31.300793096414026,3.3553384855619557
135.09907741410572,19.6337871774486,5.2361983395029235
164.89695322695994,7.903353504022732,6.004507750599624
177.37401469590614,1.2935708631825618,5.4213372237527775
169.9893041503859,5.966939373290704,3.6780126746491435
143.3729863186999,5.165701700378442,1.3391821027227024
101.13285301956225,0.7116333399136013,0.8397256299098806
48.957667676730466,9.815703176020833,2.06637170189239
6.53865064250659,19.1405767378979,1.9058213373774913
58.95737185812469,25.114960173776858,0.5779659361863134
102.89563033082696,24.47464390332296,1.146629416300891
134.33719280142452,15.177139115278132,2.348779378089693
150.79594629453825,2.896711804115487,2.3544350487295755
151.32677509820618,27.647208112704824,0.8905235590637207
136.57084251014055,55.0606435101453,1.837952918500691
108.78185067545641,80.0136742460572,5.173478470888806
71.71013378407493,97.39587964633849,8.23528750374001
30.226620539331634,103.27034720956662,10.14034168840292
10.36572140981695,95.7229335290325,10.136814787252995
45.178713236002004,75.20003117031865,7.765813937216966
70.51596546459875,44.303058253996596,3.083485075897418
84.33311414250952,7.190419429990753,3.1770611312134003
86.25595354878094,31.19326142306956,9.611746769373108
77.26132808154276,65.84885189107317,14.367889292188893
59.22775774821418,92.3228802060872,15.67534142001393
34.56049939008975,107.22351486895987,12.413596749448212
5.992381435870617,108.68517627846383,4.494251378302358
23.48929831688279,96.75811501756434,6.903403450359521
50.74062829626429,73.57441909397554,19.59242804900472
72.7306623056869,43.09655708673112,31.02029761702837
86.97399226506226,10.394978449472452,38.858701723607
91.96944257317827,19.425390114620242,41.53510597298061
87.47924561337376,42.31388701552972,38.4458107673158
74.53745230700292,55.985211389799886,29.816831388046097
55.18289470351305,60.059190647954274,16.583875111196438
32.03520936278867,55.66839316388027,0.2272631595938234
7.859687293907475,44.79793148279666,17.481088460219297
14.792265785093443,29.705304733531378,34.60016071388851
33.871283424310484,12.61996441400686,49.06567565558839
48.066615730592275,4.302235836995088,58.89512352424722
56.95198910248872,18.984741576286357,62.59037375313299
61.006566863781494,29.61505776797135,59.48534571939193
61.47876645384234,35.027281812210376,49.93484770181384
60.07058106872807,35.08067702067594,35.362983891583234
58.51918127849052,30.74647990901931,17.969178036005392
58.19814744861273,23.732374982774818,0.19707553406197148
59.82222783862615,15.734400636474373,15.663691840724718
63.30702603156368,7.680820262016391,27.748951440481004
67.80054949731272,0.5915881964598192,34.940843077375625
71.85265203567002,10.003933807574358,37.01991458993492
73.67356360551616,21.38042463140635,34.46305352316697
71.4629649201775,34.533045260033184,28.35825944272558
63.78351819117695,47.80904283868256,20.511862395881057
49.902776555772675,58.38749522594411,13.064534887098395
30.004076550256766,63.23856242600122,7.747331241648939
5.202077530167746,60.28205563787973,5.5250962056586985
22.629615407614004,49.172478176462604,6.55948921621747
51.161999709913644,31.380729329118235,10.145784819955386
77.95954266872981,9.589112933376727,14.838616221792195
100.77480261011875,13.237832250974325,18.95156116134032
117.74831117070474,34.59554825744988,21.004253701533756
127.53599703474866,52.69560404665526,19.89196715490147
129.3693372685525,66.27693086879852,15.132834859772608
123.04700357326969,74.28822186248624,7.015922346697109
108.87134335069132,75.8190979475554,3.5561699698271423
87.55690974599445,70.43417870764996,15.069279100084701
60.19429944103336,58.732840490630295,25.519728023352368
28.34384782441708,42.72096060595744,33.01211808329749
5.773518561420744,25.60776319777693,36.13835111355708
39.13723016705852,10.948699397833806,34.10805555032491
68.05581167499726,1.4507780502927012,27.036655276060205
88.69359770712164,2.0134999827856745,16.16722703383453
97.91612238701538,0.7006215018553532,3.7904766408763746
94.1743902068136,2.5648959013198747,7.438775826385465
78.05868510247662,4.541127409487447,15.340554320525563
52.25402656603675,2.762443996096679,18.459910193152883
20.90631269943038,3.744043028139243,16.19177208969035
11.287168940100727,14.452260028960369,9.035407744877116
39.88792111776753,27.900922013137784,1.4482216323637374
61.23307333008979,42.433201055726435,12.945439615155198
72.67725511728413,56.70532554313471,22.683886512991897
72.7596509961981,69.76851532501568,27.844940732540373
61.47922040937266,80.82079828512036,26.284709694612445
40.62612183753551,88.91837570548878,17.242083101387642
13.883875213522034,92.88799208601584,1.8203005267359056
13.65111891425973,91.50554245740238,17.11975030498902
36.638614070459724,83.85196960704546,35.87543038833668
51.02900188282313,69.64408435714702,50.73330767063714
55.341949591222516,49.38064423171503,58.44116580080645
51.0819107622886,24.295384261313007,56.73362676756964
42.05053603697373,3.7953730752608803,44.908414845193775
32.85116711604075,32.677011732935426,24.350167231400857
27.254450560333424,59.9364638478027,1.6892506179878666
27.113121528765127,83.18513527379129,29.033945477265668
32.187523411447415,100.34266499716108,53.3261280911778
40.713269637434884,109.96216988094308,70.70385433032165
50.21403850372001,111.47364148074938,78.68654543832768
58.12962652040206,105.25366102411877,76.80516899330284
62.08217395543443,92.50061309533358,66.52859712388121
59.929343126606014,74.96472843990095,50.518551223268595
49.92440889688388,54.64400861013816,31.747781584787948
31.159709750575466,33.5236739887326,12.801008173525416
4.18135028721872,13.380438628813318,4.672958014535762
28.57455167805601,4.37670446814517,20.189294071291155
62.87790622781306,18.860881945249698,34.00200299489089
93.45971210663515,29.794834287410453,46.25169731876636
115.23407422946926,37.43403307369816,56.50202540288114
124.55324735257668,42.30700801139332,63.91426394331429
120.05355647376909,44.85788227081845,67.67038458766147
102.83949686562589,45.16814431363723,67.24540793842115
76.02393261639244,42.95793406184015,62.32055437771557
43.84991751932168,37.926272312287296,52.6644688176615
10.728456214637909,30.23501333431603,38.39991345922988
19.510651762107077,20.807830215729872,20.507497616757256
44.05249939296524,11.195603705387745,1.0290890576970537
61.2031566328537,3.0040814274031042,17.262602294492282
70.23600641341723,2.8023529901953634,31.37646606822013
71.16145312557971,6.26470425954833,38.71367876572419
64.54222120250118,8.20115567655407,37.94620294862713
51.41875968405471,9.512099639589197,29.692038935152684
33.32123321489682,10.456517102964295,16.402182037475857
12.252169518654716,10.404052397665644,1.5337542706582132
9.427863586281294,8.287122853349466,11.407269364464934
29.26171062585164,3.5041545246365158,19.49963388759019
45.05410623542085,3.3215218278065195,20.883028946403492
55.16960484417529,10.309520378512547,15.104539571804345
58.67866620190914,15.132666244064861,3.0179210484325876
55.32951681526833,16.231922353357742,13.6022566950141
45.87504002635711,13.55216880387499,32.31912655916327
31.83903716192829,8.02770655970251,50.359482373166486
14.847918737162598,0.7237474044633094,65.00667219478504
3.4176206022447695,7.570299889324821,74.0660777064882
21.20761054725642,16.48968035919931,76.50074590818731
36.7253975100548,25.871523391385573,72.66923681260805
48.29870330745673,35.29569682421832,63.995553238725144
54.6906073000918,43.70501007550795,52.49734637933862
1.1154841594035643,21.962145115589642,4.747283931914422
2.3310382538661134,14.118454659386284,5.103632056479484
5.449243666156919,1.3586676253657097,4.566793924660147
7.930558903185215,14.775427630020785,3.603984077341612
9.968662400950178,32.12587450343957,2.912868412200109
12.076151239282522,48.2211714634815,3.078062412471391
14.702876030554927,60.531653837904635,4.24369268993029
17.819827551185497,66.7737463718813,5.9966131968335254
20.718959959864804,65.24045497476415,7.5551369936208825
22.098904778766983,55.1939793898064,8.031848500699052
20.437459675949835,37.153370205230274,6.6809485905395
14.601570534908463,12.940444158482155,3.0384081059319454
4.4843316918248375,14.386841212214874,2.977515875523551
8.913770844648708,40.65694850332125,11.190068495357892
23.923724067335993,61.44738776822713,21.345900201397846
38.44667125281003,73.63108815416619,32.68730094012898
50.19889294009869,76.10671817730446,43.567713911176504
57.10438751240407,69.55307192148582,51.643108638777676
57.51331650121077,55.87775580777878,54.267293378212706
50.475066127825315,37.44625506068402,49.27526474890674
36.01226141921732,16.615981008632254,35.90129277157633
15.290305579489518,4.35677476121519,15.184469704885386
9.290492726438087,23.350773157408995,10.268285673528924
34.287506214682175,38.40153857524055,36.8947116198141
55.67947375448728,47.91575194038903,60.803134357541225
69.61049617130406,50.940377188783835,78.45718437998038
73.3051167046633,47.28991281460022,87.27339139411663
65.84995826538182,37.508270033594926,85.8194504837236
48.60673680621784,22.66131760235753,73.82194874556838
25.005691363485727,4.162892119896977,52.320320185088356
0.2775536856368646,16.2649113713107,23.92568106102328
22.532350142216387,36.53644837895697,7.344448514007349
38.231802584239034,54.1820904727835,36.71194703979991
45.7916309569587,66.57328149020897,59.3660856489678
45.64133345479325,71.43230018403808,71.52471853146638
39.65212752251454,67.46342649519447,71.58621926820717
30.231898834735446,54.834905698018844,60.497107563649166
19.520886721896417,35.28177941317296,41.30764618640648
8.983128575341718,11.769208434264348,18.159373631771675
0.5542568899709013,12.163001073882944,4.919103003021227
8.618538415754276,33.12670530893511,24.658481258310378
14.830585881007734,48.46428577908092,38.56445289210233
18.854922197499583,56.602017323284244,44.9188229812006
20.56464509827078,57.21020441548353,43.13012325727971
20.211100433047033,51.22912942799625,34.03631393725511
18.422763968576948,40.76430713073407,19.694259847237827
15.980028111957136,28.78677965153456,2.9532084466902333
13.464652309968578,18.56963283621719,12.913921756777697
11.018801564300059,12.90443995641716,24.846061881711783
8.372974865809367,13.323503790867953,30.88685431156753
5.1365790129582,19.62700389831336,30.635479492034435
1.1883881715142082,29.9314389635449,25.135091960082626
3.074375081342639,41.26072770675187,16.602073645704344
6.788829086119807,50.441899405050826,7.725415943657612
8.96294024650266,54.92757941703313,0.6329304772434533
8.941293089949458,53.255113668490445,3.677783508882706
6.79277258470243,45.07050248911479,5.3378616486830675
3.4288480491615103,30.87323599597568,5.3170009398738864
0.4052540478060405,11.734014223177569,4.862484937872635
0.5157971388955223,10.858781532554323,4.8922969704655515
2.084388805973133,35.02744068428074,5.783654541785664
8.796659891057406,58.53854531616551,7.483660657245209
19.100302841638786,78.99063803595568,9.656790360276936
31.347839606898003,94.17521597648373,11.824159155962903
43.034959369027504,102.47887315853936,13.422177680691963
51.29014737633934,103.1216680486803,13.929713952012237
53.46530900380169,96.10606752734938,12.961564399025946
47.7034209898701,81.95499985900743,10.191999225568269
33.3877433235408,61.45851644016041,5.521017652260543
11.405612763174682,35.63410728618282,0.7454263160719206
15.820000056511708,5.947806431155357,7.966816357467488
44.57693377914043,25.360554647134222,15.186136834821644
70.4192779840471,55.12709242550019,21.246753343286684
88.99374030151712,79.54167774617974,25.09432403952956
96.99555493988267,94.87828985752715,26.12190979148954
92.98380346498236,98.41212824611632,24.38804757233966
77.7587485129936,89.14909942777167,20.500547563293665
54.14250725168027,68.08439368174288,15.32567918931995
26.226919932314974,37.9333084133152,9.699036481169887
1.625964583462491,2.523862673811656,4.18172575603178
25.677106599588363,33.860731602783005,1.132427185455231
43.34872931980215,66.97272394501717,6.494173374002933
53.355238342448324,92.89926986509963,12.037511427598687
55.58885590179119,108.31215517096419,17.6083595451926
50.97468621145121,110.82420354558077,22.775805240476863
41.36994556734613,99.48041521136416,26.757870863697555
29.410080850103153,75.210316499934,28.523533909621932
18.13667386916911,40.9713931702036,27.148572638868696
10.345156379964589,1.376217067593004,22.436175064261615
7.816703501727296,38.18678175471719,15.214387609867973
10.767953785722069,72.67308393058502,6.923910982011534
17.81201904118191,98.37283537133311,0.9411090440199344
26.51322802590295,113.42883469184022,7.1593505969308175
34.30796106551144,117.75012345444999,10.85969093520157
39.33584930658754,112.50390280530299,11.616578858415838
40.79471225874955,99.50479472872689,9.552416793557056
38.715956385960084,80.76297900293292,5.199373359464371
33.389836624706305,58.30090892860471,0.6010516838224035
24.86201989585892,34.17081470777733,6.656033232871919
12.827536009287375,10.4905214593506,11.385726728975579
3.0261891927952753,10.672778964000294,12.996803855071727
22.455431061080613,27.60036314359676,10.0475679818406
44.24371044482537,39.260425983191475,1.9862696476212818
66.20699136942089,45.49658057736561,10.604342705985411
85.63197712596663,46.95295781257229,25.84627690474375
99.92000018469851,44.75574142245539,40.68882769686968
107.13982806002319,40.10343575503069,51.72548505336705
106.29457455713917,33.96578042580982,56.39693173052141
97.30528240474898,27.02995581956798,53.72209092097975
80.85405788110462,19.885639876104413,44.36600167890474
58.22692498283396,13.294020033957135,30.26945808605935
31.23332312036904,8.329263382623223,13.8419843398406
2.170444877228804,6.253142241276653,2.85201203596485
26.295937175398652,8.137840873242467,18.396885771900404
51.412452716698596,14.390715115486097,31.83705386173966
70.7519104358513,24.40556433946255,42.405698878652444
82.66451243565035,36.50555097824179,49.535623553738105
86.6108042052369,48.22381184024689,52.965329088972524
83.24305408958932,56.84612865742101,52.76003982820067
74.22392555567399,60.021386392521414,49.41447049893691
61.85368646458064,56.251055441917735,43.8908854704989
48.6050271046151,45.15710867465873,37.334502293691514
36.67061402471463,27.520892007278015,30.630982932164503
27.61164974295032,5.162245973804129,24.035038955315894
22.15453867266871,19.292088541528212,17.18013149990447
20.127747112014703,42.74150715815318,9.526568567921545
20.54384740960916,62.02579139843213,0.7154500486299156
21.849237650475864,74.41485907485871,9.114028861018367
22.313576256613356,78.1360820299136,18.879709088520016
20.496526614066738,72.79556220119002,26.671467470785686
15.67589969929217,59.54520742530438,30.623000777670033
8.065615244481423,40.908439076075304,29.796543563030337
1.2937771226954653,20.244129323323868,24.52364383319355
10.968578647688858,0.9719835637493768,16.325175907252863
19.72565053866711,14.203613713164316,7.502697620215957
27.008493637159003,23.83159955004265,0.304507863735556
33.06660325610706,27.862418451047077,3.8116061666146193
38.66095014466612,27.39302559001097,4.313528433176972
44.50845913089899,24.117569841922506,1.3378498555870066
50.78708547012354,19.69419193879344,4.646296146279649
56.94596033877723,15.266550947001003,12.939010257416044
61.89379962539253,11.271262197304361,22.533769000192766
64.90087504020035,8.059954727071457,32.16114798689977
65.79444119592588,5.949539008661665,40.45221464222112
64.42572455201103,4.67562470443061,46.169891827276274
60.648402852278664,3.5551243074137084,48.38509011714871
54.335997687511664,1.7792908704276977,46.69267516980574
45.47831948516778,1.2348685423301824,41.444541877509735
34.369145490110014,5.568231491982753,33.661811618858415
21.814851453648572,10.700011709176517,24.767017467872247
13.35579993409078,9.307884738103317,9.98344371689028
7.747020161405692,10.711857739228481,9.230226062259515
2.8664799059830988,11.74589080811343,5.860804660754476
17.911355471774193,11.498554497134737,0.11301459385274283
35.429529436228435,8.94650420411622,8.072201075752972
52.34649574776244,3.3742821620945906,16.969531216700474
65.05054868177523,5.295264044036597,25.422688455267743
70.07690449523476,16.378069498250444,32.01186180259489
64.78311938264183,28.613380168515732,35.569073292031135
47.89467242548214,40.5026981286118,35.27122653629165
19.925401065615443,50.64145510718761,30.720608750566434
16.541078318696457,57.97911186833406,22.006949576616105
56.86220048770283,61.90217501018452,9.763130324587769
95.04295037723837,61.90642196774936,4.743110663907143
124.93013187464032,57.191874267653226,19.710274533912045
141.18585234591842,46.88023796772561,33.25011770469835
140.24898950226486,30.53866278190211,43.8731381064171
121.208982974522,8.567635252401445,50.746405188150064
86.00256576289972,17.57284422102316,53.71012235508768
39.0603730468622,45.57396672391888,53.017863455406044
13.523335502123743,72.76987857091439,49.02634707086554
65.08482703022295,96.6194334661396,41.96380534588477
109.33618074056454,115.05871524778786,31.799137099693308
141.1048639165641,126.54558192787107,18.548468155779897
156.8065218195442,129.9670677857913,2.7653301109619437
154.75171332488674,124.58606155304305,14.260097679751109
135.35635110701406,110.12580253766421,30.593362388247265
101.1801981217965,87.03736790686499,44.14736234620521
56.748058589742044,56.7246218922006,53.34488989163848
8.013872118515891,21.570473225851924,57.51443624327231
38.490619719475305,15.316906245140064,56.95028770473883
76.65276472217779,50.61634534154744,52.527148823127256
101.73800108892154,81.32981397145093,45.074409819183295
111.05350181062238,105.14422367159311,35.07789607469615
104.21744693773446,120.55041486184379,22.822812575911804
83.07727191767148,126.7787442119349,8.858417534178754
51.33230961257927,123.69063183402254,5.558620117539555
13.962915498397827,111.75283716540956,18.734805342320943
23.4351424721926,92.12908157603607,29.300350620772807
55.37500478124572,66.79043656800724,36.53691690063659
77.21725327597635,38.51430109286437,40.23982155739209
85.82362255656844,10.668485775528591,40.58739184505006
80.02813863773252,13.231948911088125,38.01602748468961
60.81758869843322,30.0802574957307,32.841536194602554
31.128494215943892,37.717659079027236,24.962245515347124
4.700834405828447,35.35078171212321,14.384575462978257
41.69349806611612,23.775409280405754,2.155270795548193
75.04864460485123,5.378068277168106,9.476735283125485
100.80551153825132,16.123732705636495,17.786850973912465
116.21559450749143,36.211292609840555,20.59699215647591
119.82270334398333,50.3059410294122,17.277703631869745
111.36188385315133,54.62761451270377,9.263323952768712
91.62582205403382,47.01865101025726,0.4110994884407076
62.40159669992282,27.506419954303666,8.169879957049721
26.449373868237473,1.592335029728102,11.178183436616376
12.60491328419267,36.066793076034564,8.53959703022862
50.56617901535376,70.61642527683134,1.288054509044554
83.19363176825945,99.88489223313364,8.716444813895533
106.85830100551567,119.45688764558581,19.53518733570078
119.12813187330755,126.60126118584797,29.215207093064045
119.13587845111938,120.65348542509966,35.81457261087403
107.67737889899958,103.00179744884962,37.71044188747068
87.06648444213072,76.7430890143204,33.82491227074301
60.83116208833478,46.09767995591885,23.76695989661554
33.27421514780257,15.65851580823504,8.37681636638341
8.855586342709211,10.40457960126445,9.826689297338405
8.625195142478859,29.055664094947396,27.11534967104054
16.932912149281403,38.88863998822559,39.73997108108024
16.108871063316954,40.27636999788666,45.17255802085144
8.662944016188815,35.12322736156771,42.926615843298535
0.992784096687653,26.284110553072953,34.53568627401221
7.804135450205187,16.798319727369513,22.688564707334802
7.61748366276247,9.186141699075783,10.273824565789544
1.562517176545681,5.037285302415213,0.36421638165974446
19.096336515171977,4.956190158784189,8.057084870791586
42.131747973460165,8.790822501937706,12.696972756036821
66.62255185750587,15.969633688641528,14.473717116155175
88.4479452487225,25.744969982452645,13.582543793670018
104.17035291395254,37.2323610221041,10.54792733292981
111.29477819063798,49.282911836820396,6.444869336385551
108.23076822831653,60.35114724127791,2.73953871008744
94.26536583653407,68.52984220725568,0.9764123277984832
69.76095705288847,71.82679011550142,2.2432080129145784
36.499839275918674,68.62453501997541,6.5436837931977285
2.1443845698917237,58.15872735102007,12.746961688974181
41.51678753853943,40.82060937532614,19.18057261139382
76.54829243747045,18.16460310544791,24.28995610970413
102.91235459099782,7.339927930995606,26.94316379636059
117.9792158651119,32.687905614258874,26.54805130689904
121.14798121853102,54.72614510550666,23.050593773795516
113.47226679070587,70.47239916964443,16.647164851709647
96.86280122803427,77.41433552448491,7.721009320535781
73.34125176740389,73.87738239356139,2.994031957831524
44.74855154095769,59.45958884206846,14.642235375885132
12.993920679062624,35.42624828084167,26.483947790625024
19.442593320423356,4.860965267395548,37.78835780614388
49.22360262675111,27.61812780845627,47.68056333201769
72.41079047791985,56.629739004702465,54.992106539460636
85.27058499531088,77.13423843585946,58.2612121773534
85.33311853560092,85.5386053429273,56.03361575934788
72.23096206270993,80.44672393471735,47.230089849386054
47.9430715209135,62.82763960947839,31.455866073744584
16.372539844198442,35.59903223691003,9.460666840638673
17.51333566989902,2.832560942527675,16.3953972121431
48.632368750285835,31.11431833255561,42.42177654630918
72.5466321360825,62.28031639143305,64.5096359001232
85.910744022209,87.49834738380557,78.93673596203789
86.70202494381508,104.54813573275463,83.09567700698925
74.37187508316644,112.17818678685552,76.12502596881532
49.95922195904028,110.10505582576772,59.22887407777249
16.10436160781187,99.00569654040149,35.48510572846914
23.189864899981124,80.44052668679139,9.002727128890495
63.10587221391145,56.62660746267059,15.952067340715285
98.7740869517683,30.074262189495734,35.67218389526347
126.039505597352,3.195840997987116,47.925026102476025
141.95081951794157,21.974517073121234,52.47235591880041
144.87281807521362,43.82837349155009,50.66545343933995
134.31446822739323,61.024186109208415,44.666274023647205
110.66719732004566,72.28646111360047,36.94030435836469
75.1011631813607,76.36728542730825,30.03645497268451
29.704797090119968,72.3293710670587,26.282711025222756
22.228564751280096,60.126327577617594,26.96973670017409
76.00923565060587,41.22878981224662,31.48246819559981
125.73587231574797,18.908375916116093,37.561813608724435
164.94418342280537,2.1304993743883767,42.161002554767705
187.65188332757796,16.81001017386297,41.974700114342696
189.5696567053959,21.14158939184904,34.296762399507074
169.15493722530516,13.550176021735124,17.937408581861874
128.23726616243025,4.502069301982193,6.4275292258065475
71.99107777475754,28.892957555066737,36.15788736236168
8.232066354962546,54.05717083468494,66.99520214962554
53.847064677212295,74.49234246275337,93.98138157075127
105.28322676068152,85.95342469400721,112.74140246512994
138.9245867199926,85.97503751386958,120.62906425314885
150.68995177971158,73.76507882198834,117.02078251930718
140.24184573201904,49.87088077524163,102.94870384300096
110.91283460477409,16.036955137217934,80.57244629077702
68.95335438124789,24.61317354484146,52.800718712665876
22.248707591439533,67.31857267704602,23.1404711171871
21.23075586833078,105.8622433082016,4.573412332848664
54.928856966965434,133.58178299776645,26.870108578491937
74.85675880303138,145.0918099457887,41.600763163855135
80.01555268615041,138.86484810009503,47.690606787997105
72.28014741865248,117.49645989261231,45.02864982940837
55.77414660209907,85.828004522291,35.030064335125665
35.649742828827364,49.65895779652789,20.206999976245292
16.75249622671082,14.337073902604214,3.6046090840516194
2.520846349220314,16.269123159867068,11.632832322650819
5.577103362337737,40.087035269573455,22.818127488440744
7.971425391152188,56.48051149654329,28.348442927062916
0.8461846082756262,14.436156441942753,3.465787055883806
2.1446877850886885,16.51955727570003,5.444792743162767
2.4225366449243952,15.921334235188986,7.979730368929863
0.8946535700925554,12.527809432480966,10.342559529759821
2.7485089969441643,6.466865557451872,11.52784102371665
8.052324652676814,1.9188688443430795,10.603638884073014
13.776462896011559,11.90711052099671,6.93723160208635
18.180221651373987,22.2906203984213,0.4923465638239045
19.51511767517367,31.40659164654459,7.851202419108193
16.550112246644986,37.51358232015649,16.491326501218936
8.924799308005328,39.285635037940224,23.824945802332213
2.8023318094743352,36.02182691311365,28.863856645626573
17.379374386487214,27.630370038071707,31.476135658897014
33.107156715482475,15.198665186539275,32.1400673626516
47.97760169490929,1.2765045470250438,31.315716043444574
59.82240684129962,11.493379336839219,29.255145830943853
66.44952802976228,21.482902818553892,26.03493631932075
65.83256763626729,28.097252008202585,21.256907137113913
56.508055530365745,31.671113260403953,14.306785983155677
38.04937805600676,32.94142992046167,5.097483413326036
11.455755881590273,32.68785363364562,5.762142854377957
20.69340305866005,31.736751796405077,17.404756085064964
54.475026853420395,30.807566716047805,29.200312041851124
85.22305639744872,30.361714575004516,40.837256167414935
108.3280130249089,30.246702191623978,52.11580505268766
120.01373935607367,29.421737824568474,62.61270475665801
117.95080860805507,26.14043135150815,71.14442074549672
101.6401068988084,18.553537025094453,75.52839642814973
72.54748490137425,5.636394359587351,73.13873803903412
33.996897718716525,12.11284097262331,62.090641747205254
9.213445874370784,32.549041084847254,42.381899563252674
51.4420113657065,52.39399386268514,16.341646569010912
87.03036452853001,68.17348499065557,11.900951847378204
111.21193016530798,77.03548803176507,37.618275747305695
120.87148126021492,77.18074139649126,56.609975429357014
115.01656273856344,67.90592437351398,66.26730565336054
94.8965672300266,49.50610470469035,66.36256549811237
63.774002765901166,23.33924287294847,58.6771846725236
26.47000935580009,7.946698642868178,46.12214881959105
11.264353291932512,40.2880433889516,32.09884556977354
43.57791834922385,68.57068022188687,19.732626081159072
65.49923163965389,87.64887867480995,11.227503972134972
73.91335574106428,93.73782353800985,7.756492011748181
68.3087341746646,85.60649619157753,9.565363403130167
50.99864740162636,64.99025031158395,15.688394383411088
26.623743128887426,36.00276588475862,23.70713753506846
1.040651216009221,3.8317371194567014,30.305423549770065
20.088659918352953,26.65559069701267,32.15166452634497
32.55061182381719,51.80934349449319,26.832151177843276
34.27675845649406,69.37974189718791,13.775386784875575
25.43417565386314,78.17711791407638,5.319730619206204
8.056909079383592,77.6854909647084,26.728371041627376
14.546456916310362,68.04019172847528,45.76826323368016
38.3583273526024,50.381695938156724,58.27172968977857
59.165103147506635,27.24599938866007,61.675979381776465
73.10408335839493,2.527755428944756,55.63525893213353
77.2703682029207,19.23922353481171,42.038818551151806
70.32211048697783,34.10289227915815,24.42417789248401
52.87310837020073,39.908094260148786,6.977842003789541
27.42416749240027,36.92842045766419,6.708298299200301
2.2214316577218,27.596958953773893,14.556669311035849
31.870170261353625,15.495676728335376,16.20126268030906
57.861905584242194,4.101047759091338,12.634506151505073
77.67964030563101,4.165805870784427,5.786864513252274
90.0976136433154,8.23621801602847,2.0280309757910113
94.9671691749838,8.068031987133345,8.7957455464419
92.84728563154728,4.048038875953424,12.875009018990255
84.71090167826691,3.473924695609437,12.90278470141699
71.84514584472774,14.267899889728115,8.160476275397475
55.85473065676809,27.914637710137864,0.9501747131588638
38.63016368426299,43.354199815916715,12.5889868114501
22.197209587751736,58.62231346397563,23.852410458340845
8.421720509490289,70.98819844949317,31.78965097742286
1.3650350398196323,77.51244347046637,34.25214411081223
6.695451409327267,75.82171791634863,30.31340328251215
8.124947332452344,64.79291964350527,20.422364265819652
7.142397116864007,44.90380827155559,6.422408770602875
5.832719051705662,18.1466340371165,8.80214828424475
6.3777231980918625,12.442320376227125,21.93469090797395
10.539835253650871,43.42877195700247,29.773033771059858
19.28001529790373,71.55197582314412,29.943783232747574
32.616370131634426,94.08041385651842,21.550478408857067
49.738325171439705,108.9236371974845,5.605282703621367
69.2411429087809,114.61509664852821,14.893505588765834
89.28185990124327,110.36286153869091,35.95378518428947
107.59768246682158,96.2622563802873,53.80105439401964
121.49823181081906,73.62298488786642,65.1901768427498
128.0404643046789,45.21117915155961,67.59357370080122
124.56727364037354,15.127633183043528,59.65643396407747
109.54966481359699,11.847847790704243,41.51160368527977
83.39703530910427,31.369706307953255,14.824417044027003
48.779938952174604,40.74344904790674,17.50768138033867
10.142869949428004,39.75696703017838,51.54859948837335
27.495537199477607,30.73375100999773,82.23526018119301
59.93875395480364,17.740199623754833,103.89539798187218
84.76797394806432,5.257407186635846,111.72066083099959
101.45927827122857,3.150257123924507,103.41058525991272
110.74403972159821,5.64275713510953,80.10120883575478
113.69702351126173,2.149133872483423,46.3011441330557
111.1238935000696,6.193177455688527,8.883572680131248
103.56592990988409,17.785423314694913,24.90748931229305
91.7742892245955,31.062919011818973,49.76763416863055
77.1476091302353,44.54598248078235,63.56336216724192
61.6764354530193,56.581690911637885,66.78053258225066
47.33120921466233,65.12389212878243,61.022187617561926
35.240034668079545,67.8749556415341,48.12863851236635
25.184762321200264,62.868952737699985,30.26439140738282
15.785660360252017,49.283959092082455,10.173080544340106
5.317297587476753,28.07567204178517,8.788032463928031
7.291781086105912,2.0676193229933078,22.980479409608236
21.816309780909624,24.608378006985653,29.275820513206824
36.77169587088799,47.527092007672316,26.082399299053773
50.066719629538724,63.03831267425499,14.211765367903922
59.88764917722209,69.00115812093868,3.070649313956933
65.36319341668846,65.0000891253841,21.116822895664576
66.73914693706293,52.1113831275875,35.466544626646886
65.08902101639598,32.43747781605553,43.005812821919356
61.78303975207919,8.625497562534036,42.41248461774508
57.974852374933775,16.48772736853147,34.107768443732276
54.294712322458835,40.110015383925024,19.70743440023757
50.769255363050554,59.691457903214136,1.2223090880618097
46.90173743941506,73.12903026972309,19.246349527669228
41.84975078505362,78.97435707190124,39.25758206314747
34.64410052699911,76.58167104372411,55.81057576287615
24.423540300856995,66.15222619248479,65.65031688590932
10.650032428208464,48.67138932708497,66.24823845516552
6.7025849911913244,25.75942767112837,56.7452877414241
26.986576247106427,0.49556163444809864,38.288243255283504
48.79482085647796,27.70633963381668,13.963483932573475
69.98836600894975,53.381264833043694,11.851319683461744
87.89863322281396,75.15213751311146,34.58206758634181
99.76265161628751,91.03468631723831,50.39723516369611
103.35717214977882,99.6653292350917,57.09661754995913
97.66372732123457,100.43372898445094,54.821881926294246
83.28222680584568,93.4777950515202,45.85816438836966
62.37868080665198,79.57265251983688,33.54305481903822
38.12593359435105,60.00450637188479,21.271028902833066
13.833411000476447,36.51169825526575,11.960914188213021
7.8519242511223695,11.288992807835937,7.202756001810512
25.37534413313355,13.034662918132149,6.5781589498242825
38.23440272429988,33.57371583894605,8.347401507343104
46.6167633471319,47.6141285227439,10.30756555464167
51.1147525224723,53.73199650787697,10.473842868099986
52.491904295814166,52.28157524846795,7.277460513455126
51.46232528518929,44.88982930391989,0.4384798004174406
48.664089889424595,33.988738900808386,12.91201421178789
44.7104747038923,22.14060850895977,29.29110744924332
40.19344834834734,11.39915143751747,47.585529608814994
35.57523291312149,2.932762549494816,64.89839257068208
31.04708928044607,2.9937098741500585,78.11383660235035
1.5187931721451564,12.436934463092767,5.518608453291995
7.065129720933535,1.5810434775218178,2.6271317111385035
13.635921398819143,12.591136689079377,0.5834223975181868
20.303755010864645,28.215070680729067,3.361890996006185
25.447638828540136,42.98251932791995,5.336028922753017
26.929160455221048,54.52092098811654,6.728567073188205
22.714557482006782,60.7877345003069,8.123664954840459
11.72373142870065,60.34085442075154,10.118310888767342
5.438375092410061,52.546552099737944,13.04366537930636
26.311576998319737,37.63351512609546,16.786255644991268
47.06765669064714,16.659683991725565,20.786196247677758
63.35589751775886,8.395842525013366,24.308026399800156
71.20022718344083,34.45815725647608,26.908422086058884
68.11014206811537,57.938342177037036,28.21782594426316
53.90152857862125,75.84474442534801,27.464582342772793
30.353751207576316,86.06055738141055,23.97766534760754
0.4539035070708327,87.33541450358834,17.625744501878987
32.15044074190989,79.45811554760667,8.712306886136457
63.673526796742266,63.12073952630481,1.9860941275768744
90.4419142556317,39.88891587448243,13.411052638456873
109.13818026376332,12.144177719255662,24.512136655454754
117.24942629106188,17.161987565829403,34.42810738663707
113.50330997447743,44.76635749491346,42.85729175448487
98.19049982440367,67.56200146547029,50.36121145677715
73.0843106154471,83.02662341816523,57.96396908056085
40.98057014039879,89.51282980600978,66.00747909951168
5.089480087433499,86.40363241585753,73.33518238107298
31.493895309433007,74.03231572656168,77.24064476893419
65.97438062783655,53.530879050862794,74.04125960690453
95.77478049374925,26.66310730907491,60.471722092090566
118.4341521260492,4.252099835876944,35.34176050571013
131.72640449358326,36.31325080442328,0.596856758793591
134.05209294022356,66.0786676433919,38.780846070698345
124.92565774299716,89.78847204905871,76.09308188605387
105.32137070066526,103.87771283925662,104.87794738119055
77.63904607714592,105.72715332798423,120.60194547244285
45.29715526304055,94.4053229198825,121.31387556070142
12.132561148923584,71.1147991326982,107.53690709361156
18.19706738585248,39.12273395300913,81.99090044413931
42.63874688157241,3.1355521564559745,49.023935858822675
59.02162157834132,31.694728855089053,13.724043444179735
66.25984249935614,60.76056563147064,18.866511965234537
64.50358299541332,80.68532270022122,44.24753482486502
55.21395307104337,89.6058807705639,59.113782991897814
41.02622160265508,87.12138024973248,62.24833922167041
25.310025198416586,74.12147031445667,54.96668918349199
11.485881227613584,52.669080955227344,40.86624346066623
2.280628381008093,25.951017422618822,25.015597680249773
0.8289865874895928,1.8546923992421573,12.54958778353735
2.214270182919295,26.027590233467457,7.15590931015909
10.313204656147885,42.150478498891744,10.080612918236646
21.749075125724477,47.15670404620441,19.75151331495858
34.71452918503399,40.20014284401704,32.32346936613362
47.635892839313016,22.956557849369418,43.214935529103634
59.20420774227108,0.8275121145839404,48.653035182264034
68.21742121438557,26.373516322892872,46.56092345419382
73.41424649807959,49.0699841688544,36.77648906134418
73.46943751328453,65.35985398061574,20.528301141461824
67.23451232243548,73.04876434576995,0.4022905692933911
54.118672398544064,71.13135821168434,24.340484058547332
34.43707635447235,59.461872219470806,49.93541731259345
9.569756892142765,38.57768606943793,75.83510984293638
18.170398707175295,9.826286802151014,100.22467601434292
45.907559529574364,24.34370138351288,120.39732769411775
70.68332996360238,60.265376697495846,132.7792059965981
89.90900624810995,93.34498395832844,133.8968571774404
101.67343293994615,118.78610063790245,121.46173299966784
104.89106997086037,132.5325508037127,94.9791994416363
99.32193383791694,132.06195203365382,56.11862893217504
85.51889056442653,116.78456811012998,8.533978765335537
64.7725700660538,88.02511108727097,42.76902820727805
39.06724249449577,48.73543470738476,92.04340030668074
11.014906567891302,3.148677948464393,133.68641202974695
16.299828145475484,43.52886058801829,163.1284394472253
39.637453211382486,85.47680321700693,177.06713370600343
56.081001513384535,116.84339725992655,173.60582671560405
63.57079935976381,132.63656697067913,152.93217538397695
61.319894700906296,129.80005712229462,117.87016069899191
49.92792797700264,108.13199705484595,73.4606805420893
31.125407714816596,70.66263639602678,25.85701780134368
7.2681056245210875,23.268965027248907,18.787175927964217
19.165515047683805,26.441077835519106,55.346209493614495
45.82532940600504,70.6353233856255,80.68434543615524
70.39598431221394,102.6882354914425,93.99446940169608
90.31382002741634,118.19721411115776,96.20330958943866
102.6296912695107,115.44226937671297,89.1562385383011
104.31230438334147,95.34293184632656,75.12216996255289
93.03254748414882,61.094788336427754,56.397144466748436
68.14475871869502,17.637811416485086,35.10898280103633
31.363312405202873,29.003483974585656,13.376977978002866
13.283367988529239,72.5021874559989,6.559370770909862
60.264102504724924,107.10852475337546,22.348143270700618
103.76394121729831,128.53578154898676,31.775819293941446
138.7731879216896,134.63945250698555,33.371394453948575
161.6666546908737,125.68516461730654,26.886775470443116
170.2627994981907,104.12188811085676,13.47407242117832
163.67985365043162,73.91474172433469,4.36479261586613
142.3721023744936,39.6455805435558,23.20049110953093
108.4461289147463,5.640057578733078,39.405190073328484
65.96286281220108,24.662015816808452,49.90442112821115
20.737625079109673,48.994265141885236,52.658813612557644
20.660208692573107,66.27068717614266,46.87357317073555
52.50820812801468,76.40745890761792,32.98349405448625
71.50463452323677,80.05231687281452,12.267495814423638
77.589410027403,78.31662503160672,13.42051921116167
73.59629783567308,72.53956903018096,41.34291940420935
63.934738780490186,64.08341005652844,67.48672236351062
52.983694412750204,54.17345718647579,86.72297630761726
43.93016431619488,43.81328918091076,93.85981090003605
38.4469347659486,33.79116288069657,85.11194550010758
37.051217495275715,24.763947865720258,59.52403117254492
39.62867142083653,17.379386718600617,20.28985858565571
45.69369746876817,12.329329069422647,25.40326354111403
54.279550376510045,10.244708854310543,68.53687378574556
63.708285245286895,11.436470004598126,100.68071398609521
71.6405100543748,15.567755225973569,115.72999039508892
75.5617822996457,21.439864274824583,111.0478758076883
73.51602781961999,27.054896098628845,87.64790307915663
64.71771789642153,30.0032766694093,49.578741179609175
49.70524509709904,28.08479717199461,3.0838658420218765
30.001442965439377,19.914622419663537,44.44266525468644
7.559817479436115,5.282689992250813,85.6537989284395
15.69013460690256,14.821324263112471,114.54264568039473
38.029778365362276,38.48565352244223,127.42018880615574
57.92591623689095,63.28023316333923,123.17447536449187
74.01821202512085,86.58431455387301,103.35434414095076
85.26564046464743,105.78223541816878,71.93183908089168
91.1967024893235,118.40446458621003,34.50654254486367
92.09444260312843,122.36916295863088,2.4559529434547915
88.92623294022174,116.42004995422177,32.91669791740251
82.98140725709808,100.65230330074154,53.20168439724593
75.41034114710376,76.85083711567543,62.69080229198593
66.88108438621887,48.35075729171641,62.861697547027056
57.46918162314959,19.30967254442725,56.5409946134012
46.78724463996192,6.396658280647974,47.612799572912486
34.247040236713744,26.182134096461915,39.939395894576265
19.349871012690226,39.22939448945314,36.078626618714964
1.9714895366320588,46.27541669060167,36.8147380366622
17.375004377161222,48.87020978118208,40.99901601637314
37.36190421106237,48.563627519963696,45.60963223387364
55.89023066191801,46.45039990299736,46.81749026747116
70.45565557002907,43.21315033851829,42.13011347795452
79.06260060130266,39.28610224292534,31.66294974344935
80.56643278490918,35.023023790233815,17.176271604586933
74.60349110165394,30.855649574806115,0.8640090290838928
61.941223126949104,27.21386549883216,15.177291593289459
44.50131938891685,24.31510744570579,29.39227618915832
24.990101913000903,22.005396636218073,40.76814602807745
6.262575387483353,19.810688847810425,48.7205866514972
9.315455099856639,17.19914666520912,53.05872386577233
13.239897338852625,0.781142708672582,22.818837866125847
9.482467681869991,6.877646659080115,17.070946008103526
2.9578972878701553,15.589835024243385,6.876657460570545
5.790786529225485,25.678510138117097,6.715966982387173
16.019082678881723,34.779067846670216,22.10909799374298
26.779993125472377,40.0274361597113,37.38151323567748
36.826530956304495,39.050040282014805,50.56367188569215
44.59639643322066,30.844748193359795,59.90545176347074
48.410833515196636,16.195224550708563,64.09005254051401
46.89686462330221,2.6476125239781396,62.38402763175803
39.422422856226156,22.793248180661674,54.72933725283015
26.3439685104454,41.52605370130096,41.87986454119892
9.060073110770295,56.78004563310478,25.497683489622904
10.06311769296155,67.43375096965146,7.749249056962107
28.154619618299986,73.13714306588412,9.579774444881068
42.70808065765366,73.4876927587357,25.73194036999984
52.1684425386613,67.79224670064954,40.90153799219767
56.03273682335175,55.71962314493402,55.46270831154511
54.731399015326446,38.030828440798054,69.13737285037764
49.34793621806467,17.07135666611713,80.78466224484794
41.36529423810307,3.574309021612237,88.65605930816086
32.47746760201758,20.275152085845118,90.88312355866032
24.343028530408674,30.67776801328405,85.99127727444123
18.284025728149786,34.59994333077896,73.20469604965454
14.979536229145218,33.90754021293955,52.86164832620223
14.304185331328654,31.466488059505004,26.649343848870497
15.378805625672259,29.7788411920463,2.752645978078141
16.80590532180903,29.964075592921674,32.04614691384095
16.993118233009604,31.632653880926306,57.554753410135106
14.409891050637484,33.57505307219304,75.83395159356314
7.793963067116721,34.784053482583204,84.64554456705461
3.606765077280528,35.1880700039475,83.49520828299282
19.715642299166472,35.65391292794725,73.58136503186967
39.29809852093322,37.32705678290699,57.65805310791281
59.86010145639051,40.74381992501291,39.29163723698857
77.98097440721246,45.27414053944308,21.556656331584687
90.08170689727069,49.2270271087866,6.197149484135912
93.39664203996692,50.55777250115227,6.496737845568636
86.75109466523419,47.79182900439457,16.980266545645254
70.80895847863358,40.65000899996341,25.3921537376884
47.760771820068804,30.072836564571055,31.30989008155043
20.6985566464838,17.684965473255215,34.30139677753381
6.997413784652858,5.007579852123305,34.302020954224595
32.02494700877735,7.154929635943087,31.344900446804488
51.327090768144,18.838937000051615,25.244405256812133
62.318746600582756,30.542007500614424,15.732993760021214
63.32939715769629,42.606058589735305,2.7584484603704564
54.182220612331896,54.713750224795426,13.190253155187838
36.61084629630896,65.79274379838307,30.70596962238586
14.143125024520664,74.40215134078565,47.11773043133792
8.681361466050834,79.37636481247507,58.72723567120524
27.497505949141814,80.3674381191251,62.061260737755674
39.21157891198293,77.98601674073142,55.242622025323236
42.552295792471654,73.46578594592702,38.760599535276064
37.90960263780664,68.03281301361146,15.645291866321026
26.71509433303524,62.31032697102602,9.236584413345883
10.799485622643576,56.08403766952011,30.638149539190827
7.955066280450099,48.536694878627976,44.714970292523326
27.60081007391548,38.773384206466126,50.32782304646154
45.991059116591636,26.32624626534982,48.75024022376371
60.84955530811941,11.391245597792485,42.405856673886774
70.15996542304059,5.2824576692575675,34.00323929966701
72.72050458850292,22.712933944540655,25.964310009938078
68.52315508232712,39.955597388174,19.80545372423256
58.689100674821034,56.16564005834397,15.886541560532876
44.96437829540219,70.47900691609435,13.732908942730628
29.053604031150442,81.8718870631116,12.395761896790228
12.161149878461654,89.18995119600113,10.674320070662997
5.029747386587808,91.41708697695185,7.561752156308662
21.97514355794887,88.06459678447179,2.5952550105171084
37.78043667213127,79.4547955300719,3.9675458345152506
50.94784912056535,66.7325113277379,10.980488742337041
59.54885367088162,51.592229193086396,16.84711192382365
61.76785743778408,35.853472126015994,20.257020190980537
56.569446776541554,21.09139118316632,20.49442518944862
44.21313911093937,8.441221949210865,17.596904167947333
26.412713182119795,1.453382700472794,12.43084880579322
6.085473492379928,8.44559853922986,6.37679145170583
13.2291148202163,12.921952052216374,0.7734928852719778
28.13040308591625,15.828862212441996,3.3705276208965342
36.09405291436273,18.56996830490095,5.343965109361498
36.02302384602572,22.68472164902515,4.6680311005454085
28.47654106047543,29.329641177591302,1.2176484625190827
15.492739495312318,38.76308003371527,4.342019057573279
0.061742636776599504,50.093876989344224,10.438397762304508
14.600077970019107,61.44602908799622,15.09623053196179
25.750991359821906,70.47810534269686,16.47545223799626
31.602796278383714,75.01891931537673,13.409914470892845
31.513125416067677,73.5742119156847,6.014876127349582
25.941815038759614,65.53963255321676,3.849981851823439
16.281425022520764,51.1599117576366,12.933705244114199
4.621093125349504,31.422447833506784,18.213960756861326
6.556511926687988,7.994435867504159,18.250931187761925
14.791559909084084,16.79272923677289,13.299516201221847
18.20638080352355,40.04594372453735,4.927169773316389
16.071917164760077,58.670045078309315,4.803605513168065
9.145614682754266,69.97711942701528,14.31637502963073
0.44784632648161865,72.36922748762943,22.835767965829923
9.879577428119445,65.812764872578,30.03456452467428
16.615441477973103,51.87386176353185,35.50114268887093
19.34396078325069,33.30329061453162,38.441218451290915
18.401599060798812,13.357752958033855,37.716302681435096
15.483000040187536,4.86186898984372,32.303879875935536
12.776620097396508,18.84247475556913,22.08925093420281
11.924903379340302,26.834173786576464,8.29916350510245
13.298277663003757,27.91167602972046,6.780666160504328
15.877208570495895,22.06628017710332,20.674968443917386
17.729184444193965,10.329803417540585,31.815714241006336
16.8137877661331,5.170191246906011,40.089829928147616
11.739022171830177,21.405013853241343,46.45805767842365
2.2164715896055958,35.017089097723144,51.90876902286466
10.875617416970405,43.12914761265316,56.41570277082755
25.76480464294281,44.09932959833858,58.81514697249875
40.241656851011925,37.9412466001555,57.797590940295386
52.17383966564822,26.23105902028576,52.93583768360352
59.974114444589915,11.56391015351005,44.656461796277284
62.92211090509306,3.200732151518538,33.59800443157032
61.2379309203165,15.626485265056964,20.15875732420308
55.859348646204644,24.139435660910426,4.376020505267743
47.979051144141835,28.198076416482806,13.636796770863489
38.521253955267994,28.250249576171555,33.11544351992935
27.832155321924347,25.564706058245264,52.58228018026236
15.751150798133988,21.965724966263323,69.9859124714937
2.027752416841778,19.432203927635427,82.91513008615726
13.136450524816366,19.584273933031383,89.1489562836063
28.77600150385539,23.18075813220345,87.54211808398944
43.29073910114871,29.82371128475502,78.77547903044265
54.95474001857784,38.02855414916981,65.058828298135
62.541896935229225,45.677653564864386,49.04396090931297
65.70938223018464,50.708628954025606,32.905288845481365
64.95406475641344,51.7362331555364,17.566888116189045
61.24491413257393,48.33966770972508,2.6393030460273406
55.597783208208234,40.94879116958016,12.4373905951321
48.84620560491571,30.45618801380945,27.499448269317657
41.67690779326158,17.80435996222564,41.84136001142179
34.765790561565304,3.7601160680374663,54.658150427586925
28.752569961744516,11.07226449372836,65.40530138228566
23.94099911806069,26.114568118750924,73.8983870027262
19.870261718274204,40.7312192609476,79.79381475565906
15.091584357595238,54.26863233628511,82.25400248920711
7.462772203224458,66.16643328746653,80.44678628999019
5.039506748723618,76.00485967361222,73.81106097427813
23.15283371881182,83.50448008747172,62.31530579032582
45.816691803044066,88.36722151526571,46.585052621327634
70.41223772143655,90.09244790968624,27.724974634086152
93.273904205835,88.06859279369142,7.472044824294928
110.680371304981,81.85643089075735,11.923219715981945
119.91345622936105,71.5482465909818,28.185672306953137
119.9478221772059,58.019349533130026,39.6011430027167
111.53428837618463,42.89842145284743,45.41046280046029
14.775634573932926,8.94355129070053,13.090507729152831
15.661256685767967,5.539175201349861,19.004431189879078
13.599605222061303,0.3458414329864754,22.190671287927636
8.274714468733617,9.031874205398447,21.542613442613813
0.21893986500083742,20.151863132211357,16.755481298761488
9.353783900483702,32.35563144227378,8.282489322596183
18.950281311196154,43.408959976229966,2.9246590848407603
27.224894966716768,50.68238113296282,15.799540666035359
33.25538266298023,51.93288197992071,29.138247474613213
36.563626019955876,45.99100658906423,41.43240552979399
36.9659929881565,33.11723862182511,50.8677761858411
34.43625500444408,15.02534195159127,55.54775761222192
29.087717237105476,5.442444594525754,53.61640736132054
21.22515020063795,25.29547043772187,43.79029433636186
11.50777162021487,42.405917389760454,26.31579697443766
1.1647099356781565,55.48504067870877,3.0681891122210274
8.178303815581694,63.76366060992093,22.865926119801138
15.072043048868448,66.90356143088977,47.61643174101759
18.807722608147778,64.88004356665162,67.28315480448742
19.75917822606016,58.19160988377706,78.76306528545503
19.26865457627857,48.061902075522745,80.41818476659829
19.08699683053414,36.31404002508901,72.2318887847523
20.69089879634956,25.017230493195992,55.578707826367534
24.755447533729257,15.848333793122821,32.98123474132267
31.00938325301311,9.572665575739762,7.743807182906147
38.463815135882264,5.880044439175556,16.499845292936577
45.80773246823231,3.6058249239140454,36.39599616768594
51.73251707849609,1.268311289037945,49.55424185400757
55.02881243240808,2.428009803350303,55.02971334921996
54.516695750450474,8.278185364410804,53.3230208796391
48.975073751021355,16.532823470018087,45.83178074711767
37.26676769586728,27.053422451989462,34.476144765702756
18.744662006038492,39.44091378158328,21.70158316982504
6.190019085279218,53.06086063411396,10.071430812117391
35.624367989589174,66.97856155251806,1.4514399315474626
66.0802443622776,79.91167574763841,3.276676402485735
93.03678732568683,90.29933613544799,4.035733448367589
111.91784669439035,96.5039776060582,1.55487956410602
119.25631500476725,97.09665307308497,2.7093414782364653
113.61000333008059,91.09901023455207,7.044689843828214
95.8726929571432,78.12808549647296,10.214368506819131
68.90679500102188,58.470337317302665,11.609408076673413
36.69515226062827,33.11522579576135,10.662573206767116
3.394100240739558,3.7682666098252082,6.815650681781953
27.359874080307918,27.20317411247835,0.20356112433268156
52.764010491261196,56.95997892168985,10.362737151339086
70.89560339270717,82.55498523006162,22.863742658596152
80.71643439767232,101.43081784273222,35.69234458016347
82.18574143064781,111.88796167830021,46.1002515581032
76.42553768055718,113.3388043788506,51.67828657794182
65.69419190973127,106.26806093819266,51.13148499433986
52.95308758343757,91.95715991232962,44.64832864318172
41.04383299373399,72.13438718902098,33.99458721511453
31.766456299246904,48.740010221370916,21.85902780773014
25.329610121128596,23.88620637775699,10.607434154341771
20.510043204345756,0.0848090688316751,1.4399495038917096
15.469200536843166,20.630027283298915,5.3615649768968305
8.807592439602013,35.27345959308557,9.77388541785887
0.2843745110567395,42.11105144074998,11.975973981726389
9.162447475417974,40.3798943209687,12.388082611297369
18.049811746240188,30.82562895681489,11.747725139906096
25.21425496988592,15.653116767967289,11.539469466454854
30.34764328870547,1.9561078570206547,13.705543587974773
33.92692952577124,18.577469041611483,19.81097076114023
36.682194238614,31.24082271184226,30.423606947336616
39.00529169298958,37.86049666583953,44.365515898532685
40.725034036314135,37.33931461635887,58.52726727988301
41.37170492106938,29.458268651305307,68.91051023083935
40.65985886634167,14.761366709833553,72.2789820197099
38.79292685030312,5.441606567232103,67.49536973807028
36.328811841345065,29.00042118682077,55.773055649149924
33.665878463952815,52.928674775479344,39.996184282868455
30.542290468051856,73.66967189352124,23.578036544505704
25.971530167630927,87.67542929651019,9.02144406669769
18.74939399492117,92.15786884454835,3.0970742530304496
8.279095136035366,85.7570100054365,13.924018543026271
4.797487939876125,68.87009672797663,25.210553740903922
18.594696576236462,43.55556875846333,38.30057742779111
30.654816406364517,13.086012754412124,53.67907756050559
38.95966238359193,18.670164862508106,70.63931836770477
42.75947877444861,47.79720493991786,86.97339143006211
42.78209131157527,70.71004617683425,99.45641561363809
40.75283599550221,84.4189887567235,105.00188572084843
38.52542922563663,86.79547242327175,101.40867023532319
37.261454905298315,76.93764179882126,87.77546273382815
37.023735149918785,55.590839827807955,64.88167296439153
36.87525194230382,25.443322932199894,35.10260303130013
35.31523045633548,8.947965537981805,2.111747519245238
30.816325884055793,41.78026651642004,29.515037920624483
22.264799871622174,67.13367059841346,55.21168101545408
9.22811332220077,80.33545181702276,71.5773988013048
7.904081637836859,79.13628931665112,77.14674375523133
27.855357887516558,64.29139931915563,72.36862807171411
48.4633328167267,39.32734485416537,59.27546094059732
66.78099552788284,9.57938991541455,41.365361904961034
79.37341716125212,19.136700211373235,22.9298902828282
82.88414541577073,41.781197520711515,7.908823668577458
74.84079471456899,54.91963237776505,0.628072683947762
54.53721786835918,57.004922071097006,1.026809307836542
23.713223902528675,48.25861350016774,5.970610232671362
13.275112414474371,30.378354259812713,17.44187800238868
50.051823253829596,6.243021784280781,29.591160347128277
79.61129480865239,20.362446411360647,38.6508217605777
96.13138216521405,45.126043834456524,41.719069270288166
96.58834261638901,63.81639098798963,37.639612577912466
81.55979093507895,73.10210425654212,27.225433221019074
54.90293308999472,71.33304603835644,12.853666783615585
22.47092598042084,58.90825314202166,2.530868221070034
9.581253244919624,38.00353040300279,16.408850352799657
36.204721576942966,11.732753984140954,27.124501773403473
54.15706220575444,16.885236182119627,34.073448847258966
62.011192774124154,45.62331065406439,37.36845293560568
59.83266185239002,73.0537933521423,37.23248362291343
48.97405924170649,97.95735740307956,33.969199195530294
32.08007599244123,118.58928840006014,28.10871570774522
13.047168673896882,132.36021913300328,20.43458180099345
3.4253908994631286,136.26230714687978,12.080383746410439
12.88101700852753,127.89166296945776,4.312763059440365
12.4784158421632,106.53378258931957,1.8929857757323785
2.112972784175488,73.72688954270727,5.979599186220781
15.331037035474564,32.994977449257,7.743324496196309
34.839347716261365,11.084189830831098,7.225876620308795
50.84500148170187,53.961939288899885,4.47384183263837
58.813798197933586,91.81923503590143,0.6958381719634166
56.18941103607468,121.66703337350863,8.468442977161224
42.49422092447866,141.09162376219356,18.208703873262884
18.876913312118184,148.12023307694432,27.962194749863677
12.42405716017768,141.52627506787886,35.03667993139647
48.31845293103914,121.51343908368388,36.888716736946115
84.84764806174972,90.34383088978318,31.7628266115107
117.28875045453977,52.36368781675527,19.419170818785204
140.6815478341959,13.185748927138377,1.4475433267517583
150.8133027649418,21.696135976003653,19.264572759513754
145.3013695811674,48.23786202351655,39.24092139017234
124.25447303079744,64.52834646960791,54.90617233821883
90.21091113387905,70.6123073266914,63.13838708318534
47.41108199707138,67.72879427375905,61.95530077550592
0.7908857594461886,57.533116414103304,50.949614843505316
44.85897699362918,41.7773037945788,31.354920442555375
85.34217354858995,22.50971333552232,6.120180512770862
117.2086534204397,2.4240102878912575,20.105002240100045
137.87289924930428,15.146966687990384,41.83390064195283
146.31105046212411,27.420131339375985,54.77184800686892
143.27508883489295,32.89140599133824,56.75422130742459
130.79881004256202,31.24469221869321,47.79904159545689
111.86954055363016,23.569130207742226,30.23303261895233
89.8413827178183,12.094321690851368,7.788288057167331
67.72014313150804,0.4881551841121868,15.370171659717291
47.60428135367993,11.801187316273552,35.40608293336099
30.539822024935145,20.307725480159153,49.64499051483448
18.471408688592298,0.9823542048780348,0.2952085527470672
17.27795605722458,1.9710191906629428,0.2385240740613734
11.707925153969386,2.298010956994107,0.21660159437414242
1.4727916026557448,2.97027175366928,0.665071996967278
12.654835288298816,5.2359636305567046,2.237031633222295
28.986800523614242,9.826332777286714,5.581338294040976
45.30263617958949,16.346184536888146,10.844587817124344
59.250556002130516,23.079118852828774,17.26264987182496
68.63549234097364,27.40933955134949,23.30630413868173
71.56619013614139,26.648676894687732,27.142119494884213
66.56637970626208,19.020900935319936,27.11844055228797
52.791506762655125,4.566188305902994,22.27576509041031
30.3763521038707,14.46109680064817,12.625697497926476
0.678447220020849,34.42272118593479,1.2509493218094212
33.68736666093352,51.7121836069795,18.516130101749088
68.90166066888821,63.301605974083344,37.558947923994396
100.31740507492478,66.97510904617721,55.883212126400615
123.27503846690412,61.672202956680394,70.59944747671975
134.0472746160027,47.523824671472845,78.78350298419836
130.6791332213655,25.976069867900396,78.13714223840417
113.44258724997098,0.23157088129090037,67.73394905105472
84.74697930908377,27.472181551699794,48.451236609612685
48.58398195305712,51.83129962551539,23.00730878903596
9.632035573423872,69.96403993648465,4.713225823126972
27.689530140467625,79.83986534077451,30.69524282453994
59.943165461319126,81.11271061645522,51.785132173453945
85.0124080965552,75.01804767656346,66.21208872659106
101.99793838116784,63.7872302628957,73.35604602626711
110.83165688422996,49.885643120015146,73.49400389530217
111.86593054437078,35.28229965995328,67.70252749420686
105.67318959930091,20.996926092977628,57.487701126893384
93.15707610700103,7.0619224055668015,44.44815083444671
75.80405061679397,7.176301614241311,30.16223990458252
55.770099226071004,22.513804297201684,16.087065751475073
35.593768183623126,39.28307555942117,3.388390910027673
17.549333676885023,56.861657743938764,7.07892825061448
2.946509585477696,73.46122342590346,14.544821144251792
8.200514934161822,86.32693559817547,18.374987818971597
16.904842933932166,92.3746490095662,18.360639816195498
24.45063455186441,89.14804701841001,14.726065783007291
31.58687558709237,75.79668409616946,8.154770768918981
38.169191866458846,53.69047099073008,0.05426192168376206
43.468733066412355,26.347750581696594,8.21618126983477
46.92877204680115,1.3778384533028272,14.722016414437944
48.83065872071362,24.60467952117501,18.12348111372114
50.37997910109153,39.779065424157665,17.23385634146299
53.07571830477656,45.560017638165014,11.779317162558199
57.715633740754164,42.924229888052466,2.533477644494006
63.65621068869505,34.53796192613688,9.282111988188129
68.77824947417628,23.73666545446871,21.975047215349054
70.23290825463924,13.574577060111586,33.27235015195611
65.58030534790267,6.269565706578488,41.079231949771845
53.71602500306711,3.0955292604842692,44.09810421116972
35.182128107537416,4.526078457362543,41.845261008245586
11.827672236287583,10.375525300694678,34.86001147159506
13.842801287098347,19.803521839059332,24.9398755074905
39.215876966083606,31.246621742789138,14.587719527090139
61.819033218896735,42.49499882676866,6.262473715138833
79.32816886863782,51.04934732902797,2.125320115737169
89.59019489370257,54.70942657983362,3.494830095967154
90.90895752525924,52.178590267714874,10.150482807206428
82.57468146965442,43.37212428015131,20.611473455827195
65.35602360004978,29.285781801775002,32.81540483658611
41.632013711502324,11.53886369211107,44.25272169050805
14.999764323418184,8.14099755394103,52.06340740906012
10.546567022798884,28.195763684030958,53.621830031296675
31.524173183863233,47.176723323055704,47.15613341023504
45.602129640054486,63.500581810291145,32.122228264595506
51.81318447814435,75.30861684348827,9.839993742268579
50.38821974883171,80.66632067661487,16.234751068732457
42.419027863370324,78.09110520658861,41.76311917177904
29.550685124905733,67.17898644404836,63.192789119863285
13.784831785116216,49.007920662412936,78.56186522728564
2.650506562306324,26.08620630161057,87.61344146927523
17.49046121532164,1.8828789217055621,91.20586173882536
28.74754296540187,19.859862864980418,90.469469594268
35.07639280375486,35.81047049051639,86.41754615871598
36.05768212191177,43.598825035042665,79.85716372156774
32.281050994472466,42.220831422249645,71.30719074872569
25.143947489999597,32.309606392029664,61.01238793044632
16.414955695150944,16.24822127034039,49.19023381133931
7.748045372344861,2.015053392153657,35.98980240074871
0.335792608041179,17.59112805521933,21.15918204308974
5.176072538928795,25.68817217938841,4.012200727575864
8.524784740040952,22.83637485692439,16.364624331356413
9.573735453136816,7.904933015504817,40.396701139556406
8.14626860982346,17.463436467459747,66.97782031741754
4.083696093640762,49.16616342337763,92.97565231512738
2.490811608402183,81.57263287751147,113.61028332013848
10.876047443346437,108.69385132829487,123.76809840874208
19.66877863075682,125.24244142683297,119.81008935139825
26.970124085433437,127.41823652342467,101.18121239011364
30.919071616284555,113.38214716038304,70.8327535656651
30.338842498452138,83.49533403524816,33.981872828626884
25.184197407485872,40.3730274380168,3.4820535937376405
16.570018963579855,11.318294817915497,36.17257551639983
6.374222228380039,65.40909382119965,60.19991332640885
3.414555693641511,115.1225257772539,73.6305456372872
11.314655811169137,154.16347392597785,76.10100659250051
16.675198551274725,177.73835667108239,68.10354139784596
19.65428428094197,183.24179299269608,50.984832331870656
20.967403650431137,170.48367186960925,27.514114771432556
21.572989187106938,141.52943562948465,1.9521705714163793
22.421281838103564,100.28689623350272,20.649950028259994
24.293323465053803,51.935999947801704,35.70863913203038
27.681905464513452,2.247303334814115,40.48542656939278
32.67026824145675,43.182411396889606,35.134896733289885
38.848258405528455,79.70746321094818,22.883767160097413
45.34973366755484,104.28934289903253,8.98133129860702
51.044512529687246,115.83565591692461,1.1875210472435158
54.834714631620045,115.07905207760233,4.241205874734411
55.935205768618616,104.0608291739595,0.08806657908462875
54.017758948521355,85.48324461434306,8.4117630161607
49.169566411919604,62.20745046669154,16.676284160164897
41.732870954708915,37.01149195435371,19.925783605884092
32.15693372271378,12.519159325930824,15.03064928244332
20.921124035717078,8.909164806433955,1.7456311147507986
8.519688886213842,25.460208333993094,17.81217778324565
4.53592554433964,36.24687228861028,40.40484117318665
17.778470861785276,41.531650221246274,62.17553159439579
30.888735912194647,42.545615584915616,78.93987388715982
43.70404897533936,40.86294024392314,86.85662099045348
56.058015853247205,37.614332277169964,83.1363955070031
67.49352755730378,32.99867883019471,66.34023335075184
76.99033409979859,26.396050204102565,36.51754600956496
82.94108020823184,17.032535063177487,4.163318906642816
83.52453008859334,4.816482559525375,50.9162280768202
77.36027455655375,9.168141050649687,96.5822521400366
64.15716498834928,22.80799453029306,132.55460352064446
45.049962669153885,33.63213198843145,150.80480866453007
22.439618905279684,39.61261838183978,146.2925739168989
0.5878554211143785,39.66737465062691,118.32702156667875
21.005258223185173,33.685636723084485,71.00861575766378
36.468797800561696,22.254457025755,12.847220267879718
45.630695025387155,6.4362056309893845,45.48497699174813
48.13262683286204,12.179815675452708,94.45486508148468
44.40761483750198,31.245051143055996,127.49862647252719
35.4183998538658,47.5848613515444,141.2190977667755
22.423026109551785,57.63357183776478,135.31790113399802
6.819471467404698,58.402727089092735,112.15116199646675
9.930844585385868,48.6172891106322,75.74930169274643
26.304084261020915,29.452681988383663,31.05062977613298
40.57464933560023,3.9281643177665377,16.376197305799096
51.260470093958716,24.114883560400663,60.54951978775697
57.749816491346735,50.68532588397841,95.75610880850029
60.25806802918279,72.45377042053458,117.51101274728677
59.53892031608414,87.25190700822493,123.58692217401543
56.52601717172533,94.15396102025612,114.91365686521179
52.04626815301999,93.28037725056407,95.34097450862413
46.68466973151281,85.54877076092222,70.28525897901487
21.151676448356724,13.066389138777602,15.260634014816835
29.764464173898745,4.58074197101926,21.78199048603048
37.78984742445052,7.028218626098768,23.923308201620966
43.723358143858164,20.42517173535518,19.23748069334579
45.21394178651525,33.86485158318811,7.300140331734313
39.406627837066125,45.49950820991424,9.642911756153316
23.94540730964264,53.71367239916943,27.41673259103834
1.7960753875813378,57.3193683393803,41.283964246649404
35.78549405904727,55.620020244962404,47.279394866189
73.35977230077292,48.318447357329774,43.70811308354487
108.20382387671413,35.420484393254625,31.74387721505838
133.73961016332322,17.40119519312073,14.100816630075313
144.53028111304167,4.362868936138126,6.548564111006124
137.8871753525071,27.670671112604104,27.618225131405804
114.6782591218382,50.148193083288106,46.24814806906101
78.21952123622481,69.48452495673246,59.53318505924352
33.002909400939444,83.56737784034686,64.62966793943713
15.812723164991802,90.83704077481713,59.252038677959
62.81439894179729,90.39655856250134,42.901285609681324
102.47873740963044,82.08439749089614,17.588360064268166
129.6941703538873,66.41835246836159,12.3911782378146
140.91102605353782,44.39908762359292,41.383797008431436
135.247376638774,17.49614044771922,63.82911146227429
115.12511052162793,12.270928322163803,75.90150778145646
85.77951950408456,42.14079919495711,76.67892456868718
53.74927196944278,68.55128808878638,67.96595362421311
25.014523444164702,87.540650075896,53.04896811371366
3.496733039231153,95.60013254223759,35.36175786389604
9.39430005124101,90.79239310516581,17.25540575738671
14.256727812894487,73.62180397386747,0.5048997624309725
12.71770045365729,47.19869437872553,17.84095275681894
6.5604614772900725,16.522932949048545,34.38044420600786
2.6073898018287336,12.900851098985804,49.22810436096346
13.214447989813284,36.52447694851656,60.90169408024154
23.45547603334946,51.72104115931332,67.78268163240064
31.261786736477095,57.90457307279679,68.75704923412054
34.633772524745254,55.92791446313309,63.31747659822431
32.152283222022106,47.24092729211218,51.79191811892568
23.392508083549412,33.29283273844712,35.730309232818975
9.047245066276112,15.487862128161082,17.852247707112287
9.266276700969762,4.413927858002743,1.4240240257553824
29.386475079699824,23.889888021559212,10.715652125253136
48.982496826841235,39.68933129655469,16.97915958503166
65.84556388029385,48.50391352035838,17.500666904818047
78.12400071796186,48.04367158272195,14.060735551561452
84.52916698357362,38.00199946617548,9.329413900695132
84.50128743994243,20.39205502246548,5.743727982231147
78.2707781664848,0.9772793726377647,4.687122309920546
66.77037460749729,21.671742698945906,6.455057766140636
51.43442715842195,37.91853763361839,10.65623153791166
33.99412212589287,47.42343849257421,16.658075125211667
16.356138584518863,49.42901594677037,23.772298032885992
0.544786256307745,44.192295337967664,31.037491867586375
11.379826719895535,32.33523501253037,37.114267372299615
17.553888904024742,14.565266395512554,40.53194355009071
16.758000543981144,8.027981563867057,40.174963206175605
8.945925372078054,33.357725192838245,35.86627871209265
4.40946142482682,57.91672074042628,28.596792867448066
20.398463966379285,77.04718395314649,20.200973741831287
35.26399203760208,86.05488047366445,12.763353358898113
45.31652379830982,81.79491361646241,7.973374763997734
47.84006021662272,64.0151631202152,6.681913035349561
41.665065209531946,35.773198864982774,8.664517265100839
27.253498741961604,2.6692760896011465,12.381007182613075
6.364198476244519,28.819010354152983,15.406063418058881
18.483744798556074,53.18988231117183,15.669424291112382
44.499621614906,67.19500001058039,12.251647935099205
68.92971517885842,70.14296695066781,5.3846764818606525
89.22147729155571,63.32269591537402,3.8396625934981166
103.2000316454412,49.06525727050851,13.978607696830606
109.35518195536238,29.998587357163423,23.8079816630434
107.18069547212856,8.74267094545789,32.56952165847927
97.44427992328643,12.025367483942109,39.84246505242316
82.17243101479701,29.49211210679997,45.52693574377558
64.199934097901,40.9452752658179,50.05142315397687
46.39862680109736,44.33243088044635,54.23916605460793
30.82804995797226,38.89761760407969,58.71367704025115
18.148078725131796,25.523561775670174,63.32463227262257
7.586515049114996,6.522320668919211,66.87183459702999
2.5360763404477678,15.052411965353551,67.04904034671678
13.95470766697781,36.238427791316106,61.30406335767492
27.65050821466314,54.73697732176895,48.573208182942246
43.41460108301499,69.00852914429966,29.894780360035217
59.92316331249687,77.99191704960566,7.71386410634031
75.2285214628008,80.75978441901229,14.85487487395122
87.36294478385847,76.42069282806948,34.7767591404312
94.77761235784408,64.37031874280052,49.91791855577317
96.50219241535187,44.75570343345035,59.565513485316195
92.09035176451384,18.8597974541733,64.07186152803664
81.52824889087866,10.833308148066372,64.1260437827679
65.22000456021856,40.95380739677207,60.61829798318775
44.06705794376122,67.84466263868335,54.58375144650465
19.547261920961926,88.20600183475386,47.15519266459548
6.338128057031851,99.59760599724093,39.640107872376205
31.273836259232127,100.75787458398311,33.26043566546099
52.94354108853045,91.758790088783,28.898813085274387
69.34634883607666,74.03308205871762,26.851842947944146
79.01564696528226,50.255305837032665,26.35004829941234
81.14385529479942,24.013323819859448,25.33503453693331
75.67600740193987,0.7603325958133914,21.273095972144972
63.380451871784985,20.546241820240915,12.74540048482719
45.84414754411963,32.98226385020015,0.26116902070567527
25.32581230939602,37.309092351597265,14.046807414842474
4.4182728648588006,34.35480014965374,27.280670006616706
14.426513031984681,26.089616530716047,36.8131784829659
29.33553224764872,14.948718788823406,41.093964823247894
39.25202625502575,3.221575969620524,40.12282632017449
43.90398548551659,7.255332301695555,34.980581794388584
43.55090026951173,15.063206834940738,26.88567645965674
38.67666744876802,18.9960233908065,17.047212810587165
29.8122805062876,17.94250555690644,6.828535641843752
17.545716214898686,11.041267573729638,2.1760662802845414
2.6630100376916586,1.8702095267366183,8.259947798798109
13.702772479804269,19.732289963492352,10.008068970384429
30.042047477336897,40.01924414465131,6.514647645863821
44.567899646868,59.02998057378453,2.1111881886287214
55.40615774905539,72.73411204699899,14.287856368572577
60.83642078494266,77.92676200829882,27.482712771501628
59.51132157408305,73.25011030213805,38.900264692499995
50.66227566252283,59.62462063044903,45.98822240818569
34.306784294591985,39.880198856025366,47.205161955352196
11.380166181990425,17.755435438947448,42.47234750907737
16.266136631710186,3.312622544903386,32.66895579341293
46.02959219000513,21.106582891401718,18.904983523282283
74.86704040115403,34.908431203659234,2.3915757664885087
99.62094708394889,45.14818500144735,15.614125583750395
117.25722517193854,52.7350488192427,33.991447945105854
125.06061165549677,58.48241200667222,51.60815280334217
120.90416744082651,62.869560114870445,66.92496363988697
103.67451274076778,66.12614624256997,77.71612933489088
73.83091969009233,68.42782117096058,81.30672029051435
33.85977701025987,69.90253591199266,75.41250012139676
11.737839325295745,70.36333202671918,59.211164332673995
57.10307673324505,68.9912609272429,34.05673708344953
96.20799951421206,64.28939284476778,3.4766952622053897
124.15735269519068,54.53652082557741,27.50206779925069
138.05116757922877,38.666760149644816,53.664788346820565
137.1377777163183,17.16859067580199,70.97840738699317
122.37047724894285,7.5342843960537165,77.20111306488728
95.7812676798244,31.570420001074528,71.70639605909511
60.148328733002835,50.85205509315173,55.23701519241527
19.070382624010215,62.506612685067,30.12944364481319
23.059951264600226,65.49136180005715,0.3083018269020015
61.615960197900925,60.71837268768213,32.322703295987786
92.45749235942003,50.80030462664086,61.60545056934905
112.60796303229607,38.999375820547044,83.81704101286725
120.88110866154976,28.124062395608426,95.38628623378455
118.13166738076677,19.81542546577161,94.57655409569861
106.94177032192722,14.42619079699992,82.31057689566462
90.77696456779715,11.398255479038024,62.10305958631756
14.248183983391147,7.167409836323374,0.9326496457894524
10.169705693061198,2.145215824017667,7.440179100408189
2.976319806426741,5.5235907213060464,15.384827162178471
6.833419532019807,14.231144799667652,23.740878832174957
18.38834296710672,21.804748452607747,30.7437033783262
30.367749738352384,26.299161224952027,34.40148635263692
40.96392895012738,26.662846105879467,33.087898341545596
48.08947664243464,22.94430259559885,25.81206243453882
49.83632605769399,16.027729726387417,12.674640050282482
45.053334382725126,7.115380593963362,4.692345124351044
33.73422274993332,2.698561638733556,23.73740582600714
17.0418414171479,12.514624425700985,41.8636050274659
2.8866906905524723,21.409748996875425,56.431340187972374
23.112228910201225,28.256691313125273,64.93440952283021
40.41030881262271,31.8089662715104,65.87739356014153
52.228785650299585,31.075035119905053,59.29065870664469
57.16072656699054,25.98336817948186,46.58381892877036
54.89086472325137,17.850533814572508,30.1500502555485
46.13629248049829,9.124249326590096,12.788668508894743
32.497426459454324,2.481378836310176,2.983663623843828
16.320348951921854,0.3422098218789227,15.460692265923884
0.44046380514349787,0.6609194777686638,24.06997276256965
12.378188440363397,3.8565721570209575,29.410239845483787
20.085643677368687,6.826204622963637,32.786143763129765
21.87266840168448,7.523950435087768,35.53771171797
18.250236133944597,5.0815307317851035,38.62006484633067
10.61204822486529,0.11720993297973764,42.51853098608932
0.5855308369780057,6.975766185080214,47.02395047996875
10.478470768383348,14.405995003288467,50.94944663941343
21.564902045212044,21.7376593231965,52.80722349558089
31.688622138333972,28.632549951322645,51.76076207891122
39.59079059849973,34.695177881462385,47.58574274796273
43.7777910138093,39.17797282107829,40.24553212811604
43.00721034025493,41.0663071439689,29.769558846361974
36.91636775956831,39.50946158503841,16.50812545769178
26.333459761156174,34.320772786503696,1.4288747856948547
12.98111375370611,26.181884292586137,13.960302271430045
1.3271087911046051,16.41050044965139,27.7942312346436
15.514834126238231,6.44707593751734,38.0895762564308
29.5587719379975,2.641649914520152,43.146362794127334
44.05558985683715,10.36637866137099,42.11361342578441
59.301399537986775,16.703711985889992,35.680939868798575
74.48028074579638,21.845196854736006,26.319088707518855
87.48499297658202,26.01861749804676,17.76733149121474
95.5209943248539,29.457376144178884,13.97712459636766
96.1731491408307,32.3825603302845,17.73262622628119
88.3550267834049,34.86690577189781,29.270038259675566
72.69189186168863,36.580177291522496,45.7128825428905
51.229404041314126,36.59562865409261,62.09124134015519
26.730665317005805,33.54019352756284,73.30116074879449
1.9951457407461095,26.21245226229191,75.84588052793222
20.533015484599296,14.454554797158883,68.70552282555187
38.885794952301495,0.22986586270719223,52.998509690121516
51.63096083330515,14.762901249808083,31.052218216158867
58.04055822781749,25.37668934621262,5.637111172869766
58.351424249191105,28.954650991575967,20.66201572597961
53.945791282301634,24.17392769281389,45.57268346260338
47.20877791802488,11.880512325979565,66.71605631309039
40.952636230275985,5.425455041262147,81.51190993575852
37.54561301333177,24.608031978316184,87.62932483667934
38.07050833016553,42.77835583092187,84.01259065285657
41.88431042995963,57.59594857584393,72.00598918756621
46.77668668017192,67.01461906111466,55.272294491392266
49.67009354809468,68.96034968052369,38.72871536347327
47.62425528707717,61.51012014467952,27.10610108291301
38.81588873531396,43.71834143604712,22.826229330462624
23.17302065964267,16.69286613880244,24.473320217371334
2.473790329639288,15.816220350621087,27.574608119165312
20.087786080818116,47.95178861420773,27.04359337862284
40.71250079463972,73.42980498550762,19.451971307391524
55.91410009796337,87.66849229311191,3.9614282039015567
63.262598350904284,89.34391717772675,17.87413970433479
61.77636349873112,80.60916887440864,42.570867976432424
51.91258254606869,65.92731758562805,65.46569763360057
35.260691103378505,50.1948413296083,82.0182295497015
14.135856362236119,37.12152846993284,89.05241052772674
8.791566581105393,28.567394196360578,85.34738844167823
30.805397199690304,24.888934581110828,71.64591088635636
49.44591763844967,25.71954454412897,50.186345858231064
62.833152130879206,30.475890066304668,23.99403615932094
69.94378516627421,38.2449669583932,3.639820325336324
70.70633896568569,47.25978354140478,29.54726703610929
65.79558422971436,54.58309889819853,50.91760393828762
56.15360344757185,56.52386653520678,65.32046114298394
42.46510931921247,49.786388903967726,71.10263139062161
24.90906599820762,32.82301497535409,68.06026598087004
3.3751790990300963,6.649020087678909,57.493896091200924
21.92719709905223,25.358540565523434,41.637590593758276
49.79353639619554,58.56309533786858,23.163382321710998
77.71545683603149,88.46495686569753,4.991082256657346
102.18518554918317,111.70221183079508,10.153399052953377
119.53433327919785,126.29589412591308,20.750627629564942
126.92524721501024,131.31444266472522,27.056211680701335
123.03212863992387,126.46153467776733,30.41796487118042
108.19012734693804,112.00419411708191,32.09843708381312
84.08087888647745,89.10840923414725,32.54426910222489
53.24125075295565,60.23878391970329,31.318861591014166
18.69190198398826,29.124132941469576,27.610037953949927
16.255088827237383,0.06547468948062167,21.154802168914827
48.1549312488298,23.177519387348287,12.96281140549856
73.75185548347758,38.37399487800667,5.146275701241612
90.52594668189688,45.18203885154949,0.09690498044303664
97.28743870922327,44.768158168541284,0.40854882950069976
94.48902914695388,39.0057788707356,4.112694250897121
84.02595746200168,29.773107107733715,12.737653991147525
68.59449121538528,18.728906447065132,23.646175606295184
50.89571560669082,7.5255898422732255,34.83064246887957
33.05641794559515,1.9178067970803159,44.58106980079102
16.49338284276681,7.466594760376884,51.29517812931751
2.124583301243308,7.262520266703312,53.00325597417001
9.307425259006656,0.40338832687189147,47.74884225459206
17.057370745021636,12.62913063565951,34.45630241433438
20.472034696286475,30.082040319112384,13.236331019943576
19.2175665127123,49.50936655864747,14.710432528980256
13.453257322188334,68.43512426369284,47.23866949891819
3.8665748455003985,84.69161229680844,81.37707850853903
8.392608575619802,96.29476032262733,113.49424760033143
21.744807366513694,101.11443368621227,139.6959539554306
34.118218126639164,96.81888850345057,156.2189757852296
42.91007468917989,81.4165171313329,159.68392560698953
45.211428843203564,54.26203648981488,147.56822338665873
38.43213360262668,16.98548407555401,118.96167883246969
21.22424680698469,26.252196636936958,75.46954804487926
5.654115217713304,69.47834245979037,22.041286210967854
39.00614564004274,106.4089572810949,33.54949915027655
73.63497115423533,132.07706983227962,82.93640972074364
103.47383402578852,143.86913252384278,119.2209888809098
123.03606462819513,141.63582402781626,138.20925525949355
128.64893802549835,127.04909995719792,139.08761848869483
119.14441503172002,102.72226081414036,123.78418343708657
95.94134636475633,71.60926053610939,95.76103470401881
62.65035164542974,36.86398385725721,59.50975389259301
24.43821975503163,1.9391117401209197,20.305912934527743
12.750259995498915,29.485764072569353,16.09402678311029
43.110696528553056,53.998621022746875,43.84832426415738
61.999031385635305,69.2754287440443,58.051997235378984
66.92831000977188,74.81550302160663,56.16443694137522
58.273953926476594,72.10717390374364,38.95828952341705
39.35178589408916,64.02865387082076,10.600002278596076
15.690206559721263,53.723038862713516,22.296587003933475
6.349418258471012,43.49155503107574,52.43149496686664
21.17131453213631,34.22957431311324,73.93726639131356
25.666300859038053,25.66191393364291,84.50063939677906
19.62423003841209,17.0989832225891,85.31798522467027
4.968644381985427,8.209676062046187,78.94411878023675
14.928799006745441,0.5615906233311613,67.84268259118285
36.15038819887788,8.130869299681198,54.00973740156464
55.04342227483583,13.318816604105402,39.02937643297113
68.78866647549009,15.455622084158728,24.262669202101147
75.7069463188731,14.70436971819555,10.870530654987828
2.1194934075288043,13.901203595284597,2.0729152517823843
3.651714555202893,27.00269801505657,2.954841451801193
4.587027775562639,38.495678041384224,3.9411903226991414
4.060197699379573,44.74397314723809,4.605573225541479
1.297724912678593,42.898555105192116,4.417575122871229
4.010014661248084,31.852550987248065,2.9971805946388503
11.39203326600414,12.653496482246897,0.3683662476823765
19.498323040365115,11.824378688859554,2.7386991024827365
26.31074571558924,37.672771981387534,4.941562939849673
29.653599695943775,60.91467511446399,5.035600308562489
27.815348234360375,78.2210623290036,3.0273322260568167
20.03639312856541,87.07983237081368,0.3473782940779398
6.714393513660178,85.62762960439348,0.8233485705884935
10.676516560370212,73.07512972154704,1.5718734563785206
29.882903572489,50.54502594025496,8.531757007495694
48.317443428570385,21.115010358565343,19.05756591753814
63.48774116137532,10.540389273388215,30.152232065843165
73.27703687789155,38.82708642233665,38.12132265547256
76.09189378311606,58.717837857092036,40.12509747739958
70.91966417753014,67.21642302057077,35.070206518089655
57.40867904955359,64.29940960952061,23.626329964328875
36.046885064453825,52.93003641997334,7.657194531479447
8.35240546591531,37.87803879978957,10.395670221449986
23.052530889993307,24.040366996412395,28.13662667785089
54.60371788693896,14.887153726219884,43.71442047318196
82.2610058517274,11.710092279174027,55.750430179963075
102.22571923579888,13.922583555893862,62.924326785865894
111.69875585329541,19.939187235655616,63.81948417895162
109.40266221114742,28.074723411647447,57.46399799668704
95.72999246707182,36.900854088883314,44.39243950566409
72.53556797209039,45.0128412638512,27.253808995569564
42.69629300727664,50.62721838482419,10.218005460674801
9.652650207927122,51.492842682416644,2.7529538095034116
22.94621857939159,45.423584506804985,9.734499286273733
51.530177882368505,31.267622373463077,11.571548811959175
72.90895573151444,9.76799253921139,11.35536102809106
84.67714202554849,16.272718491089154,12.746878132187947
85.70911265362399,42.735582411962476,17.815393411292813
76.55799553428629,65.49893587660983,26.056267184670226
59.50253369474424,81.67764277550678,35.096115476504735
38.07631316117041,90.18246481620731,41.98711269422854
16.19222462384674,91.41900560984963,44.11568524170984
2.8170999528779768,86.46712340050725,39.89274831878918
16.901599747248163,76.35135044551615,29.342702544561696
25.48738870789555,61.88035733017031,14.056491028040078
29.158978767868042,44.075333102580366,3.3192006601494812
29.077790204886607,24.748807457953994,19.864716451278927
26.463265846294217,6.661492366196148,33.278128459156676
22.349133365119783,7.043314217620554,42.16063045315299
17.58903177223854,13.94359024249522,45.64097583181845
12.951085567018763,13.383339238001561,42.95004285935339
9.144160553302829,6.838741330716925,33.71638275774363
6.696533428397321,2.611915559868122,18.59067553177077
5.774114353615472,11.444236641587825,0.8777793181520562
6.093664226181182,16.871092611434502,22.552914634713954
7.004565829935123,17.460957946875755,43.86278993492894
7.708113776992359,12.997426147229953,62.3027213463307
7.486787450302356,3.8758046171174136,75.85709949661539
5.827682440682774,9.43196177297009,83.04638698769534
2.434111586132155,26.45376138612442,82.89740061821844
2.7953730919344753,46.33060656774262,75.05317702143476
9.717669367287852,67.32751600669371,59.968420559914875
17.806707926687814,86.72610054552096,38.89322954595242
26.033319972732805,101.33622712394404,13.743789928748582
32.9099797600997,108.41868841455484,12.92272429861118
36.77139580989357,106.5215731630419,37.974317319519855
36.24270811138858,95.78168323305394,58.2172681845421
30.73813375068451,77.56902416231479,71.26501781766963
20.75886001393529,53.74809300023226,76.06182452696933
7.863633153997842,26.06791398775029,73.04041261764412
5.656059938626446,3.9286847377450713,64.06441762627114
17.314603737423063,34.504117097266416,51.919137014367514
25.01192417106672,63.210672795451444,39.51717795972775
27.477930942226557,86.72280265999308,29.28825078739431
24.50931842162886,101.31040825854811,23.030806163536663
16.958745584135716,103.86275618048042,21.881817918575976
6.497835419339238,93.01115055340605,25.904303509226274
4.779499487948288,69.82854202118358,33.58521386459444
14.828823506302106,37.78315543581867,41.84567754399317
22.070859669173984,1.9707202651316043,46.602084561170734
25.651870000272,32.03020921867041,43.63115916601016
25.499704154807215,59.25229621785198,29.598274323030154
22.180874155073965,76.09046694245062,3.457938336287194
16.644156345436464,80.64387097111153,32.04322762516048
9.952751420013227,72.75586110984815,70.65718217194373
3.069168565183298,53.889749973690435,105.12738499472911
3.28983697035551,26.911469875987226,129.30405863462792
8.733807209103023,4.251713701400305,138.90623048073456
13.219439140566312,35.145616753541006,131.94775694915208
16.989042356139056,61.50682178460486,108.80671995716897
20.406049115608308,80.03936152662622,71.8435865221234
23.732982190044886,89.05302972293495,25.01631342559161
26.937664797845983,88.74727698135855,26.376306135788532
29.630085934325102,81.00608803088836,75.87180873631935
31.184714406880587,68.73291376780789,116.3504173739872
30.990751619428483,54.91310812315359,141.50419031937014
28.699756085377423,41.71527249178883,147.70330034724026
24.327800196489267,29.958114704468567,134.8055812688162
18.169223089234848,19.14409351770122,105.85358671695485
10.628225627013464,8.030195680725228,66.40886299028179
2.1314125121108565,4.5295536425158875,23.549729615319585
6.778082526073984,18.83250608965963,15.789088672147766
15.218812455176021,33.98465720784561,46.79251169497278
21.810666701018178,48.093747767202856,67.3058949473962
24.783723225157132,58.86213527276999,76.75358495676006
22.44785151082096,64.28486653714272,75.6808386017914
13.893986153852454,63.17647128388986,66.20004947357968
0.3818513828746516,55.39698215423197,51.885589670630324
18.247680212704637,41.80790727752484,36.87483701648967
36.25905459612139,24.120199983682163,24.892958146917458
50.453284870242705,4.770859754395432,18.590448313068627
57.31974152205459,13.22357214975345,18.833388684507465
54.61859474279308,26.575965783534002,24.149048102748722
41.85067996565107,32.32019339551079,31.34397960018943
20.33436797760157,28.660052229477365,37.03268538391045
7.039226728704344,15.772215418231553,38.63705528810763
36.25457577511676,3.8411562454963106,34.620853333430105
62.750323058265764,25.735872394448435,24.588789664366693
82.11355941998569,44.64940632397163,9.332191668259831
90.86820376132717,55.992010367750204,9.210336929481944
87.24246966022636,57.13797318100027,28.224481414846945
71.69987148290812,48.029008523101005,44.675341549509454
47.015958162234234,30.923738551967972,56.08261158401123
17.78889420436532,9.517837664962304,61.003569162548644
10.54314105869136,12.116193278473071,59.083287822928575
32.90727063624604,30.355421801177847,51.173776857868795
45.66894846673233,42.459688039330835,39.52912799774027
47.29234577110818,46.6840575185366,27.23230825671211
38.44270771419378,42.28734203962598,17.14313591877199
21.575244313066346,29.634913684578596,11.284477259942605
0.247417186586778,10.366895020284202,10.298330305222743
21.613131438881037,12.547758783435498,12.838908130730287
40.35346029927886,35.09416841841948,15.921638078316843
53.083373123043174,52.93637203990471,16.205551125431203
58.02056966486584,62.402971049932795,11.274624815263852
54.71203341727217,61.39826609400089,0.42095096022010375
44.09039442967324,49.89673902605487,15.320539764158218
28.305588000007177,29.83496033370084,33.44276365162258
10.273179675875715,4.494880477694171,50.2653405603759
7.015715686592345,22.33805724582191,61.73136673920909
21.21627129342219,47.10399198943434,64.5498396143873
31.114533117159844,66.87918730126475,57.25702154692396
36.36097414298901,80.0676542312349,40.698980853692596
37.072965097145634,86.2631158311782,17.38467739237895
33.783890831582504,85.46289315951616,9.383221032352173
27.33879917639128,78.03766563054313,35.93401636891723
18.83801370238457,64.88131594450972,58.72407544776078
9.577574743722955,47.57737896124639,74.94340012555625
0.9344315205524294,28.380507705063728,82.96731737933281
5.843680998445497,9.917088173282103,82.57297669928575
21.413054575886253,13.034374877915953,16.040711542758984
26.669319856498543,5.95204961604225,25.834474162996514
27.206654578588417,4.505459428839616,34.235220415003035
21.58745495211568,17.41408745369397,37.675349863251924
9.866636069729841,31.193119189085632,32.73062022833416
6.492983875588806,43.67274492025981,17.422554951928916
25.142186420732216,52.339709373036385,7.5409374802060904
43.490475213999055,54.77063788401829,38.65056870801471
59.16359648924619,49.27739601204799,70.32892387257147
70.1630830220012,35.529584315881785,96.11586737216415
74.82375466008014,14.920241327593219,110.44855954765548
71.76365816070461,9.413033280217086,110.0494627938789
60.00182038669417,32.9870304748192,94.59139473077927
39.5131738329863,51.18652203126489,66.69669417741257
12.007749900118922,60.789331634100286,30.861567248090445
18.912132455229628,60.568680079785786,7.7561298243377506
48.465486367269705,51.233944978789154,44.14777305605838
71.93939957722499,35.08423540000847,74.01991969978306
86.04772744608024,15.262956083122836,94.1871200116094
89.75641834416798,4.819547641976617,103.20869513585993
84.25222410620405,21.85687854970939,101.64663204461812
72.20715865087008,32.99537932663111,91.67794539870283
56.72267647537092,36.18193408355878,76.68243864160607
40.45906627627116,30.699110484623237,60.648494174470386
25.22162663974118,17.60031916903101,47.05254725879643
11.983427637103983,0.27720781439749753,37.712079091968874
1.120588563640851,18.908893449576485,32.569910707399224
7.3911224795384625,34.27113470775667,30.054032752913372
13.91177815780535,43.63720217252264,27.58782440154532
19.127508395647077,46.420454065738795,22.604328308711256
23.91229677860985,44.09525754266606,13.463836843653523
28.994341206156605,39.18518600281748,0.1711269959342363
34.53064371462864,33.84720173899679,15.35627978332183
39.81115348033395,28.7486311871835,30.319303967499835
43.32056988858163,22.812359705611822,42.399625141445185
43.21694129601091,13.926258607874322,50.60691445168543
38.09330757679928,0.20926677601059374,55.39746083835624
27.69526482955918,18.834353433781743,57.98055114139244
13.241527420316064,41.84305346568524,59.686076445683526
2.8054947693269816,65.95729490971823,61.4642909708239
17.431273820544885,87.70724673509358,63.53746050448913
