1.3359146752775783,5.447400562719656,2.0832034204405945
12.350681213601213,13.901217476207787,1.4496676447101737
24.71339929085549,22.767591697090943,5.375640133761508
36.22646057155971,30.349307369212475,9.127256660156506
44.526523891759496,34.85455701351154,12.027443794765157
47.508389799998625,34.77813067260622,13.485490889573217
43.70780270086335,29.28521907128261,13.21814290179365
32.54820657502353,18.4268725681709,11.292534663087201
14.536460018519058,3.1515215862166763,8.078044720503362
8.692578413213118,14.935063598814306,4.092667121482654
34.46954121261616,33.90509527675961,0.13825433269577903
59.20393003317171,51.67755540397354,4.0429165078621425
78.62630069018225,66.005529043886,6.918065461596384
88.83429144433943,74.855433214406,8.269096724866424
87.68674373637495,77.04342316322553,8.206673420876704
75.19481141257121,72.26790193391847,7.093448412923969
53.39636191388219,60.96881077047265,5.224643109411685
26.00334085972287,44.32966936744873,2.9390043672277204
2.5974785236029234,24.027145855721052,0.5671720674419704
28.30663470817457,1.9472031995532728,1.522954247063521
48.06012799010242,20.16729392493876,2.9114892842050124
60.28484427948624,41.07930140878822,3.305882253465607
64.82885898375908,60.110027572923066,2.602376126667132
62.70704978215944,76.918895066817,0.9298799743723654
55.68804427641804,91.02351421495709,1.3564890255614939
45.850834276734766,101.35057337249279,3.721643955957387
35.22216395514819,106.16245127964181,5.529737961520006
25.41606970091474,103.46297792395528,6.2123102508856
17.400410327918156,91.81486290715293,5.44647405163403
11.397705326286491,71.16030969642132,3.3335552782916325
6.987861225372074,43.24231295488822,0.3387605567005352
3.4294438239212104,11.393520955050665,2.9810262937020373
0.05438269436838519,20.246724966878023,6.153894215041567
3.4047805812865515,47.71618730732897,8.791556471723002
6.767851041060099,68.04857316313401,10.451917778774867
9.680677865386826,79.68046594578456,10.669739982889896
12.032919585129918,82.45660872466917,9.166788882138247
14.276630268482883,77.42515441647028,5.968633139034992
17.412756836308784,66.59239479385758,1.472941693051243
22.600662795275152,52.71145357000034,3.6648266198487622
30.534300629120015,38.991108108526156,8.773374304671595
40.882657289529874,28.56616087075241,13.15244635840512
52.11941462383523,23.737705656540626,16.13922407377043
61.83582464172129,25.193648200256856,17.472446140877867
67.40563964432239,31.54911840257198,17.43538880952695
66.71664663221154,39.521521779715286,16.6931724918061
58.657316773066924,44.82463631570443,16.013830865945437
43.233148493656515,43.49882463836469,15.814733131589287
21.372232795805836,33.18661953565143,15.790344678022503
5.389133746520965,13.868458715646096,15.042695802564577
35.13128753552173,12.210333417456374,12.629140222860608
65.61318653248767,41.26894236200536,8.107667794526082
94.24801153116644,68.9888947843,1.728151782710957
118.16822636786279,91.3886106689232,5.860621766693563
134.50659530737974,105.33758666535148,14.015816003612429
140.8461446249706,108.75978733347003,22.182231595208666
135.67854816756665,100.70496571134245,29.80001928972805
118.69512328067592,81.45264292535367,36.229017537686765
90.81303190057488,52.68417857134053,40.730242792987866
53.97116663795824,17.536939900019377,42.5584354699357
10.836322177069587,19.68864767546809,41.037738164840626
35.41299449600529,54.2056239495109,35.77324873933786
81.18993800506857,81.6131213079485,27.018523071359454
122.57801322777064,98.66959968242227,15.73223679258064
155.5117231740763,103.68039759718057,3.337868758468881
176.20409557265742,96.4315360719188,8.611804620968476
181.80412463901646,77.88475169392613,18.82794008790689
171.11241223360446,49.9067523394085,26.530129705631484
145.1317248920822,15.212490141643075,31.449272053504675
107.1878788367504,22.520152959321802,33.626969118531
62.50243395814657,58.66192677129736,33.18787732136992
17.279623317597014,88.06861326579869,30.274534259890768
22.504974930170093,106.00136922049171,25.14173154523514
52.29275415441721,109.26592754527934,18.322364683075335
69.78696813124844,97.11393338498476,10.614082572186152
75.2461643302299,71.52591900220739,2.9084016992436426
71.18172143021329,36.73330531259369,3.892215117533805
61.57563805362508,1.8128444397181285,9.020089155787288
50.8474739949322,38.57113478501521,12.057519360236983
42.86345096748989,68.76855183129445,12.97610809951624
40.21568534238842,88.87284271925249,12.057890216389755
43.880224988429305,96.7900636065516,9.736584666647598
53.2477516165729,91.97937557331007,6.402778549667357
66.40770215942742,75.57322186558063,2.3967112727449185
80.55621125894075,50.407695757617155,1.9035659455076732
92.43888871547696,20.74334845161951,6.035518237081119
98.80844228417881,8.452609803068704,9.394904510416914
96.92684734743132,32.54644020680907,11.308571565487794
85.08671246290177,48.271578903740384,11.226920281966365
63.08440967684246,54.34898113446628,8.8623056256137
32.52277997726394,51.44434134348048,4.323859134004252
3.2291358341096514,41.56277784488563,1.769707100017081
39.50542238439957,27.261960847061076,8.319615989828002
71.18500859002427,11.070349257681492,13.951060249128336
93.71975258417548,4.701392439276158,17.369368098689424
104.07356089996952,17.82965146607689,17.700825127164975
101.33143463758606,26.04079864648487,14.70344058688136
86.84510881245471,27.18520811233718,8.858819923123804
63.89848480829894,19.77089625472779,1.2266880659725283
37.023314005522145,3.6431427994031726,6.866696907895391
11.15224697083589,19.538958972248896,14.012411210192637
9.219867775874667,46.327835137473016,18.886423775498244
20.71978821434793,72.0656106959901,20.511837774967727
21.556408076111012,91.82618952518239,18.374109521070437
11.711293593820104,101.37956609820984,12.613140958567888
7.154643687896866,97.87169344441728,4.323684536306772
32.036557032440214,80.13748087148518,4.650073127346451
59.10406076952194,48.73158105725297,12.250540633734808
84.29814299809576,5.834798559445119,16.65553003702673
103.90995882488438,44.83453396201823,16.8108872070716
115.03594775558983,98.14550922733375,12.853609966912062
115.83605751736155,147.90527546441618,6.062692094318804
105.61725735176515,187.57398594096662,1.604747023221912
84.76505689710078,211.30500659488322,8.094248518290042
54.596408556290896,215.0881225983637,11.710330437004068
17.196911352594565,197.64218599345045,11.475477237668144
24.754409135048054,160.7694467734078,7.340519367883436
68.13615360904528,109.05769832791528,0.09697948719694764
109.54220442170187,49.0106923644741,8.862695341398892
145.49863640233804,12.104647454070633,17.788249415398525
172.74196732580765,67.38795485783872,24.91910073841844
188.55224881438684,111.21608035026597,28.821934371594175
191.0930176630014,139.86224010101498,28.522807867881433
179.70377497720946,151.86913200989997,23.758566693846074
155.0808856047068,148.21876180207806,15.30284264175002
119.28307066507477,132.25646994643014,4.793325348488376
75.54369322930614,109.2584377186804,5.741565661511993
27.926839410894374,85.54626146644624,14.335581619682241
19.092437839419492,67.1744015714763,19.66087965913289
61.10149705203972,58.447268333475236,21.487716387740626
94.24438649741302,60.72175646720449,20.614423677136863
115.65350378762014,71.93591581204473,18.3473035921202
123.81375837565608,87.11494098838239,15.987538555987513
118.82030622825893,99.75614603933558,14.50734927052473
102.44245399715015,103.65498868994146,14.331467242613305
77.9515338934761,94.60385951751879,15.31456189584989
49.67314896473301,71.41996396092115,16.866647172664425
22.313532601196187,36.024103100283476,18.08465043774093
0.19264241447894215,7.303999024878148,17.988484315994636
13.466699734595757,53.11997249151846,15.899646280964152
17.03956804368143,96.01894543232058,11.674137104293623
10.708033482020985,131.52365508813983,5.590966655158128
3.8749860938734972,155.867319090659,1.8049313997852319
24.067723016337577,166.4156926745275,9.693154879899927
46.53635570927895,162.82351739465952,17.044617108799752
67.67628716410418,147.13113338210445,22.838915583088657
84.15080423489013,123.3120523668674,26.28064879222648
93.47062295186937,96.31828642238776,26.988021112913593
94.4580279930277,70.86566715479901,25.112578805426153
87.45721050191769,50.321022514004056,21.291655284790238
7.455496356171572,7.6462958536157215,0.7964100498030059
2.0624743565174217,2.9889772554158003,0.3484068332645871
4.648743819782599,15.662346880324181,0.4692627695086418
11.663034100540116,28.772713142497302,1.47077501756368
17.984139660223708,40.460431954707424,2.257682124657477
22.829304384426496,48.757988294034035,2.4165749868361277
25.654415045452378,51.836919282614566,1.7111399913777334
26.004099319974713,48.29834063926066,0.153126790644971
23.41314065633168,37.5897184731872,2.0277070526087324
17.438705770058323,20.27278276394157,4.423355394661513
7.931453958629757,1.91846487968785,6.496496880024852
4.438509605468557,26.05446230734994,7.7463297032504626
17.711497997113653,48.11071800358504,7.888181901648415
29.002743338731882,64.14379657833811,6.908755031843259
35.43190358083443,71.8719527737316,4.930226148997034
34.643557376933536,70.70146160050727,1.9516199791968545
25.39709306149419,61.1948073655993,2.120300784341456
8.161660846091815,44.806639655457445,7.097883613405766
14.950048209821091,23.3407455492017,12.313425001081558
40.48245005642692,1.1815202209760796,16.757700268548554
64.15542530746056,26.47112169225508,19.315364639137417
81.52358983339587,50.08715912866385,19.092073866130377
88.5072217105958,69.54445474902487,15.85566096994428
82.03503599079914,82.69343767703793,10.15114968883734
60.71815359023561,88.05176126266575,2.896316035319656
25.484432072110792,84.97461618726862,5.009143126626091
20.018447066558878,73.67890597127062,12.775785402480643
69.64619462004104,55.06147442358621,19.66171030380263
115.6967972524583,30.589851240695925,24.80268306985687
150.45687204596732,2.272397975146057,27.169927012703116
167.90855713216152,27.309349664321573,25.861893186264464
165.05475939680505,55.04862016406434,20.446217799129634
142.5009767591398,77.67905713493225,11.153129412173813
104.15008903288107,92.42348117699271,1.0402907497486102
56.22641485782058,97.75945002567046,14.518836578299123
6.0090289469405365,93.95258337500307,27.329309928594842
39.409001846968664,83.07522252381891,37.627473293352494
74.18978364123033,68.45199978066995,44.070112021488086
94.61524084283533,53.69869946324342,45.85586748441653
99.67517212501366,41.73626632939753,42.674979227738866
91.24819703327756,34.089592097073144,34.7684453851473
73.71607119070605,30.641742213521884,22.88422305968191
52.92900316920281,29.821017328704976,8.235003955897124
34.68642863891218,29.02844402980239,7.4746029846749815
23.18405454960366,25.168166113066096,22.227130992616615
19.97743294608114,15.262578360611228,34.08154024014796
23.8557852075435,2.8095522885633173,41.5924999928393
31.63905186694759,29.515784137263715,44.2724497405479
39.49181802730147,63.04374659096176,42.779820487910335
44.185225824076916,99.16960405242175,38.48540356816511
43.856103494535134,131.88518750554263,32.8834198117525
38.120431509093024,154.7732963150122,27.257400269277756
27.738566336431795,162.7512735355872,22.52615589670422
14.173116960980543,153.53854436627898,19.211158837958095
0.7150273390639996,128.27541757092078,17.40429603326037
14.831855302403731,91.07887466816162,16.85039168145495
26.060948728681502,47.75402504485562,17.122725418387105
32.658938933487704,4.243012617727181,17.52353295643708
33.78873241647259,34.57628161677039,16.974967048656595
29.949052626567173,65.43217231324988,14.298749946701136
22.981823001507106,86.59233359986987,8.704081176316857
15.507552834979412,97.5088771891054,0.12426178573541502
9.948582576225522,98.53275127963286,10.836861672065066
7.564032930470612,90.82014299288053,23.125284333347054
7.991736397910948,76.29952362430328,35.40946552796975
9.540190565509977,57.48090225751709,46.31455097106158
10.072328236199716,36.99697790851873,54.627045032100234
8.047852614767791,17.014868658473297,59.444893296678295
3.2287754105434745,1.175710335527585,60.32112343631422
3.2574873047447226,17.138376085507748,57.28173921455512
9.454573267584708,30.80590333536103,50.761620453472354
13.38638585807326,41.81785519647653,41.49307201386775
13.742433613717454,49.102920948400694,30.27545051817792
10.180296603055536,50.99749345296852,17.795822227741912
3.233784304112731,45.898675190176235,4.7112092706716435
5.997516984687252,33.15028247147152,8.217484894297902
16.17651711548729,13.6988228188049,20.216924980688916
25.929714181228537,9.830409329420123,30.654166112626896
33.92289261614486,33.69470449137981,38.99393195081578
38.951631684132686,53.99907705382291,44.62285598878465
40.11982230094499,67.64854218541183,46.88767668829367
37.07840488523854,72.95504819408556,45.3952547592134
30.22970649378957,69.78910615750772,40.133651448239796
20.72208992352353,59.33123156770029,31.412649578572804
10.161050913112085,43.609517203327016,19.983350454725947
0.14724539540989462,25.027560338061583,7.139641316032269
8.160474628013963,5.9902474917525215,5.489638068469364
14.233852064184772,11.353165708229035,16.231505911646632
18.021027612937726,25.28336594470979,23.583421779566283
19.575690604385848,34.6331367349705,26.526415414140764
18.73131088440385,38.8643310234838,24.874554673412266
15.063596896603121,38.09741450975452,19.3876679486749
8.21574257340106,33.0766897456905,11.59103872112871
1.5601632787827473,25.07369166543703,3.3569536348944586
12.961764333530017,15.714323873743965,3.528349707199725
23.59838559920389,6.712060541604844,7.610846225495122
30.486675591778457,0.4461307678457438,8.034245668543315
30.930266101397677,4.788437027326079,4.891094416992477
23.38925536289199,6.01003212283976,0.6518798709079998
7.997925966907849,4.406897653359284,6.741283899344683
13.42794991822995,0.6183648900606331,11.490339389072032
37.844532345604016,4.71644878117455,13.411973688544037
61.62985950825333,11.193866152225961,11.726046242135606
81.153928265115,18.608153292541097,6.540467463637562
93.13978134949143,26.650641945436476,1.2831949298854008
94.89675443831649,34.520396156194586,10.483679064063484
84.61185078322072,40.70837181712432,19.785174330283233
61.79135643687877,43.16906009149464,28.001334679989153
27.765375908030407,39.90762849238317,34.057741590023184
14.022665185355633,29.75862085122775,37.1699070317727
58.21659509046563,12.981278084305025,36.92576687540193
98.32941380244618,8.619929391430261,33.38772197698446
127.973525036768,32.10931194147545,27.16252250240023
142.16148254316695,54.17734281909431,19.234905664305323
138.26495459902202,71.89169949266692,10.70078747792761
116.3807255172584,83.14631881808151,2.4292927922178817
79.1058661967462,86.72322228364283,5.144225765375861
30.982239143923643,82.14110057594033,11.978687905427346
22.15150213425674,69.57426251979543,18.247744129585545
73.78685128053898,49.972967795623866,24.075927923862434
117.35551881366561,25.316022990826884,29.306816043393574
146.95172197616492,1.2654439954054884,33.31834275248898
158.22872805717768,25.799574039564185,35.245649520207934
149.3538247858457,44.27441079818007,34.56928721853541
121.68823754097656,53.69559624034504,31.35996955685087
79.82750599955068,52.98063468282697,26.230699810463012
30.858666543184015,43.2815116185459,20.168811221738938
17.06894800222246,27.60411507897534,14.189930522649297
56.469879557787024,9.91737904792471,8.988876783256865
82.01933162823823,5.824443920160226,4.762323923187162
91.4190778351151,16.36021466665361,1.3956962642951745
85.46657110945691,19.40073063809888,1.2495302077449524
67.45345497359357,13.66126775484282,3.271252849469211
42.19047835420457,1.1020610609302732,4.768276787882638
14.98560198647543,23.89850250806404,5.942453717230454
9.220097845202964,52.22514409540615,7.107243224796532
26.524506019608108,82.00503875918207,8.536645294487023
34.52308530230436,108.06365365835507,10.379084341721661
32.550268747315506,125.17651722312173,12.665135891758553
21.683466964421733,129.38152916257974,15.267167888743307
4.440550538141535,119.05575304976435,17.810907719398205
15.81203927460183,95.29235045511676,19.802440230397828
35.597656604018134,61.43168121181316,20.89209304987594
52.12317913834462,22.10782634998507,20.934903169383624
63.77810405366028,17.690045032444875,19.939300827059245
70.13520264098779,53.375558727593294,18.061198073272415
71.64967200291922,81.31372953468372,15.595873516203705
69.21298569039553,99.13863560408956,12.890735515104698
63.7727370719296,105.90928901571998,10.236561535500018
56.15002314264505,102.16495467905472,7.837737769276181
1.954078334362142,4.629897066310422,6.112796808484158
2.250064250574841,8.110966396235456,7.357931339363464
6.986292065721115,11.496935752908584,6.810004008064901
11.332387299845738,13.438939064762673,3.8957356505544762
14.389097489297434,12.749955618625178,1.3938043114147722
15.451716918386095,8.875452023489537,8.396620052518381
14.106093636827158,2.084308935885909,15.875946258701596
10.241111741333754,6.666874415213422,22.328716558262474
4.068789511074175,16.08617701129245,26.38432211820257
3.8737861783348406,24.89930740543826,27.142964707520655
12.737955242088404,32.05348860112145,24.321044742574415
21.356632709213663,36.76013633185161,18.10726352221649
28.288167976790636,38.434848647674364,8.966210817843379
32.196659751693,36.578698166009595,2.3042681897743305
32.29523198009358,30.79172896891535,14.566444975332063
28.26363865213278,21.150646704134843,26.540503746898345
20.018337610872933,8.645915294166954,36.81773171821571
7.60361596881298,4.790475852618831,43.961472769497554
8.897968666387445,16.749438485871792,46.95513349225235
29.111717156234686,25.18045591171011,45.53395484398074
51.885096907887835,29.23081224909815,40.32930688908766
74.89458957611116,29.657273673331893,32.671415889364745
94.57791830851833,28.600666841782353,23.931892054552968
106.67135053121439,28.762556463289027,15.040429815344698
107.20810529787744,32.343716550058225,6.338483317208836
93.66217612081574,40.178967411948,2.4069018207289057
65.8209956421457,51.362747619614396,11.626962678977813
26.00121479914952,63.473133452526575,21.410571381977103
21.383811930130456,73.2567198861545,31.260584723497914
70.68078925346775,77.50318608324588,40.213415005814255
115.9487670757721,73.80967409075579,47.23273173959338
151.7515690616867,61.029536601841,51.61156725810962
173.7442422054447,39.377186925135554,53.0753495813367
179.13742710117867,10.275183571822128,51.6552236014276
167.13256568952963,23.912835612856277,47.41982561872961
139.2558351022,60.15081403959801,40.23916147614663
99.37576652015082,94.98440238756977,29.977414400351595
53.196788700395494,124.84949372473746,16.89711347777043
7.184274454435878,146.50952434712565,1.8161391121270452
32.825385069611144,157.61181806951637,13.838968146930453
62.859088499033966,157.23613946794052,28.239665188482334
81.44725246639898,146.172654724289,39.76250551128508
89.48115059301173,126.69226525823062,47.408907533883465
89.44250223251737,101.80072904321429,50.91874894528294
84.3909062588345,74.22194648156237,50.714285894718344
77.11673921181085,45.556762430420186,47.55676996472156
69.71866238787796,16.03425826356864,42.13756418830256
63.57620213394051,15.011645950884093,34.86341604381203
59.48295796515166,48.176585875644804,25.90187539844725
57.73423343172404,83.04815557847651,15.490549524708925
58.101161451015585,117.7859653135087,4.275635681762559
59.76735526224679,149.4168258091226,6.713369637073749
61.36586448097137,174.65923570675812,16.460751887770744
61.19263649602981,190.7970166058448,24.307087149242054
57.54879353633931,196.147615644176,29.974803320067945
49.073952735371485,189.99079718705383,33.360075997442145
34.95162661222906,172.20610588878557,34.37930215822121
14.99867403687225,143.03887838667953,33.018597707796914
10.247993317533794,103.26543366487424,29.39296446421753
39.383683755650225,54.71286770351912,23.814329731430703
69.97090445880136,0.7604489948402819,16.947232750549087
98.52806137620769,53.66397704137343,9.839120986614212
120.90083576881524,102.80823021527752,3.7508146276079626
133.0681602596858,141.31037948122108,0.2090946168418021
132.16933041589922,165.36655752919086,1.469399094820631
117.37205347730084,173.35254796790306,0.13422347689362746
90.20851345852319,165.72591391477238,2.9738509080524658
54.23008059336047,144.43028770759187,6.440085678653288
14.141173155845692,112.2879285664262,8.708911017147695
25.19132870604978,72.74759309789016,8.531754623660419
59.44949486255424,29.978152095406617,5.260291708336672
85.15603353064209,11.02486004616537,1.0580059054029451
99.71095882483537,44.77882726920967,9.838236969533137
101.47584927375007,66.2980278729904,20.14915222674568
90.12426557472953,72.44127603325684,30.85809259656544
67.19212577750956,63.006803382916,40.743792584708494
36.43895012367237,40.976073604123414,48.57369671875914
3.57090025723069,11.71754221451784,53.23991735736266
24.84844164179982,18.537738593647422,53.931871299956875
43.05149274543415,44.2951882560387,50.30426587180418
47.67318985783626,61.80604459665789,42.547964793147884
38.673906334929,69.21329466507933,31.323741454149538
19.239323418065215,66.07170849564363,17.645095908770884
5.250804038866857,52.76839633840006,2.7741490304632843
28.683363803726678,30.286039522727485,11.87379994445925
45.52635757347519,0.41565187395784015,24.987505873708105
51.658756433144106,33.83628500189092,35.6034201066149
44.710473854408406,68.1041027348648,43.09908701299285
24.170415836678764,97.12266125742683,47.16622342623553
8.486224250288819,115.75649505636392,47.80560584001871
49.640871527156754,120.22265522975792,45.310203834848416
93.59472607915067,109.02239779977809,40.26644074799961
133.153333854305,83.2359080246945,33.49363317980371
160.8553346785353,46.15466725463539,25.97042958351326
170.63211111360678,2.5050029195848125,18.674432213922064
159.3590506192471,42.40758171664188,12.372616192981488
127.72031703021594,83.3634672605782,7.546010380668008
80.04342862028672,115.63507671947563,4.346722568698735
23.17602387922681,135.27862702613808,2.5861141974635946
35.14982130283361,139.47012693195555,1.8066730402569433
87.93247180768641,126.95579639685923,1.3902758350057272
130.03618152549893,98.52614004063982,0.6864653995471892
158.61752426392698,57.266122185338446,0.727566396698188
172.9458633965466,8.365334044312304,2.712890234557081
173.8892270702793,41.60223140529624,4.690334997185374
163.32958476278694,85.84283025503794,6.092084183845467
143.68287549948118,118.65045389275333,6.6138568399067434
117.58136675622679,136.4587367163389,6.3485185375616755
87.67975383122015,138.33591257654808,5.835568069516287
56.52182952995316,125.81952320041147,5.971738495000261
26.42567993103398,102.20083215526928,7.6926057060797
0.6585087280428843,71.5759166655756,11.467573383279383
23.30941518977151,38.00477621480067,17.039292616432085
40.7685194802186,4.999554978390912,23.46590590890308
53.01094021987665,24.588922222185012,29.35326185094941
60.67390958509488,48.46812773896959,33.251027808576126
64.82159387058606,64.85594768438777,34.04078527149642
66.61099928043886,72.62705973781912,31.290645337887643
66.94758634039158,71.63679919498762,25.397893116441935
66.26760970500209,63.02268593107197,17.35676658111372
64.54644173681196,49.21850716214779,8.330883359262423
61.509845704567155,33.53690717818262,0.6500315112615673
56.923787552811014,19.38269605027984,8.573286458299318
50.80618510694674,9.377151665926318,14.3667784850471
43.438785776436774,4.747803236280194,17.240632226201466
35.17440066987033,5.196678495434272,16.96042868801702
26.191661474398764,9.242593272386912,13.973533339574736
16.37612505022225,14.854603206543034,9.428676756071248
5.4336627481180395,20.070264919132416,4.949117277377147
6.790884708877071,23.356969477425288,2.2592236235266347
19.976377953890776,23.676579564338567,2.5472205814179114
33.17695034128451,20.352524690772107,5.8877704990354
44.98771464755818,12.937148835854456,11.311640890399731
53.98403483012356,1.254587106122923,17.30022681745158
59.18432815059413,14.374218212976858,22.28109181839077
60.27000099346964,32.84827106599023,25.04056348348219
57.455090272127386,52.13128386017812,25.08693018832342
51.089091242287346,69.39876306319005,22.73489537545919
41.25755269224151,81.5368514462172,18.7535963932521
27.682688547916197,85.87226455598008,13.921354231890676
10.044406055444203,80.88627588957263,8.708981302245956
11.426443832478675,66.64335714915244,3.230568606375434
35.29284445989895,44.97886606249946,2.237045094917786
59.06459971716906,18.74191106414344,7.195564812063904
79.95097998315308,9.216866531912846,11.283153377292603
95.46371121113704,36.302279322718725,14.28947473044487
103.9998524701769,60.25191958854736,16.203887270140275
105.17419624995735,79.14153412288704,17.196758136311722
99.77561353774172,91.44098793087498,17.590394977151416
89.39487309715005,96.17159991087685,17.66890305227031
6.247986015380503,3.164844469577781,1.8649776484755263
3.2051476734299236,8.791851427460395,2.6164128041707273
2.4908910778857103,16.232063645458634,2.858716686489477
10.85868157372259,24.04430231711595,2.5287848516655855
21.04862899899614,29.98005475203912,1.7202748488352355
31.307312249069966,31.637345408300337,0.6247794757836291
39.25087722727852,27.253987986847633,0.550815203081146
42.34688155659869,16.275883132893966,1.5800401799927946
38.5219800877593,0.47427563543858653,2.175989929504488
26.694797645783364,21.069690915225042,2.0089898441348817
7.1929956125676275,42.93208709434966,0.8219037857229019
17.942901499576724,63.1679075695129,1.4102324810449103
44.962194502735926,78.7708698149151,4.42697091009183
69.13787128204125,87.01791119204783,7.583250071859473
85.86213234200372,85.8610880805452,9.864270102646323
91.3691063591649,74.0412606067865,10.39185937752714
83.53012840249963,51.56043808953436,8.845349614910356
62.65600394937877,20.304124855737335,5.454593871930965
31.596435918439152,15.971720274415212,0.8822433226738562
4.739773015373339,52.25069489392806,4.072374601614461
40.42705840341406,83.41549617402211,8.728601463576236
69.86317099010745,105.49404907684742,12.483900527164915
88.81725840097066,116.32980468102436,14.829742421689708
95.02544575949335,115.56752232182599,15.515831989363221
88.23938223641196,104.0757605522579,14.610475087890926
69.94398170509282,83.32089819518202,12.504517371218133
43.039281143612236,55.12298524436834,9.956791530820574
11.562723025950701,21.831734071089425,7.943364436801421
19.583168465960306,13.330003342853512,7.243964278270206
45.17049758133278,46.28450338470337,8.055654444697414
60.556285351782414,72.71245215611192,9.822048954090842
62.76895714351207,89.09289428051224,11.352773907906078
51.41451911900575,93.70782437288618,11.23650950437698
28.96217323334497,87.05669543132164,8.433147165906874
0.20193562517096286,71.49237105563476,2.819755281565899
28.984567735433888,50.30070353966178,4.7147228684814815
53.07660627802191,26.73315780541517,12.681253299511319
68.03594218016951,3.474064759885091,19.57276571929418
71.80170210539899,17.356498643971676,24.424464789309884
64.18124765800202,33.90817126595174,26.962285907039917
46.42083969471869,44.43928009867545,27.287938465089095
20.797262097312146,47.58998810185045,25.703280817810683
9.623099578321426,42.98216459392579,22.731626582535327
41.13506431530304,31.741088702758027,19.08759625549493
69.67646121438061,16.514959150289545,15.55530453617133
91.3959645710369,0.8200455251659096,12.75752759541429
103.4171371474458,12.053384455180995,10.97359023639669
104.51619846085511,20.047413327654212,10.029572588393902
95.36964863915031,22.776165912164174,9.27399648764747
78.19674080100374,21.273943703390714,7.736277847057636
55.95582595447849,17.275185608227332,4.365646185661249
31.45841264186734,12.441988776331419,1.5867403086705452
6.7643358051357305,7.917301506180011,10.076977641273935
16.936018849754625,4.284133955793052,20.077446505360612
38.99878174687907,1.7435815940275816,29.882539692335083
58.83041985932865,0.262521013676944,37.67162601180448
75.53249574240284,0.4557407662779678,42.051736241990696
87.85087118533313,1.1013348254405486,42.45359418912871
94.40467921470159,2.769616328261575,39.1251804861704
94.0351729889544,6.696052365408168,32.786717815900964
86.1190865895192,13.739509805849226,24.373677185458202
70.78595168875326,23.863849639314274,14.93205207362747
49.01197155034303,35.916993569742466,5.590825070571533
22.623806263414295,47.840253278967246,2.6482636616360162
5.76954183377639,57.218237323889895,9.32587836538474
32.991996552510294,61.885971030988664,14.508540154356249
55.696592317942596,60.31746218553469,18.414997727599328
70.92427457454454,51.71870667990566,21.233333645084613
76.72483764355674,35.95258801372095,23.143547183590307
72.62655759925954,13.517488504085144,24.425184323726484
59.787831635394866,14.294761856923808,25.342266787117605
40.77456191754578,45.15571054869788,25.894521748275984
19.01426920463826,75.6376564615836,25.940985401433824
1.9157897934459085,101.578675639041,25.42185895806448
18.9636589983516,118.90062498857931,24.357960367651998
30.06322529025972,124.61653696070023,22.84817848220185
34.31935575557766,117.608226173134,21.03529536712732
31.97084379862829,98.84410776796548,18.95834590876444
24.2207543505051,70.97703204615689,16.44966809232092
13.011710596089216,37.564602290261014,13.13125771920979
0.7781584272325458,2.3033404663797015,8.541779002052696
9.835534216643278,31.424592915562783,2.390401821043119
16.348965185698397,60.647413701845394,5.393351720616659
16.92672873960706,82.76406011920594,14.811265764563805
10.860410565460699,95.66030491115816,25.67995865061031
1.1091621364159072,98.09812044278577,37.367103357271645
16.798916110532417,90.23493213375431,48.739089324199355
32.99120495544379,73.93776682625109,58.2648705442417
46.14910563305907,52.578045317833734,64.23988457993705
53.23631258783634,30.238537952464203,65.11628848496417
52.37265594117112,10.60038138975716,59.88436680348212
43.13510930178071,4.030284736567651,48.44368057080518
26.498702836520067,13.157010075694801,31.7658302253701
4.5458200954938475,17.82409274834743,11.753688514071072
19.882927809350132,19.84225906666796,9.140155589405275
43.50128762328029,20.92834896760259,28.413646575326137
62.89921152185504,22.113783321092384,43.88444377460057
74.97762249007565,23.602892422309015,53.91089628483422
77.52679959504945,25.0145217692549,57.660171810798076
69.83627659126685,25.770514347207616,55.24038577203081
53.08377272277941,25.405063417835088,47.56754706683754
30.24190482621411,23.686100817515143,36.22187597879081
5.427884569737139,20.60941171079696,23.290226611797436
17.11020924464182,16.36379230226475,11.010474607281175
33.96987364257508,11.318371858389769,1.283604568362247
43.162474157028534,6.019093477741409,4.666340681739594
44.15015822847936,1.1044212323378342,6.450882572480944
37.49550964636627,2.8701757309125293,4.663054451410104
24.443537469410963,5.638044157385953,0.7087609632924552
6.726008280450075,7.3603597963789404,3.7350927062519585
13.375285323075094,8.572887435100956,7.179783836209435
32.94249187612428,9.96702605301178,8.635100561413083
48.597386435450765,12.12482962015734,7.739110201519135
57.06347918725975,15.336558843162905,4.602790619465432
55.98532606270763,19.611956752245653,0.4177280948557586
44.64380557592047,24.824228290232533,6.795298101230585
24.220031287827055,30.819826634912303,13.811976063721955
2.51083517765904,37.382705980994686,20.70971099498521
31.895773090382555,44.04589546551509,26.91341242869877
60.17531783191224,49.87178959653917,31.936685013939222
84.01772558258953,53.42651784860749,35.09139591077337
100.73283594409082,53.09234017003716,35.45173089007839
108.27901294992209,47.60922714472466,32.099334234835155
105.29736694717315,36.59565960350815,24.48467801887034
91.31769308450666,20.784538745622147,12.902691791649724
67.07964049210732,1.81108967024356,1.272286204032419
34.782507485917165,18.32834921704606,15.987881645641101
1.9473831822974332,37.83952655533497,29.14798862081778
38.47850120157637,55.42683832679646,39.010190894067854
69.91781642147676,70.18911635173704,44.41589002624535
91.9796569723245,81.27020915118977,44.85122179669651
101.7677999648627,87.59467067446003,40.39682096993775
98.30465271605934,87.96676392414463,31.72541251294645
82.70961064626043,81.60487319994212,19.991483036115387
58.008402917777275,68.83658703950636,6.656869623152477
28.595411604922212,51.48753077288609,6.610055995134024
0.5550838984538234,32.633389650900796,18.050155894056022
24.756935125153245,15.679206541988496,25.944182770148768
40.38290063025992,3.102667936606459,28.961158992638264
45.401077250485024,4.538536985264786,26.72359333305715
39.6142101049959,8.843811770025864,20.071135250767817
24.605856448182884,12.912811804553389,10.878103936327943
3.267971259951343,18.855760326472982,1.2905896944607924
20.848046103714914,26.897361030828154,7.073510935000778
44.07381805579011,36.48157004491407,13.38400364083571
63.136759909968234,46.532303227076575,17.500766999547043
75.60971946357975,55.877235014375394,19.642202259288446
80.25450083061581,63.58519910155559,20.12175665168215
77.19402104390275,69.06431387949127,19.219695069663654
67.83891710458155,71.93467971447403,17.179810876374145
15.05627561154525,23.84624237880987,2.8948522390328923
22.648829083420992,5.425769975945482,5.29198795968605
30.622917513228955,16.945659360507182,7.653214287440908
37.894978661305565,40.45794704268371,9.17632290226492
42.70046034060399,62.275022861142574,9.109149338418053
42.73260894365861,79.82661034179712,7.041574588256531
35.70295876034905,90.98686942469448,3.0444257947528968
20.1167196898984,94.11961140511549,2.3259047667788573
4.014444213442426,88.36640654794827,8.203436824469723
34.89742371679586,73.88268851853437,13.631784775385995
69.1586213496364,52.02131377165107,17.66947707348456
102.32436295671003,25.742113738595716,19.50991453884328
129.44635195394451,0.127570469004724,18.650234486058224
146.1186828380198,20.80883389928754,14.92543345545887
149.3305491280303,34.37567236110849,8.587540098895738
137.39960305770452,41.604803230259755,0.4607309163082193
109.99633347365817,44.73326791732968,8.129551952996689
68.59481306033933,46.58036805968266,15.471046926947478
16.707700350362536,49.04000059133058,19.726195387469684
40.0632677382303,52.60466122535267,19.62736207324507
94.64649120550045,56.70689524004998,15.057682629237053
139.86526329981317,60.25718807866978,7.157262266513048
169.97575355913585,62.50074387905705,1.9833115885725285
181.98046074838314,63.18409751023868,10.03293126778776
176.0914324257115,62.32196246095178,15.144280066336757
155.257634082354,59.78459532486202,16.377615946208927
124.1021577294174,54.97860097191518,13.859366181302446
87.72490585258053,47.153846894514025,8.552005716516137
50.86941627558202,35.97880610214658,1.7491272142540644
17.493876233660856,22.15806035280659,5.202265561384196
9.390918684083205,7.611618747708921,11.04779917546686
27.87225116049531,5.058705313127026,14.858511126887894
37.41425698623627,13.51259199446314,16.01737416521711
39.06392204993745,16.651989395954363,14.215322798208232
35.35818086052504,15.076404720108187,9.742670809038556
29.749474769102772,10.806510496449015,3.553559671154744
25.650759773413462,6.489740875467125,2.969419166268522
25.479368496124373,4.476223574808713,8.291174043228036
30.061389649355707,6.223745521747531,11.160774503796272
38.645015225466544,12.21597695444176,11.071579073496652
49.44268052260923,22.26330366533689,8.405697801546385
60.347556875300434,35.862286230621514,4.286078669957212
69.49751145547918,52.32498598545516,0.21274450869401412
75.50746820388541,70.61346430400447,2.4313493961592556
77.41967156837244,89.0501074329538,2.753646820328783
74.58973944920608,105.21144201631726,0.6686699362800435
66.6877729103254,116.21376540653483,2.935820392636238
53.84622654016963,119.36306917615646,6.558177737594951
36.84237712724913,112.92722588581343,8.597066523288008
17.14697952897873,96.68875484781195,7.728370698433407
3.2527296993588353,72.04014537764606,3.3338754333264933
22.201138297900307,41.61721518421195,4.252597197753175
37.74563392417339,8.662806594376804,13.821826771278092
48.401198754005655,23.594060404192437,23.614244293540775
53.2703584453043,52.334405702284776,31.795907990916543
52.08593019461814,75.30477600653083,36.79517630077599
45.270402632488945,90.82127370846737,37.512264701521644
34.03278955206031,97.76937368212346,33.52694555977102
20.440498640785975,95.73778882858096,25.144617088036018
7.3289345808674025,85.25148113253759,13.269570192036252
2.094631535115348,67.9487035271726,0.7149517395146379
4.935628845787598,46.555467520986596,15.067240972146788
0.5837726687887088,24.55928384823583,27.89318615041389
14.450483107589802,5.603214815790164,37.43036491253749
34.59666494643207,7.22874556610084,42.44451282590198
57.16514940202021,12.014447069550792,42.61791180869186
77.2641354766292,8.323358803647606,38.617284454088264
90.02507128851082,2.791208707512209,31.87478145610058
91.62516866228485,19.071872161392744,24.23318810516902
80.02691926631266,37.48186090638966,17.344095901507263
55.294441202337374,54.6607651733531,12.063326862734286
19.46762828307113,67.32610002776023,8.395169815381152
23.851791085500484,72.64868874591762,5.9387717277011385
70.06119125072915,68.64911746905956,4.264379985984786
114.1438618696099,54.58283151244241,2.994445848086899
151.19781082627316,31.267055257657795,1.7852346539927304
176.92293328617478,1.2196105217042368,0.29957201155763424
188.06862656797335,31.555242999566374,1.8357350362250195
182.81001561904418,62.16587460036114,4.970790011601102
160.9990785337244,85.72699613751048,9.227521472769793
124.2198764110502,98.3514574171204,14.410172551390128
75.61550949751933,97.95564314940634,20.07106416977712
19.506990592321735,84.65217510805535,25.52671546367518
39.11762491233477,60.66208301181059,29.976532429586907
95.13574192809402,29.82107321426915,32.70085802080446
143.7302301166306,3.1323503913844606,33.208648270856976
180.69394674093914,33.28748396540984,31.395394388991644
202.6655945765096,56.20067485576027,27.50463151551123
207.35310975578315,68.41574033017416,21.962452707665385
193.8116107960657,67.89183741512677,15.291878355105338
162.81348516684474,54.340968303214964,8.022129081013233
117.18337353158469,29.387685682145573,0.6584484567296124
61.905342081389925,3.5753653006137944,6.313307453799593
3.80548011210188,39.90665195413777,12.497867617621912
49.323937708919324,74.53274202797559,17.692135143129722
90.07578180923417,102.81416026481538,21.940198441397936
112.93901685881177,121.187665408702,25.501609719069666
115.51631642551358,127.44794291543744,28.735179602994734
99.05162894294763,120.67670195782196,31.839946067798888
68.08047207822365,101.01273551031551,34.694119436207814
29.313939419354746,69.5457487913049,36.918232959126236
9.837972181207356,28.429428856680214,37.8145169072066
42.63133823822769,18.904959271777006,36.40468301548533
63.920866477220635,67.7088656269035,31.75599547993655
70.58383710660969,112.34370668222807,23.270255638103905
61.57192354167142,147.19454285389386,10.886834643833174
37.8206633571499,167.80355460992226,4.8485563365403666
2.1809982674997843,171.80340994494298,22.68645570546792
40.70006698963321,159.2805516755332,40.58164163255332
84.75744767026876,132.50802041523872,56.11965087946346
123.26625046814367,95.26611668748698,67.23946792931646
149.94838716705516,52.1031456294311,72.67857131278058
160.1860202751833,7.822734731122143,71.99480150227929
151.94040000171006,32.813968577718875,65.35438626572343
126.04753080490661,65.4063710052701,53.360742562687186
85.86260056974864,86.43646661570529,36.98793321675485
36.48110350917097,93.96129954209843,17.605728619382024
16.169941567876716,88.23256174625848,3.0963849648714774
66.08990766508398,71.86799462747878,23.334948237462356
107.7177116757416,49.301069702616275,41.35746746791587
136.3369095621955,25.63497097141116,55.60615016865227
148.54472044712614,5.346040177229202,64.94789775128866
142.84934752964338,8.648232418620502,68.77021249531097
120.22046143072131,15.219869433059584,67.10274347386105
84.29586219475802,14.64591713279576,60.685010443177916
41.0145896236231,7.987049082172186,50.79290047675446
2.400126541978855,3.3525666734704758,38.89338122051883
38.86365510579838,17.669475300986367,26.197381336155324
62.81417979986528,32.77264395991481,13.39284671295143
71.16145232839892,45.90191941753845,0.7915269635024393
63.582814531535384,54.03265885605488,11.34834052757466
42.22471288719988,54.5918520772597,22.72118156487905
11.046883577437864,46.28211094164018,32.96595300959298
24.914247462001068,29.617346352465905,41.45535301074664
60.196237197693314,6.912258941073463,47.27791724197405
89.48716657953494,18.26700187187411,49.621167228739395
108.2034588419966,41.93985648041555,48.15596581706592
113.10698625365814,60.503243882634564,43.185983001408786
102.87084355922876,71.24977058815087,35.4439480130959
78.40061627038254,72.61026625990456,25.722909625497202
42.721250843333664,64.24560745216259,14.777007463317453
0.36361807561563103,47.08835315015966,3.384849544959282
43.43410293565906,23.404725296880013,7.650541203416791
83.75895204392042,3.5580210988534837,17.45878973956033
116.87270333994282,30.200340358072253,25.08508326129501
140.4189617790443,53.10594958723231,29.60259969584364
153.34478528279476,69.64187607101303,30.429838054803945
155.68293480430498,78.42186429105514,27.708445999313906
148.34956256252096,79.4605430248567,22.33334143324727
133.01068029290087,73.96924268404696,15.66283130058677
3.267271006785088,2.273788451998854,6.004354462583628
1.4791620737938749,6.861194170407898,5.316700982474679
7.3502108357353855,11.800686137038989,3.8114956399295647
13.31815451605921,16.26554417201273,1.4057958784913753
18.309966401333284,19.381683755767927,1.8791604601816843
21.415428233944578,20.375855449462726,6.004093414235795
21.978991561654336,18.698166356370322,10.866793993804064
19.59338347697996,14.085227829660273,16.052063902094183
14.1066890985058,6.62939679057274,20.826482866829977
5.68838898608054,3.1864359007764147,24.235009439020242
5.0478987180099955,14.459240522853406,25.319677247333995
16.909219146911823,25.823038131384262,23.506830947947467
28.089429020395983,35.529788360069475,18.776190205155856
36.50793423873103,42.01595288178812,11.531644111631069
40.418110844049465,44.53559911445137,2.348386755938841
38.830911610430086,43.092959703962244,8.039478718623805
31.769881643572877,38.172335477363525,18.648395381530754
20.303404715655027,30.491799347397727,28.335337776435722
6.200337235302981,20.548091768358525,35.846883027766516
8.511311830484813,8.422236987318007,40.02343278731096
21.95361338003491,6.086999896738815,40.13272047089103
32.69064887740867,23.078919575125962,36.0288098482931
39.80748583818252,41.96889032489717,28.115363553193795
42.90922323426112,61.11743833452007,17.22045373080175
42.0842093750115,77.8390632192894,4.672326991787527
37.84204558287522,88.88757721381113,7.859602504355238
31.021118032147427,91.30131125355733,18.895086600190773
22.628564579084536,83.23994268995169,27.42526976864325
13.631404772536632,64.54367549900019,32.993445330894446
4.749477450281646,36.814568864151724,35.515506022375526
3.647797735844358,3.0668274966482483,35.04330096151441
11.497053872446639,32.849882774217726,31.847312595537225
18.876867741137115,66.8479401674981,26.378098124585204
25.782503960122728,95.09303073814999,19.235891162857925
31.934281485865988,114.41507852971712,11.237357947919012
36.70529467249907,122.66483809768326,3.184418714210679
39.237866634147515,119.01339343169833,4.331781960381204
38.72820177588791,104.14335943940043,10.95042699113025
34.76297923369401,80.21182051296245,16.557105543436798
27.593469900687076,50.49908051303585,21.188321252009093
18.23474892229817,18.78335957579638,24.89463228114362
8.30699286446496,11.386086400790733,27.690721254431107
0.33443565438857575,37.299003557965555,29.507570241566675
6.0203690672883425,57.410868859786746,30.12720378131656
7.60083754596944,71.33688316426066,29.231269888168047
4.614719955284175,79.57678126233164,26.511786302187595
2.6906402295054224,83.11734114119933,21.854936848507812
13.36864041739954,83.04747336189688,15.541694826580597
25.74614213576977,80.2426113016563,8.126567173861003
37.42656883476101,75.17028454684778,0.23956851327886222
45.46241425920803,67.86438233893493,7.4287526423949855
46.85553399515435,58.06889674338416,14.231424329593471
39.36220778713007,45.524641793459466,19.692195488064232
22.331765544158213,30.319618438817837,23.58801763326988
2.790065736746882,13.137760167155202,26.06997632645213
32.61444455466299,4.745072602293134,27.59958353136368
62.64915134202323,21.75122082937637,28.623580849521012
88.48360882141307,36.47696254507888,29.271506103425263
106.83210756633954,48.1115689309925,29.326639982719797
116.03909377840903,56.55033827166991,28.40769694995943
115.95745899389892,62.12979769926331,26.12878289660825
107.46301789439401,65.12307458798952,22.248825257608804
91.99925631562269,65.30600994561654,16.87397457515025
71.40099477022221,61.90843851890666,10.449976278936743
47.943956992707044,54.02547878005344,3.4982114137463913
24.3446437180195,41.280115177777105,3.5335587805967372
3.4291657218585274,24.368009734474803,10.173217040254977
12.561344079557571,5.148727902360738,15.858664046448556
22.725511004681575,13.815492779224389,20.066387407752497
27.89713020530999,30.043477529189726,22.420850869191984
30.381060377965476,41.81549357332481,22.803332217472068
33.06889122982424,48.429213687218144,21.6048616567686
38.35302283361894,49.965404718287644,19.80684938589636
47.32633543090017,46.774771259712,18.671319945800477
59.558851509333444,39.07962574648138,19.20681639893711
73.43516289700408,26.972842701674494,21.61550530625554
86.76830179318652,10.826813031636346,25.05940638106504
97.35375352079059,8.159928905498205,28.04597321368189
103.2938888105713,27.698044128462556,29.066514404096385
103.16299005358056,44.6789458800092,27.02364631689316
96.1711346706016,55.94718342454554,21.549679271091826
82.39033202711624,59.24897580378178,13.053226934438491
62.93931503300627,53.8945188433629,2.4109806947271726
39.93763151628644,40.86399472415785,9.289776892130545
16.13013605138685,22.383576097518223,20.95541684501503
5.735520998589343,1.2260315505612425,31.5395099445005
23.52242368954802,19.903915729805416,39.862333499270534
36.04204610042011,38.64541653615827,44.6494442049105
43.042100997883864,52.926730025956765,44.811160707039235
44.98569362083416,60.8300998674864,39.88579397847634
42.83899636031047,60.6448267158233,30.606513613567753
38.01559878608883,51.23412105593443,18.933496834652328
32.43257860700004,32.63726229438206,7.3293957851025064
28.4149570000362,6.593198898935515,2.1511205794593513
28.24471871755375,23.34445070779886,8.455721356139334
33.42631257317389,52.24773360905326,11.554347882642709
43.96751412169761,74.74191940272577,11.954057025349568
58.09104922569673,86.13298185269888,10.234150645143318
72.63587229787097,83.40049623435586,6.934563302994117
84.0454139646372,65.82393051929337,2.5920335702434807
89.51845548074998,35.16007165446393,2.111537915465042
87.78030888763239,4.573626342778991,6.263304471342355
79.16775356378784,47.65148719939678,8.969345423884576
65.11567114631134,87.46794861911368,9.542908171110504
47.4113036617578,117.56160976865431,7.589204810291446
27.648611003834198,132.7355778157486,3.2029438682100912
7.100005609780362,130.0717107802624,2.9847103595956366
13.122534656191707,109.57725278271049,9.941273397285515
31.938425846506245,74.23282870987369,16.528315845923785
48.436509276785834,29.3732870104995,21.872679468079152
62.25977532858037,18.420976512135088,25.54823359960412
73.96368968300945,62.60946987998318,27.537399199998344
84.95490996296942,97.80216435254971,27.972675078042112
96.83221256180441,120.45453815696101,26.925919396809032
110.3629003893769,129.11911473210313,24.483131387646434
124.5927628214528,124.3452482939,20.83277713423179
136.60621131126882,108.35676952887226,16.26754821455535
142.1743171820433,84.56937372777392,11.152227666733534
137.09554411092623,56.932091195090415,5.855317548610419
118.68109916629537,29.147654757838215,0.6994532656060842
86.76334560645373,3.928182617152898,4.0622225152614675
43.88974548305097,17.47689279751774,8.202159568560011
5.275083878173489,35.25211775890502,11.495475374134774
55.040960869490824,50.45552262864012,13.810736346203134
99.84603306798009,64.14991046044629,15.204715648492744
135.1595226672872,76.62153487423956,15.884023635675371
158.04286707380612,87.05122766450572,16.055726671597785
167.41735714617855,93.78626168112396,15.862972051706729
164.08952789310254,95.06597749393161,15.357320757634769
150.53406615228107,89.81265466220901,14.53550711761565
130.41414499658543,78.11678584740237,13.532333878300689
107.82938110220594,61.24686168398323,12.620368749384257
86.39486531524616,41.25181085431586,12.06329961199886
68.42087636751697,20.391397750102996,12.091709015182346
54.46846311168576,0.6270943086950148,12.808148037123043
43.42505415105132,16.675417873648676,14.046200204682814
33.079159050613164,30.82494285966074,15.443486955365712
20.993205599734328,41.77253209627529,16.61363080520081
5.373292547164589,50.01896610262411,17.158134075906087
14.329169369002527,56.43760042002591,16.649163950204258
37.20727936399504,62.00011677086618,14.722201381076035
61.08548778344316,67.43623250684269,11.192911578963924
83.15564076722215,73.11029609486104,6.238458221551719
100.70198104857114,79.02635612399273,0.33493166805913016
111.61929747757729,84.71722991379133,5.910489481882702
114.79678919136417,89.25143682513445,11.777890841456111
110.29664451453681,91.47169690498254,16.581135930776686
99.29793371181405,90.36329462011533,19.81927611855315
83.80787954293929,85.38371592662891,21.250918751911815
66.21665399432516,76.6335989034763,20.931674793410984
17.296266974798197,0.020886281525851383,1.0618757436978061
14.064063415301531,9.72905325776891,1.097802451029636
7.951983792938502,21.14003130293027,0.7545962419716583
1.0320170668247397,32.06491491358173,0.16007495822632525
12.604210313204911,40.010928182250694,1.8210320457895035
26.102249145519448,42.81432403098794,4.2630558850677085
40.39422723259162,39.158889088688944,7.301595511025893
53.84768022711473,28.762796620486533,10.542606440234227
64.48797758033751,12.355068540268224,13.393375322880093
70.27631239709027,8.496635346215406,15.143176786671352
69.46339629266984,31.514224554992815,15.096269742871659
61.0535989399061,53.65025722644121,12.742814045535964
45.26645704611808,71.08749322593262,7.950993673916888
23.483518652944955,80.07602547932989,0.9876531094128014
2.258448012191857,78.16894711108733,7.573323893375815
29.5018736668194,64.71807656011484,16.98585405537857
55.561207764236535,41.245452537245484,26.41337328458263
77.89057419352726,11.592969923520117,34.8364160885235
94.32849720190042,18.93033594310546,41.050479065455825
103.40788390456362,44.78079665910346,43.77985526540827
104.59589007572815,61.51567684324484,41.87318679393888
98.29225971422936,66.81650437586097,34.71738997475819
85.69429352355914,60.68199833025965,22.612386181245466
68.46974778600222,45.099369960855576,6.926937237258397
48.39776115214281,23.383415406534176,10.052241296695817
27.08630369127048,0.45193290095402294,25.69337439846686
5.808812204700064,22.0998616096487,37.67608456579864
14.491845514825538,37.3689927111934,44.419918789337686
33.16053399035947,42.729846339153944,45.339224326362896
49.77368184336635,36.11651766996045,40.85059149945984
64.04825948481438,17.743614655317444,32.04472119355012
75.68743261070753,9.505457280232138,20.41590324720439
84.14496235013038,40.42703063482923,7.886354197875612
88.43020405370893,68.64418030501415,3.384330947606934
87.11154242797396,88.20340385829496,11.554129812427648
78.65713809381725,95.02031093552291,15.459866436797864
62.116180592055166,87.64590624610189,14.779796718303693
37.899041163775806,67.20506070588218,10.215317197614445
8.296879235284019,36.72721832429155,3.316273755952563
22.59402037761884,0.27483968359784455,4.055949108378117
49.65712457357801,37.77377325568281,10.192326576856043
68.00223550536955,73.18540799390374,13.827417525234294
74.21836626347948,102.17851024120564,14.341218923325023
67.16182851439055,121.74807494702901,11.907035597954167
48.025051481010244,130.0394305635817,7.367315693925493
19.796327399821653,126.61181015555194,1.8185452369747477
13.54622158636062,112.41248841435697,3.6992906126017613
47.69154567410856,89.39809447018185,8.417513484000061
78.30243590484987,59.96362310878963,11.930378007895769
101.12571850318851,26.463684108461575,14.015099828708578
112.20234262671555,8.936052154029323,14.617236161146453
108.4255133732612,44.046760647467394,14.023203362416634
88.44358902512936,76.34417802726733,12.74429398006859
53.57141352332325,102.87434568746455,11.227493260183738
8.182587247017713,120.57864135483217,9.747338455558651
40.83920179842419,126.9835666034925,8.408719398815855
85.57909197878894,120.91148818214381,7.0624775623585485
119.05766683809469,102.8747850515961,5.387660591165234
136.9651817014346,74.97710635336973,3.191889709620287
138.49818485821845,40.40318611398841,0.47793529247282973
126.06700845402968,2.8049439440780657,2.6691096279371944
104.08537061820901,34.15167754755997,6.157036095113154
77.42824321305385,66.97740010750064,9.876436610655325
50.2120246001037,92.41889299209261,13.526158880897784
25.247298387919862,107.63652021006261,16.622812720547483
4.1356479332520895,110.60394575037743,18.726150302513965
12.371274685778888,100.64081789866374,19.5132197886488
24.139314295138377,78.82762113084681,18.780768583601155
31.6816086438769,48.03002775477398,16.43464094251077
36.32895271888126,12.440514770813262,12.509231931778269
40.206769982008474,23.242297048348938,7.217762669860432
45.745340651463025,54.70428304191784,0.8569305027739281
54.721302678995805,78.66897256628252,6.240606941366027
67.21593201694766,93.17394726565786,13.60097243354584
81.07758952873337,97.52461302609413,20.560677282892772
92.25794779130618,92.09437408788612,26.37335183024489
96.03991070248347,78.12686705249085,30.37045358745255
88.72719116313931,57.62353125926844,32.00909605265342
69.0519779826232,33.28180118323699,30.934507317645398
38.70419977488067,8.347932942994158,27.066931393841664
1.7930372436849686,13.70876653759884,20.619119499985747
36.4752455619901,29.726958323952317,12.157134371296697
71.25128454443413,37.518208062017656,2.531109206800759
98.99613002706468,36.46041241809638,7.273122168448483
117.68430078842084,27.808024685441463,16.15807388180481
126.41932153598998,14.553418313088574,23.07414163236475
124.8968950109294,0.7753141396254469,27.314545501458678
113.15022774229925,9.36867107230775,28.697531848337835
91.70969334837493,12.69587570711695,27.512058779487425
61.987884417987516,7.76684567228955,24.26554228087477
26.520558479781855,4.892221323522405,19.51576284869825
11.225012855284241,23.145658188279786,13.7821994824887
47.449147830097054,43.96818749336757,7.4264265811434225
78.75450868198712,64.20473800424732,0.6565574603565658
102.69189047005355,81.07568142127163,6.405304403509105
117.90928294470638,92.3396987735877,13.704725081710682
123.93384800913198,96.27076033509633,21.19998575533032
120.86337777111048,91.68374848564184,28.755296451394155
109.2470426947919,78.16591126934969,35.946554441247955
90.19938257269948,56.46738494838363,41.796945667622985
65.59694134443677,28.778435067321738,44.75172005638609
38.0965066627638,1.4132487738574233,43.12763880853362
10.792481035794948,29.985182525659287,35.6868328387121
13.41364589088152,53.18878966764422,21.928482881687874
32.476765567476946,68.61685520725945,2.373429158909949
45.59236794538878,75.70990355255792,21.084878377408184
53.12196819679263,75.62836826951917,45.2713085795496
56.13450161916643,70.6262387542944,66.43533824389704
55.82866357931705,63.247093087545004,81.32263582190782
53.13699885696632,55.68983600554565,87.99376713944852
48.6202553795565,49.51843150058621,85.98760910226966
42.574601954729566,45.64774713560578,76.10003677470003
35.21889068529891,44.39800137411391,59.92407643472888
26.821334297089212,45.45129833858169,39.35550707242598
17.739887773469132,47.71399720717908,16.34964050142261
8.46025271321668,49.24740115897568,7.134644763278775
0.2981329388865974,47.47380694360734,29.09662469423959
7.442013223683703,39.7494167210349,47.65676310022991
11.48843010750248,24.195314053775256,61.493190500177015
10.823998031810568,0.504088880941339,70.12052591697592
4.263820712832384,29.59320719780447,73.77839373083232
8.262431273051144,62.38266901389616,73.0953282792684
25.233863044121996,92.7871010829879,68.91582319634121
43.54366277664387,115.43228908873567,62.104894912368486
59.05284577207492,125.8780191092781,53.07939439592783
67.56646451706007,121.70706065655867,41.74687106800178
65.92636294426293,103.18752901965063,28.03742770964799
52.84401960761723,73.29197902979988,12.420634233015237
29.23150944457858,37.03138351906438,3.9309451876225014
1.9811760825665334,0.2755632563224345,19.40014886898993
36.41147681193437,31.566656735963445,32.357016679236544
68.99948256873695,54.59798834569951,41.57281849497122
94.81877015214951,66.92379616718051,46.57458126212511
109.82887154771164,68.53093540857887,47.69956038287712
111.53293711995904,60.796295459360564,45.822040904021286
99.46755924236057,45.958497598604055,41.991011324694654
75.42375191518636,26.80264211780794,37.1493307124842
43.28284830436076,6.583161049291332,31.9281485944961
8.40728070406461,11.06495978860646,26.62840113694163
23.345248744094864,22.515547316367016,21.390640497736214
46.78761903540282,24.953328258166437,16.23423522693291
58.44152385313023,17.36481491169233,11.157489025536885
57.56825315000039,1.5139569555829786,6.325345819378317
46.00875155744974,18.823681750450348,1.8853179279161585
27.054557247331235,39.65849237495362,2.169198227808542
4.641321138194937,57.766586531203366,5.804022996195543
17.435425796870422,71.29422954519144,8.887444092159935
36.1118861089184,79.78653854445362,11.281691265501697
49.38011212301421,83.70046263629268,12.880131803277877
56.3552040650068,83.7116892121491,13.593500400594554
31.482213687093793,3.6198957075538054,0.9683396223202996
28.229539867992255,0.49213389552122383,2.608297574509876
18.50650345826273,3.9624837434995754,3.7724239278623934
1.8917092182888686,8.236211910999037,4.24310214003367
20.46067876158569,10.783411093187086,3.997140718033273
45.76780963378095,10.549828184042124,2.9724588588004885
70.08137027099352,7.238673283984584,1.0786464958986526
89.0836867997419,1.3043734778503586,1.652872505894536
99.0501758067649,6.322084172671129,4.990529652399386
97.59554800788756,14.484854868923755,8.462042311388135
84.0923936286754,21.979581590155227,11.341586934606823
59.88671323425159,27.739896353808515,12.773870406165216
28.305049536529367,30.88796238979919,11.9418485766819
6.1083080859643495,30.21302194004052,8.356122489681017
38.7274804298665,24.04128773693218,2.2936854892705996
65.2913997202477,11.494967071613361,5.176568645094681
82.39993755479993,6.515973743714039,12.566078467620946
88.2925174288284,27.31567780547544,18.32633297880968
83.17170027699672,46.93231025117095,21.285097280291186
69.24408403200104,61.26933468236403,21.035963657497653
50.22452715544153,67.30849858293927,17.986209380189166
30.338026530321486,63.80169468870639,12.964881843907316
13.326110473254785,51.437595035189965,6.795315246399217
1.6217575441415863,32.33015486999245,0.36865736282099615
3.9106442300476307,9.309159656339084,5.187558399334062
3.737324335197512,14.717421923063503,8.729462806911151
0.8121146944454083,37.134711632124066,9.53445963382007
8.064198759425432,55.62402433712446,7.5894334906943905
16.29729294697511,68.1180846513838,3.594079538273088
23.878847589795367,72.85415662760586,1.078377373710056
29.335529097851044,68.66444787299376,4.685477565710235
31.45120855136828,55.46671791235658,5.763015400454258
29.444043273528894,34.68061334110696,3.6587044326811586
23.10309420118015,9.315713531516899,1.1313683087624746
12.827398864070952,16.44666751832847,7.250116008809383
0.4790354104494512,38.12192283758158,13.234873303829097
15.588151310908717,51.988696376071964,17.795068094401092
31.074713784568704,55.953306039940294,19.984663464226802
45.37045493720197,49.91839571532733,19.52517102149122
56.7985140539018,35.59727215456208,16.650281642614395
63.702066754522605,15.886233302580559,11.686565266131444
64.74011304333851,5.881434957381516,5.013774716213486
59.29860671274075,26.529849994359342,2.5938281682793436
47.83164096808002,43.3760798942585,9.874368868493598
31.92351716215742,54.329119348487396,15.422329233552645
13.997093465380386,57.93761011130378,18.155660175577903
3.2540684970981526,53.51428795037956,17.677332977164557
17.497447844238387,41.32979535552145,14.259535007049958
27.22978353453038,22.76347227186709,8.789908473568369
31.95835138918046,0.23259490910490085,2.6792546781033293
32.08294523915249,23.173506158512897,2.735469789307883
28.598147475406947,44.282717002649,6.709250220928268
22.755634564101914,60.46309601765967,9.196289967553861
15.740288839380511,70.06516332660193,10.631549813737315
8.400349746638415,72.54253473052046,11.4706300819328
1.0818860634199168,68.25492801492324,11.987341691587066
6.385955131495472,58.15366181600902,12.192677911907198
14.507368536544845,43.53933752685612,11.810856333943558
23.743906442746116,25.979614749431796,10.629510989958522
34.05797729764062,7.3881975305011105,8.781196692434857
44.57140004803553,9.910765773185387,6.576126485495374
53.53539875343607,23.340280146924062,4.178207547014781
58.690109309047656,30.52519486082013,1.4548165953015233
57.90326417104786,29.963898522251085,1.9510929793795324
49.86001295684588,21.68419556386089,6.323718578359485
34.56066593483142,7.583687348721012,11.56681857289414
13.44805691520658,8.76476686109168,17.265767892406316
10.844259974342165,22.844112158536195,22.80888272764393
34.999148378016926,30.258593461999112,27.326564093465755
55.64897132714315,27.839277508745162,29.841580818572808
69.99510484824185,14.476428172087013,29.556058264477745
76.29886121556257,8.544964705944706,26.012046966515403
74.21081333249167,37.75203206514221,19.25638540152923
64.88337109235226,68.15934268010167,9.984027095839398
50.7750054859046,94.27438473360833,0.5701295779827803
35.13778532812784,111.23191626320444,10.906266210105594
21.289231558244865,115.82243220435655,19.500035522806964
11.841476598725002,107.16807050147538,25.01441293849901
8.103214102085682,86.8604730588523,26.51255987152398
9.854078679827232,58.49694597382189,23.76629667981329
15.562798158504576,26.721325323793824,17.464486497070425
22.939470706808628,3.912291507801646,9.033100889494452
29.597368244293385,29.868865066989954,0.2730652683288501
33.60731304858018,49.09201754915591,7.084923100795943
33.82216379230831,60.93841458145915,11.840432456831413
29.944054611177943,65.77360115715261,13.498708025897542
22.412461614113095,64.5511581300571,12.181837790848746
12.22689870387852,58.5811099773333,8.468526508129493
0.7485894495187185,49.469936801061074,3.2277813067582692
10.518171493052822,39.08825377702444,2.4933607848150383
20.192155010970772,29.389058058763144,7.531216339640734
27.343938735912605,22.0263233122325,10.72115318262488
31.8236288961853,17.96311884137431,11.162340911500506
34.455231458540595,17.327179360032474,8.605638409612325
36.9538731526991,19.61925537390167,3.7313744502360375
41.513337492046894,24.152367146594276,1.9094290629581248
50.14295118952718,30.423185067877128,6.28256734760633
63.929316373639196,38.12566425518128,7.465929408098435
82.47565363130647,46.76619056925442,4.371453318042306
103.76181259160155,55.16391245085734,2.650259626864241
124.48554696079688,61.26408813905501,11.87159547443905
140.74039248625104,62.549271875731954,20.952033058718296
148.79917745252138,56.946479025444816,27.68365362647061
145.7676620121984,43.75962276805677,30.440055168484466
129.97674907343534,24.101493250449234,28.463584991448947
101.14102614060965,0.5428361865538827,21.857201702743367
60.39843646675929,23.844011104708475,11.34575095918837
10.316909649320618,46.4883115892612,1.9877160938911926
45.161314768975494,65.86011166336345,16.795807772312862
100.962659378502,81.35249488366688,31.2897405798447
151.4315412178484,92.72629009596311,43.27755946028671
191.1890273721383,99.61080950886708,50.63980804299863
216.12613479066414,101.42520812885316,51.84331557651761
224.2002339552262,97.71630383428139,46.34164974610678
215.73784661781735,88.57671141177559,34.81490541990488
193.16559337071334,74.77642876728278,19.12923447896439
160.28439427811466,57.4935542520601,1.9421285974125022
121.37116148446533,37.85463697442826,13.951485427799865
80.45368146480673,16.692455813728145,26.275459008846262
40.910736194535566,5.242643560710777,33.76030021080625
5.341622721257334,26.75972980665711,36.12487711683629
24.417998931561367,45.83615648084124,33.7307491633439
47.268866602443346,59.80090197773471,27.45944625767415
62.86106166690904,66.16128797975539,18.56421099153272
71.58369207638592,63.71550044876092,8.489792338782303
74.44370482728615,53.32645345725262,1.2085950287807548
72.82448703163203,37.84049424448939,9.046451754246673
68.20558180560819,21.14157585852736,13.766250045198774
61.929512395516284,6.8293005358766745,14.634095342786175
55.089442784760614,2.801176860105756,11.675666015639957
48.55146215154366,7.040517291387781,5.526744802696378
43.016964568214654,6.345021038836689,2.6750266464105343
39.02391092701596,1.637497602800664,11.3950743698292
36.86412808594428,6.140575872719432,19.021025560329274
36.46820482537026,16.00214480154709,24.261749824364372
37.338514164983174,26.61019643017332,26.322803042336712
38.59621230110864,36.08979093481734,24.840298186248386
39.16407819737672,42.279997942725146,19.947533540041242
38.043736352697856,43.39016529854147,12.216646709428696
34.60245250741681,38.67083757054227,2.4875405008139766
28.799323952144952,28.672697500743134,8.137303893140206
21.30889646759835,14.920073703623329,18.39201579355467
12.932191253605888,0.33660319746294404,27.155190807720608
4.253245691348548,14.773696176317335,33.61248310680817
4.062834449518036,26.8798342579127,37.276731081887604
11.262286104652405,36.0452828995824,38.01065551300383
16.584769309157952,42.25147890507229,36.039654518968085
19.43089888059003,45.64730273083337,31.933732345569666
19.555944097459935,46.30933108547926,26.43891918539458
17.20264556235972,44.28468334523855,20.325627728508678
22.07337687089131,2.5067226718684528,5.810729510988535
9.721755258840652,12.215814824362566,2.7327852409280915
7.1542770419337955,28.713421937092964,1.4634940744918605
25.76992705782812,43.565300438042684,6.021266635885869
42.844541723558805,53.565101229219344,10.087406774668345
55.35754219048424,56.64082416147391,12.895491329525877
61.183161244206616,52.38004334109772,13.953841506167109
59.45586006914798,41.94899687883381,13.10634729649228
50.69129418328828,27.52308015936902,10.507698686768258
36.63134764207031,11.423586411953995,6.5179432747390535
19.88946604428581,4.62536533986869,1.6468953085199585
3.6019752718497857,19.6626039360283,3.3892344747621093
8.845929060598479,33.018843964487196,7.650546606164813
14.64761409423531,44.110837834167725,10.172323960901473
12.888960368624833,52.753619133521106,10.294545017712654
5.0915786680213095,59.09751935357697,7.766332476597126
5.12211196318676,63.51425934931997,2.752412615324716
12.957762708481114,66.64833882549804,4.069089164749754
14.018371047251991,69.09822605936267,11.4612700110149
5.766213086940483,71.05941716653452,17.755493671833662
11.62118593492264,72.02475110397141,21.36516256152134
35.22603108597157,70.6494054562325,21.30765115653565
60.283637427230076,65.10719651802316,17.34455446072664
81.51544629641984,53.74718778158276,10.080002308230425
94.49630056628381,35.890821976356406,0.873668124542109
96.62514641511682,12.357666125309391,8.59523805395918
87.4744200860475,14.628241391885,16.806891371212505
68.635705525626,42.09623912934254,22.74900946327405
43.18581214871875,67.33444471629221,25.981293551154042
15.027410465631663,88.68831649233626,26.540398893197853
11.755338339086885,105.75801633670423,24.784201617768083
33.51327122392602,118.9464480407738,21.180949505947055
47.58989489816072,128.6059879208126,16.28738943394337
52.786345495797036,134.34105045682747,10.785955722579919
49.62039641101118,134.88008305828814,5.407267559495806
40.256010369299425,128.59400682732345,0.8162317549492508
28.024391877274024,114.36428093088934,2.618838585356713
16.582194099986218,92.29392041900194,5.079750798008103
8.929648750446603,63.90461319817069,7.186278213866243
6.62612180782352,31.741268987449576,9.413794598681314
9.512885918934732,1.3528237987495522,11.61308323577216
16.030735130233197,32.86479309069504,12.992740608928532
23.97264540733528,60.88631439934798,12.308867794929505
31.329587314289974,84.03521116770101,8.372274528439679
36.8230553722785,101.25574930642915,0.7881879055577748
39.92249082330224,111.767662446078,9.664083224360358
40.46710214773577,115.24198245816201,21.134683886058372
38.186323510978276,112.0617769368769,31.19780860319853
32.455519302153846,103.41081597504046,37.51759022457746
22.491350345363145,91.04029338966227,38.38169768114578
7.901990845651589,76.79376275452775,33.04997743601028
10.714849361950401,62.12108636487084,21.78876294533514
31.488634295964044,47.85001443555605,5.667432851578075
51.494645207303186,34.319765327549504,13.613329948545596
67.38351802092996,21.724225050221587,33.910222985774496
76.17145326371507,10.411256510832846,52.912201820061725
75.89069424908222,0.9462090884908386,68.36680246783499
65.891560810118,6.080092557512899,78.2620151773984
46.809027856452374,10.342113047952546,81.21178692846937
20.36730748304866,11.970023591931799,76.89993202744058
10.82753421688775,11.518350130567336,66.17588458813317
43.47293569281655,9.758538605925239,50.830972821811116
73.78863899834185,7.468821157311835,33.091167177873515
97.89099516193602,5.340177151892567,14.940078847015867
112.38454255000421,4.0154705983553,2.2956428228809416
115.03926481852491,4.167476425456681,17.92808277926362
105.3178765864781,6.463608962796314,31.586707740349016
84.54189890577393,11.388637546245425,42.965348883949936
55.59732585404588,19.018531869694396,51.856759183751265
22.262948369325503,28.887604578882367,58.19748083674774
11.60300318515495,40.05464674641444,62.06526872842448
42.72080237679244,51.350116272401365,63.70578423040962
68.71104742193889,61.69867225716236,63.38118247868642
88.10213161144802,70.36469628059425,61.24734992009005
100.14174724091554,77.01737206760855,57.510488868707185
104.57594441833898,81.62410064608068,52.43858971664313
101.54298673250463,84.23471157935509,46.17007751064261
91.61797039802804,84.73235923414471,38.6594980922836
75.93882644721776,82.61977227070464,29.734602499290496
56.30353231011224,76.90614971415556,19.22470024280906
35.12989525211676,66.1716125977268,7.119754178632868
15.212783010049922,48.86092596416404,6.2516495470036
0.7034167760219608,23.80571338028405,20.119754443274612
10.464970692121675,9.10701365479061,33.48502207678058
13.026227032808457,48.35022360425393,45.37606174492435
8.788588561842815,90.55462854536245,54.88710285349975
0.34414190961248725,130.8736276989819,61.265276595644934
11.274741568743627,163.89442895296767,64.08354952984423
20.3645442325688,184.8386449733935,63.295540016184624
24.263583450098132,190.63881480483298,59.26617265496044
20.70554601111296,180.53366774227274,52.746133160771315
9.048393857713938,156.0501285826863,44.57253529315698
9.612974484848761,120.47271348371669,35.42928908849083
32.79536791532119,78.06738656067405,25.93528581057438
57.312763716894814,33.35559827779423,16.598580692923242
80.05873109189973,9.41589247924902,7.671662935721981
98.61579284212904,46.64165469131994,0.6902902190078133
111.5191356832192,75.66907519191126,8.330870231268246
118.13717650975983,95.10258903935689,15.25465343123759
118.29928534984997,105.0225343625076,21.674966637957283
111.94236460749855,106.98582297875137,27.74551200325025
98.97690699698258,103.67476322284617,33.250980712347996
79.42919768302873,98.14935515555158,37.74676597827481
53.79593144154474,92.90510900741386,40.84662167143834
23.372382545556565,89.10943970336315,42.18929262268501
9.707311576621024,86.3283968018421,41.45830989234417
42.77333932224598,82.8799582797482,38.5048509001714
73.1233608846992,76.68993421235365,33.375627049409246
98.48960075829531,66.27504878668262,26.377751769650708
117.26719738484528,51.43796555698219,18.057371016212485
128.45559421743573,33.40465905496343,9.127093164353147
131.46089645772884,14.3632647680744,0.46156280213402634
126.013267652204,3.3663602859291633,6.959193105657428
112.35058096901047,18.128402440886877,12.24534887466688
91.58539845902936,29.331250868443355,14.97544392467302
65.97874647536764,37.32278970199682,15.37621273221188
38.821169886383046,42.89324712286838,14.166487255422545
13.790263338392654,46.71880926497967,12.491057651549424
6.026556961021761,49.055607733623006,11.754659544130451
18.99871056935909,49.842107867477715,12.996612156517076
25.315800767423877,49.08797354298957,16.293712774718745
26.670438871063435,47.23718024482333,20.825532335178217
25.4016103459226,45.227670113675146,25.23643405415664
23.55157504075457,44.15304521379422,27.806103965561167
22.293012553582624,44.68976977865038,26.8351631256551
21.937904682316464,46.62572639772196,21.335728005235286
22.3797689832142,48.7864497887219,11.585541708591403
23.58479196579732,49.4322138930985,0.8757770126590413
25.80872004228468,46.937927354878035,13.862359974745154
29.41703003664756,40.423379755873796,25.108709480512093
34.44490818375325,30.03792058821515,32.646747000126574
40.21998789415027,16.80380185658223,35.168736804050404
45.329631494780706,2.169489540970146,32.14242612313351
47.99818349431216,12.431933016888461,23.905444486941548
46.70276944192536,25.80099698044842,11.722373860311489
40.749404869652274,36.94020802595411,2.504953159269036
30.581667459723057,44.9038665293677,16.513456834291397
17.735310975035613,48.74217715482085,27.851725447152077
4.496527218753476,47.65512770729176,34.35554284455034
6.60830238697397,41.29370039637406,34.76292078034827
13.363725837324939,30.046206124585435,28.99934972084357
14.358459257509816,15.139741155029801,18.15248539971891
9.516789814836532,1.6077705685790566,4.36884023646446
0.041233159994940496,18.203636902473256,9.647723651918065
12.566400077264692,32.82300907590912,21.494605790914015
25.962530652062565,44.067800177337595,29.757394454921677
38.14169028880778,51.09143635760123,34.156067285165435
47.37971087167865,53.605466363269436,35.14439989703666
52.5843291062473,51.83037811441591,33.521382964391
53.41379462729309,46.43875064114239,30.170311576058154
7.601144582107335,1.4953840520688004,4.433428575190421
15.029836357754123,8.052699043765296,1.3279401106018063
22.281298304316984,15.820621150100342,2.648112373863295
27.829456110323164,23.57911348097512,7.16028333604976
30.173926146124867,29.76656151543125,11.69482228608758
28.178843880794243,32.74684467114631,15.643712375279557
21.363570883874598,31.186358428366866,18.51662009384023
10.027170156091282,24.435652680608882,19.89328422940951
4.774397972349956,12.844765662377052,19.373463531541738
21.46309558239141,2.179768157833375,16.744725038539805
38.22133987454088,18.41563671830664,12.068752670040814
53.1006498634008,33.21623256954533,5.770800887301894
64.00541350599052,43.96600669876361,1.2249025452299063
69.14866623867734,48.81608347593897,7.903814269694677
67.60849149618832,47.3495706059266,13.657262689192674
59.087967876374165,40.50989271037746,18.19256289552006
43.765022667287425,30.24305435646445,21.39799497346919
22.55426585650048,19.1048720929738,23.20451618660023
2.8422044527513033,9.626137868054467,23.411565394847475
29.864911245857733,3.778798165093137,21.787222666188168
55.274225312325804,2.54510429705465,18.200456409946376
75.68851545809407,5.627894270030873,12.825356661596237
88.13429382828024,11.534154135872944,6.26183666055258
90.58794160088337,17.953039045399507,0.6742750602191845
82.30067164942234,22.4242018846818,7.0642113289523145
63.923932073585405,23.085008413926094,11.959812774182902
37.516687139252326,19.202598117060138,14.691613205244515
6.429413044327528,11.309462685769224,15.068644463160814
24.899394980858254,0.8194920188596845,13.261454560691531
51.428189842579464,10.66439444501658,9.66104626570643
68.34639837920712,22.031912906339578,4.76961610613124
72.14752627934435,33.04741655095285,0.8635155166962334
61.67005870672007,44.24733998979725,6.459706645799837
38.6747206368671,56.442975168136975,10.978373792496003
7.640450811744791,70.07604119249957,13.32421485713504
25.25421122897039,84.71727751391013,12.482532167169342
53.62484593315479,98.87709053875483,7.877500366457691
72.31445338669432,110.12943862519552,0.11946716166371668
78.30906943158722,115.5039452975345,9.996773074549036
70.9690907945778,112.05676552519532,19.380150187416334
51.71606547073068,97.51824558241664,25.72440514915894
23.508129615687672,70.94402389040872,27.078172587665335
9.60707550751604,33.2536487738142,22.701771631733273
42.86234228774305,12.529805504717263,13.406640714394213
71.22635705828895,61.504100898849714,1.310118747871764
90.11141750793078,107.61039916274943,10.907035885516068
96.31626362642278,144.73801962532957,20.77187213699203
88.89589598393648,167.93178003402417,26.489072162236635
69.55130534259646,174.32694667038186,27.073301621335094
42.25046953643383,163.59142963896605,22.308713337845028
12.178712201890802,137.8644380864312,12.712750297274358
15.546354567983345,101.276846557795,0.40171405380022235
36.921222984956685,59.22336644117049,14.899503659672515
49.53847255598846,17.54077445148273,28.067236763690698
52.538692229947976,18.345509737918277,37.11051531819997
46.340580757830914,44.26740829628722,39.81018830847973
32.44441195540103,58.05450786219814,35.27173463264719
13.388901879434401,59.93556073028919,24.379885954462566
7.338365719633952,52.37057089340597,9.563650212097299
25.692026565757125,39.31074406723144,5.992011169947842
37.84081232089126,25.094208182407804,19.26456815525092
41.126093493032094,13.331348226320673,28.198109764126343
34.80231027810858,6.183455483893365,32.26016130527273
20.200329636906403,4.234862752312736,32.337455438081435
0.2392264907419988,6.849572877391787,29.936178177136952
21.450011174054236,12.732296850036875,26.43464396252132
41.383591757156836,20.39366960856215,22.715101820825886
56.75766967787647,28.34674592198398,19.042906837588394
65.60264289550715,35.11718142620632,15.272372613503059
66.76760209301314,39.279409025261266,11.18388534468861
59.96651029504299,39.63717141485193,6.61773838574602
45.9454168257115,35.528885458265584,1.4684865106840772
26.60389777776552,27.1062148588425,4.283430310419076
4.818260536680835,15.383120775345944,10.528420116442174
16.120343607034794,1.972460578604842,16.99828770938737
33.303319276980545,11.368367877790625,23.16139977478694
44.89069147052276,23.137839468311725,28.166312220884606
50.35649845329549,32.262056143889446,31.009749211478468
50.23438232621826,38.033269421494914,30.86767256753173
45.56930047864818,39.944994864784334,27.42738111367134
37.415661756436826,37.601962464397666,21.049778758830566
26.63580449928741,30.81159753142899,12.703998727110534
13.994784459597566,19.80609378672442,3.677682970885967
0.34619275377916364,5.435690372203042,4.783088139431114
13.30799227273852,10.798874093458679,11.705663855274562
25.95043805348591,26.907504206642205,16.600274639805395
36.76474671041178,40.7112840200437,19.58773507348112
45.23771313849482,50.17356587812836,21.17954404581721
51.029298839736434,53.68454354178049,21.917230772140105
53.69029912141191,50.32209293648863,22.19511634925751
52.443201467648684,40.107122993929565,22.17361734369124
46.22058527783589,24.194634803495024,21.72612595622369
33.99856306896291,4.883506329490565,20.532684881514772
15.270136383680342,14.691770238612527,18.2592537754031
9.542204433402222,31.21075132911933,14.696274197716683
38.86401282226887,42.00828474436739,9.827155512107215
69.98868972480574,45.80024165508561,3.832811960562996
99.29239243051794,42.964842809768676,2.980796819246881
122.5976321305919,35.26571276645976,10.212413307484761
135.71949002773374,25.16047811009115,17.253333073458165
135.23087407790996,15.01919838888801,23.338544969537004
119.36892093874027,6.59185834707591,27.808803741886223
88.80992307962008,0.8740073538646093,30.252243257072625
46.9566134429333,1.7298416224549058,30.539496402131125
0.5087952026925222,1.1961220195502642,28.796305159111732
46.77935749365668,2.1872188699718715,25.378102586448446
85.42368009982351,7.738930383235937,20.900181175674078
111.71283745965258,14.305696925722312,16.152970824059466
123.3555202055381,20.39443910827289,11.911299738442656
120.52151504972086,24.550700145115812,8.672197225679902
105.36394436467276,25.808029697571364,6.481966934509943
81.38629896577157,23.948557584014413,4.978482656967699
52.90010221677785,19.386377480701043,3.436322145674516
24.578687854995426,12.734683992341346,0.9075944424269635
0.9333868143633146,4.330572236356052,3.346805457848203
14.399219302603171,5.952848989842401,9.407308771135597
19.456964894269216,18.431228712209094,16.70050306339034
14.554465020129014,33.03365163410563,24.338813713900244
2.3308539893222235,48.80263494727489,31.278723949831818
12.944081756583646,63.81819074471598,36.44026311756607
26.60606680997669,75.6560897845376,38.923288240378774
34.91541475146079,82.1444928827897,38.11553259382583
35.973001738082345,81.99842334580006,33.753449508002745
29.924564416818985,75.01203036835342,25.9424112728117
18.511496973392898,61.791249510045944,15.214790027853683
4.282657509191331,43.29674025076103,2.64195323208154
10.170756923955032,20.57775735142893,10.242759200242705
22.696798979201986,5.090401153798881,21.763079277306158
31.76733485712945,31.80104181667532,30.56464849842893
36.50996128348553,56.72887369980374,35.912526065326134
36.719748394589864,76.34815463053692,37.65027741247674
32.8907790806967,87.24487420205301,36.10322970175634
26.197899399369284,87.22810065868968,31.96962548971195
18.338156553331714,76.22913986567083,25.91575271157264
11.214376879744044,56.510342869181066,18.052332635944733
6.530331315659111,32.043716390923294,8.023684903530764
5.420654630819471,7.355570702657303,4.282626951568014
8.250763507406777,13.62589958157337,18.216331855104546
14.61765926256118,28.248505544210573,32.267039658598094
23.48714900175801,35.199216356876335,44.31460808232473
33.44079962361292,34.18341033283562,52.264053877773215
42.964441715949086,25.612084608777273,54.61866034144943
50.79918852244873,10.73280470998838,51.05561863517344
56.18732774063792,8.310310174995431,42.265911341392844
58.85924348441223,28.714176242851234,29.3395346023608
58.91795504355017,47.30697619114513,13.66212375185054
56.694317405041666,61.13527306305033,3.1579011693663355
52.60654927705271,68.18114493605643,19.348987114920607
47.059529672329006,67.90436114664077,33.10659164484636
40.417029201152154,61.333140517614204,42.857068038234395
8.131703408465707,0.060695521696011424,3.657519343600781
3.4633201359190817,2.81840832525146,3.643059052599157
3.1544799894148756,5.534054454178971,3.132443424868755
10.619850904502902,7.977300973355422,2.112663909406564
17.37531477284374,10.291826771125363,0.7295821228762052
21.754461858441775,12.637016796965858,0.7111232953563469
22.451001822433494,14.887587602160728,1.8877117053573815
18.98511135296027,16.40634563198271,2.6961609437678904
12.041608901457009,16.093429944964374,3.420946402884553
3.4774336564916966,12.695275945598096,4.689246071501157
4.0442113255522365,5.3159157701737785,7.200449704769314
7.683153193804945,5.934422444439572,11.349008837725497
5.199013921806292,19.422519226211787,16.960988239999132
4.057493938141438,32.22044498235393,23.213901853925602
18.42765257547016,40.98091343989332,28.723765426846203
34.22765565214073,42.69390457316914,31.95957509932024
46.64008339454805,35.47278727002141,31.75039203268455
50.89794778619232,19.367132698880674,27.530940268979904
43.729028263188155,3.34018918609946,19.391901148577713
24.43577845090465,28.355021411124522,8.006611420926184
4.6790004191112775,50.21186902908449,5.496783950649802
38.67338609871068,63.61129989761262,19.774257411518047
71.13591632850029,64.7830009525796,33.58241245882207
95.72237474005917,52.56869258329602,45.86658143111235
107.6828408041433,28.800759723876254,55.6937137752534
104.94796523608397,2.1416477938443186,62.2652847772432
88.48209504969275,34.370986721749894,65.05327974211721
61.911796693057745,61.824760217388544,63.91473661516695
30.56595888826069,79.48387172603474,58.99857040765625
0.2700857197249307,84.22683545416305,50.59173551029647
23.80982468654332,75.27444057987505,39.033954024274
38.110434941582575,54.28550682955329,24.746204753999102
41.29522891950592,25.127940135081015,8.365685442563258
34.48721760460422,6.717956704104522,9.27000082010051
21.048272949237898,35.12571943724197,27.221450754547686
5.8917347798744535,54.59482634447459,44.38736886028238
5.65895997858362,61.57891471274022,59.45285158470084
9.285756204220174,55.446316114500696,71.05160595858399
2.958970748524996,38.671015832435195,77.98216769948316
12.378063110700893,16.107366022853117,79.31647915350482
33.06409713435099,6.422509931702657,74.66394215798367
53.8995255258835,23.736401110241424,64.51303342083034
69.83450871739817,32.541895790191404,50.154137861118926
77.53499250272989,31.940778961313192,33.34117946235543
76.20495030082584,23.124877837187896,15.990004531536249
67.3909769972633,8.562258853263957,0.16447409789189968
54.020066793995944,8.888448174892432,13.870162108206214
39.19557672399044,26.626613256505202,24.55067555941834
25.273357096352488,42.5768464740322,32.34703970762825
13.536170701073045,55.16415685351199,37.84240645134482
4.381558196008609,63.21734166823857,41.613442056328836
2.327825932360758,65.92130630190674,43.96811837236692
7.042379054817368,62.85696507955462,44.917289364686525
10.51314386652592,54.08838670923804,44.19097183692541
13.835845377140025,40.20626098219159,41.29779470902138
18.30807659120429,22.30203367246694,35.73951276615201
25.010795016372644,1.8851220664796065,27.302354349070338
34.27425673834569,19.245485087598865,16.233340830954422
45.33460718349553,39.16490921027541,3.1985335974013784
56.41895583091141,56.02710429156812,10.787279413873852
65.26059550211082,68.30559846439887,24.31081744866856
69.7913852069582,75.01380391336069,35.75848521050489
68.6798535852759,75.81557775316618,43.765761535744964
61.52135702667486,70.98816312522109,47.42515944907848
48.717871878494435,61.270179997949036,46.31798110443819
31.286225712437265,47.6748643763013,40.51112156382733
10.78567801883749,31.384224293509696,30.54520583997229
10.655246298087476,13.768176693707174,17.508448901502796
30.360852374125844,3.5466733682574594,2.9150646211756195
45.38243538463709,18.689114706775936,11.569066350396769
53.09993851814198,29.749190643127044,24.326137232822852
51.959158140611656,35.16991025312444,34.048645004402445
42.005874368926314,34.17667522797681,39.98569536576635
24.938768541628438,27.040200078975175,42.01982352599532
3.659022711184385,15.039666333151011,40.531004900861355
18.452007091573503,0.1500923491545421,36.20882307039204
38.20096524230751,15.392161383820586,29.987233832233798
52.94425840433726,29.438406795842464,22.942094453282376
60.64268018077811,40.071714136926396,16.124935270499794
59.82912499398452,45.61299172027906,10.33118047736727
49.722569456387625,44.67343907856465,5.882731813262757
30.548333381901227,36.39048020990719,2.672998969661346
3.9051936813571158,20.81360451586988,0.3148944238061284
27.07322776776977,0.7475265907083778,1.8229963398016178
57.99164487927052,25.664364841514345,4.593648804987364
83.93766926682693,50.38298651349399,8.820993422730018
100.46193991620066,71.19169331049923,14.87783568977198
104.48254409009306,85.07056142101074,22.53319659502787
94.87315494534157,90.28993499936186,31.00969906448475
72.62335237003127,86.56177181958485,39.068880590639004
40.610687120438406,74.78244732390812,45.370261703386866
3.106239234115506,56.606097016238955,48.865254620453136
34.85696511186822,34.118878279331966,48.861793822054665
68.18157701269683,9.72058859845411,44.98771541323234
92.41757337527189,13.89987159650807,37.25887179294824
104.37819752306748,33.900385501607815,26.166460178331906
102.55473197506667,47.67721177931171,12.673133153650925
87.2962617436569,53.464548334660755,1.8219639549677462
60.74169501176603,50.86298148927659,15.611810849442158
26.530687314039913,40.995243530112184,27.102241773661515
10.622157402696788,26.168304942297237,35.25730326078009
45.49369851324596,9.184587090059233,39.72613241083388
73.111524284861,7.347313372549814,40.77459309986848
89.63713189602304,21.383013595247174,39.206909967903755
93.1904830112754,31.385662228426984,36.14299915660934
84.34052725210263,36.03512563832981,32.62821478447332
65.98380544021859,34.068794270038154,29.41853309730464
42.536733599745716,24.5050141758327,26.87284680513976
18.675601944130545,7.232335636391135,24.834127553477707
1.8894383264132482,16.356199261923297,22.817014973039438
17.10858106209148,43.12096821549278,20.254571588461264
26.53748206522559,68.59420278172695,16.53132510834546
30.695882353497993,87.99450126361772,11.15043671263634
30.28853665674429,97.43837243470752,3.980446114785792
25.79182691632772,94.87126219940735,4.683857893867087
17.625026650436205,80.40976775310467,14.190945039684317
6.676190111851878,56.081272332803174,23.676118051204973
5.2660691943256985,25.233676729893464,32.2401794904774
15.554409966171747,8.08669201496397,39.14801201906585
21.31618410185195,39.62669532076128,43.96648087037717
20.37771034839244,65.3127031920883,46.450266336109785
11.99129917056032,81.71415099735998,46.29730056082059
2.969999382638221,86.65277144098972,43.164063991068474
22.411145405462275,79.80506813363424,36.89954333297313
43.70426229513331,63.010427418817194,27.762962174581613
64.24200468436858,40.012432176737164,16.57138531338939
81.64337134451249,15.582171433064984,4.536201997205109
93.6595065244222,5.720714388523299,7.060074891225862
98.05434013625566,20.66814273503094,17.073852648641864
92.76651391214743,27.949473620144587,24.758838040868095
76.427911089895,28.064212460613053,29.821866803885374
49.0413061697798,22.66647977851114,32.26329808495084
12.484559289425457,13.767455490964617,32.34488209468885
29.467649981522467,3.1576402904428322,30.451055036130505
71.70472087715352,7.798260964918979,26.832896935514924
108.71807938626662,18.06232749781743,21.660628604314212
135.6120000464879,26.76100359876409,15.359121826976228
148.93702997086183,33.13572289430115,8.71742417801623
147.16033809855398,36.62389419904678,2.6757421855664605
130.75101798088517,36.97136659895023,1.9530969354086134
101.96127596914435,34.24106538750297,4.858105113880657
64.38698694169312,28.684376901260762,6.381035860634193
22.44155754710537,20.907449549015183,7.096938731073923
19.31586445875809,11.739067515974567,7.437849977597294
56.78355371404359,1.8504721774749433,7.620407065375869
86.67712829193032,8.155332400798848,7.7021126779907725
106.81938976386553,17.59594894911755,7.651369895396298
116.31329448479516,25.64788280017522,7.370239776926378
115.55309461160007,31.44235167065789,6.814484489282457
106.07609895628092,34.29281659008477,5.996333448004672
0.5709159958340201,6.962762065161738,3.0833334996364505
0.6528145958252184,13.949182209993216,0.7135016520585664
1.2530251280070557,20.197670754482385,2.194036205003306
2.542961329708289,24.15519588360795,5.173351529919615
4.458500034250763,24.746345082227094,7.691643300482534
6.556613372593081,21.62650780884836,9.343794847287688
7.947701587836777,15.158859496431962,9.975742786831027
7.396321765433974,6.151803657608063,9.584790213741343
3.6195861533466815,4.442114040721967,8.157514996687189
4.277383984753543,15.750095260813291,5.648815670581124
16.362454501520645,26.997719186897474,2.0700675995283078
31.59158917916859,37.266895497212815,2.403877173816978
47.73215178635962,45.17769083310812,7.23264307361418
61.43695433370523,49.057522354056005,11.460740022010848
68.54367499093037,47.59117880149296,13.983921859942523
64.78532479588857,40.26377816008975,13.815936366255768
46.848580702715736,27.627272996993497,10.363017223352283
13.556802516246643,11.37485212207101,3.802797874141574
33.08557558067799,6.100093890948734,4.694956538596909
87.44133473174506,22.364258500437714,13.128186597099637
140.74653092357877,35.56997835984449,19.205852015261346
182.63676363778058,44.78145948484947,21.04009360483581
203.4394602995565,49.78068968932661,17.80442033196593
196.57169124635354,50.57165686476045,10.133258744440303
160.27272619457122,46.86412261828824,0.15298910897662035
98.12376746344613,37.94865238360039,10.823087098027504
18.214169306775876,23.166063141948285,19.82844586954871
68.64187222623089,2.754201900739243,25.510627458245946
150.95376456942347,21.35831168973266,26.672218865810624
218.2849183486997,45.38872289303667,22.6551630573089
262.4170530976088,64.4462387848177,13.525726502078715
278.1025301752691,73.98938091409127,0.3533404644746078
263.6459441870602,71.41128457941602,14.782545425031632
221.32606948610916,56.99403328916115,29.168102460064546
157.41474971331655,33.75963425021543,39.91764725791552
81.43218005810941,6.314413385911737,44.50090460800588
4.469349091833096,20.711805619457767,41.421063062280446
63.1297228225073,43.87875365971717,30.785390049458066
113.97610120411194,61.29558099666462,14.421076859860511
144.89393902588873,72.16381047549085,4.5801214145922815
156.7836871557571,76.05530616150088,22.69993404469465
153.28878316292486,72.5736809797058,36.87271244800753
139.01973934587392,61.69291300149816,45.205686352313336
118.18281462344972,44.51540912833537,47.31874441275522
94.10050776991177,23.814753590481022,44.06930271514265
69.5426660632503,3.7709474820202287,36.970657631934934
47.261301665793745,11.220412744637555,27.799761474509847
30.073645790558597,18.163462697928736,18.34033085631004
20.28497758197391,16.669413758833862,10.064463281060007
18.786537785688473,9.085838379570916,3.8415023794727268
24.451414349922644,0.5491618464700947,0.16561440493713256
34.2952992215847,8.19404494757268,2.26867266368923
44.40559667249289,11.275683139095229,2.8944081615272466
51.182672193012316,9.241964880604964,2.529861416755475
52.27765255081014,3.0818190486996713,1.8501528177122526
46.844155363743766,5.694233015106356,1.699488848335441
35.1620900803223,15.923812889355737,2.9056826551395813
18.051052514425475,27.029592484430715,6.03896016426915
3.4800141590854183,38.607140085929295,11.23348989654541
28.180090148790825,49.81005813785956,18.0897420201211
54.27613326971756,59.07744258093679,25.700117511168834
79.3417150596872,64.4582015466268,32.86016330582665
100.59230110951977,64.35790031073903,38.42179487353134
115.54039263030133,58.25221632540736,41.59041981204936
122.67954831169132,46.94323906286055,41.992188672254436
121.83433951317025,32.23103144804098,39.685583781271404
113.97786492176925,16.236160034804737,35.02215147224272
100.66621062373493,0.7878207633948627,28.2767056093131
83.48421202373076,12.832410348259003,19.607045580943147
63.79906062673957,23.778824910135324,9.320925316904196
42.8765645892231,31.377530709232087,1.917610492193985
22.168623209247354,35.00803981993258,13.00559429278131
3.435194611624064,34.276651459670056,22.67068571872422
11.495730890227467,29.357687483470553,29.89302972432295
21.261663375875788,21.232288882872663,34.19719780197715
25.52229170369396,11.604629160908711,35.75330439571584
25.194403148764724,2.4808344052056905,35.10811008792307
22.189850493372557,4.400160954377748,32.84544434033697
18.768294160018083,8.01572937581577,29.41144479668192
16.809271488258396,8.192890295397381,25.0582860607181
17.33080780669479,5.418926266179652,19.96477623391845
20.439502001855885,0.48949358071965526,14.340608203476105
25.65306882868981,5.7993949835588126,8.443105977545747
32.33635931117943,12.777060979088482,2.6114180820042163
39.995191282735135,19.837325558588653,2.7077978521742727
48.29783646213792,26.319684687127328,7.077407780683072
56.86636122208285,31.467593692215438,10.27940598641622
65.04844212878973,34.513706571632945,12.269559325790517
71.88120123010955,34.86807547711826,13.032960525646088
76.31671590680162,32.30179234106121,12.576527574012971
77.59543567701903,27.012252377607393,10.902462127798643
75.53780528341807,19.52442788624752,8.047940509221293
70.5667119724247,10.467416808525064,4.198795511910477
63.40564417542907,0.36127336061597043,0.20648115234634126
54.59276935358536,10.446423559373816,4.520465523509925
44.1153397248707,21.62955486669031,8.131304501227527
31.402372004528985,32.5758959285684,10.501192815354615
15.69983846795631,42.107072602109184,11.06809944740087
3.3513007121452647,48.4467599006207,9.289312929894143
25.24391613791092,49.57996812048327,4.747018389595493
48.50231463272306,43.95749990967049,2.5471882104451034
71.02116187896927,31.291186454028427,11.759545125891883
90.66112504233533,13.045834843102742,21.17217122470099
105.7707854016684,7.693977214013234,28.60406332590672
115.4078426177783,26.996986009749957,32.035303935366294
119.21381256536712,41.21891333489532,30.12873065379643
117.10183787894685,48.03802413406523,22.70718403473912
109.03924649437232,46.94774558562192,10.937547982273708
95.09096598331108,39.05080050856455,3.0336920649722017
75.68867528441794,26.369249345971394,16.68954862279888
51.91982045061869,11.112625356418015,27.682548528068686
25.584155477455944,4.714772459674551,34.21585206620215
1.0936073948178686,19.286615816085153,35.349972402571886
25.990058802409536,30.726775959957166,31.099043391059197
47.571068015764745,37.068699483405844,22.302931684147506
65.08275633548469,36.65923456101305,10.585466801013393
78.37389138780321,28.882580555059793,1.8020788149063707
87.4668292665252,14.796454585801786,12.373272415961619
92.15042905425345,2.7741919338975474,18.925228677641602
91.85915758136726,19.906609337172117,20.22465931652988
85.91300719586967,32.79451205109236,16.40938800188959
74.00692609193679,38.9533489370241,8.876066679556885
56.685949535537574,37.84484523054487,0.09186052379075627
35.54389975101878,30.668894672061118,7.925889470226022
13.034495315084332,19.539425407664726,12.418287046056673
8.051002227043018,6.552854564048013,12.253937681777916
25.20883166473529,6.7576915277929945,7.416332189975781
36.697765526651416,19.37007164245813,0.7679479774392117
41.7267920223809,30.345176860937165,10.04421938607846
40.34116981359826,38.47666946909864,17.902483476840118
33.14734143689328,42.350493676774924,22.218580748874935
21.06118746819029,40.84613068939106,21.73938397071071
5.194175058710045,33.76977831805127,16.42452891213926
13.092566933941123,22.17543914633627,7.440940930803569
32.071823928439606,8.11083400201908,3.3512583900463992
49.630442628273414,6.1155569636240825,14.028454363484508
63.417235145978616,18.74584039923505,22.93327330991364
71.14895113097762,29.013976100927405,28.917915671689332
70.99077642733997,36.97714661228314,31.520855986073308
61.86958431728511,42.88138068978388,30.706013776970167
43.62639342062038,46.487676111542015,26.518633181337535
17.02338343504216,46.77421384376394,19.155907913410655
15.730021220748217,43.15517541123835,9.381262456144647
51.414284923749044,36.03370207114782,1.5029624415674365
86.82665614353562,26.17520299530594,12.008287396207525
118.8495846750066,14.707219580830698,20.731870773211117
144.55173016070958,2.9291876408291984,26.735543406907045
161.407452555893,7.96659678649466,29.727696697671465
167.67335908260432,17.108963954421423,30.00405661593408
162.81949769378585,23.997954503954016,28.236818916117553
2.3970881611458537,11.20243531442238,6.210451491617135
9.971234668234176,6.345089386363375,7.166523525432128
17.710402348367996,0.11350579386320253,7.1797163338503545
24.19633707619866,7.606347750519457,5.909696406135978
28.074794380177053,15.568488456479674,3.109668716036136
28.246182135837266,23.3853765717825,1.168807789675511
24.033390006211086,30.305667305669946,6.4329899344979555
15.306883880312993,35.39266224208364,11.867456872082277
2.6462744798891213,37.64285743510642,16.62980131539074
12.617836155456889,36.210821230965124,20.02664513457508
28.48668388905963,30.68202756340569,21.50989586377683
42.37825144611622,21.40045148143593,20.67848693466015
51.31155506579462,9.736874656201552,17.32104924098314
52.81108427956356,2.264511366331929,11.645130514263887
45.98376607949657,12.762679718495505,4.489370496880855
31.52691147741416,20.510433255047104,2.7834580018301556
11.426667487363641,24.83523121614094,8.613581577522929
11.256221012817106,25.59440490845902,11.729530658495571
32.96719272458932,22.986250594435575,11.473848031640928
50.10354820738542,17.519917209494082,8.021636265836271
59.48094734774855,10.10870898910758,2.613151593929381
58.96036580384512,2.0935279032166147,2.795058424934658
47.96479752040175,4.815650031285537,6.191743825063284
27.927699698854436,8.830414683237413,5.999213513765536
2.325709842585917,8.481543774880269,1.5253782899799535
23.846144510203025,3.003422006237798,6.886557362356333
45.109816602753774,7.402423825290612,17.996778744197893
56.87882435527925,21.533553005911703,29.973123826862064
56.64946711271072,37.31495665397016,40.8456494949215
44.63685608783548,52.10245106166691,48.74889606119647
23.628549018502813,63.10833563265898,52.070904196347406
1.852661705370155,67.89906650845312,49.73602681115797
26.718691355549716,64.93361263317338,41.52562098746484
46.4524308157213,53.98446842953444,28.28390024820104
57.897733503939726,36.30587430014683,11.768746903828724
59.62130010808571,14.429866671812615,5.760613403329701
51.9082330756545,8.409253470394782,21.989390334592205
36.51233183611673,29.043278326092857,34.93777695810582
16.268388806859125,45.075085769248155,43.360157740452415
5.417432666536421,55.27082420945111,47.112807316576266
25.191000831469843,59.54286891249334,47.02089143887617
40.40487870633679,58.61083010313204,44.29370715252201
49.619170949390096,53.58762842106693,40.09159321766409
52.75876174636009,45.70280722476147,35.38517025741155
50.83856342431533,36.20366997015785,30.89780465184082
45.348678782769944,26.382618614314442,26.94921559899783
37.5693835970688,17.560671442074593,23.38989075350051
28.119549058917414,10.905400298926189,19.83108186480288
16.968282398941046,7.149629588998161,15.836039071998314
3.8961748343643996,6.366537114815353,11.044180643539775
10.86831159603677,7.976766129611935,5.363654987590401
26.163711989110734,11.014446988547538,0.9911281197571279
39.84366205208342,14.511027796349218,7.558734321265101
49.23175387740919,17.79902214867024,13.776686599868901
51.89669396357815,20.556987889101002,19.18690954753137
46.462502503145714,22.58527642352204,23.419143943951358
33.16192236255118,23.476351706693926,26.111647960840845
13.950799920888825,22.422648415608283,26.960632243942293
7.826706726274278,18.353780374757246,25.882635653077905
28.094208116454077,10.40617430635651,23.19274161432822
42.83360144738958,1.4709231303062413,19.464840695852537
48.854461220002825,16.06538990948501,15.283434303516094
44.43257416603733,30.854633499102636,11.236199837498356
29.71438907578236,42.47692186232571,7.81255341842444
6.785988220754636,47.61961707124873,5.264915532433749
20.618682780136524,44.04614979863254,3.681106732966537
47.736484420076145,31.449317616440233,3.0192245734085437
69.64340607845499,11.828091890789324,3.118510968528033
82.18661106616342,10.770453122848979,3.7113721345702837
82.75884295479852,31.08372860236603,4.343264190410407
70.74816800468359,43.83210017353798,4.4011721745444214
47.589249603840926,44.945722811875335,3.3518315718865823
16.455378929585983,32.46229988736004,0.9716076184727682
18.310882863434703,6.893550608326833,2.656706877821727
51.89845853485648,28.9301691194595,7.175637747689069
79.74328325523695,70.365271184827,11.87113323525294
98.17995917947587,111.58110981558055,15.771344199455507
104.94224615467625,146.17454481830396,17.904999429690445
99.43895121124508,167.8099944194955,17.44062144948534
82.76536538949009,171.01026838535148,13.82772123583175
57.43801638454598,152.18400010310432,7.1383382813042315
26.895839564818477,110.74670298549668,1.8026812832483547
5.090421491518988,49.934609444216974,11.764623256215762
34.91072984567219,23.12722526061503,21.402838146456993
59.43056948070256,98.38585602956309,29.336969262155485
76.15816181621148,164.76156612010863,34.264270767381014
83.33675973074189,212.45177682645823,35.09903547815218
80.06874494360768,234.89454562758138,31.19866852033282
66.51884515211283,229.7844066148326,22.56928389847085
44.13868416411786,198.9400466887287,9.932133336080888
15.746803250859982,147.29435918199073,5.293544195820825
14.711463458973409,81.58834626491105,21.150246867079215
42.7227909096769,9.303723647238796,35.35750528443375
63.95205917630322,61.96543344324331,45.73604311657783
74.97656012706001,124.85183540667116,50.81266402699126
73.79986533736069,172.617986826218,49.984737751413675
60.08486811817224,199.86837291022667,43.472764914743614
35.16816487508297,203.4880693729939,32.43680764494145
1.9421394714836655,183.43691396534302,18.70743522900219
35.357722724737286,142.9659823252412,4.174055434949875
71.50139992034316,88.04942800620849,9.554656041556534
100.84170562590141,26.151312424262226,21.16378423167696
118.17725707190309,35.24686915927917,29.556148908129952
119.76658690353351,89.83173530836932,33.861646980378445
104.1893010919875,133.0523909853243,33.5787023212357
72.75341681152108,162.13169753526248,28.798524876330404
29.293039735677734,175.74998842443085,20.303993991181095
20.587295308470473,173.73492324569395,9.381234529993138
70.56541377928251,156.97290148649455,2.4448598275709497
114.59879712448254,127.51957348783701,13.65967673447686
147.63243258508393,88.69374379057501,23.01145038483075
166.0048400021586,44.94539379582124,29.644521334104514
167.6636830395596,1.388751834969952,33.07301348694208
152.31117209158668,36.94409658382496,33.07295562123226
121.50185282204163,65.91997627209591,29.742075404759564
78.58733345594088,82.97942056741556,23.609257235376994
28.37400048953711,87.51078526571202,15.534779525388856
23.541834682305655,80.85637852631635,6.5890089154839275
71.61660309279308,65.98083629541081,2.133904480997849
111.13538840962376,46.86299493503199,9.752542582778574
138.7090551224431,27.723248365459025,15.68611030551498
152.40338945933476,12.253781890091762,19.712474540866314
151.62036873016424,3.015559960025413,22.014551874767474
136.95162493244712,1.1285303793349653,23.133287853941454
110.14204717313837,6.29416266601928,23.747720008396147
74.13529127040427,17.081725395608302,24.46133574491459
33.03054709514459,31.341792090790776,25.810312163554336
8.232664539328036,46.620001882553055,28.131723421132182
44.544448484248626,60.50041800997872,31.282756526300556
71.50467301576472,70.86221534079608,34.579205032312316
86.20872460843378,76.10371468926913,36.950332185925134
87.68576631288668,75.34956404201756,37.25048378982362
76.86344309994297,68.55454466504193,34.597829859259136
56.14405403944542,56.426249264483374,28.598436883660487
28.821996694912634,40.13717145425023,19.44245754005398
1.4466432516693357,20.908070630797816,7.90691956760281
30.986669845571036,0.3422173622405275,4.708324168979271
56.301336378909006,23.104531029752092,16.803997483618136
74.267463738956,47.042037633346766,26.930865774606954
82.40979185053438,71.48898991407252,34.2603530661643
79.27952234614696,94.98263945495889,38.689453739909325
64.82535309885463,115.1211498562322,40.667709418308334
40.9802702244352,129.83967098064957,40.684580761509196
11.273074686404854,138.0014261236504,39.12995796194736
20.291435023587553,138.8596366786643,36.56605933854645
49.82745785179438,132.26532641931954,33.620216540995955
74.09904959357686,118.80686149166563,30.803026159538245
90.88742940991384,99.82236330585661,28.3984576465828
99.1503893135722,77.27407789431014,26.435725531998557
98.99968255503782,53.52182333113463,24.732099825013417
3.151695888806304,2.2224963343560766,16.400240748250216
7.611650354859827,0.04242685795002927,11.270486337771038
11.927860936041794,2.863986993954827,3.5055617962597037
15.041097685525516,5.86490802834336,6.346243573597779
16.00758328166401,8.39161085765503,17.62133887246662
14.30651152170561,9.476895609183774,29.585362038056054
10.051563961386364,8.0255433475911,41.28356039600973
3.9781786296065493,3.239043653895796,51.369284107603214
2.7874219442133357,4.859126954525588,58.22008210668846
9.145599208838798,15.05698238975137,60.14980840672947
14.416892880290963,24.97404587690198,55.74823483986364
18.443500989182805,31.508719567314355,44.57738092139316
21.3649618191437,31.60345383205836,27.839744455537897
23.488382422000555,23.214547475866972,8.077496793987311
25.18379096364872,6.227311558613465,11.97559064880945
26.445785361191103,17.253058918362772,30.010042503300276
26.734508996096487,43.440937196983846,44.37983630411471
25.254149630614315,67.78186110725112,54.38044821182599
21.221377029660452,85.83327126351917,59.996159914147555
14.169314431922267,93.92621490276888,61.67483992929514
4.075794955555686,89.55007565538091,60.18687461531774
8.704058186077093,71.65939421354993,56.2150231052686
23.436855624825814,41.06234224461737,50.28222148928596
38.96041208837619,0.8001985661436628,42.90497610602518
53.556254832471154,43.78270549102515,34.656300879613966
64.92087708795742,85.63489931177645,26.11308789325793
70.45990870212407,117.37350465885972,17.6299335200497
67.92888701781341,133.14846395316152,9.180575743306852
56.28270105420058,130.34714011356155,0.37853105653137603
36.32725740828129,110.42826315040747,9.16704341870605
10.81846305157291,78.46436689012675,19.32295734414664
16.108992373937,41.49977335711556,29.305176281457523
40.002741635600835,6.397035307165441,37.827646102767225
57.21322713678803,21.941537928653343,43.41899162974763
65.6604679165931,41.3372257140007,45.05473510567186
65.02813456152734,51.9658898223663,42.59291960869201
56.47526890385697,55.31554892839217,36.73140772286339
42.13748657689979,53.165768091030216,28.725896408918487
24.67515844796017,47.07053820816009,20.086580342688084
6.977941638031646,38.44190020163319,12.323616905460355
8.086288034644845,28.903188456325122,6.577952489585801
18.03190990116554,20.389686549771174,3.36989157920779
21.25017257949729,14.764380674366752,2.6603689921124825
17.497829378990435,13.124746379610952,3.9600547696158297
8.122015107828133,15.216703657214955,6.482319014518337
4.169999576303088,19.384155540024796,9.300478448183267
15.962836617936908,23.190208277300666,11.441954082985871
23.97414588676622,24.435729539184052,12.0870166322942
25.77993767797225,22.037584916600622,10.85463137285252
20.205080934718655,16.293337453650913,7.92226516067043
7.3869638919245055,8.443903697792589,3.801766069220805
11.328308255158403,0.14319401598186268,0.9487997456146089
33.53186420417876,8.662034176475517,5.842892232773428
55.92614630068741,17.04655942901231,10.545405263944291
74.63179628311302,25.61014713102694,14.876879433208854
85.73980246693836,34.43730871577942,18.733160276198348
86.0928933826347,42.94113292280688,21.951785153800024
74.10406326377871,49.865414720993414,24.272831305575284
50.283048581039225,53.69965732311773,25.487937616651614
17.225422726201273,53.24135173682165,25.398311120241978
20.927992403899772,47.9810757241367,23.797140629578173
59.34159619895898,38.14541986742784,20.67163622191377
93.30626628214863,24.4944145543537,16.118662890400234
118.78336532658537,8.061680548248674,10.226764655289262
132.67738339984024,9.998422088504341,3.222183239787657
133.01761868713564,28.390128893821558,4.414066586966195
119.22987317436137,45.59682537615913,11.902418514527815
92.50061918984913,59.91999267631978,18.257184660329063
56.03456858370724,69.71271362973977,22.531843023595137
14.897860211263243,73.7292523013101,24.044623694143144
24.796993607213935,71.40963287884578,22.59598377884558
57.27369689211173,62.94941909192611,18.56570084997043
78.60779388976414,49.134056742520215,12.627472864711338
87.79503771079956,31.06206088869431,5.392338196863369
86.90410068727302,9.955808891279485,2.5680025359306784
80.21256380933383,12.793922527609869,10.551941506066054
72.62241166086788,35.36831124121594,17.674729860511945
67.9584628823794,55.25933203353513,23.023939132938136
67.80079960552074,69.27823903929391,26.07789815311329
71.23545013156274,74.02419012405166,26.914674869284866
75.4963507290027,66.8223916452856,26.06183570999358
77.08194390336276,46.830802616059124,24.341165242684472
72.82541844915112,15.844748861498523,22.509232158308716
60.568928869753336,21.589871570460325,20.731127877715664
39.372408408756144,58.92011012967981,18.439763515653944
9.460425069190517,89.00477731672095,14.612084942922294
27.806411342866102,105.73928345755776,8.292127937595367
69.77400331112558,105.32683291040553,0.8869703969412733
112.27887672195003,86.83213004271347,12.53169669500377
149.75213664081122,52.031881084697375,25.527660753491137
175.95926491607983,4.837914590772492,38.2201307413137
185.39058866293863,49.331869777871425,48.889460909815185
174.90180241109016,104.00083444648912,56.230003357756424
144.90993716512978,152.00227182033493,59.51457274803388
99.57475186232978,186.0757402112571,58.493243956494915
45.79870153156167,199.93439520608456,53.21382882532219
8.631258351235426,189.72603808338138,44.004499341133325
57.01472840502657,155.40779524532468,31.606842311262845
95.03018670265263,101.36902613621464,17.184074475530707
120.95649431827532,35.798829174206524,2.214372796040447
134.98829028309598,31.166586763397582,11.655901421383248
138.1917845667662,89.86252716745112,22.936191754312468
131.70831569788484,133.19463891239033,30.71940024467336
116.54848229967071,157.71560050152846,34.913924623740684
93.91346074481491,163.45487103742357,36.082911729936505
65.66570894057304,152.87386492330322,35.05247848380023
34.49492801854538,129.65378341316483,32.63585158426073
3.5885687961923622,97.8898795998939,29.53044810326879
24.030849235642926,61.816584100309264,26.294337317819373
46.17054695039936,25.792213380201503,23.364891890341255
61.78515659033036,5.866604555458195,21.044141404078392
70.79711239794125,29.4318256912045,19.445880915239098
73.59455460128602,42.5285476543564,18.48984491699365
70.53186930156375,44.72856796179279,17.96940074116192
61.71385965474609,37.613927844885616,17.58009242321902
47.1911065892873,24.199363960244188,16.881582419084737
27.449022656008232,7.993441696451032,15.31365160333923
3.8865707913721144,7.86421133878043,12.289150467195169
21.009380231358865,21.058001180934085,7.425916001329124
43.943909215204286,30.08796868153109,0.8600491098644977
61.49636031677965,34.058505023852355,6.682577644695151
70.9604969456789,32.53393007221627,14.121265083725818
71.00953056411369,25.571699078770504,20.345911861865012
61.93101544959588,13.876697076043262,24.486235056849427
45.39368099656235,1.1389901231692683,26.117675739747906
23.908715626250743,17.537373379098717,25.417258914767835
0.23200134107159823,33.24042277500989,23.068431777213444
23.073449495751042,46.434601371124536,19.876211597502376
43.82305449548551,55.79448561081762,16.491425538905904
60.21760787171099,60.488793225218636,13.371421142260576
70.84856060484451,60.06469752417015,10.740662714432613
74.82727542680281,54.400865896662616,8.540730745471878
72.00478313197179,43.83809700387509,6.596927674220421
63.145136701988406,29.37483127031681,4.911399368350247
49.887470353804275,12.758553916983544,3.6003149126797656
34.410374435177545,3.67653573965524,2.621123285487322
18.919654316630467,17.452379125485283,1.8018247984942026
5.2030327677014085,26.503907188403897,1.0015412011172664
5.564077133162713,29.622773141820797,0.21149739478753654
12.717289785496236,26.62527073868314,0.4548527026977776
15.838287904432024,18.254728568243802,0.9220429209174046
14.598275219044336,5.943940253248193,1.187730600312971
9.286095606154944,8.5072031546715,1.2376845497484197
0.8658917245670096,23.254499798075596,1.1667862655458943
9.48423873213307,36.584462093511576,1.2927401569344334
20.374574625155734,47.001943210679556,2.0346963639355367
30.33334357496641,53.37769738214633,3.6432780435865415
38.05686056648083,55.15004473487874,5.989958907578719
42.67452763596991,52.471463320853594,8.63700580446761
43.90315885622339,46.203478470488214,10.982639365495393
31.488074167065275,15.734410971081418,13.404184272321176
58.68212811865036,6.130984588880665,12.498926277321189
84.55826997214271,12.134224534285787,8.937440898500075
102.82911619293273,38.72395981616382,2.5691985673511484
107.61696548878442,70.42078612936912,6.2185809080671755
94.82561051408629,101.20649046980583,16.511310686973797
63.175121097086674,123.43705002680602,26.858228040005955
14.571986981304962,129.7679732262917,35.537585019315664
46.06276086059924,115.25042163500547,40.981272958435596
111.58098919201997,78.79042698172627,42.02358221038177
173.64549241042718,23.496013783630186,38.03168233200542
223.51286819684034,43.98467236150689,29.016627263880824
252.67829286311678,114.77832499924226,15.71400253662632
254.81100056917975,179.63960940987522,0.4280047694653893
228.06055866122244,230.5236621095867,17.326660931312787
175.10208422560706,261.01790733099057,32.53349529890134
102.36320658575629,266.592249664399,43.76548825293621
19.18856816208197,245.219826432195,49.386434184387234
64.03388634415091,197.96432688946356,48.743867332925355
137.5539314107123,129.52343373003256,42.279373041762526
193.7223767505436,48.07114922507732,31.30934921778557
228.17380333459,36.004307881037086,17.726074602368925
240.04079723686257,112.12285295372028,3.634016806620022
231.6484696346031,171.80130073714545,8.985735877318211
207.60075268105143,210.24228880345203,18.502934317883216
173.5716161905208,226.67100626346834,23.98158635470736
135.19475848938535,223.50443863111676,25.29592857583183
97.1204536973667,204.84066458327575,22.88858743072313
62.54694880194789,175.10600580682575,17.609205984093876
33.086836389944445,138.39112026776732,10.6100150766124
8.951809529257734,98.50574753928163,3.162843352148234
10.63359888237388,59.327268356399074,3.4852714987021067
26.988678587793295,24.875018177641522,8.204504027058872
41.49043793290251,1.1888216070378328,10.25151478693711
55.18181856952677,16.49732372330848,9.594343534397309
68.49335098047806,20.83637484989773,6.810139503168509
81.10716709269303,16.416384774104678,2.8079151372282762
92.04842038985348,7.3395655601720495,1.3032982213637239
