0.6132347234022478,2.999212213032641,2.566062860831952
2.8880869953128756,7.940345675897326,4.75606254963871
5.031985863096599,12.267883719989507,6.750229911330155
6.4817320152992295,14.873607989342513,8.059684665297786
6.768684201778095,15.040313692682565,8.277725254728372
5.71484719482265,12.609231708149148,7.187887789115061
3.5944034392811255,7.924566215717914,4.8617519751215745
1.146062026707005,1.601296309644546,1.6323441014525424
0.5953586507797137,5.663594955852896,2.0318171218828227
0.6919101940379464,13.194011391177584,5.712110779192629
1.2214829232716349,20.287746392465866,9.075637315113761
4.653271770139824,26.006903608251005,11.793554044160059
8.296419607870511,29.028097437773514,13.49803376071777
10.239347073158926,28.056136811479345,13.85750882592317
8.372526300893758,22.522248878074144,12.850149361776513
1.1492425235611718,12.727890077627421,10.832031495997073
11.728936777432562,0.2639311016958778,8.276895703373679
29.01795475109125,14.826056452438012,5.546404175427743
47.97167894202911,29.281119443144206,2.7817822854982124
64.79565812153159,42.23253250548689,0.030075465801679146
75.34389657416567,52.61232699808978,2.981972459681504
75.89739847625673,59.52703270137691,6.14023569531949
63.98975331504271,61.960686095593246,9.231917464407084
39.09896868988652,58.71889639685273,11.590147594417312
3.06575891745433,48.68057975001815,12.492814807073787
39.959883851774684,31.33200814162593,11.561720049788754
84.12853327145696,7.348372990847477,8.97235306090394
122.94617248447314,21.185655682263874,5.386053004711749
150.59229495399,51.013677536396486,1.7966844185367332
163.0855391317922,78.3593145888546,0.7926586851444358
158.910779784005,99.73266418906199,1.7829046069702896
139.00923111822155,112.55535209094715,1.1294615101584353
106.23522433803532,115.45458960845046,0.7485670806256469
64.56606427056929,108.24631983031362,3.2606128521250897
18.389748790959377,91.78525025053705,5.92878067060371
27.98187239143735,67.8160424214645,8.370791366892421
70.62654378908839,38.83024517422166,10.115901929702547
106.27682740980973,7.846272600200091,10.525133308744646
132.62683594685336,22.005173216391608,8.976595500718949
148.63660651840385,48.0641785016678,5.154836433980812
154.6381999180421,68.68704583787292,0.7757243176337031
152.06703896471697,83.48311949171256,8.02047039010147
142.8339577598699,93.08011253462676,15.18214885046572
128.60259165203044,98.52477990828503,20.711936837993267
110.33483022666748,100.6065656431564,23.511362091736057
88.3245512466981,99.43182934697006,23.250290206040283
62.68970421013613,94.4848690273684,20.31517292335469
34.015844377745054,85.0895001592919,15.612230509022293
3.7211790653569854,70.94175298651903,10.279191179163236
26.110793294949644,52.42475272337694,5.27328145158307
53.34165328377636,30.566396324479772,1.1192618142112287
76.47339227325574,6.718936582478111,2.0216105753704703
95.01610939514546,17.777148294817852,4.1794007180474475
109.29086567344011,41.717224947820384,5.438491264527434
119.7895663440426,63.92599570413629,5.932840411717616
126.50346534204849,83.09434769789263,5.993416328432284
128.62003550416028,97.77070401655897,6.114970362299895
124.75995442483523,106.59762619852086,6.722074741650582
113.62779303360173,108.71492187120433,8.105647330045446
94.70128408050498,104.10331999142038,10.513155412251127
68.59546829392181,93.59453524781283,14.143017861143921
36.999156439355346,78.47793182093667,18.998685777552105
2.324728918408,59.925001459404015,24.73735451840871
32.6906367516279,38.5469069061173,30.632382030406923
65.23161381680562,14.344802434636335,35.66145538477554
92.4708544829584,12.854993795758348,38.65588305546089
111.6567638811004,42.68095634919747,38.489213215602405
120.42777806750364,73.60877825619701,34.370828497140394
117.32617998083776,102.80117023903661,26.064014997093036
102.31490017706376,126.52089748455784,13.945393256353528
77.02712013814663,140.99453689627344,0.9501302211635314
44.55679612202132,143.39598517946865,17.117180235144204
8.827316174858097,132.5842372165244,32.9205181196866
26.211672021742398,109.36751055341878,46.827088031942864
57.213382849691726,76.27262753063368,57.68748801540174
81.6917585898731,36.974068302036,64.78582500687162
97.96374482260983,4.402540806864653,67.5801155095195
104.97190677038532,43.88176679692991,65.76208891105586
102.2053803342127,77.99964456125056,59.52615662053191
89.8077379006987,103.97892415255193,49.56895808403014
68.76865465853,119.84718704127677,36.947230980943885
41.007989144444636,124.5754641144765,22.88736034809251
9.221541600691932,118.25630328042948,8.534032976419976
23.488905667891085,102.25054228256379,5.227285488171879
54.07102268672235,79.16765559367091,17.829142163152234
79.88417925471397,52.5328461520351,28.91046720933254
98.85164220500215,26.143314558540315,38.059392286732866
109.49953610954434,3.308609440923782,44.701205941574926
111.03763499826324,13.776204109955122,48.2440313901659
103.51284482285432,24.300386852310634,48.33162052436622
87.97607886051392,28.679579389118928,45.155134133789296
66.51095336053613,28.099094247031495,39.56087686180621
41.976572791070765,24.01973892061136,32.733189109173445
17.460338834608756,17.910210376260714,25.807087384547486
4.38963241568766,11.271441141268943,19.530236967744898
21.86746993369022,5.803377355335466,14.006101570641253
34.32747575336352,3.4475493282280514,8.930202217264986
41.89052378284407,6.061358758540286,4.024718892754486
44.9318245547481,14.729065882733051,0.8273451074548963
43.65607914157973,29.009570467522185,5.619855420548197
37.99493030433475,46.542303489240055,10.371284786848557
27.894834424742836,63.338233361302436,15.209804141520133
13.842200235653666,74.7960562982478,20.26346096169791
2.6631966949879935,77.11689474309058,25.45957108334591
18.951447037137633,68.5340203310126,30.282376652021927
31.490789125793594,49.83552045308996,33.78362973176392
36.588891999451135,24.014692916369004,34.86553414690554
31.261732310745664,4.7392113217424345,32.600029321619296
14.047004023455163,32.243151529700164,26.596486152513776
14.443112981673611,55.214191104117425,17.30260011643859
51.38067856481307,71.59274375137093,6.020248778770183
92.03863549226683,80.38453144518874,5.525122388311476
130.49991331408003,81.36265940711134,15.816679367830096
160.6163785199943,74.93878183529159,23.905712989511912
177.0415948506543,62.264282570568135,29.43043039754051
176.1469832848778,45.389805640625696,32.396267615682056
156.6660134838105,27.173819237627157,32.92493365738552
119.93794849140036,10.734054175005646,31.109122561971947
69.70249455527663,1.4294244695907603,27.02997348631521
11.5164821515037,8.256947694776542,21.00414981103595
48.10610932206655,10.471480757074977,13.67683791916806
102.68574054116561,10.196674818938762,5.867307447970143
146.72048534342457,9.990188334251725,1.5572814770200811
176.40414048548178,11.765155044018808,7.879335345223067
189.9707728585829,16.12920700440051,12.651459118100231
187.63528072293533,22.409236428443005,15.646303412805095
171.21474196618982,29.240092433313258,16.90299710241697
143.58479246647482,35.33322040994729,16.784576899729156
108.16949726975372,39.97996449938399,15.862991226685088
68.63667649374744,43.05091216810267,14.670981783140212
28.821148866322073,44.61656794929052,13.563676256605932
7.298505944701796,44.54124367291662,12.77019722084164
35.803013519630426,42.38643206234119,12.383350367250387
53.345767635400136,37.69783356377806,12.368419667611953
57.91032007010825,30.462826442364793,12.714437900998174
49.54596299902236,21.414371814855606,13.416732956143157
30.714617728469033,11.916945848878688,14.222504266509041
5.964673075716116,3.4597516261046994,14.5164258211235
19.060217997321374,2.9428609964896637,13.500402956163873
38.95625016996092,7.1128770043567435,10.445457723691224
49.7666401544086,9.627783441296216,4.961105022988711
49.66316873417804,11.36435651201121,2.7133158762448573
38.965781493178326,13.031616412824327,11.740130333939808
19.769769675086355,15.011874194594695,21.052810440584373
4.564479818379015,17.37100128689979,29.601495812378175
30.04328870854005,19.919382730148214,36.47882468952969
52.71366208183189,22.359339919930974,41.08117697387251
69.29131644355438,24.397464910318938,43.175987823109814
77.68389344932977,25.758130957556507,42.79682351315745
77.33767689916085,26.147739118701903,40.116838908315316
8.622870444126487,13.964325570565956,4.090112626310067
7.530527210815095,13.284216220661293,3.338618818415261
3.6567254208305986,10.00247356161293,2.0812600493376325
2.606480919521626,3.916982357354853,0.43107316803686424
10.103624291187414,4.771241641999889,1.5472627161664008
17.197605289371772,15.421447738995402,3.906965016408389
22.174702637882685,26.982064881332757,6.730597884910791
23.66721794529786,38.0692203256091,9.945566370281464
20.93406421420968,47.07180596615903,13.236840936227697
13.941392217552682,52.32410957025012,16.0263567507705
3.2391677543222537,52.32579285842324,17.557975057946983
10.295358265331517,46.015185304559346,17.115247675004138
25.625257300819765,33.12806002419582,14.304142371874317
41.25576811145694,14.53635405943755,9.204558943079771
54.79669930630097,7.785863110483436,2.3887998310197043
63.113896363197384,31.254476903772947,5.1175778025412155
62.86662828024074,53.20241090890864,12.159001480220713
51.256199051985256,71.29307966060351,17.79366934670559
27.051072002370265,83.82152523728304,21.35160614364473
8.597376895201705,89.75905040452884,22.43168450682254
51.81677544487915,88.6429936427022,20.878590475741888
96.32296262110417,80.41935633076417,16.855887705380297
134.48906676388734,65.34056642973258,10.981853315531511
158.83795853215503,44.0431319515731,4.322689282073272
163.5913339121048,17.731497417031424,1.75721383713412
145.8570596420836,11.648890291296368,6.041179021096994
106.18680664772663,41.425165911173224,7.8973016505157405
48.52879741514963,68.50329468031607,7.291374107248541
20.33383482699071,89.88660502573397,4.701461401971271
91.67405286721026,103.2576433118855,1.070425638878101
155.94691281885108,107.38583002079272,2.431744311081152
204.13027255037457,102.20698657051535,4.7756528629820005
229.1835239884338,88.6227104692228,5.4522460253071
227.444465313607,68.16483960047636,4.668954231510352
199.58925250552556,42.71659358035423,3.087829215325699
150.7228351317874,14.414267121907777,1.3215999292367944
89.38364550317995,14.308673164769637,0.3905295453160023
25.613909060880136,40.69888858162407,2.1277523203753925
31.331739877907605,61.86234832858218,3.9505633064909422
74.91421804740875,75.18801482485685,5.778525889455386
102.3054658146712,78.92001011440487,7.552482770400192
114.21857447597957,72.70140387701015,9.266607777980248
113.81552093971912,57.83868362720031,10.92271021065203
105.24442804662075,37.13186461522402,12.518836021491836
92.39369427641782,14.329678024377507,13.956553250309232
78.20226754389358,6.616715729192889,14.968637747853405
64.51823552081082,22.287018955903548,15.216677343109406
52.32836214852449,30.317933702925327,14.434302336801128
42.07637236559968,29.662235100693437,12.434895109470423
33.89138981034345,20.635650153621327,9.162353539490178
27.727390952790362,4.8199791595626005,4.725171912728754
23.436815912192056,15.137464716998911,0.8285813713319682
20.8317404735329,35.834535451775174,7.474491666824412
19.709727122998153,53.56427552579077,14.76798141148462
19.778110333490897,64.90820298877227,21.772592933705987
20.483079847117978,67.39102048904778,27.49129089443864
20.812815620879622,60.01746910278938,31.153415692208245
19.254460598416983,43.505524464548,32.164740607652355
14.056705996898879,20.128665078197113,30.14529164938759
3.792141361595996,6.786848904722234,25.051483684652844
11.958006930285377,33.57371235980288,17.148270301901686
32.09584496146024,56.92852530159005,7.015202976850182
53.92903251834496,74.39780347973648,4.425388279681799
73.63216947394952,84.59169343486644,15.846400473056947
87.12174950160592,87.17486487662296,25.51317684948167
91.06719570905882,82.70288029578082,31.65517057922052
83.74443976788966,72.39368972958435,32.94621690723608
65.4685205200888,57.87251879976754,28.96575349086393
38.56687336828454,40.89452148210977,20.47261286629389
7.003183733198371,23.083939326311928,9.127508188174833
24.257361693611852,5.741702499021197,2.80224226003306
50.02648985944779,10.208564822651427,12.730670292088005
65.75090226842352,24.098655565194257,18.62103952039128
68.36607462980737,35.29474323563743,19.678875516156424
56.97240961867218,43.03443785145188,16.15749896151276
33.1745486281484,46.47955938968297,8.996461140984092
0.9278931894673155,45.02616032232107,0.2601576346121701
34.18271310157395,38.74213654285726,9.700558170768792
66.0800369401735,28.697825912754602,17.448358698578232
89.40920418038155,16.95765984632047,21.9441866988016
100.48391462804217,6.1521515845898165,22.240056443603446
97.76050480310057,1.2399277048055042,18.240719403903377
81.83208268648737,3.6055105172178696,10.697687645814458
55.100382076085346,0.6069612388973207,1.07368964705683
21.296681826370826,6.8303362762552915,8.744946459481765
15.079596350960871,16.88417730173084,16.901654718336754
49.38307446949782,27.33242976813043,22.079789738647193
77.49820805216864,35.950336578081085,23.837674791737886
96.51998085309883,40.7608822969646,22.405128552281212
105.24246428681205,40.19977452013759,18.372232445141748
104.22770886192407,33.29595486793666,12.715006674065105
95.36308224983468,19.933068101263835,6.596721202335359
81.03980555490168,1.1021154627636576,0.9681384210549409
63.31966230757846,21.042944858868005,3.497541511380243
43.44053209892405,43.470413636449585,6.372180056776401
21.830694630925823,62.87093467854398,7.6038080938678245
1.4087441897068245,76.38517746745435,7.596673421597693
25.8534581444434,82.20578622937884,7.080760780039519
50.3044081302645,79.83778934008718,6.855565988509791
72.73281010939516,69.98701551407174,7.446078633387665
90.59462993617687,54.22425423501772,8.818430114595598
101.338111366764,34.61014741654748,10.466031840729359
102.90099553905569,13.394737399727365,11.699950236662707
94.08357086447906,7.211775187398566,11.865082574530703
74.82724292369129,25.253000993510582,10.546800110043062
46.42426701501834,39.27835838171222,7.723127467246072
11.600174954113589,48.59576017422559,3.746458713451835
25.631199096015017,53.35360001711694,0.8249298785555587
60.453187580207455,54.35276220815624,5.374887909622186
88.06003240170388,52.647213248147516,9.23683980763565
104.61509945907262,49.10067800607404,11.742897927541643
108.06826210634692,44.14565972651044,12.40172656040399
98.55389733213934,37.88472016277074,11.057481818057378
78.25518678153742,30.440226845403885,7.974457945042163
50.825729836025985,22.294376462006635,3.8056063103159885
20.6046135243726,14.37596670439792,0.5450511969455755
8.151214246221405,7.805026254682402,4.035753820318682
31.901359901638454,3.410203886926442,5.684095846705517
48.26851167281617,1.3107862948241535,4.958464261234755
56.29023432211691,0.8326209943963759,2.0297216062758476
56.45932663871615,0.8203225362237614,2.316810610759371
50.51954854561164,0.15495968246857317,6.908385907011576
41.01673455758738,1.8313869622492913,10.486641114896084
30.67477236190891,5.244243987692856,12.082674448891842
21.78972932204318,9.83437170652416,11.303205724477996
15.831540779055292,15.323197290365346,8.41637181509208
13.320361076288647,21.561389468820682,4.244444810778146
13.917588156128474,28.405453242614744,0.13991000276222737
16.582640690573466,35.40258918231493,3.8384681040776965
19.7007615148614,41.54054899233537,6.3716505536423975
21.19883393413136,45.320503113329025,7.629075770154602
18.7718785712186,45.180665416225175,7.787716484257118
10.339609473734273,40.07205442890876,7.297012965204957
5.300786231672434,29.87553954158771,6.7289594709826925
27.828046028306606,15.443777641396686,6.505348866650121
55.08531644341091,1.7048618367958293,6.851287608746195
83.32973272353601,19.842944164302416,7.936090064351235
107.992729171066,37.36549911869162,9.788083425514902
124.68518922362703,52.82689489011196,12.149266081142475
130.08018346256307,64.76924551666427,14.588431747099678
122.41436971325706,71.58471151104793,16.552328185647788
101.57114163352071,71.62503992508387,17.276815793484566
69.61385091681703,64.40671044420942,16.222293692641045
30.431736169565728,50.86041904074807,13.358506846447519
11.433416476483035,32.51677269363934,9.036635185077984
51.264552558050994,11.440046082092639,4.020869498683143
84.7009553235864,9.991847243287,0.720710515937312
108.32355039751025,29.433208516154753,4.43779829616223
120.19965487878261,44.92715663700075,6.830758985735724
120.22595255911689,55.15213465178203,7.938464766598152
13.57223079162402,9.99055659156559,8.225539311711135
10.384798608642912,9.485037014246918,2.4792474349577827
4.941579691786119,7.199190654608053,4.845929003348395
2.1301382651907503,2.719969309986986,12.724617655311839
9.953337996172985,3.8971169051538523,20.029820784066423
17.617676976057474,11.987667237190394,25.677192350133375
24.342903037442323,20.379922862977427,28.710796393004205
29.521615567212365,27.67860441691553,28.370329260925534
32.67663156110488,32.6379079763674,24.32218893520359
33.39860464769288,34.449098898882646,16.887548810899364
31.370791695055694,32.85933453187818,7.065770543973161
26.590662007383724,28.185915917649147,3.6581858424169926
19.736948576774758,21.276739849886866,13.541011552353854
12.285366114569994,13.190929605471444,20.830805745751253
6.125083343845171,4.799395074730503,24.287694987157938
2.943354345391571,3.1565064183431524,23.690641037605502
3.59136467299329,9.91231934194241,19.84212966139486
7.631105187262102,14.763306180951256,14.087664095115057
13.332779530066745,17.22106421248123,7.729441727952528
18.08765617855911,17.307087041454544,1.7242334460594881
19.090947139974904,15.757188943709627,3.3872121145222915
14.050533024634897,13.95108416432173,7.4097640899703245
1.6654053975127934,13.620368793640994,10.288595423350886
18.18043817859594,16.33945371865784,11.94763833556478
44.47173090552545,23.018106827993716,12.191356118311944
75.18737265060996,33.544096892519725,10.785188815250217
107.3729567210288,46.66589366385673,7.6671702832562225
137.2137700796641,60.18764406050861,2.9742209984684345
160.23201414895658,71.38961744500985,2.995301855776613
171.7657573104985,77.59512292667321,9.799535643676569
167.74808883190082,76.74036224958581,16.928418628452853
145.62764644880798,67.79254151600652,23.76704169925192
105.15256217145426,50.92825199791349,29.497891052291273
48.73982168834684,27.44414747450377,33.14112181931756
18.676020848317286,0.516814247468399,33.769281953435154
90.26612045759705,30.31057165588639,30.7697936969171
158.23571765961805,59.106447920358264,24.021863084711924
214.8589291299949,84.13919703418011,14.07088226302811
253.50071320848608,102.95233327315472,2.094211376588926
269.52401736069123,113.68006916851303,10.448479091057244
260.9681525745402,115.36974606052934,22.031699870708312
228.88671708125332,108.2469789269612,31.21068649931072
177.22710711881064,93.7629325411141,36.971411609365035
112.22210144700777,74.31854482676411,38.9881902342054
41.41955915840538,52.69536817929633,37.58270682193018
27.412004954366473,31.402183945052183,33.513884879488586
87.25568282674372,12.19878022163359,27.773454858975178
132.56060246908856,4.037236527088619,21.40038573011914
159.71917619652913,17.082488269887506,15.316676992767214
167.39896995761066,26.965800551937104,10.366052516574753
156.74310175588204,33.672178285876555,7.238662961336661
131.3371633868702,37.10183192872475,5.933604514758908
96.77725654315788,37.2543853139443,5.48564808277115
59.71433938574009,34.48426267770024,4.439442836981394
26.486899970179515,29.61672876066867,1.4963541720980995
1.7357145871050057,23.817242894876905,4.038106254136253
12.524383870907158,18.284686764468507,11.933474876299822
17.025845098881167,13.947285619323013,21.021257663019856
14.562304221596811,11.324959143472105,29.67223542432638
8.86074544142712,10.581366819044563,36.2956437698063
3.441391014973667,11.671341986904094,39.53547443899569
0.8389675110319059,14.432919014275084,38.508381222272945
2.348162884726743,18.530612149751626,33.027901005056826
8.107994400495473,23.318855982580786,23.566002875031494
17.281818425870693,27.7747049951219,11.188476128318742
28.20544020615412,30.626961803818325,2.526596642137345
38.52996947229632,30.67902231899846,15.72113935915573
45.53077601711986,27.195176295565695,26.433885529073805
46.67149296526922,20.169696026805187,32.81436597041389
40.32115193523245,10.335237559743868,33.63969136482158
26.35359156525019,1.0287177169166895,28.82990759477854
6.330409653319089,12.32630063231889,19.601602427298804
16.83840728254986,21.81612470406608,8.204566139372611
39.62869947795519,27.685287726787234,2.78489260937016
58.75685742100334,28.120906282435445,11.292890011460262
71.86169414821974,21.53733685937371,16.247687655246846
77.83855831751407,7.030293525697448,17.666298866260252
76.84950767910038,15.030850649086181,16.36235509297625
70.1324647340389,42.54361798496678,13.468738434630453
59.656691083781524,71.6334301025837,10.088164542733805
47.645974929031546,97.16307818280828,7.10040302784477
36.03041644343681,113.71059530541432,5.013037131689795
25.90466949549576,116.74233834262954,3.9004307075771782
17.166617652971667,103.63262091943444,3.4468658022133427
8.550744795287555,74.26494211285379,3.110211013826893
1.8805282243228088,31.135859800801114,2.4253769064269095
15.925555152733706,20.98545100588784,1.1088967256704407
34.41770404082984,75.7384256337085,1.0375613896857159
56.741228457410934,126.05564159158669,4.077332628251406
80.87467149928116,165.1622762266076,7.895362144409437
103.88453668591306,187.6106855556184,12.176790221249314
122.61067621990587,190.18577524427548,16.32839952771745
134.2543145153285,172.50278447775014,19.55780323694117
136.74332096070134,137.14793493846702,21.120009230035045
128.93804227158884,89.28104253447422,20.584358337261413
110.79415310968041,35.758950201715884,17.91262050266047
83.54668235412657,16.035595256534954,13.413879925464324
49.82814440444929,59.405727789761066,7.764235012785838
13.5209889452128,89.34236239992008,1.8787385373812957
20.80685797291504,103.1631806180075,3.3046182035675824
48.836894025824584,100.73444559998082,6.964258246877171
67.51848685413421,84.26563850925125,8.656272284992468
75.80069357152355,57.744829840276516,8.521139482799152
74.79351508143951,26.134075651311445,7.184653083879973
67.31053484545255,5.528873199000863,5.481340175573526
57.00825024563381,32.9173902579235,4.143579300840549
47.43959424434005,52.914041128875695,3.6947117065357005
41.31243108949795,63.75557162572479,4.494602838244552
40.08094234133935,64.90961119495384,6.621650838668683
43.823209715940344,56.85399077574012,9.735600696094265
51.321581218337066,40.907341425017684,13.145563676141096
60.29913006811428,19.177206304747685,16.07969601545233
67.8244823746853,5.467491073392565,18.022791823055787
70.886206365529,29.55926255099579,18.830379747696636
67.0664036044339,49.43610487979261,18.580057683133898
55.17050147069577,61.88373469635324,17.39757074495814
35.60282413184442,64.8246651662828,15.316996002589148
10.34890472836123,57.81319507292413,12.150395248235759
17.394103518320936,42.18229992185187,7.598554085220328
43.79066853655367,20.794955929948756,1.6042075940781815
64.97812105376106,2.482283759383795,5.523837986858262
77.6121543025332,23.407469893532944,13.268897798676974
79.33150400343135,37.97751697138122,21.09697071310444
69.1468969552895,42.98153731563427,28.61844690955256
47.734637745173245,36.515262569406964,35.56047303438947
17.560044342343502,18.42515805149871,41.62193093901317
17.304747084407317,9.452325500573066,46.336161263068334
51.745070464210386,43.414525703139255,48.90064148549808
80.45240951256177,78.46408179649562,48.17343249237066
98.83707141005004,109.23770384072233,42.970181043518636
103.7554689500017,131.0617695653816,32.6970303486473
93.8848335163087,140.81644959400515,17.93755991027938
69.77038883780153,137.3577243420386,0.3810932646307474
33.666673263861654,121.46417578515225,17.678900546902092
10.728960522482703,95.40414073462031,33.95474072344232
58.595916745925315,62.32098672102353,46.81308587077988
104.42255043344947,25.621859638850676,55.644600404193724
142.6667119690188,11.558814197179546,60.77049852035034
168.6224558855123,46.75865904482491,62.895167873729335
179.29099193327025,78.3977539250697,62.54400712696132
173.9720692377551,105.75050254195655,59.89142845530516
154.34516812553798,128.64921958719944,54.817221631150296
123.99242848940831,146.92853949345385,47.55496468460725
87.52592161698414,160.36031017784373,38.932352899343655
49.685504967392674,168.79692143587198,29.904674448079486
14.649476839387953,171.989725343336,21.32635356569476
14.40798815997091,169.61105421157743,13.762134768865847
35.51511063775609,161.4700257622334,7.413636987657297
47.9217795847375,147.80066000513895,2.175745483087192
52.012427066588124,129.4696994766466,2.1273531189196877
23.536488191404928,0.5008027743356852,8.982852625040211
16.19786952359746,4.911440761963832,7.691632885282793
5.010461844573414,8.260733191351852,4.787630258044603
9.179021034951948,9.785600197326163,0.4818776953599308
25.406706613972737,9.054613830369666,4.864568842074421
42.80318513847585,6.058030527024175,10.744732191209238
60.58349917042497,1.3029003277090319,16.49866493301464
77.74182651547251,4.204416460902424,21.38994369687609
92.7156799100506,9.018397314733196,24.771410636577603
103.16686090210422,11.52798364011782,26.187780610404168
106.14022787096357,10.308012274822735,25.309407565484708
98.83636748373563,4.281420326147018,21.904066940983437
79.74473743203525,7.188443705990662,16.029326859494994
48.9613814044587,23.420042646523484,8.15109189714701
7.787473249098873,41.64818715145786,0.8920129196200566
41.095535333714004,58.01421006764172,10.048473937462608
93.58866324774286,68.75426315536271,18.425141868743623
144.60749394162556,70.84421588338536,25.448848609833714
188.3447343813078,62.80296458289231,30.759064567138683
218.89219203898392,44.90656512517344,34.110102588176744
231.11794312216057,19.079971193046447,35.236970538355585
221.61868958831514,11.346061381394065,33.934461402224635
189.74379604619287,42.28696868832692,30.250994802858216
138.08811415429457,69.5257413766664,24.440817119302224
72.30996604725541,89.42992352789942,16.85139684362019
0.15670037162691036,99.59920261697087,7.900970945448099
70.09737711815141,99.21865912477463,1.882093110247164
131.16474987505612,89.16744012471297,11.829131253730964
177.8051983819065,71.76095482857768,21.08080787323311
207.11475073712728,50.29464427910959,28.646397179662316
218.18325508287606,28.42093607369342,33.632865772878176
211.5468794487416,9.446778879712374,35.29740803715162
188.78448623517463,4.245165491487909,33.12228702751338
152.44821625141066,11.612182234712042,27.099168228673218
106.1679424630453,13.072554302487406,17.837540031196728
54.607534704799264,10.284225935515067,6.51365015847911
3.0383937765373226,5.6339330059462505,5.272865628003284
43.42045653889266,1.5669328404144558,15.876172102593195
80.60808949196701,0.015314815091362757,24.048630351215618
105.83392477659741,1.8879270387204161,29.07973807762807
117.8957647254474,7.361298485530892,30.5596878087021
116.75018893967392,15.819543643283925,28.290363583092095
103.1687321671519,26.314690469592634,22.481560861332277
78.66407232838402,37.759910363296584,13.7804193028388
45.76380908352767,49.01313762491203,3.1198117876763405
8.36243871743725,58.869321841825986,8.38562153425286
28.26820626524452,66.09354629351299,19.472509458052976
58.07532355064968,69.58251293696276,28.868018506380526
75.41212819694049,68.60911306201098,35.51947497921838
76.48018990068259,62.99758752096773,38.733611519263654
60.46693912608685,53.101345546118104,38.354769162569085
29.916448557665042,39.60071793051407,34.76415397737248
9.772001307057604,23.256695637127336,28.49675334813152
51.51898477214657,4.799412698838218,20.035507949114503
88.01518107139323,14.940839823233476,9.97230421817736
113.04234257759806,34.733919152334245,0.828963084992378
122.43723238700068,52.70237365411862,11.225322606097167
114.60315108633182,66.36687456617042,19.99001199457661
90.58483412175902,73.08454164828443,26.15970669461244
53.775699377313416,70.76028924400478,29.342470721428807
9.308555022583647,58.56267130524095,29.73992174048554
36.79689349194368,37.35464166487969,27.88782528194914
78.58926899857951,9.69309846982422,24.469976602466545
111.03274101141375,20.561356973130255,20.246143809537603
130.57240026635122,48.88583570850554,15.974045209280034
135.37117728644964,70.7972608725573,12.372840260354176
125.29767348005893,82.50132713838339,9.968619036410734
101.79990071246755,81.47425535674232,8.865226454120952
67.74584169614755,66.93826361682493,8.768574707100312
27.230248068137897,40.17875788218089,9.200575372533015
14.757616005319464,4.579665699180106,9.619765480302346
52.93826127108707,34.77309524482828,9.43366622066597
82.5747670836471,71.91349156099677,8.127841690489802
100.31643240750311,101.09445378579336,5.548034484555132
104.76615261550162,117.8973208142694,2.0012099768288887
96.52940485793253,120.0388664454178,1.946208112420179
77.75403385410567,107.67142342772804,5.7308739618893
51.41682882350005,83.15275810339776,8.99103763728732
20.686463246178945,50.42904504267887,11.69528341848533
11.3844132905159,14.23644840832267,14.068201025830847
41.81781366359024,20.68181266708943,16.34058150607522
67.5438868300906,50.22785795227622,18.587767426045197
85.43411723335504,71.43972885088625,20.606783278102437
92.73103573362829,82.78158859647402,21.967821135759348
87.78205667881585,84.22766840862772,22.393891467573095
70.75430104367081,77.12839075562799,21.858535153504384
43.945257085301265,63.825170274633365,20.378110373332476
11.458035580212202,47.09619527950212,18.0469149598212
21.685087399881066,29.564692371184467,15.144027862491887
50.64969983595682,13.216141228554136,12.07242594384822
71.70900783130996,0.8020391714243927,9.242292886277816
82.71639996603724,12.06948683361938,6.913045977700836
83.10665285501844,20.572831194923676,4.9728621397686235
73.60820634688366,26.333439535037783,2.819198868286617
55.92637791621193,29.193906486712795,0.48827628345221474
32.55625873782244,28.880309121323663,5.777567938333325
6.6917727737822466,25.29234103869286,13.25191514491568
17.924198915072147,18.855388025280952,22.258850058436455
37.36843223917414,10.70801961334112,31.369353185004613
48.16652588865536,2.577651227767493,38.81519621306117
48.04944734454595,3.632765288336867,43.11310965297558
36.60042343259777,6.381698447962235,43.251921584358335
15.531594123101902,4.912123405404448,38.67957284477809
11.536977815116927,0.6242629867947207,29.522709952325517
39.72767048065941,9.340431460456594,16.573957800864655
63.816832300426384,19.927696850408253,1.0710706092453344
79.17309279570118,30.928421613728,15.385959720385637
82.51878528509688,40.85384406157164,30.93306050366328
72.40911695179896,48.19424592110616,43.650688005597985
49.40410680492664,51.48059122244406,51.82098459662586
15.98712824956147,49.50910945522081,54.154772878969716
23.735657840626494,41.72690094552161,50.07312953258832
64.5597060415594,28.611571225752176,40.02284354230674
100.90450830160802,11.791572241646625,25.532936598102104
127.68389741398403,6.2249187973678195,8.881845793879311
141.19132497452912,22.664725065975503,7.56095774151286
139.79976706016674,35.23077771236016,21.977657267766535
124.29123059620136,42.66494581828377,33.328915597391656
97.67449745321255,44.9561911676562,41.17182531428853
64.5152115919449,43.204600714089075,45.3802085081776
29.96304083511965,39.261659338771494,46.08011873747085
1.2674466862758853,35.31082077836529,43.650923357351004
25.701225581955825,33.46480780407601,38.55300599929046
41.54782324056326,35.36863808943902,31.316675067821183
48.74963702029915,41.816954714004076,22.61933890546177
48.71836735504655,52.43469128849129,13.130409573174935
43.897967715878124,65.5508347901072,3.4979528219256477
37.242897485724974,78.42142318177589,5.611449971861623
31.705694115524057,87.81422537530908,13.712520146034727
29.755852495876873,90.77823493065692,20.66219631502685
32.96689127851373,85.32111887651492,26.656098645657213
41.80257057828007,70.74880841060161,31.92652553910049
55.63869667479118,47.601457500832225,36.341528517306315
72.99547898295621,17.360471451798247,39.37008524760502
91.90349295166925,17.82425704058928,40.36450267690486
110.23728003136836,55.25307154771954,38.878374323731215
125.88087759292873,91.67707376069535,34.65342946494951
136.68776073748865,123.39183669690772,27.55094966427455
140.3699769285932,146.64700498561234,17.858055664813843
134.53114022869957,158.3738703558403,6.481612119654607
116.9711078523654,156.9879295514224,5.232662494862983
86.26395213256613,142.8987438757788,15.938804658551396
43.71210766499948,118.58607080333456,24.590329890905007
6.844555177545061,87.7613144286835,30.438101389710177
60.92247298939887,54.230007271962094,33.15972318765235
113.64292788129208,21.323772354356496,32.87911089323303
160.1000407949012,8.351863337690292,29.999968212305205
195.85952561155963,32.87934150914245,25.19543729295081
217.5224431485176,50.87795218076663,19.36903396817716
223.24392787734553,61.457616790860094,13.486760775747207
8.584762515733948,23.157721315420343,0.18213628595593614
5.879665798507601,21.692007098236623,3.6500090788043087
2.344997747307496,16.29590705711459,7.6012630013633675
2.1965371474648943,7.002268118399944,10.883063670382958
7.98141559365665,5.478747502031607,12.750757861615542
15.071859119951345,19.91725279432626,12.679937514977986
23.139208861881187,34.820411005031474,10.532695654875862
31.3168264204054,48.655203684459174,6.588184287860006
38.31347247443305,59.96201674835373,1.4177383955123046
42.656945922060316,67.37894054335086,4.264299355315357
43.070213802169434,69.67644275830679,9.595917520863338
39.027521730239194,65.95045033331732,13.576592074631451
31.17661841007337,56.02923137622271,15.307330781864179
20.75821932890171,40.77884062396139,14.419175833463004
8.692963540280768,21.96167424751799,11.332258844506088
4.206126608856924,1.7962693560396648,7.000977432398717
16.973540169286697,17.602979744349582,2.5864866557645056
28.672240413103616,34.80537917260934,0.7418489489263752
38.32437176570268,49.3529415675343,2.191180670797328
45.123560224600595,61.62121543510121,1.64760148733329
48.68946767708727,72.31295644092448,0.29064678526245596
49.13808517066593,81.77177424724925,2.6080946362665736
47.15781958068967,89.48479865343754,4.273826667202424
43.78646761123593,94.03287561133251,4.326141708285299
40.10818934937892,93.52750690277186,2.0759818986729957
36.94741607725946,86.32036376931548,2.5695529114533806
34.62234658635885,71.63669791498556,9.088049618952912
32.95103964553848,49.89709898916877,16.468413012525037
31.37496419932299,22.65644211239517,23.42257913436856
29.209341353989963,7.7027448324149885,28.524161564061874
25.89466642944103,38.322768416948094,30.429359753206995
21.10630443832969,66.17122147455603,28.38469632823121
14.753027810731563,88.28631161081918,22.47390168471731
6.85231059165962,102.0728057804111,13.512452251238829
2.641216463724976,105.73003929451208,2.863576569325793
13.965189183088889,98.73488489807474,7.887191561758083
27.56431260316932,82.18302443078812,17.3384032982239
43.918990194968735,58.76772832725478,24.466961540811905
63.187484758835666,32.31192433150063,28.620081137667125
84.75407996190107,6.959175513053924,29.621721425416474
106.86483993279924,13.74451462996714,27.731715880314752
126.55103297349191,27.58644222968003,23.46518758271643
140.00749184266974,34.030667504219494,17.671651616377392
143.42615174396084,34.1194035476784,11.441039335453906
134.04409364670883,30.032362307521048,5.8832888232030305
111.03241714440779,24.470662308252173,2.0335678366391283
75.87184618105697,20.007390256075293,0.5007847812451935
32.07657868538282,18.540156967292685,1.2374855823713196
15.577994677781065,20.921832423303886,3.683885809257758
61.988247933929905,26.819382220697133,6.940965798856327
102.49316378086961,34.85506540050325,10.007259412750532
133.3390922400865,42.962300474868066,11.998933320727664
151.93982363237214,48.841539735295314,12.267678556510852
157.13241306688016,50.401367596847834,10.519123294917971
149.47884500352836,46.06307145697433,6.851872497632395
131.46377466796767,34.92767392999605,1.685040615852779
107.29095094915655,16.87049402580039,4.356826316409262
82.02684729583417,7.386181159213165,10.639091821818319
60.206711123253136,36.195205126984035,16.675553591832116
44.4102512475794,66.96453048863813,22.058561120494982
34.45723567931734,96.29792728655168,26.41010313321874
27.673694216417644,120.36293474742874,29.433417582141153
20.152503421381052,135.4520560122806,30.873001886013796
8.418823309045687,138.57970151622004,30.64203045049727
9.258773340828716,127.96986178079634,29.015738749468795
32.46045932750212,103.36034428048072,26.389019995437458
59.11888743810208,66.12625168646373,22.915032537987205
86.43312106659344,19.277061265554032,18.527030315072064
111.60105816147622,32.671028418414245,13.110379121524733
132.0287831126227,84.0000890808747,6.611996670279349
145.15674617178098,128.3607112175518,0.7890781345330944
148.40333219257977,159.6542999228623,8.588388933849732
139.59025493404948,173.11895516296795,16.063714905472427
117.81878240961458,166.3479243937342,22.374664005641677
84.3483279589335,139.8951518403665,26.60951510719586
42.84817979066494,97.25759868182587,27.97504850440442
1.3045242015274474,44.255484073141666,26.21231740358456
42.45744022871354,11.992236626143287,21.823994434532956
76.17145158529033,64.1938674292725,15.717601796808083
100.05073605730217,105.86858019291114,8.822059595886214
113.61561637072718,132.09746718791703,2.12403079198952
117.48837510236514,140.05869873336607,3.257316095505646
112.52431297139876,129.37917358225909,6.174296809110861
99.44575445756887,102.24462121713717,5.6673260486612245
79.15070511982502,63.13581677713565,1.2895077308722163
53.359350049253585,18.097277817424818,6.4290152999938925
24.994004878602816,26.39272611501529,15.780912619840894
2.0994941906333713,64.64787355221726,24.398299305537893
24.078812633607324,92.70083412183807,30.02194211788605
38.24996929847397,108.66778344440246,31.112022450502607
43.817896290466685,112.51638341978598,27.20108863967982
41.89583427926954,105.46535773343845,18.758029390444474
34.83355517407436,89.39501572219727,6.914484958426801
25.247851985179206,66.55166194759946,6.692032187783772
15.240504470848162,39.552391801919434,20.171129491161636
6.071219880604033,11.454770292565025,31.727354447555452
1.7517928149877393,14.37729831765396,39.93842204829742
8.173844659452383,34.758855822826604,43.79587313393272
13.297335975441328,47.41597310085662,42.802948337409546
17.165959897760818,51.61707167317461,37.295290687579964
19.599003795986018,48.37457464899138,28.501228620869814
20.03938706175892,40.082471636243945,18.219295894350985
17.478307703605967,29.716621784637326,8.32298422175057
10.601370684684499,19.948208753579582,0.26559428713542976
1.775247656162297,12.524226616722814,5.329904875232142
20.04442222722156,8.084371567759382,8.843854494759578
43.160836274904646,6.351253544005188,11.260436543851506
68.37266667645123,6.483171011820383,13.513652602362583
91.53270396216658,7.393367450841019,16.11315555743412
107.9141445855516,7.964570856468993,19.077531946493732
113.25984336726262,7.211142296667267,22.091498158964367
104.71099484112013,4.478090444526644,24.727783140846213
81.40236159342741,0.30955808914537203,26.616252577564044
44.67381314392762,6.441936757136147,27.403703280036847
2.0346978681131938,12.409528771152,26.59839105537244
53.5000211761843,16.188928063265035,23.705364390160067
103.28275187887077,15.796568097511846,18.518577986879748
144.63900876562184,9.91194965008336,11.284674556818427
171.74454998933723,1.6706530829705104,2.661968843260027
180.96962290654167,17.91684934006191,6.492934108616542
171.7757491140437,36.77884367517522,15.308742919344677
146.83523859096633,55.65900397136657,23.060214924241404
111.21203617496481,71.90922295360333,29.282536233274598
70.8960521519876,83.22302740299821,33.75759157483009
31.248268570162992,87.87911009796035,36.40225121754681
4.112986563645932,84.85063681857231,37.103886379003704
33.613780892391304,73.82936132368305,35.668273139439265
57.28451001552825,55.20938169099986,31.91300921583675
76.0108431522584,30.04289211087587,25.865863048200342
90.89517245287082,0.035738536864957524,17.90038009404814
102.92355603186829,32.90135783303393,8.675897996112536
112.83718829901656,66.02027670162673,0.9281089432738854
121.0079199472441,96.54318754432438,9.963069192128609
127.21894503423607,121.46745507891556,17.65481206413352
130.42059835801015,137.91102923749526,23.430543469713182
128.72422136280125,143.50241428192146,26.71389504262632
119.85213396757133,136.8450374367763,26.897629838752927
101.97595910654209,117.9256549017933,23.860616841448017
74.59992627484024,88.29338086274075,18.449723555062775
39.04217233659328,50.91130541238517,12.295183222358123
1.7342442121606134,9.706315073874169,7.350707130895044
43.84014842533846,31.048362894781558,5.476551584811934
83.25601897501635,67.2471326817886,7.501867467809666
116.49169901887412,95.60539977752578,13.10342546397813
141.01176853901316,114.22707751785755,21.43942565265785
155.3090175456388,122.65923766467485,31.290556245544735
158.83985315090885,121.70312982213845,41.25270322059056
152.00162331378158,113.08235770228048,49.954490163343046
136.19243101013095,99.06187863574286,56.2489076991173
113.83024477332799,82.07111398917678,59.28991358878935
17.625715712903997,7.19518119791583,8.324128835363643
11.836451585799999,3.8349667660329914,2.3795111060109932
2.5747381633697826,0.3552346048300124,5.523374664385587
9.831815754415782,4.968300842451806,14.896691491374378
24.57598394204282,9.54137455782913,24.81299218188384
40.24188984534461,13.594650901158479,33.797015499697224
54.79777636938629,16.72126426330197,40.27861200506332
65.75600278839131,18.64629767534285,42.921467448908196
70.60740160683278,19.293619854604575,40.71903529026601
67.35235297620831,18.737177171891098,33.25660549554226
55.008553463010244,17.110296287578514,21.011466731238897
34.12084286164837,14.669953409794948,5.470595534819604
7.1146212615830695,11.967663579565974,10.902906697899585
22.191443567720285,9.537385013539668,25.636109850283027
49.676007278790436,7.4182094437237955,37.35573898757918
71.48806012972204,5.4381914752083444,45.40678067110324
84.46585500597337,3.4846337638463543,49.374439413361145
86.67077252717853,1.3818585468169848,49.132157503708
77.58220608665816,1.0883719023068774,44.825468235347294
58.30670619951891,4.265464875554238,37.13477276139573
31.669779475609744,8.551274235833956,27.164256652328763
1.9394393302980855,14.115448749799466,16.21090205325436
25.719109767236155,20.67938350392991,5.714455643395807
46.191677346060786,27.373103086623246,3.2693380136782038
55.46481348718664,32.89975271818133,10.364454751141526
51.49688423239275,35.93173734835359,15.587815959347687
34.73761513940112,35.53447568342843,19.10512948621974
8.062802243642045,31.498018945903418,21.286311622196443
23.79753249167971,24.338892947842805,22.591782362264972
55.205645885609414,15.078410825968092,23.167147592587966
80.70597208831875,4.944781993493428,22.879357076223226
95.98424851713487,4.880156160819923,21.6346975118789
98.52756134192995,13.34902592794598,19.55305465180973
87.8818287525745,19.562855864663295,17.036267751760235
65.53830045414156,22.805206217870946,14.562495850032759
34.522838294736154,22.661186933504705,12.343828597448228
1.1782173922865626,19.20922786920377,10.184826207733193
37.195144427476095,13.164691845864409,7.702157002850278
69.32198647595065,5.863095930381135,4.621816274920591
94.03834137593213,0.9608661183200509,0.8714108903659721
108.97689126431995,5.542811761331538,3.3592210948993526
113.3073943371417,6.510138662112055,7.657878604672621
107.9293803940928,3.2321793939566654,11.529685744130651
95.3222775581376,3.9779080485085148,14.561495377974888
79.00826532354739,13.816883615461908,16.541387645434206
62.68856099575165,24.153092566966585,17.358870870352487
49.26825124241846,32.41627876068574,17.00036542468798
40.134828051532054,36.166277921226225,15.565023401287018
34.94351955006664,33.74951298567863,13.15062761804257
31.940597263236658,24.829903981388835,9.969100852862363
28.68575489731069,10.561540218310771,6.5063846387052
22.86586331562591,6.701168316394444,3.5240223718570074
12.884235163650354,24.0937684369303,1.8176385628980114
1.9033418368346402,39.06003633267169,1.806516713448938
21.241585565931253,49.95276687309024,3.3782723115104987
44.14229633206268,56.21204490694119,5.856714953934419
69.00340783213014,58.13567888052725,8.050763725076493
93.65241297623781,56.45803556314889,8.563239413845103
115.43182199429145,52.00770655999348,6.151462528041627
131.4677870220911,45.58891789307347,0.15557674015905595
139.1679339920563,38.02012538447047,9.070445130202804
136.83571797381342,30.124868594076133,20.12899169430273
124.1459836048825,22.514045492921507,30.968864405968816
102.25366197233686,15.200048777104051,39.298558874030476
73.44314307459256,7.308222045330954,42.991830599726704
40.43286545816049,2.8396155503948353,40.71062069642295
5.672818391353389,17.163912914385996,32.265485997189
29.044939063353546,36.92230337452624,18.482037442536697
62.53087051863073,61.87333706893639,1.0838714481427196
93.7622088759559,89.93157318859137,17.506963371773175
121.33351592718188,117.49302709672881,34.60439075551253
143.11750496311424,140.30890017288834,47.69738409505465
156.3431180096435,154.5154123295648,54.80847978676044
158.12226481147928,157.4202182214682,54.70597121579635
146.25820916124704,147.83979676411252,47.1848999957582
120.05360662406694,126.0408540112295,33.28753928800228
80.86004682037327,93.5105536343898,15.070881069018977
32.20032067105075,52.73494957260009,4.798850856277585
20.595526573900546,7.041092808108157,23.54757632027123
71.17289618863278,39.59907265739194,38.860896633212796
113.1945492289385,82.96005469744041,49.16934029659867
141.44745020021452,119.16423324966371,53.76483430387354
152.77703826731658,145.32672825305949,52.83240732584001
146.64398158745382,159.98838186426414,47.299102819076474
125.20513858395141,163.18612453386888,38.417760914494885
92.88961681539712,156.1913761602417,27.31730217216429
55.546318209113174,141.065661413806,14.984765294312222
19.333204489952163,120.24593744704465,2.3100643010053123
10.432890145722006,96.27747291544846,9.980401231966583
30.225579445846083,71.64658779832286,21.249355886901554
38.901202556520886,48.603020996006904,30.94175930750651
37.85426629720863,28.892176259603136,38.59624315232764
30.674719801728315,13.444873273541253,43.93715232681738
22.31360611361806,2.189748355009171,46.911095312538556
17.899284565876908,5.853812666227543,47.46430202316889
21.452325583947683,12.197200801143293,45.58933064312239
34.776124054116934,18.390707004840152,41.47409113592339
56.8364811891397,25.6173690188315,35.432999469394
83.85723604079999,34.52264840666854,27.85089944844987
110.13284445187966,45.28892795983224,19.13994497140643
129.3685733603819,57.76085315818685,9.76995737181604
136.1598822431872,71.4310517978024,0.23060919419356873
127.16063076321923,85.27625117801828,9.037303335791814
101.67297949916681,97.59285212219443,17.548335909658785
61.60657708408748,106.06597585043285,24.78987580931023
10.942313463757909,108.22488478375512,30.34643674270806
45.02992365576307,102.19433891512926,34.039459302928854
100.44337866837297,87.4363752100423,36.00488811651993
149.44086594751948,65.102388379965,36.562536357100704
186.6627890228508,37.788137629330734,35.997692754968455
207.7368624760849,8.803916358275293,34.34298609478754
209.80095565010896,18.707215694452653,31.43176884798224
191.97199023434678,42.37473167802679,27.128823684804914
155.61532415710624,60.67130609077479,21.39738158612776
104.30668296564939,72.56902882582155,14.461866741641694
43.42086810778307,77.14377328868397,6.868510845927854
20.582701599371603,73.49605540066145,0.7789999563978687
80.97683222940414,61.148004769561076,8.002739885550026
131.53629354694635,40.75430611466605,14.433545119672912
167.18305886947735,14.681657742140963,19.641615405230585
184.5014527476546,12.99546997087765,23.087958343446992
182.13429457026348,37.22205925753353,24.38715925415331
161.0039868436218,53.19275738331407,23.460489102722555
124.27091485034161,57.58414970083679,20.402756864967447
76.93733459565469,49.2930881119648,15.388862356590499
25.10478820964976,29.474592731941453,8.800224810464305
24.97066699449567,0.9832797001048682,1.4080655386609726
67.80603309589968,32.39247053560284,5.614228075085528
99.3605534377665,66.5122617912214,10.95795890823396
117.33563207104606,97.16975498865308,13.604879313051846
121.16688423204586,120.22080241425626,13.11470735627249
111.83758858528644,131.86308160313376,9.737772935255473
91.60210697275785,129.2734078772511,4.373852618741114
63.6241096901211,111.4752955243541,1.7671222398637874
31.529002252612514,80.05437345293015,7.581374361736733
1.1235657456974895,39.25899781009732,12.199010276734862
31.379996617604995,4.7617469671664505,14.896515960896705
57.253804166584004,45.424076748277514,15.143734357646595
77.74714493815144,77.35681076449094,12.857310550081726
92.51279462361595,97.57398256728534,8.456758105598604
101.35024670030859,105.76351951087419,2.592973984142603
103.86330547753539,103.71206948976881,4.034553598967628
100.01169920146558,94.32875738623022,10.608864171061821
90.40873717249164,80.72355810615251,16.183796754480294
76.07213149166454,65.53438288901886,19.86459842123565
58.54226906396506,50.65184992175357,21.08235227041955
39.80934719798581,37.28712067106524,19.8596273051337
21.998401953418497,26.15917570622831,16.799677251306758
6.906849098206742,17.626968265588335,12.803376715223749
4.375164452885176,11.70285320215149,8.817024326110506
21.10575039288559,1.07976061623808,7.12075943183246
23.293528508356214,9.369503127929818,7.512687072486143
22.088809505163685,20.87732344020733,6.395751479662531
16.714636656724682,31.56050776735835,3.9835717571902536
6.934381560321298,39.710430764834776,0.9150572994272292
6.952964015974546,43.97716036140736,2.146497679231773
24.124713912150174,43.3430189234837,4.7276546310741585
43.21487640165223,37.01072864318173,6.594607901337537
62.274072736473414,24.48726528972338,7.8215885605191815
78.78413416716702,5.851889645861078,8.659640527950666
89.84652858772495,17.828664502290422,9.316109953986993
92.5934422083661,44.039884528456774,9.876751431385124
84.79837472812798,68.63194160908441,10.294867493311862
65.55270626657632,86.72601014685871,10.410736050866998
35.769796424664754,94.38817665661493,9.981199086193966
1.7384373978023497,89.55584376108875,8.87479638245782
42.74417051334288,72.34895001321418,7.321577708842367
82.42379247508333,44.98444901889349,5.693248704336449
116.14929458183202,10.972666580724647,4.070430173137344
140.06070913951888,25.649357159891032,2.248985875722364
151.36112017975935,60.7982046283279,0.04715099992432546
148.44231050308497,90.58053376712672,2.4581404805245852
131.0159640641065,111.31184378101345,4.8480698569115885
100.30054379131998,119.80126209706238,6.566850091127618
59.17460900496929,113.9154686915677,7.308961896825375
12.085598993248446,93.30553620877139,7.15827108927352
35.444031477020125,59.962817710517164,6.485794221801911
77.68953939420572,18.133333034728068,5.832779193833897
109.75796524763444,26.432637529756594,5.7006229173696195
128.4228710403835,67.71073911104251,6.313702047224902
132.4737336346148,100.59963699643316,7.646387230245057
122.52034358641671,121.62541075029492,9.570677806619793
100.4473168484084,129.04722944162307,11.784579881245223
68.85220844218048,122.48140944038376,13.84671792861562
30.73359697648948,102.47575024532723,15.459359377152543
10.500012432454088,70.3814536580113,16.51004646373486
50.90401892323382,28.54122357571498,16.900845702630242
86.0677853517807,19.418418815091083,16.488365856217513
111.5644872660257,68.54980566986775,15.199352726320887
123.74516260944361,113.03591851774517,13.100323548385363
120.579073626244,147.07515465292025,10.28103178118287
102.17559610105401,165.90568666923716,6.831302425665735
70.77141007697742,166.6217804390369,2.8386120593903845
30.189753811063987,148.57806471325395,1.6894798437159173
14.946408161338635,113.39822732058263,6.830297463911876
59.90370103947019,64.73929090334367,12.621365817192757
100.26372318536328,7.929544972512526,18.756153615929943
132.1115754475211,50.5100841682952,24.567916046929632
152.176255370535,103.54933422505282,29.330916579187523
158.1193951623146,144.601191268798,32.430493738267764
148.97958091412022,168.6377386379237,33.50591848606524
125.59095654311785,173.1979887223598,32.49947898463118
90.73022664128108,158.9464226754768,29.6803536073019
48.805694273664564,129.52960508964804,25.5764129979825
5.105503954310592,90.74582830863537,20.611258598930423
35.164516344779614,49.29619048117381,15.010957545040888
67.77848638253133,11.482034885375096,8.993612642277883
90.08646653721549,17.83598093302525,2.8342167282787214
101.19815757236667,35.87840498991746,3.192461052046742
101.83870502162459,42.186048749332215,8.868814647683338
94.00315714663127,38.486926900965535,13.95144691273808
80.5136959815956,28.24521770636124,18.21407218912588
64.55920505577103,15.93741068686881,21.569976080955353
49.21968729899496,6.106492771991506,24.03831821280311
37.0012204950787,2.372380201476503,25.671668099309002
29.46014009219885,6.684336551050388,26.418040284646402
26.961846909810937,19.031995875784865,26.19715082446405
28.626515451357836,37.660838630657075,25.115451136367398
32.502382386776816,59.654736340747256,23.289238789451893
35.91746665788224,81.6240749991719,20.62164133466883
35.95952560484131,100.27035102212051,16.908581201217398
30.0477590640235,112.72971521082906,11.974959543805593
16.51578869483507,116.75080355846526,5.775634972865104
4.88458699089415,110.86073671063383,1.3811374338913212
32.69226800966496,94.59109714539125,8.715419451766143
63.7925315054382,68.70273977440849,15.105528435611088
93.84446164707288,35.28747035623366,19.382787751130895
118.01868544295975,2.3912932749608307,20.857200578979064
131.90855413474893,40.33130551875665,19.642371547048278
132.39389767687763,74.35977638080712,16.46251954777237
118.23342626662199,100.6884782444738,12.380809254965165
90.2571886061415,116.35172392784314,8.507959751047828
51.16471748263064,119.51084632595051,5.635899073573785
5.039112992581399,109.68682233482775,4.067729053836826
43.27504679033158,87.95114112362151,3.673217227938096
88.80935985754633,57.00300128557375,4.0247733112700805
127.03323666633366,20.9848937839985,4.527269306716636
154.28398955420704,15.060022112153105,4.545434397226328
168.08960078230055,46.034473499248406,3.5999910206844508
167.39535023128775,67.72401325342678,1.5570502715185996
152.66214562695788,77.53535760584793,1.484492768647915
125.81970348957941,74.8319303330299,5.327049112534173
90.02443375438988,60.82847365662402,9.425627699139179
49.216788485202095,38.18204603216825,12.827264091802556
7.545377099365097,10.485527260824732,14.491145352733431
31.25680007362014,18.226121858559782,13.605312967047832
64.37986539923672,43.95000813757611,9.964586988342758
90.1741578411637,63.21114220770462,4.138582973167078
108.0711614136311,73.59208036909848,2.8364409912976734
118.26322576200556,74.20424286809187,9.781804287494797
121.3271826275796,65.90667368140423,15.561126570528765
117.96592276309936,51.09277840037722,19.3079328979077
108.96593822488963,33.05348071331099,20.536601560376354
95.34503572058071,15.12294343826967,19.151371548254595
78.52223315392567,0.08534979259673664,15.493926613033711
60.33325326847886,11.089446613254303,10.220708711848932
42.80698239922494,17.521019732203957,4.019717787734856
27.744842426938064,19.788620306371428,2.604272338028312
16.275777801462787,18.666674277944768,9.39622413686573
8.595580498036615,15.024798390518981,16.145907286853532
4.005749846197989,9.742172208608862,22.396699535366775
1.22177025678313,3.7517895251693187,27.48666749580394
1.1852752576549057,1.9167881425770927,30.765089312409145
4.394789968508265,6.216325721042395,31.608009454749705
9.117461135291093,8.258479255984799,29.43105984201254
15.553585560156897,7.51420284120463,23.913030797988345
23.466139040822043,3.9596405348583077,15.264244330876544
32.28828642733153,1.9073117822685324,4.368099684702099
41.212959245325315,9.1750353276741,7.4422483417351355
49.27843105626596,16.710728537646393,18.758500988942796
55.48354252196152,23.387751386664913,28.24102270640826
58.95327095040169,28.29646353720822,34.81196577088832
59.11199701937459,30.91108555985504,37.87756106032461
55.7872581871789,31.182080172642266,37.315811803510364
49.22428671418106,29.52103882565247,33.37170816018498
40.01387968905607,26.660166127402377,26.565936585900953
28.96544094123307,23.41481012156222,17.66279901557723
17.00502247128559,20.429885401785405,7.619926928851524
5.133748382665355,18.01203898085088,2.5540375544576754
5.593979491182965,16.104498997824283,11.931115501477956
14.130068855474532,14.379769617700171,19.727661686256805
19.554005288626158,12.398064687246046,25.38788004364706
21.236299477502158,9.751211201781622,28.737723624184802
18.97329922487295,6.127039765558629,29.918384311733227
13.009395088095394,1.3212874471360283,29.132042319378623
3.9527818918519895,4.755176987139025,26.537931030920745
7.335269588117923,12.04681210798117,22.251425211640125
19.80678046335563,20.296142292636343,16.484347259849688
32.21589165718673,29.011304714111883,9.643572636863906
43.0795164594167,37.51224118088459,2.198404388124861
50.72052635018504,45.03912936147651,5.299837425520685
53.48804986791844,50.864372786416205,12.119523847124617
50.64087516055288,54.46850058281082,17.574019417534437
42.681567406471515,55.80243464116693,21.275409285249467
30.91126595990731,55.311034095301956,23.164527462748477
17.20713712838737,53.64620685232671,23.368719973612286
3.625449089068355,51.34537597951748,22.084073771674404
8.053172062328237,48.62761797679919,19.62252537316093
16.67539541446868,45.37855217609122,16.366246712328778
21.842879095449245,41.306910261801335,12.665934074951757
3.615713736186789,17.682831768915086,1.0724433126882178
19.8851162218932,29.904404191750892,0.4821726699393371
40.49695611614237,40.05546671799396,0.22610793454501926
62.27175166515975,45.7990274964783,0.4714783787493263
80.66192001277435,45.66946799915847,1.2143564619294325
90.6247474830241,39.35343945785857,2.264710560401537
87.81477279584473,27.57700517748959,3.285071675945097
69.69730137942152,11.621688347840319,3.913065812121444
36.28211127200285,7.132147092331055,3.8519606693796375
9.767947788064694,27.517925195341544,2.944580630398749
63.567402729573274,48.51800884179213,1.2039921430663127
118.65295475227647,68.7069441252623,1.2627325570364842
167.64750405126668,85.68270834871575,4.35606009315745
203.40499443854816,96.79807381466921,7.968674097889231
220.40302436407293,100.48452788883355,11.848617341723035
215.4161627719056,96.26519792805969,15.546029053392987
187.9416365019933,84.62099253263904,18.483455939593608
140.6002249020184,67.04497000742174,20.07292618476974
78.89100075870111,45.36751258386876,19.89649650304633
10.431069079859503,21.283367822833462,17.840498366917092
56.3692356171697,3.908402297208163,14.05809549409417
113.99318369390437,29.33673117637245,8.834131366391242
157.23117099122382,54.0691314666893,2.567698618074579
183.99338671261674,76.76967731532655,4.140610844282738
195.19329010911497,95.59698536382561,10.597750514899374
193.84387967040857,108.53134205842413,16.276963348268254
183.80738359533893,114.09451323922103,20.90647512212074
168.65229136615065,111.95490158304479,24.325974335542377
151.02112120590112,103.17570892047317,26.303366934436625
132.50076395442602,89.84063804029348,26.5584475106442
113.83760232771954,74.27921170752019,24.98344634248523
95.22798170383965,58.31871195183635,21.781501002121452
76.48547831075419,42.87518651247881,17.39672182081328
57.118631208192376,28.1139166169216,12.380786457835805
36.38402787264239,13.952430927386112,7.2465486316606125
13.446843293970419,0.5346162046989988,2.364006477744366
12.312399037929787,11.628281057843877,1.9931510274653799
40.963745231296656,21.944318515500996,5.6294897246826805
71.80790164549346,30.208181384990613,8.514039356635687
103.38368856645324,36.91167540536847,10.85653952723872
133.68813748636558,43.138418470594196,13.038006629575564
160.49964094093747,50.04230753307284,15.325371875819263
181.68481587541206,58.20433575171387,17.628372326538752
195.39969368387335,67.22252496228548,19.462382542359723
200.1771241757442,75.72374939295545,20.1294841491094
194.95663461201093,81.7667042859297,19.00451971211046
179.11984140246636,83.43137812776047,15.664371402958466
152.58785198850765,79.31016301733163,9.960252896782517
116.0267265733439,68.75349796082806,2.204518745007726
71.11798579583474,51.922244536073705,6.629828431768898
20.7694053281208,29.770177815911804,15.059938967771044
30.855161655225768,4.054767053653652,21.672163763044754
78.62858200497251,22.634588009480414,25.488050259002012
117.1596702258729,46.97690392246918,26.038016578974787
141.79913299349053,65.31247877957477,23.436106338511742
149.71011516805322,74.33644379173701,18.18307668813287
140.6607386059259,71.9132481678312,10.918300890802954
117.2050436114913,57.727957525835365,2.4422514285370074
84.13035059430919,33.51558912670521,6.260525453459085
47.329831187688704,2.7793972916860774,14.125650765575362
12.472534550047179,29.907873677513198,20.23473491648815
16.085985408222065,59.781628092954634,24.01445711604079
35.84304613133841,82.66559925304131,25.32228884198364
46.09456353372669,95.52843955665043,24.5218895662626
47.47029416148326,96.79810030627863,22.357075067338336
41.373827297571495,86.44947597805245,19.623956603529617
29.584569298222217,65.94607357447543,16.978909751531
14.04447181583966,38.04275028641566,14.809281817225466
3.2638915276066225,6.390629224062289,13.04220796597946
20.450991466575545,25.033036678057474,11.273307069644861
35.94541779257756,52.590509113872095,9.187966750823273
48.72859918899281,73.61035456911436,6.678044862560018
58.42903915472223,86.79113977088433,3.72807336562285
65.22004953690767,92.24641153544174,0.38867315817177617
69.54290556238314,91.20081399691985,3.2860577054584104
71.78917643490897,85.48563037004337,7.262061927110345
72.11308884752633,77.0134620232532,11.52015470999009
70.42549265855676,67.38988970534834,16.06422212149498
66.4985536376721,57.746904415162625,20.786320566913982
60.06131024976097,48.765259755841285,25.438164723225633
50.823042663036475,40.78741745794856,29.7410081286147
38.447580037089296,33.919398549476014,33.416408246084956
22.564752978771306,28.071822761470717,36.1399167132112
2.9200643677974254,22.960185263234,37.40969226475032
20.3363578616845,18.110399870252984,36.62085340567301
46.35101971871093,12.920722652522677,33.320604192952175
73.43052691224659,6.785524071517495,27.330521308433728
99.16301959953243,0.7900471189733015,18.905418393007434
120.78662881534817,10.130816458451104,8.874549214547988
135.69292975538988,21.384945023337433,1.5283388141902041
141.89262300940112,34.55409826500898,11.084372013846378
138.3436182584491,49.483519067792415,18.922447862101627
125.12310223057098,65.72866780986232,24.631731691404937
103.44356928274478,82.33004785144921,28.248854588748102
75.50962534474785,97.63725679659906,30.06686283007011
44.178255461769986,109.33879089002279,30.468686727445217
12.402519654856494,114.80596213579769,29.89698794627961
17.434821818703043,111.73736835117023,28.71786595776355
44.05397397640881,98.89499433675813,27.118405300170977
67.40151484878672,76.63434809670544,25.160320119117724
88.20134307692346,46.99263439888493,22.857871478670557
107.0735364307579,13.265812153151106,20.11936500075348
123.64375636928963,20.755644499983756,16.5742651863097
136.09680876076408,51.59066279757961,11.698561969460647
141.47492110277275,76.62291207642255,5.145574637477523
136.64399424376165,94.25389428380073,3.058029520769604
119.48750935600135,103.73897374517438,12.292009106564507
89.82185755744983,104.94504746919962,21.227587557402035
49.67905198889756,98.23173821837175,28.094286398437205
2.944879173835868,84.5081181155212,31.182735457130615
45.37216120017506,65.3496979983063,29.4022441624395
89.91556875531022,42.97084724914825,22.76948166045363
125.61620809550081,19.92988916074052,12.542434572592525
148.25161775302902,1.3523530503395977,0.8659563573600078
155.05641514666,19.035306193997993,9.83977693984404
145.37437974964183,32.043153293463426,17.58388284935968
121.13146792481473,39.92304089006644,21.335160653279203
86.75934192986234,42.53064722885969,20.99955520218401
48.33557100048029,39.824711358601704,17.10906339249624
12.057751075393895,31.98281991834465,10.599873622703
17.405583108844745,19.797822486788192,2.56464772135536
37.95767463142093,5.061072730888129,5.849033663110185
50.08148179990652,9.407220094227354,13.28311999365861
55.8944869844541,20.27457048831263,18.318153232210193
57.81678044735966,24.661676184934617,19.907565673494524
57.57003973095521,21.14541321375157,17.673944387181866
55.92301242842707,10.305716787108556,12.17157480438829
53.12565385619438,5.454891537610062,4.921039176583158
49.531819506150185,22.709230243610264,2.0155251768268623
45.86741465660069,38.023433858244765,6.728608095539891
42.952787026407805,48.741829749284285,8.151276228928333
41.11478149774125,53.28165695123386,6.380052196776551
39.79473296221036,51.026411199462025,2.5992595377549206
37.70348006858472,42.12658247579026,1.379058223341592
33.49729039773487,27.478532596888513,4.020788058267615
26.58906644725154,8.90918808383131,4.800805387852254
17.55568989580384,10.666739041645148,4.141145233854041
7.871195414090061,27.448896099655133,2.8864450477619052
0.882485338946524,37.51561497237767,1.8468143648020474
7.850305922364806,37.97954253614425,1.3923327922122868
13.281506840468719,28.048476755872393,1.300198107290856
18.29912671940065,9.49769470835016,1.1233594170282675
23.717808931518597,14.237277924890751,0.8058256395136205
29.439584068183038,39.33288131237204,0.6816829107885792
34.82441051863709,62.285386996936595,1.0635218113904337
38.95846147683601,80.48148659362793,1.9998946240588662
41.131375093988645,92.38210606520988,3.1368285523694888
41.20229921889851,97.38990443910326,3.890793902964706
39.603469214993886,95.60544183947569,3.7687476428963214
37.00882459065058,87.67320647601912,2.570322384029717
17.49118214803116,12.572978035990328,0.6204854649927876
15.155588935203792,16.95344689698888,2.862256770906667
9.054613415247609,20.81687392484308,7.289781826712064
0.024244461214496766,22.96087641419545,12.327813665239631
10.498124367044342,22.024635073542978,17.449749660954513
20.475570625024776,16.858437318892072,21.909249572019007
28.26674547863935,6.909893899448068,24.755002977412317
32.72145017761779,7.523223206964692,25.060079995168252
33.32691743248747,25.21384812621644,22.08615880679835
30.158219066691476,44.150536564977045,15.383449893307237
23.753925503096156,61.833452823116566,5.022400039478353
14.978099087146814,75.6252118045846,8.244171172100632
4.966205783878588,83.15424896934692,22.97242407065028
4.794457416890207,82.84014166162113,37.26944219720079
12.566172314456638,74.14348173368361,49.272528561783886
16.829949789964335,57.32733792341244,57.422980558964355
16.68514775018585,33.381514418809324,60.54851260505884
12.020697941473411,4.0995786753456285,58.01302685675527
3.5400550609918926,28.030348674401466,49.73471985002758
7.456268173358805,59.94670622169614,36.175328568403984
19.35293041410966,88.30922771046369,18.479718173142253
30.4177856042061,109.93149318475116,1.5525399083349112
38.90709296889534,122.1725401837591,21.71820390657419
43.08057542719526,123.35158210075835,39.72466966884699
41.28679396685402,113.02512567524697,53.57715097178966
32.18647518704667,92.08379222151868,61.91049422564727
15.09667691629437,62.665173979023336,64.14995935606345
9.603523066960163,27.840202574784712,60.56331583901586
40.17622051848976,8.806413691368377,52.17601323933821
73.4778714763181,43.598352440949895,40.509333170766446
105.23970298101789,73.09017546488842,27.24952490962109
130.69972785101547,94.27382212572581,13.971544491801353
145.49556379022903,104.75062662574906,1.9131986665846308
146.5910705072305,102.95325941546518,8.13398738360076
132.98453427034087,88.46513961854082,15.672996633487116
105.97450066704934,62.36887214807243,20.439532896342506
68.84585500791016,27.455149125504494,22.59171565653874
26.07493588142222,11.921642085811158,22.663805039623888
17.638656224310225,50.42041980897602,21.29770338832812
58.1713103513073,82.60722647979237,19.128539844496366
92.39201646222183,103.93295387396252,16.738790077572354
118.21531310608563,111.48383663447102,14.438406037327411
134.51217479219324,104.30679904413326,12.135908982200846
141.09693216093092,83.3267431361016,9.53593956396941
138.83587184888827,51.004952709994676,6.337591095180956
129.71559215931413,10.933824333616808,2.4323492416408494
116.57175984861598,32.50598812831841,1.9029288437410017
102.34840242455307,74.46375191642386,6.055513104354654
89.12640321107833,110.04788863053311,9.194004261636394
77.38049477866932,134.91729892782806,10.53134385495789
65.89678940298917,145.96654741214653,9.68957583912111
52.46635782938166,141.9225806084998,6.745062495333324
35.03307254040436,123.58723544268794,2.0892540042918633
12.719116768047401,93.61201588886158,3.6741942490965442
13.79600497230429,55.9029142686501,9.780954756970683
42.68129387682227,14.87566426582708,15.407336454788943
71.78034175749309,25.16267866192926,19.90298631919245
99.26940362437801,60.37807275133232,22.930809952566104
123.7544728759905,87.56240975001819,24.42794520543244
143.8348322537127,104.21856257396557,24.388691938883124
157.57130962533714,108.77161460376328,22.692551441976356
162.41967556960526,100.9341106312369,19.13972814544125
155.8551861590528,82.08126603916651,13.445913732015775
136.4325217800463,55.42145918460227,5.411689141728386
104.71122470572827,25.728252014105802,4.745488337283834
63.50501728601793,1.4348579122067904,16.30459681822093
17.31872171488572,20.835025440433274,28.151822289111156
28.721052849886124,28.740793459591178,39.00304566639552
69.90313013056092,23.844532367321158,47.55110885004012
102.52957272726756,7.675054461985632,52.57935638961016
124.03933429042031,15.648438702766498,53.19223194027649
132.87765739442366,40.22014749073874,48.94127498338264
128.43186952226407,59.52208695325763,39.950637097678865
111.19321092007154,67.75887733234944,27.05045021873177
82.98900383589438,61.05207444775155,11.67069514255304
47.01809027954644,38.281477706996114,4.468990285141942
7.521872799261994,1.43318413634457,19.661911060897957
30.836613463765683,44.63236316140728,32.34307104655771
63.6302696225755,92.92903744476087,41.367468963391055
87.13200847589663,135.50716398958778,46.433272641248315
98.52531737007423,164.8582116133028,48.07382045903658
96.02821439346484,175.31074228636749,47.33231677629736
79.14361989288871,164.18136684597926,45.407055666655864
49.06223429939307,132.4138826191888,43.17080534081826
9.001666650344049,84.49470735327432,40.7247905863167
35.86382930505389,27.6099836145667,37.38177684269486
79.09312956411813,29.80275391655439,32.141616983153185
114.19364750453559,79.7629162157817,24.257439723917425
135.98398076695827,116.24980053945552,13.645088127433329
141.60134489435194,136.10137482506053,0.9560768070531283
130.83439836367984,139.16492619366088,12.773554476781735
105.80259856810144,127.80156731853621,26.347505042578742
70.26523532868688,106.01918765436966,38.53914741817003
28.92351792012552,78.58411319897299,48.545427302461235
13.106722207319423,50.313662491363964,56.160254340901275
50.73643879410652,25.562005528529813,61.413898810936324
79.44334151228956,7.822512355534947,64.14576509374214
95.99162150495337,0.6540171433114669,63.888655031951274
99.15893953151053,0.7906839964715715,60.22529603215209
90.12676064815017,11.062711024474195,53.097810371864696
72.2574854762245,27.492038510206044,42.84879136933594
50.23799189637772,46.36528052879333,30.20689560215643
28.900299389789716,63.68561617470232,16.104123856318278
12.205506592083074,75.90444597891718,1.3931181800227967
2.719972093978173,80.37719037992379,13.333298717169136
1.5794606642079114,75.4732664835782,27.58124725604176
8.693436062797677,60.47238425600657,40.60159196273048
22.88269857077232,35.47155544921566,51.297163271013595
41.81907544740557,1.4512707001058358,58.46084962595268
61.94716639886878,39.520921744187916,61.2203041458754
78.73396461665529,84.10959099536461,59.263227246848054
87.46559043367495,127.7897016640379,52.91927536309892
84.45084797720637,165.3300523531125,43.37984639446313
68.16263084506035,191.60676124000778,32.44395433132328
39.79998450869412,202.52919813561107,21.884938209033404
2.981267727191419,195.82251874719495,12.990106119625695
37.287634561089455,171.46572637251973,6.264897988083449
75.84037682018626,131.7393368364391,1.525966132697045
108.23003195135638,80.95426444932816,1.7100346602861893
131.02580047405337,24.92977660736212,3.9255729463640945
141.71172810482167,29.74357240069616,5.514255149271329
138.63604430827633,76.61831112359087,6.868294950516793
121.32987090108197,110.39591115525945,8.418797219006851
91.12713637305548,127.8385952996684,10.587231513061054
51.646465262744314,128.33188896134357,13.643550705025172
8.601637891652448,113.89809045116807,17.52835740266124
31.284898175539542,88.61470873648636,21.81098157940301
61.97146555924415,57.6037353380857,25.790924238810618
79.68116808817352,25.935865132985857,28.699689888901407
83.65027093760675,2.2362117492197426,29.78761989176281
75.75301999304669,24.130950645826765,28.377201999927607
59.332464746011,38.36158383151422,24.16095645213014
37.927522893819514,44.710212353766266,17.439754745839544
14.506095321873428,43.83253586323383,9.125864370832042
8.575492655206848,36.9899327621037,0.5877534502284778
29.161313243825955,25.8250948954431,6.782446377992655
44.997873102582034,12.116835325805722,12.009945505696768
53.9611115712305,2.4814418076815654,14.652859768624156
54.78838177670358,16.639543331987632,14.739313465809346
47.863178816401934,29.412571758904225,12.63741976473432
35.45975398866502,40.12923146553485,8.926453560760821
21.182740491620287,48.18178916923135,4.324321795660361
8.471014571386046,53.036275087346304,0.32646853985442703
0.4001544227325268,54.183207168583436,4.181736640697425
4.466610493977461,51.13749132786684,6.620667956370473
4.106411641924037,43.816806988073594,7.377560192458879
0.5822441180475115,32.88014965995131,6.5783701501824545
4.600330632186411,19.809092164162035,4.660368332406339
10.161751176574821,6.642344281741931,2.2560578663528017
15.180300240144101,4.551055019609354,0.07735909469540114
8.59082988881568,9.511257109532972,7.395614108616133
3.385880002605674,11.671704462421264,2.0677621561252137
3.290404294218389,12.188103487532674,4.8246430369753295
10.762211184880357,10.629008313028637,12.14903888366742
18.30987128627911,6.831110948739953,18.52925347734762
25.271357337499616,0.8021160638895645,22.672712634627235
31.067884685402525,7.334161294804014,23.874264366138046
35.10933135779702,17.25558197147098,22.155871414670337
36.75708676666313,28.222625921536736,18.155273557917315
35.32597288066989,38.91079593525456,12.852841625151937
30.2285348448341,47.434445403346835,7.101783687156652
21.38400443524008,51.614472012449085,1.4774708412925879
9.667267538210114,49.496706496534856,3.551770322197377
3.4179469361864556,40.12466854812744,7.760683678175022
16.458721493336277,24.101743779016957,11.295952298510286
28.069409511069026,3.383964674768307,14.342538381448811
36.8772313986614,19.364610812414913,16.92755926253277
41.93580094943748,41.459285637244186,19.031361045292297
42.891377649586346,60.76570873406856,20.569436788525177
40.20670909746867,75.83756911640127,21.315709048223066
35.18939641118782,85.72540209406809,20.983854069704975
29.649952674216546,89.71922480690372,19.50170469788093
25.45930857973957,87.23275094829796,17.094536631945562
23.928102948931098,78.01040798539626,13.953405750272719
25.35603563762481,62.47321164364191,10.067386685947177
28.901203469029085,41.936654351245025,5.347131885408091
32.76439186480993,18.49449472343997,0.2132219745728431
34.70196875741112,5.462578330683602,6.30121993318048
32.58496591816676,27.840698640382897,12.334982815828864
24.885937065935234,47.272080416662135,17.859676502356674
10.976484311918579,63.169766088782055,22.708697194074976
8.787714712006242,75.40965635895132,26.91410651190488
33.06420606495325,83.90076387637974,30.63215977831127
59.58763284483177,88.34471831504669,33.93344573898811
85.31311330379131,88.33829685254706,36.55076258941537
106.74320437608836,83.73488837019279,37.84903283017856
120.51666410315924,74.99587034811958,36.91718907687299
124.16362424288344,63.254811739731,32.75783801351965
116.8053095128723,50.00717543102915,24.65661434234425
99.47645718748947,36.57376322642454,12.537240320056451
74.84286456658896,23.621548696511997,2.8530193183780694
46.36488783027193,11.006284888389049,19.95858852392851
17.230690205446564,1.9704607833778283,36.686021638290526
10.45913094733955,16.04107160327718,50.85975835945352
35.87216796988599,31.476893183526734,60.75491996188365
58.95966111853624,47.82479352960775,65.39808813388815
79.6281599001894,63.94991749676707,64.4974095575885
97.06657070368742,78.32208552961522,58.43217527098816
109.63423504952954,89.35903422635653,48.23829628704718
115.38023413819742,95.68732628087173,35.30942999536992
112.92640986264999,96.28589064888432,21.086269549794014
102.25058074135329,90.55501556019826,6.839483121358706
84.95012614186395,78.39140526323717,6.407907692072227
63.85302296285676,60.27473821190107,17.837763837531114
42.19288313975276,37.31233546922909,26.822638526797498
22.74775299935237,11.195588797912313,32.86418554969273
7.285866582765089,15.959562665551163,35.77470046591171
3.5280681764565744,41.85153991996923,35.98524904626112
9.867781997815648,64.23697432749613,34.28062764254934
12.38645430034961,81.1458522187797,31.39399632987357
11.98557663272757,91.0681122225918,27.974688802342115
9.776060961361809,93.12555011881649,24.514866527343067
7.109066321450746,87.23601481952204,21.182765188589347
5.48270723563366,74.21023318329503,17.851164643066753
6.246277186237053,55.67446151526773,14.324934207812003
10.178818750338596,33.78137912131599,10.511977908898062
17.14663301861847,10.791548906123714,6.428719713056958
26.076191448123346,11.312013871221374,2.2044659367808066
35.318616881697984,31.011314234567546,1.8903598412098321
43.27510455041455,47.19655968474408,5.408350434418058
49.00947263939301,58.97392009295114,7.749076361626548
52.535125248196984,65.53084085392663,8.334144742501282
54.617964498563126,66.22231999076774,6.841879299421873
56.201971609011444,60.87331800247513,3.3788939604712542
57.77232509885007,50.089673932410754,1.50348935532616
58.98391162533796,35.316832944830246,6.782286422843648
58.72551631442969,18.554721307939527,11.05280108698635
55.59130330527819,1.8568306589526398,13.044216754077956
48.52420649660354,13.109014946548303,11.97234322141542
37.30407521761576,25.161753461882032,7.569143206923284
22.670530032828445,33.34799975637916,0.21415141819413805
6.083346225602322,36.581301952277364,9.120323042082287
10.691837487335075,33.55403400709846,19.131477788284947
25.946372804840053,23.176320771063615,28.4876608809497
38.21418874428485,5.437375857725159,36.05247034789516
46.2824418787529,17.763562739135782,40.82271932633003
49.15861732556284,42.38919980158178,42.01587654301507
46.15229923101679,62.95366188412532,39.31764637510076
37.11701403526451,73.95287444621714,32.99662532790707
22.761997066780246,71.48093658291904,23.969545196769488
4.851863465244787,54.36707077959939,13.606450485800128
13.882276074734191,24.40887889808644,3.386828275752724
30.184450193827765,14.269113044854718,5.493861117662339
40.9620016236949,56.31343778872344,12.557507515031697
43.97768019795312,96.16818341223161,18.042978000466846
38.293130141390854,128.75676511970002,22.539508686473532
24.322157927494835,149.8765944177124,26.736156996162205
3.533701286081461,156.5381372416208,31.24339067460438
21.99256071920913,147.44886759439328,36.17344896491653
49.90510076299172,123.5520660959125,40.86828209015883
77.67350155084307,88.26380700403358,44.143406482201335
102.50960110883923,47.058228807652135,44.58556014728067
121.34993588290263,6.2931173009114305,41.0192162120906
131.13052654765227,28.423043431646043,33.13286603457092
129.41713381920584,53.69230646016665,21.519481075115436
115.20759521679695,68.98783506783317,7.319051816718721
89.5247444092159,76.25261442296697,8.077536150583667
55.44062397227664,78.69225452479235,23.222231423612833
17.424052266493696,79.35448292735546,36.679359958569265
19.7824796721408,80.10943329824138,47.121479327988084
52.28255147133783,81.37613953425505,53.462592191801114
77.65702203630035,82.52661525512508,55.06459737855259
94.90790643959035,82.56371108124192,51.94467622838702
103.90077712144374,80.63444330894873,44.7131547634996
104.77762694239101,76.1902036947807,34.39557536922943
97.75213772796482,68.87951972536625,22.344741177796738
83.37675190032523,58.42539750358352,10.041606755037279
63.035325510004,44.697058586747175,1.279188155365983
39.21242054340621,27.972559460167485,10.76927727031852
15.210181196416377,9.204978549616776,17.97887661470131
5.645095597579985,9.958617155027829,22.98647017632813
20.91073436961378,27.52347207849385,26.122201366455474
29.55197413078093,41.73701121750256,27.512657783002787
31.823353687133068,51.62744143368843,27.173640031923828
28.647676288555264,57.18645492588859,25.35226708086374
20.944243588664524,59.10183833683975,22.54017959544487
9.348474609010625,58.211784022333276,19.286785758833183
5.545557556284673,54.98965003913413,16.152952019440338
22.63016895218429,49.34759407155833,13.57370698661699
39.87297291771821,40.86176384075001,11.566165444172972
54.45392435487167,29.2626700179116,9.658883481179604
63.457383484779925,14.892578107625454,7.155759878094001
64.77726572945953,1.1321230527945167,3.5369469792630723
57.76789191073163,17.132264972651065,1.3631064473389078
43.31626524523143,31.288280689664536,7.307753894149578
23.395917944943317,42.02034894400925,13.589516975296458
0.429206378248841,48.158687765848526,19.229640372075675
23.195037972327196,48.87881932932511,23.292184566427917
45.27676800571846,43.55789435225761,25.077837819569318
63.75785654826784,31.790335100768182,24.19436373552005
76.743017221611,13.664688077922198,20.49790344093391
82.76349166833327,9.811058713219486,14.178156950017758
81.32993720567559,36.33254947030884,5.907832512063687
73.18158533811012,62.80432221771116,3.2735717847638193
60.09308917434158,86.24107457125213,12.204069036822382
44.51364081904614,104.23098553400045,19.79062764385531
28.962130387596726,115.2876288164052,25.107436910463683
15.414268317071162,118.97222152619696,27.530642186827976
4.93285651423474,115.76104447891184,26.99590759175194
2.3089574988576653,106.76120684682428,24.096284101114488
9.008413846983258,12.928270525223486,14.514864914396352
2.488902828347511,21.78641178588677,14.292732889296753
8.533872199370142,29.557305095936403,11.697301773721318
23.42762107290019,34.05148485765479,6.589524345586694
40.25609084062392,33.192732046687155,0.9377032668240107
56.003598911231215,25.659068926670102,10.414670024941637
67.16889251792766,11.46908889809985,20.781104823382268
70.49118039696215,7.802762290425848,30.602283192959657
63.64464431958581,29.204824210668935,38.414739666549224
45.69847162924756,49.044237479776825,42.97132142312502
17.341117351622092,63.675803716793936,43.37328588557863
18.991164187428875,70.03309340718789,39.111243947759945
59.12136726102232,65.92339307789055,30.30953374557638
97.70856277790662,50.873308898791144,17.9508664248105
129.10700002722334,26.849368194276124,3.607237349072805
147.8828325385422,2.4320521612148567,10.848403483374227
149.61869534705497,32.2344120423941,23.350377081043163
132.0713604561645,57.209739518537546,32.21506572435521
95.9842328560764,72.40497665027219,36.661850687800374
45.48376654261248,74.26017173514275,36.67106872740646
12.292031496014825,61.601461967072524,32.79888804026865
68.39007815359344,36.3543375790097,26.013834864957953
113.66049033276889,3.295434692996106,17.57964908582189
140.5550929422342,30.970659823596186,9.131189159152726
144.62615363006142,59.7132158780287,2.4628110505212657
125.42108712652536,77.81429715391563,0.9076980952932389
86.61743974761539,82.85943267391029,0.11525103065280126
35.349043899695374,75.34958387023981,4.832529167011382
19.041301262534112,58.01203568542935,13.008656272425005
66.62266058200953,34.72166434328773,22.494945838878824
98.60739172207309,9.457372771785279,30.581655424319646
108.8697135532485,14.388242782056075,34.59726229118523
95.002885874348,34.27148830230525,32.8595567886353
58.794931626404185,48.59857038082404,24.995317816751935
6.083858639434404,56.761555244752564,11.86962942735432
54.04439453578505,59.17827069618637,4.567548134207278
110.6742344715848,57.25652657679001,21.96990411494909
152.9829096063824,53.08489967786392,38.24433177626375
172.36684669189748,48.86283262384102,51.54783732760199
164.32126893050633,46.20505262147724,60.29281205160256
129.59181622585888,45.58516071607732,63.3221487985345
74.13749919964565,46.18833681239319,60.057530600917026
7.812641932564678,46.246020636354544,50.6468829480512
57.88767096000282,43.73734332920337,36.10050074242222
112.3727271520515,37.1909981331984,18.265072103929665
147.9923467974853,26.294364101462513,0.5635892235394384
161.07377067107416,12.09096185637053,18.028017777596904
151.9319749121221,3.285876299392325,32.10604411220853
124.10814765089268,17.22762644798476,41.681163873888416
83.26147701425256,27.44606007985928,46.64211157114241
36.10084044082444,32.68342382448609,47.421949994069905
10.501812541701353,33.08314641795027,44.58448994596494
50.317607634862235,30.120285371868906,38.676160564577685
78.58747364350555,26.08634274900081,30.22188934901718
92.77116248153251,23.320309229376658,19.841106472607297
92.96372794810306,23.501040229174738,8.351119252412532
81.69204202198611,27.23715889956096,3.259663761491369
63.004713741499415,34.07098556543099,13.834805543539524
41.10543695445124,42.81009606947135,22.24708954552517
19.027567205665783,51.96079058519239,27.747152062612265
2.0828453526266566,60.05233368469824,30.02780999768607
22.777823522715664,65.75297211459245,29.15825647550313
44.32668547988761,67.86444637661049,25.52999479318157
67.3857793624547,65.37758391875384,19.83496620221769
90.95824249994305,57.69791339148122,12.951319982338388
112.0868977233073,44.982082315259944,5.6247917776198735
126.38977104849003,28.387092254109696,1.5083942565070991
129.2888019006853,10.022069208650038,7.675163180332653
117.46422886823784,7.482756523074181,12.099508830037365
90.02841132441371,21.657282341655755,14.263173966103047
49.07397617471621,30.82560883732422,13.990822918329014
0.5769875643189961,34.43246400354335,11.418318459371747
52.29378288198629,32.98002967065999,6.973648306141777
98.91739569915438,27.698224237937517,1.3646870304374819
134.07043227333696,20.191777095897088,4.557888015452294
153.2289124794437,12.226319801322962,9.98424075508742
154.4178626187151,5.641162912857075,14.245973969821796
138.48475135562208,2.2483957039137072,16.846067194480366
108.96973193269854,3.568003414779461,17.562860303529245
71.58592263789708,10.390107171752783,16.49752611561008
33.30717742507814,22.33569634937279,13.90362342284186
1.0830092844130383,37.68358832516027,10.15739533374469
19.68356744676904,53.649155731804434,5.82893848287415
26.498605259561057,67.0726735310794,1.554123523506489
20.524434816670883,75.25594126847078,2.193835155983948
6.378510810485757,76.6005615235196,5.313981207601769
9.126154572910197,70.81869245915593,7.990037649066813
18.929246000766682,58.71551010685607,10.428048749780766
17.702861356951463,41.75219286674188,12.826419442505085
3.233025304344475,21.67862705757734,15.329176098489347
23.222318636944145,0.38272691828380945,17.899332912699347
57.545701310812845,20.10461421043896,20.406119213007205
93.92470721287638,37.62161646338754,22.79597243864082
126.111256074348,50.07806735517731,25.114803686771758
148.46818759097908,55.866048018338724,27.345353681151078
156.7333046723939,54.31306240071026,29.144487040294578
148.57231250774709,45.937678519099684,29.794894092809265
123.96838235446569,32.34178236038788,28.495901238029635
85.36407610080003,15.775493769896194,24.597847277464002
37.39535132670137,1.4349979716801224,17.733937207056545
13.88493248613279,17.34349692612576,8.12403440963078
62.19282624482016,30.54410139969352,3.25673779526125
102.21799697677052,40.05045784608791,14.950680681386249
130.42495295225498,45.05423529737406,25.526697290209604
145.24832791528564,44.780218649737655,34.00234421202318
146.7400460760138,38.56264441234895,39.99038262301325
136.01447432477886,26.114938643571566,43.649018855805195
114.87252141799979,7.856415809172013,45.47073214410986
85.73261920057891,14.895642119997571,45.83801420122274
51.74247527155138,39.967332904418015,44.67088361192703
16.775154809497103,64.5903589431769,41.60407149736557
14.927820429004026,85.8076329865693,36.4119911481648
39.44274780960356,100.90511039846379,29.150318174839526
53.932900056745346,107.78896535503316,20.075914663249446
57.18391865987525,105.25755957311169,9.496054504801933
49.701683205924645,93.15406126813798,2.3244720318498344
33.41890844068247,72.40268410471734,15.07749089561206
11.23859810730522,44.91452404550594,28.317743661730358
13.394120495624584,13.376467439235949,41.26169564954873
36.79184361739044,19.054475875012074,52.57168573911797
55.245363432632985,49.10469485263907,60.5755191545627
65.35169759791609,73.71731751486928,63.6749584202161
64.51301285016739,90.34644557666184,60.65531128472984
51.530050604583494,97.20783675248133,51.11904619985322
27.125427595522883,93.4881853272556,35.91348218808868
5.863950759740413,79.52435855590464,17.108074507163117
42.78185514330805,56.91289623647435,2.53311958412355
77.9211856369595,28.47349624429589,20.302486377068664
105.61975338242796,1.9950793636325135,34.1757858876499
121.42679409800307,30.184070579156128,43.00556456116958
123.05032878536548,51.91528314823016,46.426057240727
110.80775656473892,63.81149317897586,44.748580471599894
87.42067968692214,63.83183026085684,38.854802852501535
57.19501901724708,51.586464698824756,30.058510427083014
24.833310294639396,28.410704796018816,19.77746928555539
5.72361554103812,2.7810896078352574,9.255988220241
32.029726186345975,37.81566004751173,0.36114849485770684
53.20744217826029,71.73313979412987,8.094863894457712
69.44488496513858,99.40352280679718,13.388665162696938
81.23629393442573,116.27149266962086,16.16678097844088
88.70949311170779,119.16650115652311,16.830797346709296
91.34150507567459,107.02295707534215,16.174565252611696
89.30809021712422,81.33213654647538,14.971961078424727
83.87750852709671,45.654785106435845,13.767001968694203
76.29757685326113,4.718664262426583,12.939647405448975
67.50994055034842,36.22539253977699,12.638163997660499
57.95494335515365,72.16442738641702,12.765326436784466
47.59829529055204,99.06858730403977,13.09798941698462
36.219328179024195,114.47734002635643,13.378911199562797
23.856735657954992,117.79133666924145,13.328887341452722
23.94055035702303,33.36821241607825,12.122606781310035
18.64252394685104,22.542740278027846,10.032807375346978
7.238018253252807,3.446177544702386,5.672944031349954
9.890609480733337,21.772752322466232,0.9208210925028465
30.84052591444836,49.276664093982106,9.252468458695965
52.24608848854448,74.45817001737548,18.342946546444956
69.79448390767831,93.09150642953766,26.844780821889188
79.14915850221631,102.27085764707068,33.26651892375619
77.07650046259124,100.86687291748801,36.357907627893724
62.44376601786686,89.39059621759758,35.39267267779759
36.71869893709551,69.43900282878398,30.262736815049983
3.8080874565928013,43.165331311670236,21.59016194810147
30.643670806254033,13.129821945166421,10.768822786738927
60.42659452520252,17.779317281164424,0.4139352725664835
80.30105547639357,46.77201854368047,10.28470235515595
87.21361218223161,71.60760815535365,17.392138523737906
80.63179342159192,90.93581088882615,20.77733557896969
62.262245487806574,104.56360151481597,20.409928445042787
35.5067825395311,113.317259939112,17.1280779992314
4.8506026445275285,118.47794215982695,12.48985482953313
24.64283317646518,120.94390143603253,8.487732275478736
47.8413389777812,120.43458195941388,6.883969291633149
60.2404037965823,115.24977778903327,8.628403913058934
58.84017457540389,102.77496295146462,13.548780589933918
43.01954789953442,80.64839659488158,20.512680984484266
15.062488513791607,48.116398721740126,27.83744064381223
19.998449520840154,6.911930954705295,33.664382279384185
55.346196831132055,38.74172647857098,36.45084056865403
83.94548516389032,83.07574767285618,35.259801330374465
100.2129143444869,120.2614522300497,29.78530418204824
101.19751108357718,145.79453244150437,20.345229241513806
86.91417466817869,157.29723100828133,7.862607028763195
59.86836699746202,154.57110336107002,6.072794915187663
24.081876008519817,139.120423629449,19.342420352298586
15.905548544880865,113.54716935282252,29.792436841542045
55.688158801513836,81.12849126566016,35.78705700172729
91.25030085486155,45.62122749800488,36.65220901544297
119.00981282641291,11.095306573793533,32.83435774154055
135.93213743975838,18.44516474589352,25.714151683417846
139.8896942921785,39.73417189467836,17.237077529084736
130.19166777724763,51.00696968165197,9.442756668143168
108.01620167268041,52.4898797689275,3.9257234487034762
76.43608188580119,46.3212362169291,1.4368550512442788
39.88349664534375,35.87146637470924,1.930193725086683
3.1633819169463337,24.725488174742882,4.875500273045684
29.6397303250778,15.72825379469623,9.43621627782993
55.94944452305409,10.451515058675735,14.619370978540587
74.89978844508384,9.207605097521418,19.408742069069003
86.92898168962033,11.458716491749849,22.697847555524426
93.0338680787198,16.318810274226863,23.337955310073976
94.06131003615737,22.885658999369955,20.475179349831944
90.33459476794033,30.3301673454563,13.862019898725709
81.76534299734077,37.81995221455935,3.9528192851204946
68.32259358975014,44.427120156506064,8.232052902048276
50.566312702222035,49.144843908064765,21.295586921807853
29.97438524625844,51.02286164359707,33.59528399361803
8.864547599178291,49.353121742314464,43.48877042973338
10.063300297829414,43.792989032672494,49.61974413348017
24.369475510229886,34.37048403308133,51.10292596890569
32.47277819577841,21.439298079758416,47.60881433741688
34.002473395371915,5.6760619396185215,39.31219555861099
29.836623449009117,11.836947882861248,26.811293730293023
21.865985241394387,29.504126647443147,11.139781363645055
12.58032764583678,45.224089794447785,6.186582611733167
4.581486974827605,56.63849695329042,23.277978309423077
0.1044836321760928,61.67637199377644,38.108362389083304
0.6020375710665548,59.27412974105209,48.8716813031026
6.416834826078002,49.99778535002804,54.454585040791535
16.61528991102033,36.26791610918416,54.50681601969196
29.075609402846357,21.975668105464262,49.247752195277066
40.88968182678416,11.54116857064811,39.55043982619618
49.05262259086515,8.711184719752486,26.868388400311627
51.26588391824507,15.474091877305266,12.870603493312363
46.61378436997129,31.45593578385231,0.8249633269010903
35.86052087152489,53.97821126983452,12.890407875868883
21.231984787423503,78.67713002898734,22.50260131407762
5.762362813311758,100.39628076827061,29.350346039465087
7.55298606161202,114.05694575413581,33.44258120623796
16.469483244383785,115.36908910814309,34.94547165022933
19.87863337160102,101.39948144790564,34.19476891577435
17.854993737991215,71.07059528151538,31.62809925248001
11.456956615918351,25.61106582481917,27.600629407454463
2.473168267997218,31.18943147861761,22.401052428056076
6.7945660210439245,93.18087556136138,16.349100383630955
13.759271120763668,152.68696712887504,9.821349597690663
15.874924044608388,201.9069601756762,3.4521607217357206
11.138862796449608,234.5193980119844,1.75496642242659
1.321210052468679,246.93821020782272,4.8628374031225885
20.824726946523974,238.76319488557945,5.559033864260794
45.10134282207215,212.33018505049267,4.309788491585429
70.71147446369342,171.67286136439168,2.077524193526478
93.7973253941022,121.41868412177519,0.11445101977607974
110.85810617512016,66.09049647177446,1.3563200545193188
119.23638188128359,9.967033518442618,0.9749643642359355
117.22630652595844,42.74232730692163,1.2477246547933705
103.94300619504718,87.83957116866371,5.115921688233409
79.22950070696305,121.51383984790485,10.082703781537004
43.82738602883652,141.1094178677415,15.275004201963315
0.24963398060155995,145.91481120144007,19.766920112009995
49.41065781061752,137.5377580492844,22.77407271781194
98.57510189077404,119.59310723300086,23.674630821713258
141.84258419390304,96.78603116522159,22.124766277016416
173.6049174715235,73.79847219973313,18.233324498246443
189.72388946313797,54.399327263606956,12.611890329624213
188.35757567902633,41.02035107938786,6.274418378891051
170.18454611548384,34.77715048740146,0.5105412707185275
138.05743186929712,35.66598673401972,3.40353277867945
96.32770695050901,42.70004017864094,4.74064872111435
50.10758090318337,53.9521532747378,3.698343162600188
4.5972932611721475,66.62713163449922,1.1726145120931721
35.49890518107913,77.35221460036307,1.7880763866733382
66.5118000931682,82.74557531732843,4.182982822742535
86.3029456899535,80.12504890204214,5.190424640971068
94.57950601774739,68.10864289593337,4.463552196060762
92.86102530156174,46.87383666362192,2.1108289842810266
84.00916663177381,18.02776817390944,1.4611645919343559
71.43897905895174,15.775996011528767,5.681225676213373
58.29748123883818,51.27703949299325,9.99258033902585
46.87228259217549,84.98313623589432,13.925654047765091
38.38731846949127,113.50073484986639,17.172737435408234
33.136082167535356,133.89418367173653,19.56314565538653
30.75947565187423,144.10877809955906,20.964139709080506
30.510748385372974,143.35962373462672,21.276715126794063
31.43015896680201,132.30390358094752,20.342966587865252
32.474432993548994,112.884068773013,17.919121095175115
32.68475876827787,87.84665884393979,13.853918135835901
31.385597429071698,60.11146056739334,8.210345692388392
28.347048918995633,32.26535620245599,1.2894769193461484
23.797168490176492,6.3490662484388976,6.2773056906461715
18.20945830168572,16.0929590353035,13.510866901277565
11.956029119813698,33.8878281564355,19.40538759141137
5.018400408528641,46.2184630200186,23.259182963762502
3.0694492905569257,52.764466017840036,24.7238421690309
12.977895116517335,53.90201675854307,23.807889621676736
25.134661625342027,50.760093415223196,20.743896967812706
39.287838096077515,45.00061046510313,15.740262886549024
54.29366811154446,38.37902970185584,9.080740390032526
68.235417931676,32.27828272796452,1.4126625924949514
78.81573206292525,27.437703140146176,6.3036317445142
83.86908570203028,23.95962371488707,13.078875666974767
81.83049432041717,21.509940399603806,18.007499786404615
72.02499789159323,19.559181114439227,20.287869889151995
55.1275182578391,17.78501708966297,19.637929362748014
32.997303227036625,16.16336430726584,16.450534116540293
8.04085935935297,14.678299854134064,11.4792417814615
17.02061340174196,13.188507791499653,5.632449885666878
39.456921911017155,11.423349558947995,0.22069607355856724
56.89801996490791,9.129641122785943,5.414902439478134
67.71524231738908,6.264273843234394,9.571607514040709
71.30298658207103,3.0871480388503016,12.498081535685722
16.84002875482895,3.53277660352599,2.2867199315224087
36.47452682765243,8.3432265485758,6.418753143585116
58.79562565172003,20.93403417869261,16.554866224290702
78.71031149611647,31.174909954795382,26.12105619015196
90.05184140974707,36.43195186934539,33.055387731405034
87.17926089987374,35.3164132854751,35.76715496705517
66.56821667820702,28.108479236733704,33.31993394549384
27.88486652298622,16.631932889437266,25.564302515693235
25.68930083929552,3.7281365814438194,13.277980879569851
87.9519001347222,7.537698282099845,2.0135538742657606
150.68045320745048,14.641505578739363,18.288030934247786
204.76023605251916,15.993200006608657,33.205838821023995
241.28351159578926,10.919846228871185,44.31021714825239
252.92018443187834,0.011979164880622273,49.55688413945146
235.461968434258,14.291319794590738,47.963801092254734
188.83731377992612,28.047015452278924,39.804503549995836
117.58450690242348,36.62526282490929,26.68083825194269
30.570974393088317,35.65708068686972,11.291516117226015
60.50494475020344,22.44067941022912,3.4224170691045193
143.39852658048386,2.9486121997681325,15.024204038600768
207.81507886736622,37.18482405428632,21.984138554395546
247.36161280872258,74.03856969441061,23.864444308037225
260.2896150765069,105.75537024805975,21.300474761984564
249.0352578484477,124.93250860391211,15.755692991072085
218.8768446437612,126.43031586895478,9.070817511131105
176.42676461852264,108.72531304435974,3.0906313243849843
128.46840123074261,74.25352755335955,0.786776662598645
81.22506662697465,28.761174804615813,2.0174283932993093
39.9765645934528,20.118769523072935,0.8604217110850341
8.660935830271315,64.55105750726979,1.86141971399968
10.650596128217806,97.99975981136865,5.044464727383524
18.2004516164289,116.23555750772503,7.632680323664917
16.61542611878552,117.74614692004745,8.859938695952119
10.32331772928727,103.70641522914767,8.396958819583443
4.3975806045581765,77.63528954939902,6.352459117334879
3.234963370086706,44.82687014952336,3.167681065937928
9.570272761353047,11.548290119099326,0.5098576578827243
24.14380933760687,16.01181220643985,3.9451980018147603
45.987563604386324,32.92407089892583,6.4078383499729625
73.03262649598098,36.58369686913931,7.286103186021019
102.62034123192798,27.3019469284591,6.311728320199089
131.72164594317013,8.148877576069909,3.772876584922082
156.990692774557,15.953841000469486,0.4150364117970465
174.90600784241818,39.58313237834505,2.841813293896169
182.22594458441998,58.115442095292025,5.166567414708637
176.7228641449667,68.53659241724718,6.178839625304125
157.88443227905285,69.57142588883798,6.129799446725625
127.21786764254516,61.297323851642695,5.620243606841097
87.93503932209666,44.61462100459583,5.139867164215768
44.14719762620872,20.89689919556098,4.819120384609701
0.03592944886001226,8.059230830871558,4.486896170817164
41.129189885638404,39.90582450512332,3.7414959696843577
76.42332156748364,71.6992999568152,2.068807679744304
103.77756213931261,100.14106583368043,0.7931155572682222
121.40965285695701,122.08418517707828,4.568329743860598
127.9797134460518,135.0896942808543,8.449955856214006
122.99782806146742,137.78292069109702,11.361494884713807
107.34034381151446,129.88966552033236,12.362583666952338
83.53562793763173,112.02740308768358,10.968902302593369
55.53509533261081,85.46788025616928,7.172493722575261
27.96964001573417,52.075451673992426,1.266454501969482
5.177414435171404,14.43254797767421,6.044308454427328
9.65813032024686,24.055258401026755,13.59323824091712
14.999327672657904,59.31019377647163,20.14676790198583
10.986514561394356,87.10970586591861,24.50574658992813
0.8426461576467023,103.94426948095844,25.452443545342216
17.926114692451776,107.92094752393149,22.165362885636437
37.01023095695505,99.34196169167133,14.711782081263475
54.45487295439667,80.74535668198301,4.091256440465091
66.60585318743857,56.39286691695892,8.21769646209441
70.28309475586482,31.367135678925052,20.58594033631751
63.371963718987566,10.54846429198932,31.24836326900248
45.37441297722197,2.27274391874341,38.54734206209345
17.68223637688704,5.0039417496306475,41.43951243106326
16.55083493419117,2.4599848346063458,39.87233574198841
52.93039348041952,18.26954364311995,34.66703795110227
86.61092081382412,38.94862815905908,27.12111296617927
113.10659210613595,59.976079680709624,18.567786981038278
128.89215568183917,76.54949794465014,9.954702183669548
131.69679922764786,84.41663324620033,1.8148725437960171
120.53087917076896,80.63481416688062,5.707079392285497
95.59199402473402,64.10125105522611,12.789120447259037
58.23884498486252,35.76918258194619,19.486572287376006
11.126492595120093,1.4624248326553018,25.613150072294914
41.58577263176347,43.16255117903755,30.91629162622592
94.21553009922188,84.01417205159602,34.97911236511284
140.01104253857895,118.61491905964778,37.12507867918825
172.18056852318077,142.3195277520202,36.60281938232368
185.34457188202342,151.98255178396886,32.98029358697339
176.96815392562752,146.456985879584,26.325708007916948
148.19070340249053,126.69869109301527,16.968004373323797
103.66796519371246,95.4510078711392,5.308079885514856
50.42040266983794,56.631230210581094,7.9822264494107715
3.9344331356036415,14.606215934689969,21.703268375650545
52.92812687147789,26.417260368793293,34.20128646395688
92.34882837926895,62.74887400254425,43.60413204622507
120.43014249411904,91.33967409223087,48.20481266471079
137.2591662099767,109.82058197579823,46.98144744714803
143.82051774063385,116.62619672762513,39.79346370115088
141.210940858005,111.25608357377895,27.414729440426367
130.34837479079923,94.57973891081063,11.565991088099189
112.13450525187201,68.97904936187413,5.469794311823392
87.83719241237186,38.11955268594238,21.44363415848695
59.377278750121235,6.298520689463643,34.45418593315569
29.329288905679896,22.4678985897078,43.143950955070416
0.642627050459287,45.28599645414855,46.9184979569713
23.818796900573115,60.826997279315925,45.88956745796456
41.727087794464396,69.21154417464494,40.70674925044783
51.61413735795249,71.43988392852442,32.423915096476705
53.07195718123231,68.71488550290316,22.261018841301407
46.84459965716371,62.01935223918118,11.494567310478171
34.83894455130749,52.11703085896107,1.3624241360610574
20.034316774505974,39.88206277830211,7.1209386008147355
6.219671624477928,26.65427634051849,13.274302573683899
2.5320761709117825,14.286834283208972,16.906513201227902
2.6687411229771296,4.736146884914338,18.387510112385012
7.880302587945694,0.6297449845495109,18.432169688346686
28.81496089357138,1.6242577760691785,17.826445683646856
57.01185593772511,0.6018383941206146,17.24633072534421
86.81831750436872,3.964436465484219,16.94100174018313
111.15021850634963,6.210308344337865,16.5552322445675
123.18882845719133,5.637450323248184,15.437038228027545
118.19634175329608,1.428460653843021,12.881029591645072
94.87789003943017,6.500681916233317,8.302861346345114
55.8121833016986,17.921244015164834,1.7200054593612517
6.772653711459815,32.59669428170002,5.955853766523106
44.76633937175141,50.20775452170472,13.159219545642895
91.39201860837542,69.93114177253665,18.30032247573085
127.22523581831327,89.98327256059859,20.34917718471523
148.70544071416685,107.51839286760884,18.91782290105685
154.64982536607937,119.09233897311891,14.131661285336406
145.83634363669051,121.58326339397809,6.507297238369169
124.4227284031058,113.17330184054768,3.2547761544067813
93.42191592349319,93.93384043175871,14.318777178472475
56.30403877584671,65.78019406903044,25.676048928158707
16.671727723852626,31.899051858927212,36.23910846715199
22.05533224405415,4.028863043871558,44.8516605421607
56.92441350491084,38.47644872804196,50.22845876961154
85.63052567053806,68.43516942163558,51.15401377642448
106.53982690116625,91.58508178113763,46.86758948455376
118.57421996467443,106.44216879131248,37.363690137631174
121.08696975531254,112.57536427537947,23.51967804028205
114.62373199758048,110.42095318177886,7.190946243837135
100.92241678534042,101.09654827117429,9.45011476996076
82.03613130478972,86.46208184765268,24.861175353976037
60.18831336666413,68.87107911813207,38.186355823393164
37.62321360502884,50.750038259614406,48.89475956945831
16.430029593807145,34.150222652264546,56.527316561167964
1.6687526352329167,20.438653619561308,60.67540799972258
15.50064998367835,10.217486396447956,61.06374933016498
15.53013414314358,31.533120704856696,3.14201369060202
10.706795220733408,23.173141711387306,2.3721659578850787
2.687407668247875,9.450222414963712,1.0923274994214944
7.443096256134794,8.062531387300949,0.8846642412153736
17.813659274011,27.282237680583513,3.5077127378451816
26.235542463787084,46.10731025784767,6.544140329883677
30.90311640706199,62.78717942692434,9.61585913505996
31.01353617050621,76.06633961916532,12.119998287093003
27.061284617834144,85.17033346119098,13.388496223659867
20.652897496061897,89.64145879676359,12.953598278444163
13.959435535177436,89.12659994283992,10.586948866589443
9.160019083724896,83.35065398395744,6.418332397913695
8.120620396722376,72.37666694461035,1.106350291113528
12.026771687330891,56.56121615182823,4.569478144881948
20.95010873406561,36.023160605110014,10.104090788567024
33.822831531411204,10.533862835705204,14.998203813954753
48.52682145532569,20.102733682676917,18.63133252029658
61.858023904658026,55.51789697942808,20.428837090538977
69.74889829765367,94.06310420673516,19.90346141573899
67.81437480244789,132.44893096303358,16.76206561605329
52.31081614547177,166.00376670853942,11.066103360303796
21.4021840643686,189.4566854604832,3.2422191956801414
23.78656798983692,198.12606688908255,6.088210453750506
78.77499184641462,189.03850464484736,16.20848350112991
136.30837434299153,161.66345061713704,26.16620347917843
187.7715264520694,118.10434670958112,34.72706009535802
224.95040219381076,62.746718508766186,40.588235454835704
241.60334601304007,1.567918557329356,42.53137175315673
234.4032343259151,58.74684487284064,39.52189119592729
203.19960428329665,111.71475910017118,31.094569622960428
150.78034638614366,151.8932667539907,17.718742165456515
82.38850466393073,175.5767101210277,0.8470344002532338
5.164333315659603,181.2594417661561,17.24185620060541
72.52863317707026,169.79553645731983,33.98887449080186
142.01184268956914,144.16278086065893,47.215405395346785
195.47797821659347,108.84612105881097,55.42696713134009
227.26825265292126,68.99283576791726,57.93532144923474
234.89744966237518,29.55533422980123,54.872264704357136
219.48881010841447,5.372522157709792,47.01542954713411
185.43642401744435,32.91163596919902,35.60440013510812
139.39750359541708,51.45803778359519,22.2817871026307
88.92777696515702,60.56779496264392,8.952449465175869
41.18235104221133,60.80427233122702,2.6147126416539037
1.966733125901808,53.61963868209563,11.199507536232497
24.83140603900685,41.23603123816112,16.363277035907934
37.46577068872827,26.446567851467396,18.461727966472758
36.31554898748199,12.27896049291748,18.46039123226872
23.722101875240458,1.5244752476873766,17.676578698636536
3.629538867650077,3.7809314677028776,17.391319589001267
19.00465122090292,2.805192636456439,18.360890353306623
38.981288354660464,3.84339217558204,20.5281772139038
51.69213351808167,14.188380394739463,23.121028815757043
53.8325155897989,25.246282249355037,25.1124120830196
43.857229830665766,33.610015650898504,25.80715107608326
22.130022207968217,36.14575609461805,25.095192940756448
9.190875927971005,30.66971452524019,23.307325534987363
46.459380678260636,16.493116072516088,20.987627694286374
85.01569941982675,5.28571273046561,18.46352388860904
119.8027285989066,31.819526213238216,15.435839888068546
146.08298037945715,58.8694345102439,11.211628447229046
160.17252967529322,81.43928960134342,5.227083035689672
160.0322041349522,94.59806919617179,2.631225616998332
145.55498228820477,94.34949168361929,11.86766016955095
118.47311085881742,78.43559923516658,21.53550248351196
81.97046799849994,46.9637728646759,30.49814642435077
40.16282620121036,2.7235929071236415,37.53126926725327
2.4271273819275176,48.91688073399062,41.53573921724086
41.308982808183124,100.63516826917562,41.710155732710234
72.42981605561882,144.29275526239186,37.57618115883699
92.65027140853466,172.38674716445448,29.09548412135361
100.25888915672795,179.51463772359847,16.77033728427464
95.37505036564191,163.48907511904173,1.690200394112453
79.9975704553906,125.78093335302624,14.430366094931212
57.5421351201714,71.20141334372221,29.421839458478633
31.97362216797772,6.944313966527952,41.10163642187881
6.835033498551992,58.73845903517977,47.71306936460102
15.413934472418003,117.87339934612419,48.34627654676881
33.46577378448034,163.86085669188193,43.308845143232276
46.726053585323264,192.22675834690645,33.927203889336425
54.71129163449644,201.01533315049602,21.97934834158609
56.68860278190999,190.84995667148365,9.237110880100571
51.81188522849705,164.666846581542,2.8982395025191714
39.67129308390229,127.0932562562068,13.427335227516847
20.883080247765882,83.51954400658968,21.71073567938535
2.6832934017622647,39.054526653506464,27.60813041446251
28.199356510404467,2.3552469136732976,31.306954811773146
52.52064592194145,38.34475043667183,33.05541030400211
72.80998124719007,67.9759896165838,33.14493784474624
86.84089812472425,91.16952774409992,31.908557682473987
92.95734597800222,108.0294509580054,29.563235803562456
89.93496653851,118.41584830277382,25.99774794722104
77.07058080950272,121.9602368504248,20.963703215628872
54.64348338709489,118.43837595446422,14.444357816248091
24.550496710277226,108.23726824189256,6.719223260231025
9.33458453398973,92.61496611151844,1.5937975902711619
41.49037409132127,73.60082664713933,9.56562736355613
65.86127469820633,53.60950710120213,16.21004283224167
77.42247147839886,34.97229609732591,20.77241300475527
73.60117761349855,19.595644058690073,22.97455561096433
55.00583440118998,8.808751706462356,23.0070366294174
25.210051789788203,3.3004824995414035,21.23344833448343
10.23010123799301,3.0357639066189956,17.983166448174252
45.06565595401059,7.118765357833231,13.597068767426745
73.48816500162451,13.707190140061089,8.508289296122895
90.85575622706868,20.171488892528064,3.212617989925031
94.08475638144667,23.597458696333753,1.767347729879951
81.88538888569109,21.527590696117883,5.817124346891662
54.939223306838166,12.651628931689595,8.257921786168216
16.000947592601282,2.8628968532150436,8.69689760359834
30.274463112845346,23.538592643100916,7.325463611139462
77.95276278829894,47.138638845879846,4.707969970473113
120.82532014911466,71.29454740436533,1.3818470147608761
153.52664981467137,93.89781112025507,2.2917927480899474
172.37197709144445,113.11753494774428,6.14152662590544
175.62724278380728,127.20095210730194,10.105477966283683
163.24017276565988,134.35818964008297,14.006823254186097
136.32786727192374,132.94131686176547,17.380077126511004
96.77375998963142,121.93735441853632,19.41053908318144
47.18060497487031,101.52831705273876,19.117668478852295
8.843527925530413,73.36416322626431,15.855308657496792
66.42862448133992,40.35272324122915,9.687878935667312
119.60937546789154,6.012641570629197,1.3837892654892496
162.10011886298474,26.31702033825047,7.763672051939802
188.57866947968554,54.04337787455218,16.185368656106476
196.00712574364218,75.48029427611796,22.45306339150729
184.44042273895977,89.6686319409118,25.72709468387347
156.98318620702995,96.10734508897023,25.832201468083856
118.8649167586269,94.66869101873458,23.027287513224923
76.03902593126415,85.78425183039059,17.858271556618686
33.88355527047487,70.75201024466782,11.083638623707797
3.5978877581702666,51.87979668864272,3.6787561380591347
33.94778760862753,32.22179642657396,3.1151760804376294
55.999034222632645,14.88994877522125,7.985144882879081
69.56468654305772,2.2075260836287334,9.889772721229846
75.29032133167524,4.901527673901119,8.330119613043026
74.63541462749373,7.0046260419300985,3.5219248624786554
69.79167547154395,5.676867383063393,3.601331560145524
63.29575555940451,2.660693767049924,11.587608679736048
57.2880038051517,0.9121426644942452,18.830929032702354
52.7124640998642,4.85299996870507,23.904933966099932
48.9064362921557,9.673146269718906,25.657116391568533
43.91428876243189,15.936598151010658,23.29416740702476
35.804699437323734,23.379805905221765,16.92541959927568
23.659678832209675,31.009588840418825,7.553057541344418
7.844953976510311,37.85034629857136,3.516534769467984
9.864512618328577,43.22050904483308,14.867818815816138
26.78829749545797,46.86910462562272,25.13225274737298
40.22593117501767,48.89773004951793,33.1596074708359
48.323934246446626,49.52339764486746,38.11983125412519
50.56668418777689,48.82819662283226,39.62944513008958
8.66787565130281,0.9146199587400733,0.2963314650043496
8.683772739610962,5.19795717522733,2.7360741410046865
5.439647623757673,9.584969480487551,5.507210446434515
0.809667163547521,14.058458843894204,8.378123777953581
9.044239881114152,18.46497340368689,10.997954721736352
17.82455612975331,22.33807080736332,12.851654101284847
25.592897737968077,24.989628958858777,13.367958575267927
30.85270116660671,25.749253038974206,11.998937260038941
32.19116802007297,24.2983717587858,8.397437399519134
28.392447059553238,20.744421065811412,2.751074459535497
18.71244807312601,15.460467413120659,4.096678164954055
3.151731419576598,8.989792565152644,10.824892775104257
17.33599105764697,2.018227121649296,15.915705513101628
40.33314881576166,5.363379127645643,18.13682749316879
61.79678526283274,14.164045250244753,17.206361662119505
77.25130281304143,25.2364555289077,13.975463320927643
83.19664868330032,38.190762716218664,9.849064674059333
77.88623338259094,51.42612884889168,6.033406294624406
61.653029607403695,62.43153193603292,3.1490630795462855
36.48503349551231,68.74752158366101,1.3216120314341786
5.38139501244532,68.8258756124385,0.46757525146097945
28.047574145816146,62.2672923168973,0.48569449969921064
59.81696631956526,49.74547783549003,1.3328286521123889
85.64905293247885,32.509429086466625,2.896854946760646
101.35767381113828,12.045235231801577,4.807053701759984
103.66746647843165,9.961948614519562,6.4742826998851815
91.2345721499064,31.560313989815906,7.207194792095593
65.45459266846572,50.49916923050899,6.41085144712534
30.49539238416037,64.56447456202987,3.9390185126954798
7.538745857738995,72.13554574537659,0.20335777452512935
42.05073083119583,72.72322851988359,4.030062814730701
67.43003393380866,67.14988970204479,7.888399602899604
80.04371053778534,57.160546382649656,10.671297428878502
78.61620408533193,44.70649594285429,12.211079817848582
64.1088820898023,31.252974209601742,12.946365406578455
39.42307916825455,17.518127503381887,13.412275675978192
