File Name: not saved
Channel 2: 'Channel 2', 31290 values, raw ADC, no filters.
Channel 3: 'Channel 3', 31290 values, raw ADC, no filters.
Channel 4: 'Channel 4', 31290 values, raw ADC, no filters.

-39	-86	-102
-59	-107	-19
-76	-107	216
-83	-86	249
-76	-50	235
-56	-7	15
-28	38	-261
2	80	-283
26	114	-323
40	131	-179
45	132	30
44	114	-18
40	78	-65
34	31	-149
26	-19	-106
14	-70	-184
-4	-120	-113
-23	-164	126
-40	-196	44
-54	-202	93
-59	-175	134
-58	-115	86
-49	-33	-27
-33	50	-63
-11	117	-20
14	163	-62
34	190	18
48	206	145
50	206	200
42	178	140
34	99	116
26	-27	-34
21	-176	-227
15	-300	-201
1	-344	-63
-23	-289	80
-48	-160	35
-64	-17	-89
-63	79	-202
-42	97	-236
-7	51	-138
28	1	-85
49	-9	37
55	41	155
44	121	102
31	180	-35
21	175	-128
15	105	-77
5	6	-85
-10	-71	-165
-35	-95	-144
-59	-67	53
-77	-22	141
-79	3	116
-61	-7	109
-35	-39	-29
-4	-62	-78
23	-52	-93
42	-7	-64
56	51	-74
62	100	-116
61	116	-11
52	102	51
37	66	140
18	25	200
-1	-21	155
-20	-66	67
-35	-108	-64
-51	-131	-112
-66	-118	-123
-81	-58	-71
-89	40	-32
-80	142	-24
-54	207	-92
-12	203	-206
38	127	-182
84	9	-145
111	-107	-94
113	-177	-87
90	-184	-64
48	-145	-2
5	-95	16
-32	-68	98
-51	-81	151
-53	-119	190
-44	-151	191
-35	-147	103
-32	-100	-15
-34	-22	-106
-36	54	-194
-31	110	-213
-14	134	-36
11	143	-8
31	154	-18
40	169	-39
39	179	-141
30	155	-12
24	84	273
24	-31	453
24	-148	335
18	-222	129
-3	-223	4
-34	-153	-263
-63	-55	-594
-79	24	-479
-69	52	-294
-37	38	-197
2	11	-25
32	10	-76
44	52	-27
40	117	19
31	165	-50
27	155	-167
29	81	-104
28	-28	245
16	-126	343
-10	-173	224
-42	-160	167
-70	-105	20
-82	-49	-136
-72	-15	-211
-49	-8	-181
-23	-13	-116
-5	-2	-36
10	27	46
23	68	-32
40	98	-30
59	100	34
75	74	24
74	33	-14
54	4	21
22	-9	12
-11	-7	-15
-36	-6	61
-48	-16	135
-52	-36	192
-58	-57	32
-64	-63	-196
-68	-51	-83
-60	-30	2
-33	-12	-186
9	-5	-182
52	-1	-137
80	10	-129
82	40	-11
62	75	86
34	94	96
12	68	29
2	-1	24
2	-93	42
-2	-165	20
-20	-179	9
-49	-125	65
-78	-36	110
-88	40	84
-71	66	-71
-33	32	-171
12	-28	-109
48	-65	-60
63	-50	-77
62	19	-86
51	105	-101
41	161	-128
37	158	40
32	100	22
19	23	-134
-6	-38	-21
-40	-59	-17
-72	-48	-178
-95	-22	-124
-97	-1	-22
-83	5	-3
-54	4	30
-18	1	0
19	1	26
54	-2	61
83	-14	3
94	-32	-74
88	-46	8
62	-43	-48
27	-19	-223
-8	14	-134
-33	38	-28
-43	35	70
-46	6	77
-45	-35	85
-49	-61	45
-55	-64	-20
-55	-46	7
-41	-26	32
-10	-21	41
29	-31	36
65	-41	76
82	-29	79
76	16	16
53	80	-24
27	126	14
7	124	-83
-3	61	-168
-10	-45	-151
-16	-153	-78
-28	-218	-31
-45	-216	-121
-58	-157	-76
-60	-69	-7
-47	10	20
-23	60	100
6	82	164
31	88	178
48	98	28
57	114	-81
58	131	-145
49	139	-236
35	125	-98
14	87	-20
-12	33	-9
-36	-24	40
-56	-74	54
-66	-110	43
-67	-125	-46
-60	-120	-127
-47	-92	-94
-29	-46	-45
-11	8	-145
8	56	-170
27	86	-112
42	97	-7
50	88	-98
51	68	-46
42	49	138
30	31	115
13	10	149
-5	-21	5
-26	-59	-53
-44	-100	-35
-59	-127	-68
-66	-130	-91
-60	-104	-48
-43	-58	-90
-18	-9	-128
8	31	-108
30	53	13
41	64	194
46	67	32
45	69	-25
42	70	-48
37	66	37
27	50	115
10	20	80
-13	-16	177
-35	-52	250
-54	-80	152
-63	-93	-183
-62	-95	-211
-50	-85	-255
-35	-65	-447
-19	-37	-320
-1	4	-96
13	56	39
26	115	81
32	168	103
30	203	93
21	204	152
9	164	125
2	77	91
2	-48	83
12	-186	-5
25	-306	18
28	-371	-52
18	-356	-13
-7	-268	-38
-34	-134	-182
-51	2	-222
-45	97	-359
-17	131	-279
24	115	-31
58	81	77
74	62	-13
62	79	-106
33	119	-78
0	157	28
-27	160	137
-41	118	192
-45	37	181
-44	-56	183
-44	-139	275
-45	-189	163
-42	-195	-118
-33	-163	-239
-16	-94	-248
4	-5	-256
24	90	-95
39	166	61
48	201	96
52	186	-89
53	122	-275
50	35	-227
38	-47	-187
19	-98	-54
-12	-108	72
-45	-88	51
-74	-57	65
-87	-38	69
-84	-38	13
-64	-52	86
-38	-67	85
-10	-68	42
16	-46	32
34	0	-76
46	56	-44
52	108	-16
54	137	-40
50	134	-18
38	97	8
20	41	140
-6	-9	259
-32	-38	224
-52	-39	180
-62	-26	65
-61	-19	-49
-47	-34	-127
-27	-74	-345
-5	-116	-341
12	-133	-338
23	-102	-427
30	-31	-273
34	57	-198
37	117	-17
40	125	22
42	81	8
36	10	110
20	-50	137
-3	-77	131
-32	-64	19
-56	-38	0
-69	-24	20
-70	-32	80
-60	-53	121
-44	-60	158
-27	-33	161
-14	33	141
-2	123	7
6	205	-256
16	247	-323
26	233	-149
39	163	13
50	51	67
59	-71	20
59	-182	-3
49	-254	69
26	-270	47
-7	-230	41
-43	-147	18
-69	-55	-170
-79	16	-318
-66	47	-208
-37	45	16
-4	33	-7
21	39	-36
33	71	77
35	118	51
35	149	-43
34	135	-181
38	68	-306
38	-26	-122
29	-117	63
8	-169	121
-23	-171	196
-51	-134	200
-70	-83	152
-69	-42	-2
-54	-16	-159
-29	0	-137
-4	21	38
16	49	94
30	82	51
36	108	84
41	112	-10
42	97	-54
40	65	-27
31	28	-75
16	-3	-195
-3	-24	-120
-24	-37	-17
-43	-46	-50
-56	-52	25
-61	-59	-34
-60	-64	-63
-48	-66	-79
-32	-61	-34
-13	-43	62
7	-14	8
23	26	-37
36	67	-47
44	101	-31
46	112	-59
44	99	-21
35	63	-47
17	18	-60
-4	-21	89
-29	-50	166
-50	-67	3
-61	-86	-162
-60	-109	-275
-45	-134	-237
-24	-145	-33
-1	-126	81
17	-66	87
30	23	52
40	114	159
45	171	152
49	181	188
47	142	152
36	92	-118
8	62	-209
-28	72	-219
-68	112	-222
-98	138	-181
-101	110	-142
-77	0	-229
-29	-166	-288
23	-333	-42
64	-429	50
80	-408	19
72	-265	186
49	-58	279
31	134	246
27	244	65
33	247	-156
42	168	-38
40	62	111
17	-9	49
-22	-25	87
-61	-4	-100
-85	13	-335
-84	-6	-309
-62	-65	-117
-35	-133	48
-16	-165	-30
-10	-131	-53
-11	-43	50
-11	62	68
1	137	105
24	157	95
50	127	85
67	81	119
63	53	95
41	56	22
6	76	-31
-28	80	-37
-51	43	-109
-59	-26	-75
-53	-110	-90
-40	-171	-22
-27	-186	-1
-14	-153	-192
-3	-87	-197
8	-11	-123
17	56	43
26	105	104
34	134	96
40	139	10
38	120	-130
33	77	-147
18	20	-57
-2	-32	151
-28	-60	151
-52	-57	110
-70	-31	57
-76	-5	-111
-66	-5	-79
-44	-35	-24
-12	-79	-55
20	-106	-127
42	-87	-281
53	-18	-310
52	82	-213
40	170	-89
26	208	-41
16	181	39
8	99	84
4	-9	77
0	-114	97
-5	-196	40
-13	-252	44
-20	-277	30
-24	-270	30
-28	-225	120
-28	-140	173
-27	-32	-13
-21	70	-201
-10	134	-109
11	143	-157
35	112	-255
53	67	-133
62	49	-81
52	67	26
33	106	81
5	130	82
-19	110	135
-36	40	119
-48	-52	110
-57	-126	91
-62	-151	91
-63	-119	-8
-55	-58	-75
-34	2	-71
-4	39	-5
27	51	28
49	62	-64
57	84	-30
48	118	-61
33	144	-59
18	141	-92
9	93	-248
5	7	-233
-1	-88	-157
-13	-157	-71
-33	-179	77
-53	-154	149
-65	-100	102
-63	-39	81
-43	8	130
-15	38	141
15	54	137
37	70	101
46	90	-113
44	105	-316
41	109	-339
36	86	-101
34	38	110
29	-25	10
15	-84	-30
-11	-116	-20
-48	-107	-7
-85	-55	0
-111	18	-144
-116	92	-353
-95	131	-260
-52	124	87
4	66	133
58	-18	208
102	-103	190
126	-159	1
131	-167	-36
115	-131	-48
86	-69	-65
46	-12	-261
6	18	-335
-32	10	-157
-64	-31	3
-84	-85	65
-91	-124	147
-86	-130	242
-71	-98	238
-53	-38	77
-32	26	-13
-12	70	-22
10	85	-181
30	65	-240
49	33	-186
62	7	-160
66	-2	-68
54	9	-118
31	24	-10
0	31	167
-30	16	59
-49	-15	89
-57	-48	89
-53	-65	60
-46	-52	45
-33	-16	82
-22	32	55
-6	74	-91
11	98	19
26	106	-8
41	109	-71
46	116	105
41	125	49
28	132	-64
13	123	-11
0	86	1
-7	25	48
-11	-50	-22
-16	-119	-246
-26	-173	-257
-40	-198	-358
-50	-202	-287
-52	-184	-110
-40	-145	-30
-18	-86	184
8	-5	161
32	83	238
44	161	199
52	197	106
54	179	61
53	106	-50
48	5	-85
35	-87	-186
13	-139	-310
-17	-137	-341
-48	-100	-190
-72	-55	-110
-83	-32	22
-78	-41	91
-59	-66	301
-33	-77	290
-4	-47	125
22	24	-17
42	119	-243
58	198	-97
63	229	-92
58	201	-58
42	128	-82
22	40	-99
-4	-32	-22
-29	-70	-61
-53	-79	-16
-75	-71	-78
-89	-67	5
-92	-84	49
-77	-114	68
-41	-153	145
5	-176	189
51	-166	178
85	-114	5
94	-24	-141
78	81	-114
52	169	-65
27	205	-172
14	178	-240
10	95	-107
9	-15	45
-2	-109	29
-26	-157	42
-55	-151	43
-81	-106	25
-86	-51	54
-68	-10	47
-35	12	63
2	26	62
30	43	-21
44	74	54
46	109	172
44	134	-14
41	135	-103
37	110	-36
27	71	-64
8	38	-244
-21	22	-447
-53	19	-403
-80	15	-208
-91	-6	78
-81	-51	268
-54	-110	265
-18	-162	242
16	-179	141
45	-157	9
65	-96	-60
75	-21	-204
77	46	-260
74	90	-84
64	105	112
46	103	-48
23	90	-316
-10	77	-269
-44	57	-202
-77	25	-204
-98	-24	-150
-102	-91	51
-87	-154	248
-55	-192	263
-16	-188	189
21	-131	38
46	-40	7
59	56	5
59	129	-38
52	162	-1
44	154	5
35	122	30
24	88	18
7	56	-54
-13	23	-112
-34	-25	-30
-50	-97	20
-56	-178	15
-52	-246	28
-44	-260	24
-39	-209	-64
-37	-100	-215
-38	32	-197
-34	145	-72
-18	206	46
15	209	60
54	175	95
91	130	92
107	95	8
99	65	3
65	34	91
19	-11	205
-26	-66	111
-61	-111	2
-81	-129	-108
-85	-108	-282
-74	-64	-391
-52	-21	-315
-24	-1	-61
7	-10	107
35	-28	204
54	-31	190
60	-1	159
54	53	32
38	110	-18
21	131	67
5	101	30
-9	29	90
-21	-59	97
-33	-126	-260
-47	-153	-695
-61	-139	-641
-68	-100	-283
-64	-58	-79
-47	-23	12
-23	8	121
-1	47	200
17	101	249
25	162	68
29	206	-215
31	210	-100
37	156	62
46	44	57
52	-92	155
49	-213	145
30	-278	48
0	-265	-4
-37	-187	74
-68	-71	72
-85	33	63
-81	96	-21
-57	105	-139
-25	72	-119
9	27	-230
38	-7	-200
59	-15	-37
69	-1	43
69	22	58
60	41	64
42	48	24
19	41	-39
-8	23	-51
-33	-2	-150
-52	-37	-115
-63	-69	15
-67	-90	83
-65	-79	160
-59	-28	171
-50	53	123
-32	144	15
-8	210	-43
25	219	-15
60	162	-37
92	57	-133
106	-55	-38
98	-140	205
70	-171	250
32	-147	215
-7	-94	31
-37	-47	-215
-52	-29	-288
-56	-44	-283
-54	-81	-208
-52	-105	-312
-50	-103	-391
-43	-64	-136
-28	-4	-17
-3	60	7
27	112	24
52	137	-75
63	137	-129
57	112	31
34	70	168
5	18	77
-23	-36	132
-43	-80	120
-53	-102	112
-55	-97	65
-52	-68	55
-46	-28	80
-36	10	-84
-24	35	-193
-12	53	-238
1	67	-87
13	88	29
23	106	45
31	110	-34
38	77	-14
41	4	132
39	-95	14
29	-183	-151
9	-222	-261
-18	-192	-211
-47	-110	-97
-69	-12	-63
-79	50	-59
-70	54	-21
-47	4	64
-12	-63	110
22	-105	152
48	-89	163
64	-19	243
68	69	142
65	142	-15
56	168	-36
44	150	7
30	106	13
15	58	-6
-5	17	47
-24	-26	-182
-42	-77	-387
-55	-136	-316
-59	-184	-215
-54	-196	-213
-40	-158	-150
-24	-66	-93
-5	41	63
11	135	200
26	179	201
38	171	278
46	133	207
51	96	89
45	74	-53
32	64	-169
12	48	-180
-10	2	-35
-30	-76	-23
-40	-166	-63
-43	-227	-15
-41	-227	-9
-35	-163	14
-28	-55	-27
-19	51	-65
-7	124	-202
11	145	-208
31	128	9
48	99	97
56	75	70
49	63	95
29	52	21
-1	33	-93
-32	-4	-47
-56	-46	-14
-71	-81	-59
-78	-94	-19
-75	-89	57
-61	-76	43
-43	-63	145
-18	-53	291
10	-31	255
36	12	205
54	68	85
66	121	-248
70	138	-534
69	104	-574
63	25	-413
49	-62	-242
25	-124	-106
-11	-137	23
-52	-111	200
-91	-75	204
-111	-56	100
-106	-69	129
-79	-94	103
-36	-100	36
7	-63	-132
38	9	-117
53	90	37
58	145	16
56	154	-88
53	119	-113
49	68	-101
42	25	-178
27	4	-65
6	-3	49
-19	-14	-4
-42	-38	-18
-59	-71	96
-67	-97	119
-68	-96	62
-61	-65	-16
-52	-19	-149
-34	26	-74
-8	54	85
24	65	254
54	67	196
77	72	22
79	84	-116
59	95	-243
24	88	-363
-17	52	-292
-48	-7	-10
-63	-77	61
-60	-131	87
-44	-150	12
-24	-123	-32
-11	-56	-111
-7	30	-204
-10	114	-137
-14	174	49
-10	197	225
3	180	246
28	125	225
57	52	242
84	-25	158
97	-92	-126
91	-137	-104
69	-160	41
35	-163	-103
-1	-155	-238
-34	-143	-63
-55	-134	27
-66	-127	-123
-66	-116	-63
-59	-95	-159
-48	-59	-252
-33	-11	-70
-16	41	-169
3	92	-233
20	121	-59
33	126	1
36	103	66
29	64	82
14	21	68
-8	-12	142
-30	-27	151
-47	-31	110
-53	-28	-79
-50	-31	-133
-40	-40	-243
-26	-50	-243
-10	-48	1
6	-23	71
21	20	91
36	69	10
48	106	-43
55	122	-78
53	110	-72
44	82	20
24	47	106
3	13	103
-18	-15	79
-35	-43	48
-48	-67	-8
-56	-89	34
-60	-97	115
-59	-89	100
-49	-68	26
-32	-39	47
-10	-13	3
15	10	-139
33	33	-243
42	68	-172
44	114	-59
40	153	-157
35	166	-224
31	133	-182
24	53	-98
12	-53	-1
-4	-149	33
-26	-200	27
-44	-194	21
-52	-140	2
-48	-70	76
-32	-15	191
-9	11	192
12	23	155
23	43	121
27	91	147
24	163	31
21	229	-228
19	253	-278
18	208	-143
16	94	-100
6	-55	-197
-7	-196	-303
-26	-286	-149
-40	-308	100
-51	-268	135
-51	-195	143
-46	-116	19
-34	-46	-115
-17	12	-107
2	61	-12
24	100	90
46	121	2
66	112	-160
77	74	-226
74	15	-206
56	-41	-198
26	-69	-89
-10	-64	2
-44	-33	70
-66	-3	191
-75	3	170
-68	-20	63
-53	-57	-49
-33	-84	-53
-15	-79	-182
1	-37	-182
15	22	59
29	74	237
40	99	397
45	93	171
44	74	-11
33	52	-39
15	43	-186
-7	41	-108
-25	35	-18
-39	16	-1
-47	-17	-190
-50	-52	-249
-51	-76	-150
-47	-79	-114
-39	-63	17
-25	-38	-19
-6	-1	2
11	48	64
22	115	98
22	198	179
15	274	234
3	313	151
1	279	43
11	158	-9
31	-30	-190
50	-228	-270
57	-376	-171
42	-425	-85
7	-368	-70
-36	-243	-89
-68	-108	-5
-74	-20	8
-49	0	4
-2	-32	-101
43	-68	-201
74	-68	-11
78	-14	2
59	77	72
33	158	268
10	190	225
-2	154	133
-10	70	56
-20	-21	-61
-37	-85	-203
-58	-97	-68
-75	-70	-53
-80	-26	-201
-63	7	-232
-35	20	-277
-1	19	-58
25	17	-15
41	29	74
46	50	90
46	71	-15
45	81	158
42	74	127
36	57	109
20	38	84
-4	28	3
-31	19	-125
-56	7	-150
-72	-17	-54
-81	-48	-209
-78	-75	-340
-67	-79	-263
-52	-50	-145
-32	4	-166
-5	67	-33
28	113	189
61	123	171
90	95	65
102	35	-31
93	-30	-21
61	-81	91
13	-107	172
-39	-110	141
-82	-99	94
-103	-87	-71
-98	-79	-178
-68	-70	-143
-24	-57	-101
20	-27	26
52	16	54
69	64	100
69	96	74
59	97	-24
48	70	-24
42	26	-47
41	-14	-84
38	-38	-103
27	-40	-20
2	-32	-44
-31	-31	-102
-65	-47	-50
-88	-76	-46
-93	-97	-16
-79	-92	118
-52	-48	122
-28	26	-1
-10	110	30
0	182	-62
8	215	-104
18	207	-58
36	154	0
56	68	59
69	-29	-14
67	-123	43
44	-189	18
11	-214	22
-28	-192	-13
-54	-142	-57
-63	-87	-116
-55	-50	-221
-38	-45	-130
-22	-55	-205
-12	-62	-173
-11	-40	44
-10	19	62
-3	92	-4
11	154	80
26	178	145
38	165	28
39	126	-127
23	86	-194
0	51	-50
-24	16	76
-37	-33	78
-37	-102	108
-24	-171	119
-10	-208	-14
1	-186	-82
6	-104	-152
5	10	-207
6	108	-113
15	148	-193
28	123	-185
40	60	-14
44	2	110
37	-24	80
20	-12	4
-4	19	-37
-28	35	-77
-46	26	-24
-61	-8	87
-67	-44	134
-67	-64	-3
-60	-66	-83
-43	-56	90
-17	-48	196
15	-38	99
40	-23	26
58	15	-21
64	76	-47
58	143	-205
42	196	-398
21	208	-306
-3	174	-157
-26	100	45
-40	4	281
-42	-96	259
-26	-187	301
-1	-257	340
22	-289	40
33	-271	-197
26	-201	-200
9	-92	-138
-3	24	-158
0	110	-211
21	147	-187
48	134	-6
64	100	103
57	71	-20
26	63	-32
-16	64	77
-48	45	211
-63	-7	221
-61	-85	1
-56	-153	-150
-57	-177	-120
-66	-135	-104
-77	-46	-169
-71	50	-296
-45	113	-289
-3	123	-177
40	98	-162
68	63	-230
72	50	-215
60	58	-15
36	67	94
17	56	155
2	14	175
-10	-44	171
-28	-94	182
-51	-113	162
-70	-101	176
-78	-76	87
-65	-56	30
-36	-57	9
0	-66	7
32	-64	-52
52	-34	-167
62	23	-93
64	86	-133
63	130	-23
61	133	21
53	103	-114
35	54	-62
9	12	-138
-23	-11	-144
-51	-17	-95
-72	-15	-62
-83	-15	200
-81	-17	401
-69	-23	357
-49	-23	260
-22	-19	225
14	-17	74
51	-18	-297
81	-18	-565
94	-8	-517
86	16	-425
62	50	-308
34	72	-78
9	57	-76
-8	2	-30
-20	-81	54
-36	-147	115
-58	-160	310
-85	-101	349
-104	7	403
-100	106	364
-67	150	248
-10	106	121
54	5	-141
104	-99	-390
120	-142	-387
98	-103	-197
50	-5	-198
-3	97	-64
-41	143	-54
-53	116	-281
-38	35	-277
-10	-53	-137
15	-102	-25
23	-103	87
8	-72	210
-22	-49	124
-50	-52	76
-62	-74	-71
-50	-88	-213
-15	-65	-227
25	-5	-344
54	74	-260
60	129	-26
42	138	42
12	103	46
-15	41	77
-27	-11	169
-26	-41	298
-18	-50	243
-18	-57	121
-28	-75	-10
-45	-98	4
-57	-109	108
-52	-88	39
-29	-32	-41
7	41	-109
39	104	-161
57	133	-190
56	126	-113
42	99	-17
27	77	10
14	71	-2
4	75	20
-7	63	201
-21	18	189
-38	-62	-6
-50	-153	-82
-53	-214	-47
-42	-222	47
-21	-170	155
2	-84	85
18	3	-24
26	60	-44
29	81	-112
33	82	-282
42	80	-485
52	92	-326
56	110	-135
44	120	-14
17	103	138
-20	53	50
-59	-13	12
-88	-69	-10
-104	-89	-48
-105	-62	-14
-97	-2	41
-81	61	90
-50	92	-20
-6	65	-88
49	-16	-172
106	-121	-199
145	-201	-42
156	-214	99
128	-147	188
72	-29	333
11	85	369
-35	138	225
-58	106	16
-56	8	-113
-51	-100	-190
-51	-154	-265
-63	-124	-195
-77	-28	-161
-77	78	-120
-50	139	-83
-2	128	-178
49	63	-232
89	-3	-210
95	-29	-109
75	0	43
39	50	136
6	84	91
-14	61	14
-23	-11	-78
-28	-99	-48
-39	-160	85
-56	-170	147
-75	-136	194
-83	-88	160
-72	-49	65
-47	-27	32
-13	-8	45
18	23	-5
41	76	-30
52	131	43
57	169	186
58	166	87
54	125	-125
47	67	-255
33	12	-395
14	-23	-445
-8	-39	-339
-30	-46	-19
-47	-56	209
-57	-64	264
-59	-60	176
-54	-42	54
-42	-9	34
-24	22	-4
-2	39	-127
19	39	-258
35	30	-187
42	28	-173
42	36	-169
37	49	7
32	41	32
27	4	0
20	-62	109
6	-131	213
-20	-171	280
-52	-154	222
-80	-87	111
-91	-5	59
-76	53	-160
-38	63	-398
9	29	-478
49	-14	-364
69	-35	-110
68	-10	150
52	45	257
35	98	64
24	113	-78
22	71	-213
24	-8	-135
16	-93	28
-4	-141	50
-35	-139	134
-67	-94	87
-88	-35	32
-88	8	137
-66	24	323
-34	23	256
1	26	13
30	48	-125
48	85	-130
59	119	-233
62	124	-278
62	93	-56
54	29	34
39	-38	-3
13	-84	-140
-18	-94	-262
-48	-81	-248
-71	-62	-136
-79	-55	-7
-71	-61	-21
-55	-60	76
-35	-37	31
-16	13	-33
-1	71	136
10	108	117
21	100	63
29	49	94
34	-12	-16
36	-47	-24
32	-32	48
23	28	-6
10	95	64
-5	126	116
-20	94	62
-33	6	15
-41	-105	-95
-39	-190	-251
-27	-225	-341
-5	-201	-306
20	-137	-282
42	-58	-43
54	17	147
55	77	151
46	118	203
34	138	164
24	135	115
17	106	-28
7	56	-33
-10	0	108
-33	-51	167
-58	-87	91
-78	-105	-197
-81	-111	-279
-67	-103	-169
-40	-83	-254
-12	-42	-171
10	14	-60
23	74	-25
29	116	99
36	122	164
42	93	81
51	43	-55
50	-1	72
38	-20	111
12	-12	175
-22	9	268
-55	21	135
-76	15	-49
-80	-8	-185
-71	-29	-231
-52	-38	-449
-29	-33	-358
-1	-25	-155
26	-27	-170
54	-37	-103
78	-42	-176
85	-27	-182
75	16	52
46	70	191
10	106	93
-27	102	98
-53	50	77
-68	-26	-92
-71	-90	-130
-67	-118	-15
-60	-111	17
-48	-88	7
-30	-77	35
-2	-82	164
31	-90	163
63	-68	-3
86	-7	-118
93	79	-159
82	153	-21
57	171	26
28	128	43
2	39	-22
-21	-44	-14
-39	-82	-6
-56	-58	-66
-75	6	36
-91	68	0
-97	94	12
-88	67	49
-58	11	137
-12	-51	181
40	-90	43
85	-94	-38
110	-68	-156
109	-22	-223
88	31	-265
56	81	-219
23	109	-59
1	99	31
-15	44	78
-25	-49	213
-39	-152	265
-58	-223	191
-78	-227	132
-88	-162	1
-81	-55	-96
-56	49	-196
-19	116	-295
17	135	-187
44	127	-108
52	120	-110
52	131	-55
46	145	-38
42	133	37
41	70	222
34	-39	320
18	-160	231
-11	-243	-14
-46	-252	-198
-80	-188	-222
-97	-84	-345
-95	9	-412
-76	62	-303
-44	65	-150
-12	45	-58
20	30	130
48	31	335
75	44	155
93	51	56
96	43	29
82	21	-295
48	1	-524
6	-4	-431
-35	4	-192
-60	13	-22
-69	1	-70
-65	-31	-17
-54	-72	174
-47	-94	182
-44	-75	53
-40	-17	86
-28	56	108
-5	110	176
24	123	279
51	92	259
66	40	221
65	-2	122
48	-15	82
24	4	4
1	29	-77
-15	32	-116
-26	-7	-101
-33	-82	-100
-38	-166	-232
-40	-219	-268
-40	-210	-138
-32	-135	-75
-19	-13	-78
-4	116	5
13	207	26
25	233	87
37	188	87
49	100	74
58	4	97
62	-64	4
56	-92	34
36	-81	87
1	-49	119
-40	-28	61
-76	-24	-70
-93	-44	-116
-88	-75	-121
-61	-98	-193
-22	-97	-156
14	-67	78
40	-14	207
51	51	190
51	106	-14
44	138	-155
38	136	-89
30	109	-221
16	70	-353
-6	37	-226
-37	23	-261
-70	21	-256
-96	18	-238
-101	-8	-161
-83	-69	62
-43	-154	127
2	-233	311
42	-263	476
66	-218	448
72	-99	425
65	59	306
54	198	-45
48	269	-382
46	251	-494
44	162	-441
36	45	-423
13	-48	-229
-20	-100	60
-58	-113	155
-88	-108	260
-105	-106	152
-106	-103	34
-96	-85	29
-77	-36	-263
-50	39	-387
-15	108	-339
29	138	-353
77	110	-27
118	38	152
138	-42	190
127	-85	268
87	-72	116
29	-21	116
-30	33	54
-70	56	48
-90	43	26
-90	13	8
-79	-9	17
-65	-8	-51
-51	4	-48
-34	3	-198
-7	-29	-267
29	-81	-45
67	-124	126
95	-122	91
103	-67	75
88	12	-61
54	81	-126
15	99	-18
-22	66	84
-46	9	74
-58	-38	-15
-60	-54	-6
-53	-49	-47
-45	-42	-75
-34	-56	-33
-25	-84	-44
-14	-101	-118
-5	-78	-219
7	-8	-185
21	85	54
34	165	120
41	203	101
36	198	84
18	169	-18
-7	137	-90
-29	106	-131
-37	58	30
-27	-29	225
-8	-152	281
10	-273	255
12	-334	243
-2	-287	137
-24	-137	-35
-39	60	-80
-29	224	-203
4	283	-341
47	228	-479
82	96	-446
89	-34	-104
67	-103	31
26	-98	-141
-14	-49	-186
-41	-5	-1
-53	-2	136
-54	-41	142
-55	-91	-12
-61	-119	-68
-66	-113	-44
-63	-78	-121
-44	-37	-92
-11	-8	-84
24	9	8
52	28	208
65	60	368
63	100	397
52	129	242
38	128	90
24	91	-128
7	27	-332
-14	-35	-284
-39	-77	15
-62	-91	54
-77	-89	28
-75	-86	-72
-58	-91	-376
-36	-97	-389
-14	-87	-466
4	-51	-391
18	5	-104
29	65	105
42	106	186
53	116	170
60	98	84
56	70	49
39	49	173
13	43	151
-20	51	112
-52	61	109
-82	64	39
-101	59	-62
-105	45	-130
-92	24	-53
-56	-13	138
-5	-65	239
54	-130	230
104	-181	314
132	-192	242
127	-143	-51
96	-41	-378
51	78	-571
12	166	-426
-10	180	-192
-14	115	-44
-7	1	-62
-3	-111	-22
-11	-176	-61
-35	-174	-199
-61	-122	-185
-79	-56	-15
-72	-11	158
-47	1	150
-10	-13	122
26	-29	9
46	-23	-90
47	11	-118
31	61	85
8	113	185
-11	138	85
-22	123	1
-24	74	-129
-23	-1	-82
-21	-78	-11
-22	-133	72
-24	-145	109
-24	-113	123
-20	-49	215
-10	23	240
5	77	175
22	100	104
38	92	20
49	71	-84
52	54	-265
48	54	-355
34	66	-377
15	70	-546
-8	52	-362
-35	3	-137
-56	-63	-66
-75	-126	-15
-81	-163	-49
-78	-159	147
-62	-125	237
-36	-74	251
-6	-29	311
23	6	294
46	30	117
61	53	-223
64	82	-435
59	106	-428
48	123	-207
32	116	-47
14	80	-9
-5	26	63
-24	-27	7
-44	-57	59
-61	-56	141
-76	-27	103
-78	3	85
-65	12	94
-37	-14	190
5	-67	216
49	-114	158
84	-123	-118
96	-69	-185
83	32	-193
49	142	-307
12	211	-345
-17	200	-387
-28	114	-125
-26	-13	29
-23	-120	169
-28	-168	246
-47	-150	194
-67	-98	186
-79	-60	47
-64	-64	-190
-23	-105	-392
30	-140	-328
75	-131	-110
93	-61	91
84	48	172
54	149	169
24	193	52
6	162	-88
-1	82	-147
-3	-4	-114
-11	-59	1
-29	-78	52
-51	-77	118
-66	-84	160
-68	-106	103
-52	-130	64
-27	-121	72
-3	-64	69
12	34	26
20	135	-21
30	202	-135
42	210	-206
58	174	10
66	127	209
61	93	208
38	80	69
2	67	13
-34	31	126
-61	-37	-30
-71	-117	-497
-68	-178	-788
-56	-190	-636
-42	-153	-420
-26	-94	-221
-11	-41	67
3	-17	281
14	-5	352
20	15	273
19	60	228
17	122	110
17	168	-15
21	161	-70
30	88	12
33	-22	65
22	-120	21
-9	-162	-78
-52	-131	-189
-89	-62	-93
-101	-7	-58
-78	-7	66
-26	-58	134
37	-123	115
86	-147	52
104	-95	-16
89	20	179
55	145	308
24	215	470
9	201	130
8	106	-513
10	-16	-788
3	-109	-850
-20	-142	-590
-52	-118	-21
-81	-67	82
-92	-24	167
-81	-2	140
-52	3	225
-16	13	52
16	34	-135
37	61	-81
49	83	-31
52	86	15
48	77	94
38	64	190
22	59	150
6	53	154
-7	30	77
-13	-27	3
-14	-112	82
-16	-192	16
-23	-230	24
-34	-196	52
-44	-105	53
-44	4	72
-29	81	-77
1	99	-187
32	75	-249
54	45	-151
61	47	-125
52	85	-108
36	131	8
20	143	51
8	94	59
-6	-1	-12
-22	-101	-32
-41	-157	-134
-57	-152	-171
-65	-94	-12
-62	-17	41
-47	48	-43
-29	96	5
-14	126	56
-5	148	-23
5	150	43
20	117	126
42	37	4
69	-80	-60
86	-192	10
81	-259	53
52	-249	91
9	-178	13
-39	-87	6
-76	-25	-66
-93	-13	-279
-89	-38	-423
-68	-63	-459
-43	-56	-272
-13	-15	-54
15	44	145
37	89	224
53	105	264
63	100	257
64	97	-8
58	112	-62
45	133	138
27	138	113
5	101	-50
-20	21	-179
-44	-68	-256
-66	-129	-230
-80	-130	-169
-79	-79	-5
-64	-8	114
-40	36	163
-15	36	130
4	6	-9
16	-22	-110
20	-15	-257
25	25	-207
32	68	5
44	78	133
53	31	98
52	-54	-12
34	-135	36
2	-165	74
-40	-126	4
-75	-41	-55
-94	43	41
-89	85	-100
-63	68	-161
-25	15	-60
14	-36	-56
48	-56	118
71	-37	147
81	7	121
78	49	41
64	75	12
46	75	-21
28	61	-44
9	36	-130
-8	5	-145
-24	-35	128
-40	-84	57
-58	-125	75
-74	-140	-48
-82	-115	-254
-77	-53	-391
-55	29	-246
-23	105	87
14	149	-55
44	158	-21
62	136	-85
62	106	-112
50	74	-38
31	46	46
9	14	94
-10	-32	-40
-24	-89	-102
-32	-150	-107
-35	-200	-44
-32	-227	-78
-27	-218	4
-20	-177	137
-12	-109	213
-4	-26	159
6	51	108
16	110	76
30	137	20
41	135	68
48	116	65
46	93	132
30	83	176
4	81	97
-25	82	49
-53	66	-47
-70	26	-297
-76	-40	-435
-67	-113	-468
-47	-167	-390
-22	-181	-227
6	-143	-108
31	-66	-21
51	24	66
65	105	121
68	150	100
64	153	100
54	117	84
39	65	99
19	15	87
-1	-21	34
-23	-42	-133
-44	-55	-106
-60	-69	-7
-70	-90	-153
-72	-108	-30
-66	-111	147
-50	-85	256
-28	-24	387
-3	56	347
21	138	116
40	193	-59
54	203	-153
64	164	-184
69	91	-90
68	6	-282
57	-69	-505
33	-120	-511
-4	-149	-365
-43	-160	-118
-81	-167	3
-99	-173	22
-96	-173	-41
-74	-154	36
-41	-106	206
-8	-35	176
16	47	59
29	112	-35
36	142	-143
37	135	-25
37	103	142
29	74	38
11	71	106
-18	101	202
-49	138	69
-71	150	106
-72	104	280
-50	-9	171
-13	-159	-282
25	-291	-625
48	-351	-562
52	-309	-337
40	-181	-172
23	-13	-13
11	131	104
12	211	123
23	215	172
36	168	172
40	101	117
33	41	24
15	0	66
-10	-32	235
-34	-60	319
-55	-87	346
-70	-97	281
-77	-81	46
-68	-39	-313
-48	13	-565
-16	47	-657
22	49	-442
54	22	-39
72	-8	78
76	-15	84
60	15	26
39	70	46
16	116	155
-4	124	119
-20	83	129
-35	8	54
-50	-65	-42
-61	-110	-63
-63	-112	-62
-56	-86	-17
-35	-51	-66
-11	-25	6
17	-6	141
38	11	44
52	39	43
58	81	102
57	121	120
49	147	20
34	144	-227
15	116	-436
-5	65	-436
-22	-3	-217
-32	-81	-119
-37	-163	33
-40	-233	175
-46	-270	203
-55	-253	152
-63	-170	74
-61	-39	225
-43	102	281
-7	206	155
35	243	32
72	205	-270
89	123	-605
83	31	-799
58	-39	-614
23	-74	-249
-9	-85	-127
-37	-87	40
-54	-96	117
-65	-114	152
-68	-136	181
-62	-153	189
-47	-152	176
-23	-129	54
2	-77	67
22	-2	147
31	86	213
33	165	167
32	205	119
35	193	63
42	125	-140
46	32	-358
42	-48	-382
21	-84	-144
-8	-66	61
-39	-23	215
-58	15	321
-61	17	299
-49	-15	173
-33	-59	-118
-19	-78	-292
-8	-50	-193
-1	16	-64
13	91	-42
33	138	-11
54	143	68
66	109	18
62	62	51
40	23	55
7	-6	-92
-27	-30	-117
-50	-63	-147
-59	-106	-78
-60	-145	-162
-56	-159	-167
-55	-134	138
-50	-79	120
-39	-12	84
-20	38	10
9	61	-219
39	62	-104
65	60	-8
78	70	-12
75	89	-6
58	100	-142
36	86	-181
14	42	-143
-8	-21	-45
-28	-78	13
-45	-105	14
-58	-98	51
-65	-67	119
-60	-35	238
-44	-12	334
-20	-1	312
7	5	221
29	21	64
44	45	-200
46	76	-422
39	96	-394
22	106	-265
-3	106	-185
-32	99	-101
-63	84	-43
-85	52	28
-91	1	-120
-75	-70	-192
-41	-141	6
0	-185	172
34	-183	254
50	-136	278
52	-75	151
44	-32	-42
44	-34	-247
54	-69	-424
74	-106	-282
90	-105	-96
89	-51	15
62	32	1
18	103	-11
-30	112	102
-66	57	117
-81	-36	20
-77	-117	-48
-61	-138	-93
-47	-97	-86
-38	-21	-27
-32	44	-42
-22	68	-2
-2	52	-93
22	24	-106
45	17	10
56	42	-28
54	88	84
39	117	87
19	106	133
-2	56	183
-18	-11	152
-31	-56	138
-40	-64	21
-48	-37	24
-52	-1	-10
-50	23	43
-41	24	184
-22	12	74
0	6	-117
24	20	-387
44	49	-536
59	76	-256
63	80	-115
57	56	11
40	12	217
17	-28	246
-8	-51	305
-28	-51	178
-42	-38	123
-47	-26	84
-47	-21	-107
-46	-23	-265
-44	-23	-457
-39	-14	-494
-30	8	-280
-16	31	-128
4	51	-136
24	66	4
36	72	105
39	79	1
29	78	-43
12	69	-8
-7	41	-56
-23	-8	29
-35	-80	260
-40	-157	314
-39	-224	343
-35	-263	234
-26	-265	31
-13	-238	-201
3	-177	-453
14	-88	-381
19	19	-157
17	131	-21
13	221	-60
11	267	-178
17	247	-238
30	161	-211
44	32	-26
49	-102	152
39	-196	108
15	-232	72
-18	-201	76
-46	-131	89
-62	-53	135
-59	7	155
-41	38	175
-15	51	116
10	62	-13
31	85	-194
44	119	-256
54	153	-144
60	168	-24
59	150	104
49	109	140
31	49	101
4	-7	103
-24	-49	90
-47	-71	-13
-62	-80	-99
-70	-80	-109
-74	-72	-124
-71	-60	-96
-63	-39	-35
-47	-6	-17
-22	29	-36
8	61	-30
36	80	-34
54	87	-125
54	86	-66
41	88	115
20	86	196
3	72	149
-3	32	-4
1	-41	-99
4	-138	-161
3	-231	-111
-8	-277	-31
-24	-257	50
-38	-174	125
-40	-56	-87
-26	48	-267
-2	115	-185
24	138	110
41	140	317
44	154	172
33	190	-112
14	236	-224
-4	253	-234
-16	205	-261
-20	72	-200
-18	-116	-52
-16	-306	-67
-15	-432	-138
-20	-451	-44
-26	-362	-21
-27	-208	-31
-21	-44	80
-5	81	155
18	143	44
42	150	97
59	131	239
60	110	186
48	103	1
23	104	-206
-8	106	-231
-35	93	-230
-53	58	-207
-59	7	-36
-57	-56	61
-50	-113	72
-42	-154	-11
-33	-164	-201
-23	-135	-183
-10	-79	9
10	-6	57
31	56	113
50	90	173
62	92	29
63	72	-62
55	51	-117
39	40	-77
20	43	-2
-2	47	11
-24	34	97
-47	-1	155
-65	-46	74
-78	-84	-150
-79	-94	-282
-61	-69	-204
-35	-30	-71
0	9	11
31	29	88
51	34	156
59	38	224
57	51	285
46	79	190
33	101	-38
21	100	-178
5	59	-95
-11	-6	18
-28	-76	10
-45	-117	7
-55	-114	-134
-59	-77	-198
-54	-25	-211
-40	13	-333
-23	26	-271
-5	19	-115
13	11	6
29	17	-64
40	37	-70
46	58	32
48	57	-25
41	24	29
31	-39	103
15	-111	170
-1	-160	281
-20	-168	281
-36	-125	179
-52	-45	-32
-68	49	-111
-77	130	-81
-72	171	-208
-50	160	-302
-10	92	-248
41	-11	-140
91	-116	135
121	-179	267
121	-175	81
91	-101	16
44	15	-12
1	117	-103
-28	156	-243
-39	110	-252
-39	6	-152
-40	-105	-76
-50	-167	74
-65	-151	174
-80	-71	184
-79	25	72
-58	93	42
-26	112	-32
8	99	-177
35	88	-252
48	103	-165
53	137	9
54	161	30
54	128	22
50	31	-48
35	-107	28
6	-236	56
-31	-301	-1
-64	-281	32
-83	-196	-9
-77	-92	-31
-51	-11	-160
-18	27	-115
14	32	32
36	35	84
44	53	147
46	93	107
46	131	52
44	145	44
40	123	71
30	72	42
13	15	-8
-11	-27	48
-36	-45	22
-58	-41	-28
-69	-31	-53
-70	-28	-187
-59	-32	-202
-40	-37	-331
-18	-35	-398
4	-19	-261
23	11	-97
34	45	74
39	77	206
39	98	430
34	101	488
27	85	348
16	53	45
3	13	-174
-12	-34	-362
-27	-72	-494
-36	-103	-279
-38	-118	-30
-33	-120	-99
-23	-109	-156
-11	-84	12
0	-49	40
9	-5	10
16	34	103
22	63	-105
26	71	-345
26	64	-306
24	45	-306
14	25	-132
1	10	113
-12	-5	203
-23	-23	243
-31	-52	213
-39	-87	242
-47	-113	215
-54	-115	126
-56	-87	-21
-49	-38	-139
-25	15	-62
9	48	-127
50	57	-178
86	43	-67
106	28	45
103	25	-12
79	34	-17
41	47	13
2	44	-42
-30	19	-24
-51	-23	1
-61	-64	-12
-62	-84	48
-59	-72	124
-52	-37	96
-42	2	90
-26	31	44
-6	45	-13
14	53	-84
32	72	-51
41	104	19
42	139	-13
37	157	-66
30	131	-92
20	56	-52
11	-51	-107
-3	-157	-123
-22	-224	-62
-44	-228	-141
-65	-177	-186
-76	-98	-127
-69	-24	-122
-45	20	-20
-11	33	119
24	29	163
51	29	192
63	41	165
63	65	95
54	84	-20
42	84	-83
28	66	-54
13	37	-2
-5	11	8
-26	-6	0
-48	-16	-87
-63	-25	-206
-70	-42	-168
-67	-61	-13
-54	-78	222
-33	-76	290
-8	-52	12
19	-11	-289
45	39	-306
65	82	-381
72	110	-363
67	118	-282
47	106	-93
20	71	112
-9	20	34
-31	-45	87
-46	-116	74
-53	-171	87
-56	-196	185
-57	-179	255
-54	-124	266
-47	-46	49
-31	30	-148
-10	84	-127
16	110	-32
39	106	16
58	93	13
66	76	-11
68	56	-94
61	33	-223
44	-5	-427
21	-53	-384
-8	-104	-152
-38	-137	-140
-61	-138	38
-74	-103	120
-75	-37	218
-64	37	202
-49	98	51
-32	127	20
-10	119	32
17	82	222
51	28	242
85	-24	119
107	-59	-83
107	-65	-249
79	-46	-230
25	-9	-88
-38	27	116
-88	43	108
-113	31	-42
-108	-6	-163
-84	-50	-259
-53	-77	-132
-28	-68	-8
-10	-34	129
4	5	243
22	28	190
46	15	213
74	-24	61
96	-66	-59
98	-81	-139
78	-54	-246
36	0	-341
-14	55	-309
-59	77	-86
-89	52	-5
-96	-8	22
-84	-69	51
-53	-103	29
-19	-92	3
11	-40	64
33	23	188
42	77	304
43	105	281
41	114	127
40	112	32
39	110	-104
40	107	-215
36	96	-328
24	69	-382
2	27	-133
-26	-21	-105
-50	-59	-215
-68	-83	-30
-77	-90	71
-70	-89	160
-56	-84	225
-36	-78	24
-15	-61	-74
8	-30	3
27	18	-87
42	76	-107
50	119	-95
50	131	-88
40	104	-91
23	41	-132
0	-32	-108
-23	-99	-131
-43	-137	-54
-60	-144	-21
-68	-127	87
-68	-100	194
-56	-78	208
-36	-63	247
-11	-55	132
16	-40	-50
38	-14	-227
52	28	-273
62	72	-160
66	108	-165
64	119	-85
57	102	113
41	65	16
14	26	-140
-18	-1	-51
-51	-12	87
-74	-8	89
-85	-2	123
-82	-7	95
-68	-23	11
-50	-45	-56
-28	-62	-135
-3	-68	-130
27	-55	-53
58	-27	101
84	15	183
93	63	163
81	106	87
52	131	-64
17	122	-84
-14	67	-106
-27	-28	-284
-27	-139	-372
-23	-226	-390
-25	-256	-316
-36	-214	-104
-50	-115	93
-60	3	179
-53	103	202
-32	155	205
-5	161	130
22	135	42
38	104	-17
46	76	67
50	48	194
54	15	149
56	-27	62
46	-68	-15
20	-98	65
-18	-102	163
-56	-87	77
-81	-65	-163
-80	-53	-360
-56	-53	-454
-23	-51	-410
1	-29	13
12	23	147
11	99	95
11	166	131
21	200	137
41	178	129
61	112	-58
66	26	-34
48	-45	29
11	-86	-142
-31	-102	-345
-63	-107	-405
-80	-119	-252
-77	-136	-124
-64	-150	-68
-48	-131	77
-32	-77	198
-12	13	230
12	113	155
39	193	21
60	224	-20
68	194	-69
64	116	-110
45	10	60
24	-94	196
4	-167	291
-12	-192	228
-25	-168	26
-39	-110	-230
-54	-40	-606
-63	13	-443
-63	35	-134
-48	31	-88
-22	13	79
5	0	142
28	6	194
38	28	232
40	55	84
39	68	-33
36	62	-219
36	36	-363
29	6	-236
14	-20	-64
-13	-34	-18
-41	-39	-32
-65	-43	-63
-75	-44	-79
-67	-43	-7
-48	-29	94
-25	-5	133
-3	26	160
14	54	213
24	74	249
33	85	256
39	93	242
42	103	93
41	106	-128
36	91	-256
26	39	-249
14	-49	-147
-1	-153	-179
-19	-234	-136
-41	-249	-74
-63	-180	-123
-83	-49	-153
-88	93	-106
-76	190	10
-40	197	38
11	112	50
65	-18	22
110	-139	135
130	-191	175
121	-153	61
86	-45	-14
35	79	-2
-15	162	-37
-54	168	-372
-77	93	-452
-78	-26	-241
-68	-148	5
-54	-225	95
-38	-237	113
-25	-191	175
-12	-109	163
2	-20	149
17	60	30
32	119	-75
43	153	-161
50	166	-195
49	156	-155
40	126	-40
23	77	137
2	23	149
-24	-28	75
-47	-66	-19
-66	-86	-111
-74	-90	-164
-69	-80	-160
-55	-57	20
-33	-28	94
-11	12	-24
9	52	-67
23	91	-1
34	113	164
44	116	268
54	98	213
61	64	119
62	25	89
50	-15	87
22	-47	-97
-19	-77	-455
-65	-101	-429
-102	-121	-238
-119	-133	-251
-107	-130	-147
-68	-111	-7
-14	-72	196
42	-19	120
83	42	-120
101	103	-116
94	149	0
74	171	-4
47	162	-126
26	118	-166
12	49	-111
0	-23	-59
-12	-83	78
-29	-116	208
-47	-118	133
-63	-100	89
-70	-79	34
-65	-68	16
-48	-65	-108
-26	-58	-116
-3	-35	37
18	11	-67
34	65	3
47	106	39
53	115	-46
52	87	-88
41	35	-114
19	-15	-31
-10	-38	-108
-39	-38	-140
-62	-27	-33
-75	-33	37
-72	-69	106
-60	-126	166
-39	-171	127
-16	-166	71
7	-97	71
27	28	11
40	165	-107
48	262	-127
50	287	-32
47	233	36
42	120	35
33	-5	-124
20	-105	-194
5	-162	-132
-15	-174	-89
-36	-157	8
-53	-133	90
-61	-112	108
-56	-98	24
-40	-81	-34
-17	-51	-104
6	-7	-175
23	48	-154
34	110	-52
36	166	16
34	204	51
28	218	58
20	199	8
8	149	68
-2	64	166
-8	-43	213
-14	-155	196
-14	-244	199
-16	-277	52
-22	-245	-283
-31	-153	-403
-37	-35	-324
-33	61	-150
-16	109	-5
16	97	72
46	55	83
69	20	30
72	21	-40
57	59	-208
30	108	-279
3	129	-235
-18	102	-198
-31	30	-124
-41	-58	152
-52	-125	346
-63	-147	415
-70	-126	403
-66	-81	152
-51	-31	-72
-23	16	-205
7	58	-337
30	96	-385
46	122	-323
52	116	-282
52	74	-196
46	-4	-21
36	-92	159
18	-154	68
-6	-168	-45
-34	-136	-173
-58	-88	-218
-72	-47	78
-77	-33	243
-69	-32	280
-56	-21	302
-36	16	353
-10	77	334
22	130	118
60	145	-131
96	104	-117
118	31	-294
118	-41	-576
93	-70	-377
48	-48	-188
-3	3	61
-46	41	147
-71	38	86
-79	-4	137
-77	-57	46
-69	-83	8
-62	-58	-109
-53	-2	-193
-38	56	-116
-15	75	-108
15	48	-3
42	-3	160
61	-43	119
68	-42	47
61	-4	81
45	44	154
27	65	22
8	40	-105
-13	-18	-84
-37	-77	-76
-59	-98	-108
-78	-78	-214
-83	-28	-57
-68	14	155
-37	23	128
3	-3	110
42	-40	26
70	-60	-86
82	-45	-160
78	-1	-259
62	45	-235
40	74	-88
18	69	72
-8	43	101
-31	17	87
-52	2	119
-63	-4	69
-65	-11	-48
-56	-27	-124
-40	-55	-151
-24	-84	-123
-7	-89	-22
5	-64	109
18	-15	162
31	39	120
44	78	110
54	90	46
57	80	-51
50	60	-2
33	44	-22
13	37	-129
-9	29	-72
-28	11	-252
-43	-19	-409
-53	-52	-197
-61	-75	1
-61	-74	24
-53	-48	-3
-36	-13	53
-14	20	57
9	38	21
28	41	-48
36	42	-7
39	47	103
37	57	60
33	62	-34
24	43	-86
8	-4	-62
-17	-82	-150
-47	-163	-282
-75	-222	-242
-86	-230	8
-77	-187	209
-51	-105	317
-16	-14	362
17	59	191
38	100	32
46	110	-28
47	105	-129
46	98	-268
47	99	-222
48	103	-199
42	95	-149
28	68	-19
4	23	24
-23	-29	20
-43	-75	-49
-53	-100	56
-52	-101	138
-45	-85	260
-34	-58	185
-24	-31	-211
-13	0	-263
2	35	-90
20	76	-187
36	115	-207
48	141	-80
50	143	-84
37	112	-31
18	52	-20
-2	-23	26
-20	-96	15
-29	-147	-47
-34	-171	-58
-37	-167	37
-40	-144	144
-41	-114	158
-36	-80	178
-20	-43	81
4	0	32
30	49	-32
54	103	-117
67	150	-184
67	180	-141
55	179	-28
36	148	1
15	95	38
-11	37	40
-37	-1	15
-67	-13	-54
-96	-1	-49
-114	9	40
-109	-7	202
-81	-63	270
-26	-151	183
36	-233	76
90	-265	-74
120	-224	-265
120	-112	-421
98	24	-402
64	129	-241
34	158	-104
9	109	77
-11	12	79
-30	-78	30
-50	-121	-5
-67	-117	-94
-71	-87	-15
-60	-66	-17
-36	-70	-100
-12	-86	-126
4	-78	9
8	-26	21
2	60	-38
-1	152	49
7	201	45
26	191	-54
44	131	-145
48	65	-137
32	23	-35
1	17	97
-34	30	194
-57	25	242
-64	-11	234
-56	-77	129
-43	-133	10
-30	-152	-96
-20	-117	-179
-8	-43	-199
8	33	-280
28	85	-192
46	100	-7
57	91	21
53	75	30
40	64	68
23	59	57
8	45	-100
-5	17	-181
-16	-24	-111
-30	-63	-76
-46	-88	-52
-61	-88	43
-65	-68	120
-57	-42	60
-34	-17	46
-5	7	124
24	35	35
44	65	-75
56	94	-142
59	106	-154
57	94	-144
48	53	-244
33	-3	-136
10	-56	49
-17	-90	120
-43	-99	222
-62	-89	202
-71	-69	47
-68	-47	-91
-59	-25	-134
-45	-2	-198
-29	19	-193
-10	29	-70
12	25	-21
38	4	47
63	-19	101
81	-30	91
89	-15	51
78	20	28
55	58	47
23	75	51
-13	56	103
-45	14	141
-71	-32	77
-89	-57	-13
-93	-57	-100
-83	-48	-176
-60	-48	-222
-28	-69	-147
8	-95	10
39	-95	60
58	-46	46
64	48	24
61	149	7
53	204	-52
46	180	-123
36	81	-167
23	-52	-182
1	-158	-55
-26	-201	15
-55	-181	25
-77	-129	126
-85	-90	234
-78	-76	215
-61	-76	56
-40	-54	-107
-20	7	-273
5	103	-368
36	195	-236
72	239	-64
106	211	-124
124	124	-124
114	20	-17
76	-61	1
18	-101	109
-37	-97	155
-75	-74	107
-89	-47	81
-81	-25	13
-62	-2	-47
-45	23	-114
-34	41	-141
-22	38	-47
-4	7	11
18	-38	-36
44	-70	-65
60	-62	-97
61	-6	-40
46	74	134
19	134	263
-9	138	111
-30	77	-40
-44	-28	14
-54	-129	-22
-62	-188	-185
-68	-192	-298
-66	-153	-232
-52	-100	-215
-26	-52	-133
5	-16	36
34	18	90
53	58	43
59	101	-40
55	131	-108
43	132	-149
31	103	-42
17	49	11
1	-5	-4
-20	-44	84
-41	-66	93
-60	-74	45
-67	-80	-10
-61	-80	-37
-44	-70	80
-20	-43	139
4	7	149
24	74	168
39	137	137
50	179	82
58	192	39
63	174	21
64	131	-144
56	75	-281
38	6	-278
12	-65	-203
-19	-137	-57
-51	-189	5
-77	-211	52
-92	-190	37
-94	-126	-48
-83	-33	-70
-62	63	-31
-33	135	7
0	160	-57
36	124	-163
72	39	-112
101	-64	27
111	-152	80
100	-181	160
62	-142	177
9	-51	65
-44	43	-24
-83	91	-141
-92	65	-200
-75	-23	-164
-41	-126	-122
-12	-187	-87
3	-164	-22
2	-60	22
-5	79	16
-4	196	40
10	247	74
34	229	100
54	162	97
61	89	58
47	32	18
19	-6	-17
-11	-40	-82
-33	-86	-161
-42	-137	-189
-44	-179	-106
-42	-190	65
-44	-157	155
-44	-93	162
-38	-15	54
-21	47	-95
5	88	-120
30	109	-117
48	119	-108
52	125	-31
45	121	188
33	99	395
19	52	326
10	-8	71
-1	-68	-294
-14	-109	-454
-33	-120	-614
-54	-111	-696
-68	-94	-306
-70	-82	-123
-56	-74	-8
-31	-60	176
0	-32	159
26	19	138
45	76	30
56	123	-78
60	134	-18
54	110	94
43	58	91
25	2	52
2	-43	-12
-22	-69	6
-43	-77	57
-57	-79	101
-62	-77	72
-60	-72	26
-52	-59	-13
-40	-28	-68
-25	21	0
-6	81	83
16	137	147
37	174	145
55	182	113
65	154	13
64	89	-130
56	-1	-235
41	-95	-301
21	-173	-250
0	-213	-138
-22	-206	-34
-42	-159	0
-57	-94	-10
-64	-38	-65
-60	-3	-69
-45	11	-27
-26	23	-9
-6	51	-2
9	104	-46
21	165	-42
32	205	116
42	202	264
51	145	237
54	54	184
44	-44	52
20	-117	-43
-12	-154	-93
-44	-166	-101
-64	-167	-76
-71	-167	-91
-61	-163	-46
-45	-139	-56
-27	-88	-108
-5	-12	-170
17	60	-98
41	104	-65
68	106	-41
86	76	52
89	41	76
68	32	140
34	49	208
-3	75	109
-33	79	-133
-49	41	-155
-54	-27	-37
-60	-100	-36
-72	-139	-284
-91	-125	-441
-101	-68	-181
-92	1	-17
-54	51	77
4	71	103
68	71	-34
116	70	16
131	84	-97
113	104	-98
70	112	63
22	85	32
-21	23	138
-47	-53	134
-58	-118	145
-59	-141	222
-56	-123	95
-51	-77	48
-44	-27	36
-36	9	-198
-23	32	-412
-5	49	-432
16	76	-278
37	104	-103
52	124	-48
60	118	24
58	77	-93
46	9	-163
25	-69	-44
0	-137	-30
-25	-180	76
-46	-192	116
-60	-179	79
-65	-148	130
-62	-103	76
-50	-51	22
-32	3	39
-8	47	66
16	80	47
36	89	-6
52	85	45
58	77	152
53	77	126
41	91	113
20	109	112
-2	115	55
-24	84	-94
-40	11	-246
-47	-92	-184
-45	-194	-149
-35	-254	-164
-24	-249	-104
-15	-171	13
-8	-50	39
-1	71	55
9	154	111
27	178	61
46	158	24
63	120	-14
66	103	-112
50	110	-206
20	132	-222
-14	138	-244
-41	96	-217
-54	-5	-104
-53	-143	2
-46	-273	163
-41	-351	134
-42	-340	51
-44	-250	38
-38	-110	-53
-20	31	-108
10	132	-130
43	174	-66
66	169	58
68	137	40
46	110	-82
16	98	-132
-15	95	-144
-30	77	-56
-32	29	74
-22	-50	214
-14	-138	365
-14	-200	274
-23	-204	135
-34	-142	-2
-37	-38	-107
-25	70	-257
2	140	-330
36	155	-243
66	123	-215
84	70	-48
82	30	21
61	13	13
30	17	81
-1	19	3
-31	4	-80
-52	-32	-83
-64	-84	32
-67	-121	62
-62	-134	-93
-53	-116	-69
-38	-76	-20
-22	-27	43
-4	19	57
13	57	-17
29	91	67
40	119	20
45	139	-27
44	147	-38
33	129	36
18	88	145
-2	26	47
-20	-40	22
-38	-102	-9
-51	-145	-80
-56	-171	-136
-54	-177	-112
-42	-164	-120
-23	-137	-169
2	-90	-136
24	-32	-202
42	32	-30
52	89	130
51	124	133
44	135	65
31	114	-157
18	76	-127
3	28	-70
-11	-15	-54
-28	-49	-31
-42	-76	-102
-55	-95	-54
-62	-108	100
-60	-110	147
-48	-99	172
-28	-66	231
-7	-17	174
16	43	100
36	101	-3
52	138	-126
62	150	-313
66	132	-436
60	101	-160
46	62	39
24	27	100
-3	-2	234
-29	-28	150
-51	-53	-36
-62	-76	-128
-62	-91	52
-54	-92	13
-39	-75	-114
-22	-39	-102
-2	4	-218
15	50	-231
29	90	-183
37	123	-4
39	149	84
32	157	85
17	144	129
0	98	108
-16	20	-38
-27	-84	-181
-31	-185	-157
-28	-259	-112
-25	-278	13
-20	-240	50
-16	-157	76
-12	-52	57
-4	36	70
9	88	68
27	95	-186
45	64	-154
62	21	-12
68	-16	-31
62	-27	-68
44	-13	-53
17	15	84
-12	35	138
-39	32	207
-57	0	205
-65	-51	78
-63	-93	-24
-55	-103	-154
-44	-67	-281
-32	-2	-357
-18	60	-349
-3	98	-280
14	94	-169
32	64	-41
44	35	-6
48	33	22
39	57	61
21	85	79
-2	86	132
-24	35	175
-40	-54	222
-51	-151	209
-52	-207	138
-49	-196	-28
-42	-127	-192
-32	-35	-254
-21	37	-155
-12	64	80
-2	51	166
5	26	183
13	19	70
25	41	-6
41	85	102
60	118	12
77	119	-46
81	83	-62
63	25	-270
27	-28	-365
-20	-62	-283
-64	-71	-198
-88	-68	-66
-85	-60	112
-55	-53	161
-15	-38	126
23	-5	196
45	46	225
49	112	74
40	166	-12
26	194	-56
14	178	-132
4	123	-153
-2	40	-107
-8	-53	-105
-12	-140	-36
-17	-209	-22
-20	-244	-156
-22	-241	-169
-28	-198	-215
-35	-124	-106
-44	-33	-156
-47	56	-217
-40	130	-4
-20	179	81
11	195	130
42	174	143
66	114	152
75	17	127
68	-93	55
44	-189	42
15	-235	4
-20	-210	-20
-50	-126	-12
-75	-21	-32
-87	55	-124
-82	70	-193
-62	22	-165
-30	-49	-61
6	-93	70
39	-71	30
62	16	-5
71	130	51
72	217	16
63	235	48
50	177	46
31	76	43
8	-25	52
-18	-88	-18
-44	-107	-44
-62	-95	-83
-72	-80	-69
-71	-76	-37
-62	-85	24
-47	-94	104
-28	-83	138
-7	-46	119
17	14	87
40	78	55
57	128	-37
66	152	-128
62	140	-242
42	100	-249
17	38	-283
-12	-25	-356
-34	-82	-297
-47	-114	-142
-53	-120	54
-53	-106	102
-51	-83	105
-44	-55	155
-31	-33	200
-10	-10	256
16	21	305
41	62	210
58	109	76
64	154	-121
56	174	-341
37	166	-289
15	121	-341
-7	55	-252
-24	-16	-88
-36	-80	-124
-43	-126	-1
-45	-160	112
-41	-180	149
-32	-189	99
-19	-179	69
-3	-145	22
9	-87	-133
20	-12	-222
28	58	-195
36	106	-145
43	120	-32
46	103	72
41	67	96
26	36	41
3	21	-57
-24	21	-92
-45	23	-113
-57	13	-98
-60	-17	21
-55	-61	103
-47	-104	14
-37	-123	15
-24	-111	84
-3	-66	134
24	-7	85
53	50	6
75	94	65
78	117	64
61	125	43
26	122	-52
-14	113	-1
-48	85	46
-64	41	-84
-63	-27	-153
-49	-111	-230
-30	-185	-222
-14	-224	-173
-5	-203	-76
0	-127	61
3	-15	161
9	98	204
21	173	233
37	195	172
52	165	20
63	106	-136
60	48	-256
46	6	-315
21	-21	-268
-6	-46	-132
-33	-78	-18
-51	-119	53
-60	-154	42
-61	-165	65
-56	-136	81
-46	-76	97
-32	-1	128
-14	62	68
8	94	11
29	95	24
46	75	120
52	53	117
50	41	67
38	41	-33
20	44	-245
1	39	-319
-20	19	-197
-38	-15	-32
-56	-54	-132
-68	-88	-151
-74	-108	-60
-65	-106	-103
-49	-85	-52
-24	-46	-129
3	1	-93
24	48	-69
40	91	-221
47	118	-171
50	128	-29
48	117	136
41	94	238
30	60	243
8	21	249
-18	-20	168
-42	-64	26
-59	-109	-120
-62	-153	-157
-50	-179	-71
-30	-176	-87
-8	-139	-9
11	-64	127
22	26	77
31	109	4
39	157	-117
46	161	-211
50	126	-231
46	74	-58
31	26	130
6	-8	87
-18	-33	-78
-36	-58	-190
-43	-93	-80
-42	-127	-149
-37	-149	-72
-35	-133	-40
-34	-76	-66
-31	8	104
-19	87	97
5	131	93
34	127	-19
59	85	-46
68	34	0
60	0	-18
38	-7	15
10	4	126
-14	12	268
-29	5	306
-41	-20	281
-53	-44	142
-66	-53	-64
-76	-39	-312
-72	-14	-412
-54	8	-310
-22	15	-215
16	11	-77
48	15	-22
64	40	-69
64	87	-32
56	126	-25
47	125	-85
42	66	-34
38	-42	22
27	-157	21
4	-228	47
-31	-224	68
-67	-154	185
-91	-60	182
-91	4	112
-66	11	30
-26	-28	-165
12	-70	-287
40	-68	-283
52	-9	-210
52	92	-207
51	183	-124
50	222	36
51	191	110
44	113	87
26	33	53
-7	-9	141
-47	-3	170
-82	29	134
-101	55	36
-96	44	-86
-72	-11	-91
-39	-88	-166
-3	-163	-138
27	-205	-77
49	-200	-72
62	-154	-36
65	-74	-98
60	14	2
49	91	25
33	134	-28
16	134	-9
-1	89	-55
-18	18	-4
-33	-53	72
-47	-102	178
-57	-113	178
-61	-91	101
-54	-53	7
-38	-17	-94
-15	4	-171
11	19	-332
33	35	-360
46	61	-164
51	90	-39
47	110	-59
37	110	-36
24	86	33
7	51	22
-12	22	-10
-32	13	48
-50	18	54
-63	19	53
-72	-3	110
-71	-60	70
-63	-137	-50
-44	-207	-153
-17	-235	-51
15	-201	20
46	-111	-114
69	6	-78
79	110	11
69	169	37
50	169	6
25	121	-29
4	49	50
-12	-16	48
-20	-59	8
-26	-80	82
-31	-80	91
-34	-75	26
-34	-69	-14
-25	-64	-97
-13	-52	-108
4	-31	-56
17	2	17
22	40	31
18	75	0
13	98	2
11	105	32
15	98	109
26	77	104
38	47	93
40	13	11
26	-22	-106
-4	-53	-202
-40	-77	-308
-72	-84	-236
-88	-72	-172
-80	-49	-239
-52	-16	-191
-17	15	-83
17	41	23
37	59	140
46	68	242
44	72	395
39	70	312
34	64	116
28	48	65
20	26	-214
2	-10	-501
-22	-53	-392
-51	-94	-182
-72	-119	-134
-81	-118	-157
-69	-87	-239
-43	-33	-157
-12	26	131
17	67	133
36	78	33
44	54	4
45	13	-23
41	-21	70
36	-28	165
28	-6	249
17	27	263
1	44	152
-18	21	46
-35	-37	-12
-47	-112	-77
-52	-163	-150
-48	-163	-232
-38	-109	-243
-24	-26	-87
-6	48	-24
12	86	-34
31	84	64
45	63	122
51	55	99
44	74	80
30	109	31
11	124	-67
-6	95	-108
-15	6	-127
-19	-110	-130
-20	-205	-120
-27	-233	-101
-40	-178	-24
-54	-63	10
-62	58	14
-54	137	-11
-29	148	-66
11	96	-136
52	19	-40
85	-45	14
98	-74	20
90	-62	100
66	-31	91
36	1	150
7	17	150
-19	11	126
-37	-8	58
-50	-33	-76
-57	-49	-162
-59	-48	-243
-58	-20	-268
-55	33	-219
-49	98	-66
-38	152	39
-22	171	24
3	147	16
32	79	1
62	-5	3
84	-74	4
85	-106	-9
65	-94	-22
27	-58	-26
-18	-23	54
-57	-10	138
-77	-26	186
-75	-61	204
-54	-100	196
-24	-121	191
6	-118	37
29	-86	-117
41	-30	-261
46	37	-460
44	104	-460
41	152	-345
35	166	-214
27	131	-136
13	62	-30
-6	-26	-5
-28	-98	-54
-52	-135	-12
-69	-135	-1
-81	-106	6
-77	-76	-67
-64	-56	51
-42	-49	213
-17	-39	167
8	-11	93
29	38	17
44	97	87
55	138	213
60	149	290
60	121	234
54	77	-78
40	32	-246
20	4	-211
-4	-8	-327
-29	-17	-250
-49	-36	-54
-64	-66	28
-69	-94	28
-63	-102	-125
-48	-83	-89
-24	-36	-35
4	13	-129
32	49	-38
53	60	33
63	53	19
60	43	-51
46	40	-13
26	45	43
1	45	65
-22	28	112
-44	-10	19
-62	-62	-45
-72	-110	-132
-77	-137	-114
-68	-135	-23
-49	-113	26
-22	-79	16
8	-41	40
34	-3	61
51	39	-41
58	84	-88
60	120	-88
54	138	-6
48	128	54
36	95	116
19	53	113
-8	30	86
-39	32	18
-67	57	-68
-90	78	-89
-96	71	-147
-85	20	-100
-57	-68	-42
-21	-166	-28
22	-237	-89
62	-253	-68
92	-207	18
107	-115	-40
103	-7	-24
81	81	22
46	129	13
12	127	74
-20	88	138
-39	28	74
-49	-27	-35
-54	-63	-123
-57	-78	-209
-60	-69	-254
-56	-52	-140
-44	-29	-14
-20	-3	5
11	31	14
40	75	-9
60	118	-21
67	148	-64
63	139	-69
52	90	-19
41	0	85
29	-93	281
14	-154	391
-7	-159	403
-35	-105	275
-63	-23	-15
-84	47	-259
-86	71	-397
-69	43	-532
-37	-15	-424
-4	-70	-353
23	-86	-308
36	-55	-14
39	9	102
34	75	145
26	110	155
20	103	53
12	57	36
1	-2	85
-16	-55	-43
-38	-85	-163
-58	-95	-128
-71	-92	-128
-72	-86	-195
-62	-82	-160
-40	-70	-31
-14	-47	10
12	-7	108
33	45	124
47	97	202
54	134	206
58	145	170
58	130	186
51	93	103
37	50	132
12	9	-16
-21	-25	-239
-56	-49	-369
-86	-65	-235
-97	-71	-11
-85	-72	87
-52	-64	138
-7	-51	160
37	-29	192
67	3	52
75	41	-23
62	85	-160
39	121	-412
19	131	-463
9	106	-409
12	41	-282
16	-48	-10
14	-137	134
-1	-188	108
-28	-190	17
-55	-144	-15
-75	-75	46
-77	-8	53
-65	41	152
-46	75	203
-30	109	235
-17	148	255
-2	183	164
21	182	79
55	118	-68
96	-9	-223
127	-164	-307
126	-281	-328
91	-308	-223
27	-228	-37
-41	-88	28
-91	38	108
-104	87	69
-86	39	-54
-51	-58	-33
-19	-137	47
-2	-132	89
2	-39	-2
3	95	-74
13	202	-158
30	231	-172
51	185	-96
60	106	61
52	44	233
30	22	278
0	26	271
-23	17	126
-37	-26	-29
-44	-94	-188
-51	-149	-312
-59	-152	-412
-68	-94	-446
-65	-7	-245
-45	63	-65
-14	81	24
26	53	130
59	10	109
78	-5	113
78	24	77
62	77	-48
39	112	12
14	94	61
-12	21	77
-35	-78	102
-56	-153	56
-70	-176	-43
-74	-144	-65
-62	-84	35
-43	-29	27
-22	4	-45
-1	17	-98
15	27	-111
25	51	-90
36	83	-69
46	112	-5
54	120	-10
51	101	-16
38	64	-115
15	21	-179
-11	-18	-104
-33	-52	-38
-45	-89	149
-48	-127	215
-46	-157	196
-41	-160	237
-39	-126	98
-32	-56	-190
-18	26	-365
4	95	-242
32	123	-236
53	114	-208
64	81	-114
58	51	-176
39	40	67
16	45	155
-8	51	22
-28	37	47
-44	3	-20
-57	-42	-18
-69	-76	43
-74	-82	132
-67	-61	105
-44	-29	-42
-11	-4	-52
25	4	-37
52	-2	-55
64	-8	-45
64	-7	-5
57	3	2
51	14	-39
46	17	-96
39	12	-43
22	4	14
-10	2	26
-44	1	51
-71	-14	45
-80	-52	63
-62	-121	66
-29	-192	49
5	-234	-30
26	-208	-109
30	-109	-115
21	33	-112
14	168	47
18	241	136
33	235	7
48	168	-56
52	84	-54
36	22	-19
1	-4	-47
-43	-6	-118
-83	-15	-168
-105	-42	-184
-109	-84	-109
-95	-109	-41
-66	-95	40
-27	-40	-17
17	32	-113
59	88	-51
91	106	-4
101	85	74
90	51	64
59	31	-69
24	30	-72
-3	36	-32
-14	25	-105
-12	-20	-151
-10	-91	-83
-16	-153	98
-35	-173	89
-58	-134	54
-75	-52	26
-68	33	-48
-43	89	10
-5	101	60
28	80	134
45	57	183
46	52	216
35	68	94
27	79	4
26	60	16
32	-1	-51
35	-88	-160
27	-166	-325
4	-202	-279
-31	-179	-139
-62	-117	-200
-81	-47	-167
-76	1	-58
-52	15	-209
-20	12	-128
11	13	118
32	35	94
41	76	84
40	116	90
33	138	66
23	135	39
8	122	11
-13	113	43
-35	115	113
-52	106	32
-59	63	-61
-48	-35	-19
-23	-176	-20
7	-306	17
29	-364	-19
36	-312	-83
28	-162	-89
15	26	-133
8	168	-103
13	209	-123
29	149	-62
44	43	53
46	-36	16
28	-47	42
-2	3	21
-32	62	14
-51	78	64
-55	27	109
-48	-62	141
-40	-134	46
-38	-148	25
-36	-96	6
-29	-14	-101
-9	47	-101
23	66	0
58	51	8
80	37	-106
79	51	-139
59	95	-95
29	132	-150
1	123	-201
-18	59	-51
-31	-44	74
-44	-137	24
-58	-181	-10
-72	-164	65
-77	-110	-56
-62	-59	-228
-33	-31	-144
5	-25	-89
36	-11	-108
50	29	25
47	96	147
36	162	134
23	191	106
18	171	-98
17	106	-125
14	29	28
3	-38	95
-16	-84	-52
-36	-110	-250
-50	-133	-246
-54	-148	-175
-49	-144	44
-37	-106	41
-22	-33	-65
-7	53	64
11	122	81
29	141	94
50	110	50
65	49	-45
68	-4	-44
59	-24	-53
36	-8	-4
7	24	85
-25	44	192
-54	39	215
-79	11	225
-92	-21	141
-92	-42	-36
-74	-49	-168
-40	-47	-279
2	-44	-247
42	-34	-219
65	-9	-109
71	33	127
64	81	215
54	103	132
53	74	10
61	-12	-151
67	-120	-328
56	-201	-282
21	-209	-132
-30	-140	21
-79	-37	87
-108	39	-7
-103	41	-43
-70	-22	21
-29	-106	110
4	-142	72
17	-96	1
18	18	-79
16	138	-189
21	201	-235
35	178	-136
48	91	10
44	-1	76
22	-51	86
-15	-43	42
-51	-5	48
-75	17	104
-78	4	127
-63	-41	112
-43	-78	75
-26	-74	66
-11	-23	63
4	51	-3
24	105	-96
46	114	-112
67	81	-83
78	38	-147
74	16	-94
52	27	-157
28	57	-140
3	74	69
-20	54	29
-36	-1	4
-53	-66	39
-66	-113	12
-76	-124	-224
-72	-102	-349
-56	-70	-172
-31	-47	-32
-2	-39	-62
20	-35	-156
33	-20	-117
38	14	-63
38	59	-36
39	96	16
41	105	94
36	81	207
21	34	210
-6	-19	142
-44	-61	50
-79	-86	-6
-103	-94	-43
-102	-86	-71
-81	-70	48
-38	-44	166
15	-9	164
66	34	64
104	77	-134
116	106	-194
105	118	-19
75	109	-4
36	89	-89
2	65	-48
-23	46	-96
-38	33	-167
-47	15	-207
-54	-16	-161
-63	-68	-71
-66	-138	-30
-59	-211	61
-36	-263	120
-2	-264	182
31	-205	140
46	-85	105
41	64	83
25	194	-87
11	256	-121
16	221	-145
38	104	-156
66	-48	-134
80	-168	-297
60	-211	-428
12	-168	-184
-49	-75	108
-94	10	149
-107	42	173
-83	15	119
-41	-40	56
-2	-74	-93
18	-47	-136
20	38	52
14	141	200
14	215	209
28	229	143
42	182	68
48	103	-78
36	30	-126
8	-16	-87
-28	-39	-116
-55	-53	-76
-68	-80	11
-71	-111	-29
-64	-134	-17
-58	-129	-12
-49	-92	-4
-35	-32	3
-10	29	-24
20	70	-35
49	92	-24
68	97	0
68	98	54
56	96	95
36	88	19
18	66	-27
2	23	8
-12	-26	63
-28	-71	61
-45	-98	63
-59	-103	-47
-63	-93	-170
-52	-80	-245
-29	-67	-248
-2	-53	-222
23	-32	-249
38	3	-198
46	43	-70
49	75	76
50	87	171
49	74	233
41	43	180
26	8	130
4	-15	64
-22	-27	61
-43	-33	-90
-55	-40	-273
-57	-54	-103
-51	-67	-55
-42	-66	-163
-30	-41	-116
-16	11	-91
0	76	-87
16	135	-22
30	168	-25
37	158	74
36	105	132
29	20	54
19	-77	-46
12	-165	-145
4	-222	-136
-3	-234	37
-19	-202	168
-38	-143	69
-58	-76	-100
-67	-22	-70
-56	5	7
-29	15	-42
8	24	-23
39	59	-107
54	128	-129
46	215	-77
29	285	-68
14	290	-4
10	203	13
22	31	91
39	-172	160
44	-337	123
28	-401	-13
-10	-340	-175
-54	-190	-165
-88	-17	-44
-96	106	-16
-74	147	-53
-31	110	-24
14	42	10
51	-3	21
69	1	16
71	45	32
61	96	49
46	118	64
29	98	111
7	47	141
-16	-3	186
-40	-29	242
-59	-30	139
-70	-18	-205
-70	-9	-409
-61	-12	-387
-46	-20	-395
-26	-19	-278
-4	-3	-37
20	21	118
40	36	152
55	34	117
60	13	66
55	-13	94
40	-25	155
19	-21	177
1	-2	175
-15	4	22
-28	-16	-176
-38	-62	-242
-48	-120	-312
-56	-157	-478
-55	-150	-442
-45	-97	-217
-25	-19	-79
2	53	11
28	98	101
49	105	209
59	91	201
61	74	160
54	65	77
41	64	13
25	59	13
4	35	-21
-21	-8	39
-45	-62	62
-64	-104	65
-75	-115	17
-72	-94	-113
-58	-52	-127
-36	-9	-95
-10	19	-132
14	35	-150
36	41	-90
51	49	-64
59	64	-32
58	80	-23
50	81	17
36	61	155
18	22	233
-1	-26	242
-23	-63	186
-40	-82	56
-56	-76	-106
-64	-53	-282
-63	-32	-341
-52	-17	-139
-29	-15	26
0	-17	86
32	-15	150
52	-1	56
64	25	-24
58	59	-166
42	93	-273
17	116	-167
-10	127	-23
-34	116	106
-53	84	130
-63	28	138
-64	-48	90
-54	-121	-51
-40	-170	-132
-24	-166	-235
-13	-106	-174
-4	-11	-24
7	78	43
26	110	171
55	67	137
90	-38	68
114	-157	45
114	-229	-38
86	-222	-99
36	-141	-78
-19	-39	-55
-61	31	-24
-83	36	41
-82	-9	-41
-70	-68	-187
-59	-93	-215
-52	-65	-68
-44	-3	44
-27	60	-40
4	94	-61
41	96	41
69	86	-49
81	92	-192
67	119	-184
39	150	-100
7	154	80
-15	108	213
-27	26	230
-33	-60	98
-40	-111	-67
-52	-112	-167
-63	-78	-265
-67	-36	-75
-58	-19	149
-38	-24	101
-14	-35	150
6	-22	119
17	24	-85
23	89	-301
31	138	-252
47	143	-84
66	103	-75
81	32	68
74	-32	96
42	-67	31
-6	-71	-18
-58	-60	-45
-95	-56	-63
-104	-69	-120
-85	-93	-106
-49	-108	-134
-11	-99	-80
16	-63	-33
32	-11	38
38	39	177
40	77	204
42	98	242
44	102	276
41	93	200
29	70	-106
9	35	-396
-18	-13	-257
-40	-64	-109
-55	-109	-77
-61	-133	21
-56	-130	68
-45	-103	82
-26	-59	52
-3	-12	9
20	35	13
38	72	58
50	103	20
54	121	-34
48	131	-158
33	133	-211
13	129	-107
-12	121	-108
-37	104	11
-57	69	104
-68	12	31
-64	-75	24
-43	-174	17
-10	-258	-9
25	-289	-113
48	-245	-302
54	-130	-348
42	20	-170
22	154	-30
2	227	35
-8	215	159
-8	139	186
1	34	171
9	-64	216
16	-134	202
19	-177	62
16	-195	-63
6	-196	-47
-12	-169	-42
-37	-108	-227
-63	-19	-330
-81	77	-192
-72	139	-156
-40	144	-59
10	87	-40
59	4	-134
91	-56	36
93	-60	39
68	-5	53
30	71	138
-3	121	85
-25	109	76
-35	39	-68
-40	-51	-211
-48	-117	-112
-58	-127	102
-64	-92	169
-59	-28	224
-37	22	235
-7	51	189
24	62	125
45	71	-211
53	91	-425
50	112	-363
42	121	-381
34	100	-197
24	50	-74
11	-10	-99
-10	-59	1
-32	-83	-1
-55	-85	29
-70	-78	-4
-74	-80	48
-62	-87	158
-42	-90	172
-19	-72	156
5	-23	155
27	43	89
45	108	-174
58	143	-261
61	141	-225
54	110	-156
41	60	-4
23	11	152
4	-34	310
-15	-76	314
-32	-114	155
-48	-140	-22
-62	-147	-168
-68	-122	-397
-61	-70	-400
-40	-11	-65
-7	36	13
26	55	-15
47	48	-27
52	32	-17
44	27	58
31	45	-28
22	80	35
16	110	120
9	124	77
-5	115	101
-31	89	141
-60	58	65
-83	25	-162
-81	-15	-202
-54	-66	-137
-14	-123	-169
25	-169	-142
46	-176	-197
51	-136	-151
42	-63	94
39	7	196
49	39	143
69	17	84
84	-41	50
78	-93	-84
44	-103	-175
-6	-64	-30
-57	-5	42
-91	32	-17
-96	19	-14
-81	-33	-66
-56	-82	-186
-38	-84	-280
-30	-19	-150
-24	85	46
-16	174	81
4	205	119
29	158	124
52	67	112
67	-19	39
66	-57	-61
51	-47	-78
28	-11	-115
1	7	-165
-27	-15	-136
-54	-68	-116
-77	-131	-86
-87	-164	-14
-85	-158	45
-66	-116	121
-37	-56	152
-10	1	127
11	49	94
20	90	59
25	125	26
33	153	-6
48	160	-9
70	142	-56
86	101	-178
86	48	-123
58	0	-21
12	-34	-90
-42	-53	-161
-86	-57	-206
-106	-54	-135
-98	-47	90
-67	-35	249
-26	-21	287
12	-7	279
41	-3	262
62	-8	195
74	-15	-76
78	-12	-306
69	9	-345
50	41	-452
20	71	-385
-12	68	-238
-42	27	-302
-63	-45	-257
-71	-119	-198
-69	-159	-33
-60	-145	144
-50	-88	185
-35	-18	259
-17	34	210
8	47	233
36	31	166
62	12	26
77	14	-100
74	47	-180
54	94	-45
27	124	147
-1	116	207
-24	61	138
-40	-16	72
-52	-84	-44
-63	-109	-202
-76	-87	-236
-83	-27	-127
-78	36	-64
-56	72	-35
-18	65	17
31	13	8
80	-56	5
113	-112	82
121	-123	138
102	-76	31
62	7	-9
16	95	-78
-22	141	-168
-44	125	-164
-53	45	-221
-54	-59	-141
-55	-145	32
-60	-174	80
-68	-134	49
-69	-50	-46
-53	35	-54
-22	84	2
21	79	-13
61	32	48
85	-25	113
86	-57	101
65	-52	5
33	-14	-63
-1	32	-77
-26	57	-148
-39	43	-147
-43	-8	-54
-39	-78	-11
-35	-136	3
-31	-159	-67
-28	-133	-149
-22	-68	-66
-11	15	-57
6	87	-92
25	130	52
42	138	229
52	129	238
50	117	186
38	116	201
14	123	196
-8	121	71
-27	92	1
-35	27	-67
-34	-58	-320
-30	-143	-524
-27	-196	-378
-29	-200	-50
-31	-163	-96
-32	-99	-25
-23	-36	20
-5	12	-185
18	41	-276
40	55	-242
57	61	-101
63	56	-113
55	42	-43
39	16	31
14	-12	117
-12	-31	246
-39	-35	278
-60	-21	237
-75	0	160
-77	12	173
-66	11	176
-47	-1	260
-20	-7	194
8	9	-25
32	53	-211
49	116	-475
55	171	-509
56	192	-341
48	158	-155
37	74	-23
22	-42	57
4	-157	65
-19	-240	69
-41	-271	163
-60	-254	100
-70	-199	33
-67	-132	-12
-48	-74	-55
-16	-32	-34
20	-7	-60
50	13	-109
68	34	-105
69	61	36
57	88	76
39	100	30
20	95	68
4	67	111
-8	33	70
-20	2	9
-34	-13	-27
-52	-12	-116
-69	-3	3
-79	7	119
-69	10	43
-42	9	23
-3	4	16
39	7	-111
71	16	-282
85	29	-252
77	45	-64
54	63	26
26	79	45
3	89	21
-13	93	-168
-23	83	-233
-32	50	-84
-45	-3	37
-58	-71	56
-67	-138	8
-64	-189	-120
-48	-204	-127
-23	-181	-93
4	-124	-148
25	-49	-121
38	26	-52
42	90	80
42	126	155
43	137	185
41	122	205
34	91	152
16	47	96
-12	-3	37
-42	-43	43
-67	-66	20
-82	-66	-42
-79	-49	-97
-61	-26	-261
-37	-17	-368
-10	-32	-270
18	-63	-166
42	-91	-76
59	-85	75
70	-30	200
70	55	281
63	140	205
48	179	209
29	149	126
6	63	-106
-23	-34	-238
-55	-96	-177
-86	-98	-97
-99	-55	-197
-88	-13	-90
-49	-11	37
6	-60	-70
59	-130	-164
90	-166	-260
86	-130	-231
55	-23	-53
16	102	100
-8	183	155
-10	182	87
6	104	-56
21	-3	-141
16	-83	-51
-14	-98	24
-59	-64	94
-98	-17	172
-111	-1	208
-95	-23	270
-55	-66	274
-12	-95	189
23	-79	-10
41	-22	-158
50	49	-227
53	106	-196
56	129	-188
57	118	-306
54	88	-243
41	51	-182
21	16	-7
0	-19	141
-21	-54	135
-38	-81	171
-51	-89	60
-59	-75	-23
-63	-44	-108
-57	-15	-195
-40	0	-188
-13	-1	-40
17	-4	6
42	9	-7
58	41	34
61	84	30
56	110	-21
44	103	-104
32	56	3
14	-11	150
-7	-66	221
-30	-94	270
-53	-85	248
-67	-59	94
-69	-34	-72
-58	-23	-254
-37	-21	-394
-15	-11	-501
6	15	-509
19	57	-182
31	94	49
38	110	127
44	93	145
46	47	139
41	-6	170
26	-51	107
6	-75	48
-18	-84	87
-37	-86	112
-51	-90	36
-56	-97	-21
-54	-97	-201
-49	-84	-384
-39	-51	-275
-30	-6	-94
-17	44	10
-3	94	69
14	135	131
32	173	172
48	197	61
56	204	-86
53	180	-200
36	119	-186
9	20	-144
-18	-105	-179
-39	-232	-154
-46	-332	-103
-34	-381	41
-12	-366	164
8	-282	213
19	-152	259
17	1	249
5	147	242
-5	252	210
-3	301	84
12	290	-54
33	228	-90
51	130	-138
59	19	-149
49	-87	-226
30	-171	-254
4	-217	-151
-20	-224	-130
-42	-188	-89
-60	-127	-74
-70	-58	-36
-69	-2	20
-57	30	35
-35	43	5
-5	53	23
21	71	35
39	106	24
45	143	68
40	171	22
30	164	-58
16	123	-61
3	58	-21
-16	-6	-15
-34	-54	84
-52	-80	103
-64	-85	-97
-68	-85	-209
-65	-87	-163
-56	-89	-155
-44	-79	-248
-28	-47	-100
-5	1	181
29	54	216
69	95	221
105	109	186
123	93	107
111	60	-1
71	22	-229
13	-15	-324
-44	-47	-323
-82	-81	-299
-93	-111	-166
-81	-131	37
-58	-131	121
-35	-101	82
-18	-40	81
-3	35	201
13	103	301
35	149	249
58	161	86
75	147	-71
76	114	-248
59	71	-381
32	23	-290
-1	-31	-229
-31	-84	-116
-53	-129	34
-69	-154	87
-80	-150	159
-82	-118	94
-71	-69	42
-53	-24	77
-23	8	79
9	21	86
37	23	68
54	26	69
61	32	72
59	47	-46
56	58	-199
50	62	-235
39	53	-172
20	38	-99
-13	27	-88
-49	18	-71
-83	11	-32
-97	-4	77
-87	-32	134
-56	-71	69
-15	-109	84
22	-122	-30
44	-97	-144
52	-30	-94
49	55	-116
42	127	-128
41	155	-71
40	124	5
35	53	86
18	-21	-35
-16	-56	-55
-60	-31	48
-105	43	-60
-133	123	-129
-134	144	-135
-101	76	-113
-39	-81	-15
32	-263	29
94	-400	26
127	-416	71
128	-292	137
102	-85	155
64	128	60
35	259	-59
21	268	-154
20	178	-135
19	49	-68
8	-45	-13
-18	-78	91
-53	-54	46
-85	-22	-116
-98	-19	-182
-89	-49	-38
-61	-86	68
-25	-87	49
5	-31	86
26	67	11
39	161	-32
47	209	-6
49	193	-86
46	136	-93
35	77	-95
15	45	-102
-10	43	-105
-34	38	-93
-48	2	-4
-52	-78	77
-48	-173	137
-42	-235	228
-35	-229	196
-26	-151	161
-10	-39	162
11	53	-85
36	90	-178
58	68	-358
68	20	-479
61	-14	-298
40	-4	-192
11	40	-65
-20	85	-15
-41	95	125
-54	57	106
-61	-17	-25
-63	-98	-91
-60	-151	-74
-50	-166	79
-32	-144	81
-8	-105	111
18	-54	108
41	1	78
57	61	57
65	123	54
66	171	26
63	189	-12
55	165	-52
41	106	-91
20	32	-2
-7	-31	-14
-37	-66	-37
-60	-76	-20
-75	-69	-70
-75	-66	-75
-63	-72	-14
-46	-84	-38
-27	-84	-123
-10	-58	-180
6	-12	-91
21	48	-4
35	101	24
42	129	104
46	128	-16
41	104	-84
27	64	-65
7	22	5
-14	-15	-24
-35	-48	-141
-53	-71	-28
-63	-88	-1
-65	-92	58
-57	-77	249
-41	-45	334
-16	-1	425
11	41	294
39	71	62
63	77	-94
80	53	-364
87	13	-631
84	-37	-703
67	-79	-455
38	-107	-327
4	-117	-202
-32	-116	87
-60	-108	169
-75	-94	216
-77	-76	225
-68	-47	249
-55	-17	178
-40	14	69
-24	37	-55
-5	46	-208
21	45	-99
46	43	60
67	49	97
74	68	106
65	92	100
39	106	-102
8	97	-272
-23	58	-316
-47	-4	-214
-62	-64	6
-70	-109	-5
-70	-121	77
-65	-104	97
-49	-70	37
-22	-33	57
12	3	93
48	39	119
77	83	72
89	126	114
83	160	52
59	160	-88
25	113	-135
-10	21	-65
-44	-85	-83
-68	-169	-54
-81	-201	3
-77	-174	-32
-57	-106	36
-31	-32	8
1	15	18
24	26	45
36	13	-42
34	0	-144
26	9	-171
19	40	-107
21	79	-48
30	103	-10
39	102	38
40	78	107
26	45	160
0	25	107
-32	17	-28
-58	13	-107
-72	-2	-104
-68	-39	-134
-51	-89	-111
-31	-131	10
-11	-141	17
6	-108	-23
18	-41	-143
30	38	-257
41	103	-122
52	137	43
57	134	115
54	106	119
39	63	112
17	19	61
-10	-24	14
-34	-61	41
-54	-90	-56
-64	-107	-156
-67	-108	-127
-64	-97	-131
-53	-78	-128
-38	-58	-79
-20	-34	-6
0	3	-58
17	61	-176
28	143	-186
32	227	-116
27	276	-9
17	254	4
8	141	65
3	-45	68
3	-254	-4
7	-413	138
11	-466	200
9	-401	70
1	-249	49
-12	-76	97
-23	51	52
-22	97	-36
-10	78	-185
12	41	-356
36	40	-344
54	93	-250
58	174	45
49	240	213
31	236	161
6	157	187
-15	27	90
-37	-93	23
-54	-163	-88
-67	-167	-84
-71	-127	-39
-65	-86	9
-48	-63	-15
-26	-58	-155
-2	-45	-12
18	-3	74
30	71	114
38	151	82
44	199	15
47	191	-18
47	129	-61
40	48	-136
21	-22	-215
-3	-59	-133
-32	-68	-115
-55	-68	-113
-67	-76	-66
-65	-90	68
-54	-94	145
-38	-77	113
-20	-28	119
-1	32	67
17	81	23
35	101	-97
50	93	-261
59	72	-246
57	55	-113
46	49	44
28	49	104
7	39	127
-10	12	136
-25	-33	0
-36	-77	-149
-45	-106	-215
-51	-114	-159
-53	-99	-134
-46	-77	-42
-29	-48	37
-7	-20	33
22	14	112
44	49	141
61	82	170
66	101	124
58	97	42
42	70	-4
19	29	-70
-7	-13	-116
-33	-47	-179
-54	-70	-170
-67	-88	-53
-70	-103	-20
-63	-113	-59
-48	-112	-58
-28	-89	20
-5	-48	4
16	0	-96
34	45	34
47	72	143
51	88	44
47	93	-65
34	102	-249
15	106	-308
-7	99	-92
-27	62	50
-40	-6	17
-47	-91	2
-47	-166	-76
-44	-196	-178
-35	-174	-127
-23	-116	62
-7	-43	196
11	15	109
28	53	104
38	80	21
38	110	-101
30	145	-31
17	162	-71
11	131	-81
10	39	-36
14	-89	70
11	-203	138
-5	-247	25
-30	-196	75
-56	-85	247
-65	27	250
-50	70	181
-13	29	105
32	-62	-109
66	-127	-517
78	-110	-560
64	-5	-235
40	135	-86
19	230	-64
10	224	-122
4	117	-91
-8	-22	-126
-34	-120	-58
-64	-131	118
-87	-69	70
-85	10	94
-53	46	36
-7	18	-34
34	-45	-50
48	-92	-30
35	-77	61
8	1	65
-10	98	102
-3	165	86
24	171	78
55	127	35
69	67	-34
52	29	-27
14	23	4
-31	28	61
-62	17	64
-72	-33	46
-65	-105	32
-53	-168	-61
-45	-187	-229
-41	-149	-368
-34	-72	-289
-18	8	-8
10	62	64
42	85	28
63	84	-20
67	81	-92
52	88	-136
30	99	-111
9	96	66
-4	60	134
-12	-6	203
-21	-89	259
-35	-154	167
-53	-175	79
-68	-149	-60
-71	-88	-201
-59	-25	-298
-32	13	-412
6	15	-368
40	-11	-215
65	-34	-71
77	-35	-15
74	-2	25
60	50	29
41	92	13
19	101	155
-1	63	249
-20	0	280
-35	-63	219
-47	-97	136
-55	-88	70
-60	-44	-124
-60	9	-182
-53	48	-55
-38	64	-21
-14	58	-93
17	43	-111
49	31	-88
77	22	-138
91	14	-140
86	3	-34
64	-7	28
25	-16	2
-16	-15	3
-55	-7	-33
-81	-1	-60
-92	0	33
-88	-8	129
-72	-17	186
-53	-21	134
-30	-19	12
-4	-16	-121
25	-24	-330
52	-38	-387
74	-55	-203
82	-54	17
75	-29	57
54	15	38
27	57	101
2	71	125
-20	49	189
-33	7	137
-47	-24	63
-59	-19	164
-68	24	128
-67	71	-99
-46	81	-160
-10	30	-196
34	-69	-368
70	-166	-443
86	-202	-395
77	-155	-87
48	-43	150
16	68	179
-8	121	225
-20	89	30
-25	0	-38
-28	-90	6
-36	-126	-26
-49	-97	-54
-56	-34	-110
-53	14	-60
-40	13	-71
-22	-25	-75
-3	-60	-33
9	-48	32
18	22	194
26	123	189
37	201	158
46	210	57
51	147	-185
42	43	-319
21	-43	-254
-7	-82	-115
-35	-69	-38
-52	-33	38
-58	-12	47
-53	-19	127
-45	-43	136
-36	-59	91
-26	-46	54
-14	-6	-39
4	41	-36
24	72	-64
40	77	-15
46	55	114
36	34	95
16	24	69
-6	26	1
-23	26	-63
-27	11	-83
-18	-23	-223
-5	-66	-277
5	-97	-241
3	-100	-157
-5	-77	-98
-16	-38	-38
-21	-5	52
-12	15	121
9	20	204
36	23	118
58	30	16
66	43	-62
59	53	-95
40	49	-54
14	25	37
-12	-13	51
-31	-53	22
-47	-84	59
-56	-95	41
-63	-89	-19
-62	-71	-101
-55	-48	-141
-36	-22	-210
-10	11	-134
15	51	117
32	105	238
34	168	224
21	233	189
-1	286	102
-21	308	-113
-28	274	-302
-15	169	-365
11	-5	-341
37	-215	-254
52	-411	-185
44	-533	-122
16	-547	-18
-25	-453	79
-60	-292	57
-71	-126	-5
-53	-4	45
-11	54	151
36	67	210
69	71	196
81	95	24
68	138	-155
41	179	-172
13	189	-195
-7	149	-193
-22	74	-102
-34	-6	105
-48	-56	185
-67	-63	76
-85	-33	87
-89	10	64
-78	45	42
-50	66	-42
-13	70	-62
27	67	-44
59	60	-102
82	45	-124
92	27	-211
86	3	-125
67	-11	-75
36	-11	-20
1	1	113
-31	14	121
-54	7	91
-63	-21	106
-63	-66	17
-54	-103	-187
-44	-109	-129
-34	-78	61
-22	-21	174
-5	32	168
17	65	155
40	70	111
59	62	-144
66	57	-352
62	67	-334
47	87	-116
27	98	-39
2	87	-25
-22	44	117
-45	-12	1
-63	-70	-192
-74	-114	-133
-69	-135	-85
-52	-138	-132
-26	-123	-117
2	-93	-48
26	-47	47
39	6	87
44	56	60
44	89	22
42	92	46
40	68	65
34	30	25
18	-4	33
-5	-23	8
-34	-32	-14
-57	-39	15
-70	-61	31
-70	-93	45
-56	-120	59
-36	-121	85
-13	-84	85
8	-17	111
28	59	79
44	118	-98
58	143	-217
65	134	-203
60	106	-190
46	77	-214
22	49	-98
-6	25	10
-34	-2	28
-55	-33	23
-68	-66	-20
-72	-94	8
-67	-106	32
-53	-108	19
-31	-101	-41
-8	-90	-117
16	-70	-88
34	-39	-26
46	7	74
50	64	141
46	115	43
38	143	-76
24	137	-135
10	100	-126
-6	38	-147
-21	-26	-90
-34	-82	40
-41	-123	98
-42	-143	138
-39	-141	180
-30	-107	190
-22	-38	147
-15	58	85
-7	162	-27
1	241	-136
11	268	-328
22	233	-518
36	141	-373
48	20	-118
59	-102	4
61	-206	60
52	-278	84
31	-313	26
-2	-308	-115
-38	-260	-176
-67	-181	17
-80	-83	100
-69	9	37
-40	71	152
-1	96	66
35	93	-192
56	86	-242
60	94	-165
49	120	-150
30	150	-54
12	156	-20
-6	123	-48
-21	59	1
-34	-14	60
-46	-69	141
-54	-91	87
-56	-83	74
-52	-65	59
-43	-53	36
-33	-51	28
-24	-44	59
-16	-18	122
-10	34	133
-2	106	164
8	174	215
19	214	316
31	213	225
42	171	25
53	102	-150
59	15	-353
54	-72	-540
35	-153	-581
3	-207	-249
-37	-227	37
-71	-205	63
-84	-152	124
-68	-89	67
-28	-39	-44
20	-17	-158
57	-15	-142
71	-16	-32
62	3	-10
36	47	138
13	99	167
-2	131	37
-8	121	-41
-12	67	-16
-22	-12	-36
-40	-80	-77
-59	-110	-44
-68	-102	-109
-62	-64	-121
-42	-25	-64
-13	0	21
12	8	47
31	9	5
42	16	-22
50	31	-44
54	50	-4
54	65	17
44	74	43
21	74	97
-11	71	39
-44	63	21
-65	39	74
-67	-6	-52
-52	-77	-172
-28	-151	-194
-8	-200	-181
3	-194	-130
7	-127	-87
9	-16	-9
16	101	56
30	181	186
45	200	225
54	161	145
51	92	151
33	21	58
7	-30	-130
-22	-59	-261
-44	-78	-257
-60	-93	-106
-66	-107	-6
-68	-108	-18
-64	-90	35
-54	-51	90
-36	-2	-13
-11	40	-279
16	62	-412
42	61	-111
59	50	116
65	43	-24
59	43	-227
44	53	-200
23	60	-5
3	56	101
-18	34	191
-34	3	252
-43	-35	466
-47	-72	458
-43	-103	116
-34	-126	-149
-21	-131	-356
-5	-115	-387
11	-75	-311
26	-15	-251
39	47	-103
49	97	-14
54	117	-80
52	106	-75
41	72	-46
22	32	49
-2	-5	79
-26	-35	96
-45	-58	133
-58	-81	-34
-63	-98	-51
-60	-106	19
-52	-98	33
-39	-70	18
-22	-31	16
-2	16	135
17	60	160
36	99	98
49	134	34
57	163	-18
53	177	6
42	164	49
23	115	2
3	29	-111
-16	-69	-211
-30	-154	-259
-42	-196	-330
-52	-188	-205
-57	-143	-72
-56	-88	-19
-45	-45	28
-24	-25	-1
6	-19	65
39	-2	87
63	33	168
75	85	112
68	131	81
48	149	32
20	123	-151
-8	63	-241
-31	-2	-226
-51	-43	-138
-66	-45	-22
-82	-14	110
-88	21	118
-83	31	164
-60	-4	86
-22	-76	-75
27	-155	-132
71	-203	-41
102	-186	-7
107	-102	-57
91	23	3
60	143	39
28	210	45
4	201	21
-10	122	9
-16	14	10
-22	-82	129
-31	-128	225
-43	-123	39
-53	-85	-158
-55	-41	-165
-48	-19	-242
-28	-21	-351
-4	-36	-419
23	-43	-397
46	-32	-147
59	-1	152
61	40	306
50	78	265
30	103	124
3	105	-47
-22	85	-162
-40	40	-145
-48	-24	-160
-45	-92	-164
-39	-140	54
-35	-143	134
-35	-94	100
-35	-8	71
-32	84	48
-14	139	77
12	141	119
40	93	173
61	25	113
64	-27	-97
51	-45	-256
25	-31	-161
-3	-16	-209
-26	-16	-268
-40	-43	-196
-49	-85	-20
-55	-117	63
-58	-122	62
-57	-97	38
-48	-58	-157
-30	-21	-22
-5	4	74
21	24	17
44	48	4
58	84	-5
65	120	20
63	139	-2
50	130	49
29	86	104
-3	24	110
-40	-34	-43
-75	-69	-138
-95	-82	-32
-91	-80	44
-63	-72	-67
-20	-70	-130
23	-64	-117
52	-40	-96
59	14	-2
48	93	43
28	174	100
14	233	102
16	241	85
30	193	89
52	94	90
65	-24	94
57	-137	125
27	-214	109
-18	-242	-17
-65	-219	-129
-101	-153	-292
-112	-63	-453
-103	24	-396
-79	90	-181
-46	110	-43
-15	85	77
17	16	164
46	-60	155
74	-118	159
92	-121	145
94	-65	85
72	22	-111
36	103	-213
-6	129	-161
-40	79	-181
-57	-34	-185
-55	-155	-71
-43	-231	102
-32	-222	187
-27	-134	171
-28	-12	100
-22	88	-27
-7	131	-82
18	120	-123
44	89	-199
58	77	-156
54	98	-86
36	127	18
14	127	-14
-4	64	-41
-10	-52	-66
-14	-175	-20
-21	-246	47
-37	-228	-68
-57	-133	49
-69	-13	12
-66	71	-42
-41	92	-87
-4	58	-44
32	21	135
54	24	103
60	80	102
51	162	91
39	215	96
29	208	74
20	130	54
8	17	-65
-12	-88	-179
-36	-151	-168
-61	-163	-211
-77	-148	-282
-76	-124	-246
-58	-107	-129
-33	-89	-96
-6	-58	26
16	-13	173
34	40	87
47	81	22
57	97	-7
61	89	-70
56	63	-92
41	40	18
20	21	178
-7	3	154
-29	-23	166
-45	-60	63
-53	-98	-198
-54	-121	-239
-50	-112	-138
-43	-74	-68
-28	-16	17
-6	38	22
20	76	38
44	95	127
60	104	120
62	118	22
49	138	-111
25	159	-91
-1	164	-23
-26	135	9
-40	65	122
-45	-38	175
-42	-159	174
-32	-269	44
-20	-337	-105
-8	-340	-130
1	-273	-193
9	-145	-282
13	4	-289
16	135	-209
20	213	-66
28	217	85
35	166	137
42	90	35
41	27	-88
32	-3	-84
10	2	-64
-19	16	-203
-48	15	-193
-72	-11	16
-83	-56	-2
-79	-105	-13
-59	-135	5
-32	-139	-15
-3	-121	13
21	-84	17
35	-28	113
36	43	155
25	130	123
6	215	122
-17	270	54
-36	261	-129
-45	174	-179
-39	16	-137
-18	-171	-53
11	-326	31
41	-400	5
59	-368	21
59	-247	33
41	-87	91
13	58	11
-11	149	-103
-18	174	-153
-4	153	-143
22	109	-110
48	68	-111
58	47	54
44	41	76
8	41	7
-30	40	-21
-58	28	2
-65	8	10
-56	-21	2
-38	-50	100
-25	-75	70
-24	-87	-11
-28	-80	-50
-30	-51	-23
-21	-6	26
2	45	77
32	89	7
56	112	-132
63	113	-103
57	98	-62
35	74	-57
9	48	-96
-14	20	-22
-32	-7	-30
-45	-40	-175
-56	-76	-185
-64	-103	-210
-67	-114	-176
-61	-103	-149
-46	-71	-92
-21	-32	-15
5	6	58
30	31	229
49	45	311
57	52	349
58	61	372
53	68	317
44	71	154
27	58	-83
6	24	-350
-19	-25	-592
-43	-80	-603
-60	-120	-454
-67	-133	-187
-61	-115	111
-46	-71	221
-24	-17	308
0	36	243
21	77	76
38	102	-43
51	108	-196
57	99	-165
55	77	-90
44	42	39
25	7	196
2	-25	151
-26	-43	-27
-48	-47	-265
-65	-44	-312
-71	-43	-178
-67	-60	-76
-54	-93	45
-32	-134	117
-4	-162	122
25	-159	120
50	-114	35
66	-37	-41
72	47	-9
67	117	48
55	149	53
36	142	103
15	108	113
-8	72	95
-34	57	18
-60	66	-119
-84	87	-111
-96	93	-113
-92	59	-145
-64	-21	-8
-23	-131	79
27	-230	-10
66	-270	-18
86	-227	-16
82	-109	-86
63	40	-127
42	161	-117
29	202	-98
29	156	-83
31	50	-117
26	-58	-115
6	-122	-31
-26	-120	12
-64	-71	151
-91	-19	65
-95	7	-87
-77	-8	-97
-42	-39	-15
-6	-56	112
20	-30	82
34	32	-19
36	104	-90
36	155	-35
34	161	-27
32	128	-33
24	77	3
10	37	16
-12	15	-43
-38	5	-108
-59	-9	-79
-72	-41	77
-72	-86	235
-61	-129	294
-38	-151	213
-10	-139	-49
21	-98	-403
48	-36	-486
66	28	-377
74	82	-410
67	114	-229
52	121	-36
32	100	84
12	55	155
-6	-1	-9
-23	-54	25
-41	-85	52
-58	-89	91
-69	-72	176
-70	-52	155
-56	-46	137
-32	-55	32
-1	-70	-22
27	-65	-121
47	-27	-92
56	41	19
56	120	49
50	168	128
42	168	141
33	116	53
20	39	-5
1	-27	1
-24	-65	-84
-47	-74	-203
-65	-74	-227
-76	-83	-150
-72	-104	-104
-60	-119	-57
-42	-102	9
-24	-34	37
-6	71	151
10	179	162
25	243	64
38	232	-47
52	152	-147
63	33	-128
70	-77	-144
68	-144	-83
51	-160	-28
20	-138	-23
-21	-109	-49
-59	-94	-114
-85	-98	-9
-88	-104	37
-69	-89	-10
-42	-36	-23
-17	56	-5
-1	161	29
6	240	52
16	252	133
39	179	228
74	37	219
107	-127	152
118	-250	84
94	-282	-72
33	-213	-265
-45	-80	-436
-107	46	-331
-130	102	-134
-110	57	-167
-62	-51	-141
-14	-162	-142
16	-201	-77
20	-142	26
13	-9	77
8	131	81
20	215	60
42	209	110
61	133	119
62	44	60
36	-14	-86
-2	-19	-98
-41	8	138
-64	26	164
-68	15	9
-58	-29	95
-46	-72	23
-38	-89	-222
-30	-60	-289
-20	-2	-115
1	53	98
27	84	110
52	82	48
68	65	-75
68	54	-171
56	60	-292
36	70	-363
15	62	-203
-6	25	-54
-27	-43	-20
-51	-113	58
-74	-159	174
-88	-163	221
-84	-129	178
-63	-80	82
-30	-31	30
5	2	-117
33	27	-211
48	56	-43
52	93	76
54	131	126
50	153	82
45	145	-46
35	103	-78
16	38	-63
-10	-31	11
-35	-90	1
-53	-128	-90
-59	-153	-89
-51	-160	-126
-39	-157	-101
-29	-132	-63
-26	-86	-47
-26	-20	37
-23	51	26
-10	110	24
15	144	19
48	150	18
81	132	65
95	106	55
87	70	60
53	27	61
9	-32	59
-36	-101	13
-65	-167	-21
-75	-205	-60
-63	-195	-132
-40	-137	-104
-14	-47	-34
8	39	-2
24	100	-42
35	116	-40
44	104	-9
50	84	-30
50	79	-109
39	93	-139
17	115	-65
-12	121	-62
-40	91	18
-61	23	21
-66	-68	-29
-59	-158	107
-45	-213	208
-28	-219	173
-15	-175	16
-6	-98	-115
1	-13	-118
11	53	-114
26	87	-183
42	90	-153
56	74	-104
58	56	-65
49	45	2
27	43	-69
-1	36	-88
-28	13	-132
-51	-30	-101
-64	-80	-154
-69	-116	-252
-65	-126	-96
-55	-103	-31
-39	-58	59
-18	-12	188
6	26	265
31	49	337
49	66	270
60	84	203
61	104	82
54	117	-153
41	108	-272
25	75	-316
4	19	-255
-18	-36	-139
-41	-76	-5
-63	-83	5
-77	-64	-32
-81	-37	-2
-70	-14	20
-48	-2	53
-21	7	2
7	25	48
27	57	104
40	94	104
50	110	-33
57	91	-63
65	26	113
69	-67	-25
61	-158	-182
39	-210	-137
2	-207	-80
-37	-159	-113
-69	-88	-15
-82	-30	24
-72	-5	14
-48	-13	104
-18	-31	43
6	-36	-14
21	-15	-95
29	34	-76
36	93	-38
41	138	-14
46	153	49
41	134	-2
25	91	-78
-1	34	-62
-33	-20	-104
-57	-64	-197
-69	-95	-142
-68	-109	-76
-56	-103	32
-40	-76	96
-26	-29	39
-16	32	45
-5	96	77
8	149	80
25	177	98
44	170	35
63	126	-74
77	55	-105
77	-24	-160
62	-92	-165
32	-127	-16
-7	-129	74
-49	-106	20
-80	-79	21
-94	-69	-25
-84	-82	-23
-53	-109	2
-17	-126	-66
17	-112	-26
36	-58	-12
43	21	-24
42	101	-20
42	154	40
44	161	17
46	129	-56
42	78	-57
25	26	-4
-4	-11	32
-40	-34	-82
-67	-50	-142
-81	-68	-142
-75	-85	-6
-56	-90	91
-35	-77	79
-16	-39	91
-4	13	-47
9	63	-116
24	97	-161
44	108	-164
61	98	-115
69	76	-34
61	49	-34
38	23	-99
8	-4	-50
-24	-35	-44
-47	-66	57
-59	-96	71
-61	-112	61
-57	-109	87
-48	-88	127
-36	-49	178
-20	-2	77
2	48	-11
24	95	-25
44	129	-63
56	145	-86
61	135	-202
57	97	-282
45	34	-158
27	-35	-65
2	-93	8
-26	-122	65
-54	-122	26
-75	-104	-12
-82	-83	56
-70	-74	140
-47	-78	151
-16	-82	177
12	-69	134
30	-30	-58
39	29	-276
40	89	-298
39	127	-127
39	129	-66
38	100	-99
30	53	8
13	17	100
-14	-6	-25
-43	-16	-98
-68	-28	-102
-80	-52	-38
-71	-91	65
-53	-127	95
-28	-142	97
-6	-120	20
12	-61	-58
23	16	-125
31	86	-19
41	128	59
49	135	-162
54	121	-211
47	96	-196
31	76	-147
4	57	-8
-22	34	2
-43	-3	77
-52	-53	51
-49	-103	22
-38	-135	49
-23	-135	87
-8	-109	87
7	-67	22
24	-30	11
42	-9	-78
57	5	-166
65	22	-124
62	52	41
46	91	98
26	114	75
4	104	85
-14	48	82
-28	-32	41
-40	-108	-34
-53	-142	-59
-66	-122	-46
-76	-58	24
-75	14	-17
-57	60	-86
-27	72	-40
9	56	-38
42	38	-50
62	35	-106
68	56	-176
58	83	-110
39	88	-41
20	58	32
2	-2	7
-13	-74	-46
-23	-128	-74
-31	-148	-198
-40	-131	-245
-47	-98	-168
-51	-62	-63
-48	-41	12
-39	-29	182
-20	-18	179
4	4	110
27	39	113
44	80	55
51	112	-5
46	117	-89
34	97	-86
18	53	-129
1	4	-62
-14	-36	11
-32	-61	-1
-52	-64	46
-76	-60	-11
-93	-49	-144
-94	-43	-187
-74	-42	-74
-29	-41	-66
30	-36	26
89	-17	196
128	15	55
139	56	-43
121	96	-93
79	117	-138
32	112	-40
-10	76	65
-35	17	98
-48	-49	91
-56	-104	60
-60	-135	12
-65	-138	-70
-65	-116	-116
-59	-78	-49
-43	-30	0
-18	19	-32
11	65	-87
36	99	-107
52	115	-64
56	112	55
49	92	133
36	62	102
20	35	46
3	17	13
-15	5	-6
-30	-11	-4
-43	-34	-2
-48	-74	-84
-46	-116	25
-39	-143	150
-26	-140	82
-12	-99	64
5	-31	-163
21	43	-318
37	98	-306
46	122	-257
52	110	-96
50	80	-30
39	44	30
20	15	56
-3	-6	4
-27	-25	-89
-47	-46	-198
-60	-71	-200
-69	-92	-74
-68	-98	68
-60	-87	145
-47	-59	180
-24	-27	232
4	4	201
36	25	29
62	41	-68
82	58	-125
85	74	-164
72	85	-154
48	84	-239
18	63	-130
-13	20	1
-40	-35	21
-57	-87	109
-68	-121	62
-71	-122	24
-70	-95	-3
-61	-45	17
-46	10	27
-24	54	54
4	81	151
32	81	131
57	67	26
69	45	-143
72	28	-182
61	17	-197
40	13	-302
14	5	-249
-10	-16	-137
-31	-51	-42
-47	-93	93
-57	-121	141
-62	-121	155
-61	-86	91
-53	-24	-38
-38	38	-61
-16	85	-95
9	108	-56
29	118	-48
42	130	-97
48	153	-55
48	168	-7
44	143	56
43	55	89
40	-92	126
31	-252	137
11	-368	57
-18	-380	-7
-50	-286	-6
-76	-133	-22
-80	6	-34
-59	71	-47
-21	54	-53
19	-5	50
49	-38	42
63	-4	71
60	91	139
46	194	4
35	240	-120
24	199	-277
13	88	-463
-5	-29	-353
-32	-97	-90
-60	-93	-70
-86	-37	-88
-94	18	13
-84	35	85
-56	7	57
-24	-39	29
8	-64	-17
33	-46	-49
50	8	-24
61	68	4
62	104	79
57	100	47
42	66	53
24	23	62
5	-18	-15
-11	-46	-45
-19	-69	-7
-27	-87	80
-34	-99	85
-44	-95	120
-52	-69	141
-54	-29	21
-41	15	8
-15	51	101
19	72	3
51	83	-152
69	89	-70
69	93	35
55	90	-297
34	71	-479
11	30	-288
-10	-24	-158
-27	-82	-15
-44	-122	-31
-57	-138	-13
-67	-130	-2
-67	-102	26
-58	-69	89
-41	-32	155
-20	10	124
1	57	0
20	105	39
34	138	-67
48	141	-157
57	106	-176
62	45	-52
55	-24	145
39	-76	140
13	-97	169
-16	-90	114
-40	-70	-7
-54	-60	-121
-56	-64	-226
-53	-79	-242
-47	-88	-196
-44	-76	-135
-42	-37	-65
-36	17	36
-21	70	107
9	110	98
49	127	42
89	124	7
110	109	-42
106	83	-68
71	44	-51
16	-7	17
-37	-66	60
-76	-119	55
-87	-145	38
-77	-131	41
-55	-77	23
-36	2	-26
-26	78	40
-23	128	69
-17	142	24
0	122	-103
31	79	-173
66	22	-40
93	-33	59
100	-78	-10
77	-98	-112
30	-87	-143
-26	-47	-168
-76	2	-223
-102	22	-122
-101	-14	40
-76	-116	29
-36	-243	0
2	-334	-48
27	-328	-7
36	-207	12
34	-9	-23
27	186	15
28	298	-6
33	287	19
42	187	53
42	66	129
28	-6	187
-1	-7	142
-34	35	79
-60	62	49
-68	36	22
-58	-36	-170
-42	-115	-165
-28	-139	-70
-21	-93	-137
-20	2	-88
-18	85	-144
-5	116	-111
18	88	-192
42	33	-301
61	6	-23
61	24	98
42	76	24
14	114	-100
-13	99	-135
-32	25	-37
-42	-76	-27
-45	-152	-28
-50	-169	110
-54	-129	56
-56	-64	-15
-46	-12	22
-26	12	-12
6	16	-16
40	24	-139
69	47	-11
86	81	55
84	99	-16
68	85	103
42	39	164
14	-20	141
-15	-61	-7
-41	-75	-162
-60	-63	-159
-69	-52	-115
-68	-56	-100
-59	-74	-5
-42	-87	6
-21	-71	17
3	-24	-30
25	43	-36
44	103	64
56	129	52
62	118	46
57	84	49
44	50	36
24	31	-16
-1	27	-71
-26	25	-69
-51	9	-6
-67	-24	2
-77	-69	18
-71	-113	45
-53	-142	-2
-26	-149	6
6	-127	19
36	-78	-47
55	-7	-133
61	70	-128
57	136	-77
49	162	-83
40	136	-88
31	66	-53
20	-21	-6
3	-90	85
-22	-116	141
-45	-98	140
-64	-61	134
-69	-34	44
-59	-36	-106
-40	-56	-215
-17	-70	-230
0	-56	-190
14	-4	-127
21	62	-56
30	115	13
41	130	94
49	106	55
48	63	16
35	27	7
9	12	-30
-23	10	-6
-50	3	-54
-65	-24	-205
-68	-70	-141
-62	-119	-44
-51	-145	-40
-38	-133	22
-24	-87	-89
-6	-21	-87
16	37	9
42	76	0
64	90	48
75	88	45
69	76	10
52	59	-41
27	36	-88
1	7	-50
-22	-26	-27
-38	-55	-81
-50	-75	49
-59	-76	245
-63	-62	217
-60	-34	19
-48	-1	-271
-29	30	-307
-6	59	-250
18	81	-244
36	92	-159
46	89	-95
51	72	81
51	42	188
46	7	200
33	-23	188
15	-40	138
-11	-41	84
-39	-35	-62
-60	-31	-163
-65	-49	-74
-53	-93	14
-24	-153	-18
9	-200	-6
35	-206	49
46	-149	98
44	-38	91
35	90	70
29	187	-10
29	215	-113
32	171	-85
30	84	-82
17	-2	-86
-8	-49	-49
-39	-52	48
-65	-32	99
-75	-21	36
-66	-38	-1
-48	-74	-82
-28	-99	-165
-12	-83	-143
1	-20	-27
12	65	7
26	137	24
42	164	152
53	145	54
52	100	-120
36	53	-187
11	21	-197
-14	-5	-137
-32	-39	-131
-39	-90	-100
-39	-144	-62
-39	-178	22
-41	-164	84
-42	-103	60
-36	-16	95
-19	61	101
9	100	44
39	100	-30
60	81	-102
69	68	-110
61	76	-81
45	90	29
27	89	26
12	49	-77
-4	-20	-6
-26	-96	12
-52	-147	112
-86	-152	149
-110	-119	-40
-119	-69	-159
-102	-34	-300
-59	-19	-282
0	-17	-179
57	-6	-121
98	27	42
114	76	143
102	120	213
72	136	299
36	114	241
6	63	109
-13	5	-147
-22	-44	-324
-26	-75	-246
-33	-95	-292
-42	-115	-195
-52	-136	-110
-55	-153	-118
-47	-144	119
-26	-101	155
3	-29	164
29	53	225
48	116	167
54	143	130
53	132	16
46	101	-153
36	69	-194
24	45	-185
9	33	-175
-14	15	-36
-39	-17	33
-63	-61	29
-77	-106	48
-76	-127	-30
-60	-117	19
-38	-72	103
-14	-16	63
7	37	43
23	72	4
34	88	-9
42	94	-151
44	100	-203
39	112	-102
22	125	-90
-2	128	-58
-27	109	43
-45	55	103
-49	-29	-21
-39	-134	-147
-18	-227	-174
2	-280	-120
14	-268	13
13	-190	103
6	-66	106
0	61	117
4	149	128
20	178	-1
40	150	-156
54	100	-179
52	64	-62
32	54	5
1	58	-65
-31	43	8
-54	-13	39
-63	-108	-43
-61	-200	-20
-52	-246	-63
-39	-218	-107
-23	-130	-116
-1	-32	-112
24	30	-99
47	33	-60
63	0	47
66	-22	96
57	0	139
40	71	115
24	149	77
13	179	82
5	130	-7
-9	22	37
-30	-95	77
-57	-165	26
-79	-154	-101
-87	-84	-128
-72	2	43
-42	57	54
-5	66	26
25	50	-100
40	40	-273
43	59	-250
41	103	-203
38	138	-210
38	138	-96
34	95	-45
22	27	-12
-1	-35	74
-30	-66	13
-58	-67	29
-75	-56	69
-76	-55	58
-66	-74	40
-50	-100	43
-32	-110	12
-12	-84	-14
10	-26	-24
35	45	-67
59	104	-71
76	127	-44
79	114	87
64	78	149
40	35	116
9	-1	10
-17	-30	-190
-36	-52	-201
-47	-71	-112
-51	-87	22
-51	-93	103
-47	-84	77
-40	-62	7
-24	-32	-108
-4	-2	-115
18	23	-170
36	43	-178
48	58	-10
51	69	37
46	72	-3
36	64	-47
20	43	-80
2	11	-55
-19	-29	11
-37	-68	86
-52	-97	82
-59	-109	34
-59	-95	-51
-49	-61	-88
-34	-13	-57
-18	38	-49
2	76	-21
22	86	20
42	64	42
60	24	98
71	-17	128
69	-35	87
49	-16	14
16	32	-28
-23	84	-15
-54	110	-156
-71	90	-249
-69	20	-140
-54	-76	-43
-34	-163	60
-15	-214	86
0	-208	69
11	-154	35
20	-69	-10
32	16	-79
42	85	-182
50	126	-109
49	139	12
38	136	-3
16	126	-30
-15	115	86
-43	100	149
-63	70	7
-69	16	-128
-58	-65	-125
-37	-165	-89
-12	-252	-203
7	-291	-145
18	-261	-44
20	-166	-94
21	-33	-90
27	87	-9
39	155	59
50	158	-75
50	118	-57
30	74	97
-10	57	196
-57	80	321
-96	115	287
-105	128	203
-80	89	11
-28	0	-333
28	-109	-560
69	-192	-455
82	-222	-90
65	-184	96
36	-109	47
12	-27	84
4	31	83
13	58	-4
33	63	-110
46	63	-183
47	65	-91
31	69	10
0	61	51
-31	37	33
-57	-2	22
-70	-45	24
-74	-71	24
-66	-74	57
-52	-46	87
-36	-5	113
-16	40	49
5	81	-85
24	105	-178
37	117	-155
44	109	-77
44	86	-45
36	43	-13
24	-9	27
8	-61	37
-11	-101	24
-33	-117	69
-52	-113	116
-65	-92	86
-69	-62	26
-63	-30	9
-48	5	19
-29	45	-58
-11	89	-190
8	120	-235
26	127	-149
46	98	-55
66	35	-30
81	-38	-52
83	-100	-35
64	-125	8
29	-116	-78
-15	-85	-87
-52	-57	134
-76	-52	238
-77	-66	180
-61	-88	76
-42	-92	-103
-24	-64	-214
-12	-11	-267
-1	51	-234
14	102	-155
34	127	-38
53	123	-55
66	104	-66
63	76	118
43	47	164
16	17	138
-14	-17	18
-36	-53	-44
-49	-86	-15
-55	-99	-79
-62	-89	-48
-63	-53	63
-62	-3	82
-49	48	-23
-25	83	-76
7	93	-120
39	84	-214
64	55	-172
77	21	-74
76	-14	10
66	-40	133
48	-54	184
28	-54	181
1	-42	116
-28	-29	34
-54	-22	-82
-75	-33	-125
-77	-62	-135
-64	-97	-153
-39	-117	-150
-14	-102	-218
5	-49	-241
13	33	-236
16	113	-121
21	158	8
31	149	47
49	90	62
65	13	108
69	-50	116
57	-70	136
27	-52	205
-13	-15	245
-48	10	229
-70	5	69
-76	-27	-67
-65	-59	-123
-49	-67	-211
-33	-35	-228
-20	21	-141
-4	76	-122
16	98	-69
40	81	-67
62	35	-30
72	-5	93
68	-19	123
42	-2	118
4	28	42
-36	43	9
-64	25	53
-76	-30	95
-70	-99	-24
-53	-149	-148
-34	-160	-208
-15	-122	-313
2	-51	-265
16	31	-110
28	103	-20
34	155	49
35	183	113
25	188	41
12	169	-112
0	117	-97
-7	30	71
-7	-87	54
-3	-205	-54
-5	-294	-111
-17	-321	-37
-36	-271	4
-54	-166	-22
-59	-41	58
-45	55	74
-11	98	121
29	95	119
64	70	138
81	65	77
76	89	-32
54	132	-20
24	158	38
-5	137	25
-31	63	-36
-48	-40	-44
-57	-129	-205
-55	-170	-226
-42	-148	-158
-22	-88	-144
2	-23	-99
16	14	-57
21	18	-35
14	10	-44
8	13	3
7	40	45
18	84	95
36	122	111
49	131	79
48	104	-5
28	50	-36
-3	-8	-11
-35	-48	-53
-56	-66	-41
-60	-69	10
-53	-72	-26
-42	-83	-95
-36	-90	-69
-31	-87	-95
-25	-55	-178
-11	7	-130
11	88	-43
34	160	2
54	197	46
61	183	91
52	113	55
35	9	69
16	-101	64
-3	-179	-18
-20	-203	16
-35	-177	64
-50	-113	30
-63	-47	-86
-67	-2	-179
-59	12	-289
-39	7	-233
-10	4	-30
19	17	77
40	47	318
53	75	362
59	84	162
58	65	-35
52	31	-239
42	3	-399
22	-10	-345
-3	-7	-151
-32	-12	-21
-55	-41	152
-68	-98	64
-69	-154	-40
-62	-171	-70
-54	-123	-82
-44	-14	-82
-32	110	-143
-12	200	-19
18	207	0
54	137	-27
89	27	-18
107	-70	8
104	-115	-12
77	-107	-40
34	-68	8
-11	-38	11
-46	-38	34
-69	-64	51
-78	-99	83
-74	-115	100
-62	-102	95
-46	-63	64
-24	-15	37
0	35	28
26	79	3
48	114	19
63	139	33
65	151	11
56	142	-23
37	110	-51
15	62	-103
-10	13	-59
-30	-29	13
-46	-54	2
-54	-67	-87
-59	-71	-117
-56	-70	-48
-48	-59	-144
-34	-34	-213
-13	5	-85
10	54	-10
34	93	-46
53	110	-5
63	96	-26
63	58	-19
50	14	53
28	-23	3
2	-42	-15
-26	-49	-75
-49	-49	-34
-65	-53	64
-74	-62	121
-72	-72	179
-61	-79	170
-42	-76	64
-15	-63	-181
14	-43	-268
41	-18	-238
61	13	-181
71	49	-155
69	84	-135
61	106	-26
45	106	-4
25	81	0
2	32	29
-23	-22	17
-47	-64	63
-66	-90	98
-76	-96	90
-70	-92	142
-53	-85	150
-28	-74	95
0	-54	37
25	-18	-39
42	35	-101
51	92	-128
53	130	-244
49	135	-361
39	103	-273
22	44	-96
-1	-20	-23
-29	-68	18
-55	-93	50
-77	-93	-22
-88	-69	24
-90	-28	18
-83	23	-30
-68	78	28
-50	113	34
-21	112	42
18	59	-6
65	-32	2
109	-129	-57
137	-191	-150
138	-182	-83
107	-110	31
58	-12	138
4	59	134
-37	64	116
-58	3	97
-60	-86	13
-55	-147	-58
-50	-143	-143
-49	-74	-201
-48	23	-84
-40	103	-11
-19	131	14
12	112	76
44	71	30
69	40	-40
79	41	-92
72	60	0
52	80	72
27	77	85
-3	45	31
-37	2	23
-70	-38	2
-100	-63	-68
-112	-76	77
-103	-76	71
-68	-70	-3
-20	-58	-47
31	-29	-154
69	19	-289
86	80	-257
82	131	-82
63	158	-113
44	144	-141
30	96	-117
21	27	7
12	-43	79
-5	-97	60
-31	-131	135
-61	-147	133
-85	-144	32
-91	-132	-67
-77	-107	-147
-47	-72	-134
-12	-31	-112
16	10	-237
31	45	-204
34	75	37
31	95	225
29	109	279
30	113	254
34	103	140
34	77	-6
26	33	-108
9	-18	-131
-13	-62	-58
-36	-88	-127
-54	-88	-139
-62	-68	-77
-63	-47	-151
-53	-37	-189
-34	-42	-124
-10	-53	7
18	-48	87
42	-15	76
54	53	-59
51	135	-81
34	196	-16
11	206	12
-6	147	57
-15	37	93
-14	-90	82
-11	-185	21
-15	-219	17
-28	-190	-41
-45	-123	-84
-54	-58	-10
-44	-29	93
-14	-42	97
28	-77	30
64	-96	0
85	-74	-71
84	-4	-127
66	84	-116
41	150	-77
20	158	-57
7	106	0
-5	14	56
-22	-75	-8
-43	-121	-39
-64	-116	-13
-77	-70	-32
-72	-18	-36
-54	18	-39
-25	30	-41
3	29	-16
23	39	-9
34	68	-38
39	120	7
40	168	54
40	190	20
38	174	34
29	120	6
14	45	-126
-7	-29	-195
-29	-87	-98
-49	-122	-30
-60	-131	101
-63	-126	279
-57	-110	237
-42	-86	89
-20	-56	8
9	-22	2
34	14	-236
52	49	-452
58	74	-473
52	77	-392
39	58	-195
23	17	-83
8	-32	51
-6	-75	47
-21	-99	39
-39	-98	60
-55	-80	98
-69	-54	129
-71	-32	45
-59	-16	112
-39	3	130
-14	31	62
6	70	-134
18	107	-189
24	130	34
30	119	-19
40	72	-1
52	5	61
62	-64	27
62	-113	118
48	-128	-51
21	-115	-76
-12	-89	-69
-41	-62	-186
-61	-44	-50
-71	-27	54
-76	0	91
-77	43	72
-78	103	57
-70	158	152
-52	191	168
-15	185	-27
36	141	-244
92	76	-252
133	3	-232
149	-58	-175
127	-108	6
76	-152	62
10	-198	68
-50	-243	13
-85	-265	-26
-91	-250	-8
-71	-182	16
-43	-77	-7
-14	36	-60
7	116	-86
21	145	-205
32	128	-185
40	92	-64
47	69	0
46	76	63
36	100	138
16	115	210
-12	100	179
-36	50	106
-55	-17	-8
-64	-67	-176
-64	-90	-282
-59	-78	-260
-50	-52	-141
-37	-33	41
-19	-24	85
1	-19	45
23	1	5
41	40	-8
54	95	23
56	134	-91
49	136	-122
34	97	-93
12	26	-31
-11	-44	-37
-33	-92	-33
-49	-105	-4
-57	-97	-34
-55	-80	99
-47	-65	215
-32	-56	312
-15	-39	332
6	-6	352
23	41	175
38	88	-340
49	113	-565
52	108	-446
50	70	-248
40	20	-222
24	-28	-211
3	-56	-71
-20	-66	5
-40	-66	104
-59	-62	43
-70	-62	-49
-76	-59	89
-68	-46	145
-53	-16	115
-28	26	7
2	72	-136
33	109	-56
60	123	-42
79	108	-76
86	67	-149
82	10	-101
67	-48	34
42	-95	8
12	-119	69
-17	-120	52
-42	-105	47
-55	-89	108
-57	-81	181
-49	-86	182
-36	-99	57
-20	-104	-22
-5	-86	-58
9	-35	-133
23	41	-242
33	131	-133
39	208	-85
35	253	-170
22	257	-122
1	218	-79
-19	140	-11
-32	32	77
-33	-88	99
-27	-201	67
-21	-280	-17
-22	-304	-11
-33	-264	3
-44	-178	-166
-47	-71	-325
-34	19	-289
-6	71	-115
30	85	24
60	77	85
70	68	83
60	72	69
36	83	60
9	84	77
-13	60	55
-26	14	52
-35	-37	82
-42	-71	82
-50	-71	4
-56	-42	-102
-54	-2	-33
-42	30	49
-19	41	32
7	39	24
29	36	58
44	48	76
51	72	57
52	99	12
49	109	11
42	92	12
31	51	-202
12	0	-360
-12	-46	-381
-35	-82	-379
-52	-101	-170
-60	-110	9
-58	-114	191
-50	-105	242
-39	-82	129
-30	-37	98
-22	17	21
-12	68	-89
3	102	-176
24	106	-126
48	85	-24
70	51	-29
84	21	-44
79	4	49
53	-2	111
12	-5	105
-34	-23	94
-72	-57	20
-89	-102	-19
-83	-135	-149
-55	-138	-254
-23	-97	-171
5	-17	-91
20	70	-15
24	135	12
30	145	-58
42	95	-23
63	3	87
83	-85	113
85	-131	137
60	-122	158
13	-65	196
-45	1	152
-90	41	25
-107	35	65
-96	-4	-48
-65	-44	-326
-33	-57	-526
-12	-26	-478
-2	29	-306
2	82	-247
7	106	-17
19	96	142
32	65	219
40	31	228
42	6	159
34	-21	122
26	-56	129
16	-104	242
5	-149	149
-11	-169	-30
-32	-149	-151
-55	-90	-205
-68	-24	-181
-62	26	-245
-37	41	-95
2	32	64
36	28	-141
56	47	-215
55	92	-149
40	133	-77
24	143	2
11	102	31
5	22	-57
-2	-56	-81
-15	-105	24
-37	-105	49
-59	-75	133
-72	-41	141
-68	-27	103
-46	-32	130
-16	-34	89
14	-11	67
37	43	89
51	109	33
58	155	-105
60	156	-273
57	112	-170
46	45	0
26	-12	-104
-1	-42	-23
-27	-51	74
-48	-53	46
-60	-66	-70
-64	-94	-171
-61	-117	-81
-53	-118	-37
-42	-84	21
-23	-21	160
0	55	233
26	125	145
46	174	31
54	206	-156
49	215	-315
39	197	-316
28	134	-193
21	20	-11
21	-129	120
18	-277	147
7	-364	84
-19	-352	-14
-51	-238	-43
-80	-71	43
-89	80	18
-75	155	4
-42	136	16
-1	62	0
32	-7	-97
49	-21	-215
52	23	-244
49	88	-276
48	110	-75
49	60	158
48	-49	125
34	-167	245
7	-229	228
-32	-206	0
-65	-117	-189
-84	-20	-406
-78	34	-308
-53	30	-183
-22	-6	-63
2	-26	104
11	5	124
11	88	181
7	183	331
11	241	409
22	228	155
36	145	-242
43	29	-351
39	-79	-201
21	-145	-139
-6	-167	-122
-31	-155	-242
-52	-126	-320
-60	-97	-227
-60	-71	-126
-51	-49	125
-33	-28	145
-12	1	70
12	32	41
30	78	24
44	127	150
48	173	134
46	195	194
38	179	196
28	120	57
12	40	33
-7	-28	89
-31	-55	141
-57	-32	16
-77	18	-128
-84	55	-168
-67	41	-214
-33	-32	-228
12	-138	-168
57	-232	-282
90	-259	-244
104	-208	-110
98	-98	-67
77	24	149
46	105	194
17	121	92
-12	76	26
-39	3	38
-64	-59	34
-87	-86	6
-96	-72	1
-89	-39	-20
-62	-5	91
-23	15	95
18	24	-54
46	30	-98
57	43	-176
51	64	-201
34	81	-205
21	84	-217
18	64	11
25	28	161
32	-11	97
26	-41	34
4	-52	105
-29	-52	138
-62	-48	17
-83	-53	-48
-80	-67	-124
-58	-82	-178
-30	-82	-59
-4	-57	15
13	-12	64
22	43	142
27	90	130
36	119	44
46	125	-48
55	116	-90
54	99	-141
41	80	-173
16	55	-147
-14	19	-72
-40	-28	2
-60	-82	-7
-68	-127	22
-68	-150	37
-59	-140	42
-43	-101	51
-21	-43	20
4	20	120
26	81	91
40	127	56
42	161	112
38	170	53
27	154	-128
17	101	-503
9	19	-543
4	-74	-203
-5	-157	14
-15	-201	103
-26	-205	-70
-35	-171	-170
-38	-122	-128
-33	-72	-16
-20	-34	84
-7	2	125
5	45	306
15	94	138
22	134	-32
33	143	-140
44	109	-165
56	37	-34
55	-41	37
36	-87	84
-2	-75	112
-47	-14	34
-87	51	-99
-104	74	-7
-89	22	29
-50	-90	14
3	-207	-96
49	-269	-226
76	-229	-183
78	-98	-83
62	68	-37
43	198	-99
31	236	-29
29	177	47
31	66	65
27	-34	41
10	-80	40
-22	-62	46
-57	-17	-8
-86	13	7
-98	1	-30
-90	-45	-34
-65	-91	-22
-38	-100	31
-13	-56	105
5	23	136
20	102	185
34	148	242
48	148	140
58	115	-107
57	76	-364
44	45	-501
20	28	-335
-10	8	-200
-37	-23	-81
-55	-68	62
-62	-113	92
-60	-139	163
-52	-135	162
-39	-103	87
-23	-56	-1
-6	-11	-103
14	26	-84
33	58	-98
49	91	-189
60	123	-154
63	149	-65
55	150	56
39	120	138
16	60	145
-11	-11	147
-34	-79	-2
-53	-124	-111
-64	-144	-144
-65	-145	-34
-60	-133	126
-48	-110	84
-33	-76	112
-16	-24	61
2	45	-105
16	129	-193
25	209	-131
29	264	42
28	268	-71
24	207	-287
26	79	-356
32	-93	-161
39	-264	-57
37	-387	-61
23	-416	8
-5	-345	-100
-38	-203	26
-60	-49	158
-60	62	172
-37	110	205
1	104	171
35	91	121
52	109	-38
49	168	-76
33	233	-103
19	250	-249
17	182	-340
24	33	-232
32	-143	39
24	-277	134
-3	-316	170
-42	-256	154
-84	-142	94
-108	-34	-46
-108	24	-192
-89	31	-112
-55	16	-53
-19	22	-44
16	63	14
49	122	98
81	168	112
104	165	96
111	112	158
97	29	255
59	-40	151
7	-75	-45
-42	-74	-100
-75	-53	-169
-84	-41	-131
-71	-45	13
-51	-61	80
-32	-67	-206
-20	-46	-382
-12	-1	-184
-3	56	-96
10	101	8
27	122	-1
41	117	-18
46	99	3
39	79	-123
23	60	-152
1	41	-48
-18	13	179
-34	-25	281
-45	-68	144
-55	-104	-8
-62	-121	-224
-63	-117	-454
-57	-91	-471
-42	-53	-193
-22	-11	99
2	28	141
23	56	158
40	67	196
56	53	164
68	26	124
74	-4	121
63	-17	86
36	-2	18
-4	32	-56
-44	60	-206
-68	45	-278
-67	-25	-117
-42	-139	26
-5	-248	32
25	-292	26
36	-242	32
28	-108	123
12	51	133
1	171	-24
4	211	-131
19	178	-59
28	114	-124
24	68	-309
4	61	-182
-21	67	48
-36	43	56
-38	-35	77
-28	-149	87
-20	-240	-7
-21	-246	-38
-34	-151	54
-43	7	134
-34	153	48
0	218	24
48	189	34
91	102	-117
107	30	-192
87	18	-27
41	60	108
-8	106	80
-43	94	-137
-56	4	-298
-55	-131	-331
-51	-246	-145
-52	-277	-42
-59	-215	-101
-63	-98	-133
-54	12	-67
-32	68	139
-3	75	90
22	63	43
36	79	43
40	133	77
38	205	155
39	241	116
41	208	-24
42	101	-134
34	-36	-42
12	-147	17
-18	-192	-43
-50	-167	-133
-71	-108	-60
-78	-57	80
-63	-50	49
-35	-84	40
2	-127	53
40	-150	-12
72	-121	-60
91	-49	-174
94	43	-97
80	121	147
52	154	46
20	130	-35
-10	62	-49
-33	-23	-44
-45	-98	-91
-55	-135	-105
-61	-129	57
-67	-92	-9
-67	-38	-83
-59	7	-150
-39	35	-87
-11	47	42
20	55	38
44	71	124
52	100	38
52	135	-92
42	157	-69
31	158	-10
18	132	-7
1	93	14
-22	49	107
-47	6	66
-68	-36	-76
-80	-90	-128
-71	-152	-81
-46	-210	-70
-12	-238	-38
16	-214	-28
30	-132	-77
31	-13	-57
26	106	-45
23	185	-26
28	199	-24
39	154	102
44	81	260
39	11	145
16	-33	91
-16	-55	120
-45	-65	65
-61	-79	-85
-60	-93	-373
-52	-96	-467
-38	-78	-320
-28	-35	-303
-20	11	-312
-12	37	-36
2	30	149
18	0	131
33	-26	334
39	-20	403
37	28	213
32	96	94
29	147	129
33	143	21
36	78	-376
32	-26	-581
11	-129	-602
-26	-190	-428
-64	-194	-76
-92	-149	246
-89	-79	289
-61	-5	109
-23	61	108
10	117	-81
30	162	-165
36	178	-83
40	148	-23
51	58	150
71	-72	87
87	-202	22
80	-280	-26
42	-270	-34
-15	-178	100
-67	-50	138
-93	49	181
-82	84	196
-39	51	68
10	-1	-16
42	-23	-32
46	15	29
32	100	90
14	181	-53
7	207	-182
11	157	-241
18	56	-214
15	-38	-107
-5	-80	38
-37	-52	143
-67	10	166
-81	57	158
-72	53	7
-52	-6	-189
-30	-83	-267
-18	-125	-40
-13	-102	155
-13	-17	85
-7	93	57
6	181	47
28	206	-169
51	164	-400
66	71	-311
70	-36	-207
59	-126	-172
36	-176	7
4	-176	82
-31	-139	111
-61	-82	94
-79	-34	19
-79	-13	-17
-63	-28	-83
-34	-64	-76
-4	-96	126
22	-93	242
38	-40	180
49	45	168
53	134	95
55	186	-11
50	179	-173
36	119	-420
13	33	-555
-18	-41	-214
-46	-85	-68
-64	-98	-261
-71	-98	-165
-65	-102	49
-52	-110	224
-36	-116	133
-22	-97	175
-5	-46	164
13	29	16
32	104	-104
44	155	-270
46	171	-283
34	156	-132
9	123	18
-16	86	20
-34	49	176
-38	9	302
-34	-38	264
-26	-85	292
-22	-121	291
-22	-135	194
-16	-129	-56
-1	-114	-336
27	-103	-396
60	-101	-412
86	-96	-318
93	-69	-169
75	-9	39
40	77	179
6	157	124
-16	193	155
-22	168	48
-21	89	2
-26	-5	-22
-41	-77	-23
-64	-105	9
-80	-95	-90
-72	-74	-104
-41	-61	-89
2	-57	12
39	-38	96
57	14	120
53	96	81
41	178	48
33	215	78
38	185	-21
50	94	-97
52	-17	-50
34	-98	-124
-4	-125	-276
-46	-106	-275
-79	-77	-101
-85	-74	32
-66	-101	30
-40	-135	84
-20	-139	35
-13	-96	24
-14	-13	68
-10	74	59
8	127	16
34	137	48
59	113	51
66	85	-90
52	68	-58
21	64	-136
-15	53	-236
-41	18	-155
-56	-41	-20
-60	-103	155
-62	-137	288
-62	-131	285
-56	-86	149
-43	-29	-14
-18	14	-211
10	34	-302
39	39	-417
54	49	-328
59	72	-405
52	99	-490
42	106	-109
29	74	123
12	2	279
-13	-91	246
-46	-164	250
-80	-194	150
-104	-171	-22
-109	-114	-32
-89	-52	-40
-50	-6	97
-2	19	-82
42	34	-155
74	52	-114
86	80	-190
85	106	-48
77	113	11
66	92	70
57	43	128
47	-13	140
33	-56	130
14	-72	96
-13	-60	67
-43	-36	-16
-69	-17	2
-85	-12	6
-82	-20	95
-61	-31	196
-29	-30	-62
6	-6	-226
34	37	-187
50	94	-219
50	150	-117
40	195	-97
22	213	-70
5	197	24
-11	141	48
-20	43	46
-24	-84	-37
-24	-224	-25
-17	-339	63
-8	-401	141
2	-384	228
7	-291	169
10	-145	-46
10	11	-307
13	131	-363
22	193	-192
33	193	-30
44	158	-2
44	121	-37
32	103	-40
6	106	-82
-23	112	-15
-50	96	62
-65	49	93
-70	-21	118
-66	-90	77
-58	-137	-26
-49	-149	-140
-36	-132	-83
-18	-99	74
6	-60	-72
32	-19	-117
53	29	1
64	84	-89
60	131	-127
48	155	-96
29	136	55
11	74	78
-5	-12	40
-20	-88	112
-36	-130	-36
-50	-131	-399
-62	-110	-506
-66	-85	-185
-57	-72	46
-38	-72	-28
-13	-65	26
11	-33	256
31	29	325
43	104	143
46	168	-43
42	193	-131
30	171	-295
16	114	-161
-1	40	-3
-13	-29	31
-22	-87	126
-27	-126	91
-28	-152	9
-32	-163	-185
-34	-153	-114
-36	-121	61
-29	-69	96
-14	-13	145
10	38	180
36	70	81
56	84	-84
62	87	-85
53	89	-218
36	97	-246
14	105	-71
-10	112	-11
-35	106	78
-59	91	174
-83	62	202
-94	21	166
-85	-31	47
-53	-96	-127
-4	-166	-164
47	-223	-149
86	-245	-55
98	-214	-85
83	-135	-181
55	-27	-46
30	70	13
19	128	-13
20	129	-24
26	84	20
22	20	63
4	-31	127
-26	-54	93
-52	-50	8
-69	-37	14
-69	-27	-34
-57	-24	-87
-40	-20	-110
-24	-2	-36
-10	34	-29
5	81	-164
22	121	-178
42	142	-96
56	136	31
56	114	126
40	83	164
11	54	92
-20	27	41
-47	-8	58
-61	-52	43
-65	-103	6
-62	-136	-141
-55	-138	-182
-49	-101	-49
-36	-34	-7
-20	34	-21
5	75	-38
29	74	-78
49	40	-171
59	-3	-251
59	-25	-153
51	-16	-32
39	14	-162
24	38	-116
5	27	63
-15	-28	-98
-36	-114	-141
-53	-192	-37
-62	-232	-115
-59	-208	-227
-45	-131	-53
-25	-34	210
-1	53	205
20	106	100
39	122	3
52	115	-58
58	105	-158
55	99	-77
44	93	49
25	80	30
1	40	84
-23	-13	133
-45	-69	205
-64	-101	230
-80	-91	120
-88	-37	-68
-88	48	-231
-80	138	-132
-57	211	152
-24	236	167
20	202	62
67	108	32
111	-34	-49
141	-187	-46
149	-309	-58
131	-358	-42
89	-315	-34
33	-196	-106
-22	-50	-121
-61	62	-120
-81	103	-84
-80	66	-104
-68	-6	-150
-55	-63	-36
-49	-71	-16
-48	-25	-30
-43	41	-165
-26	90	-272
4	97	-25
40	74	-26
72	49	18
87	49	103
82	74	119
57	98	194
21	91	124
-15	37	41
-45	-42	-40
-65	-108	-1
-74	-126	44
-69	-86	128
-54	-13	256
-32	55	163
-7	88	-104
14	83	-250
29	59	-261
37	45	-328
40	56	-314
39	75	-86
34	80	145
23	50	86
5	-12	-26
-20	-82	83
-47	-133	51
-67	-144	23
-78	-118	46
-71	-72	3
-53	-33	5
-28	-12	-102
-4	-7	-161
15	-10	-290
29	-5	-363
36	3	-248
42	17	-157
44	24	-26
44	23	-25
38	15	-13
26	0	45
6	-18	8
-16	-41	36
-39	-69	103
-55	-100	210
-63	-119	249
-61	-118	176
-48	-92	135
-29	-40	125
-3	21	-34
22	77	-229
42	116	-107
58	133	82
64	135	54
61	127	-104
50	112	-185
34	89	-62
12	59	-28
-12	20	-39
-33	-21	24
-54	-53	9
-67	-74	93
-70	-77	199
-63	-68	19
-48	-54	-207
-29	-35	-256
-13	-1	-278
-3	55	-384
4	127	-327
9	197	-55
22	221	131
47	169	106
80	31	38
107	-157	82
116	-330	54
94	-419	74
45	-388	134
-16	-254	193
-70	-85	229
-98	40	248
-91	77	298
-56	30	116
-14	-40	-200
17	-64	-546
29	-11	-576
23	106	-222
12	225	-32
7	279	13
11	247	76
18	143	130
20	28	114
9	-50	106
-15	-71	181
-40	-57	147
-61	-42	78
-68	-52	-41
-61	-85	-151
-43	-106	-144
-22	-94	-35
-2	-35	100
16	41	161
32	105	122
46	128	-100
55	109	-375
57	71	-376
48	40	-262
32	29	-174
8	33	-10
-16	27	-36
-39	4	2
-57	-41	108
-66	-89	19
-68	-121	17
-57	-127	-27
-39	-110	-239
-16	-81	-243
7	-45	-142
28	-9	-111
41	34	40
48	79	147
48	115	255
40	125	242
30	96	101
17	35	-53
3	-38	-210
-14	-97	-190
-29	-125	-16
-45	-124	135
-58	-112	27
-65	-107	-87
-62	-112	-152
-50	-118	-56
-28	-102	21
3	-50	-31
32	29	12
57	112	-32
71	168	41
74	179	43
66	150	99
50	103	190
31	58	102
10	31	39
-12	15	37
-34	-4	26
-52	-34	-130
-67	-75	-206
-71	-107	-151
-66	-119	-13
-51	-100	63
-30	-53	42
-4	2	-12
21	52	-117
41	92	-176
56	120	-229
59	139	-179
48	157	-113
26	161	41
-4	138	204
-32	86	181
-49	0	151
-52	-101	-5
-43	-191	-112
-32	-233	-124
-28	-205	-166
-34	-109	-196
-44	28	-126
-45	153	-41
-25	209	-34
17	170	56
72	50	53
117	-98	-24
132	-208	10
110	-235	69
61	-184	74
6	-101	43
-31	-53	-17
-43	-75	-11
-37	-151	39
-30	-225	72
-38	-230	145
-59	-141	160
-79	11	126
-77	160	37
-42	238	-158
11	225	-309
61	152	-413
82	82	-392
62	62	-95
18	98	-20
-24	148	23
-40	158	194
-26	103	238
8	-1	253
33	-101	123
31	-149	-4
-2	-123	-74
-46	-51	-103
-77	18	-166
-78	51	-303
-45	39	-412
-1	3	-387
36	-24	-173
52	-24	-12
46	-6	147
30	15	207
18	22	291
16	12	321
15	-2	105
11	-11	-103
-7	-9	-283
-34	-11	-125
-60	-23	-176
-72	-49	-299
-68	-78	-155
-49	-85	-102
-23	-66	72
-1	-23	142
16	22	174
27	54	128
37	65	98
46	62	96
56	60	16
59	63	19
51	68	-2
32	57	0
4	23	-36
-26	-28	-102
-50	-81	-80
-66	-108	-2
-69	-105	52
-61	-77	60
-44	-43	48
-19	-21	67
10	-9	105
35	1	95
52	26	-18
60	67	-194
57	112	-246
46	135	-137
30	116	96
12	63	192
-10	-8	115
-32	-64	78
-55	-91	-99
-72	-84	-319
-83	-59	-382
-77	-40	-373
-57	-32	-208
-30	-32	-28
1	-29	44
27	-18	85
51	-2	115
70	10	186
85	7	217
92	-3	245
85	-9	258
59	2	256
20	29	77
-21	57	-184
-55	61	-159
-68	24	-160
-65	-44	-337
-50	-123	-565
-37	-173	-601
-32	-168	-291
-37	-108	-123
-41	-13	9
-34	80	151
-15	138	150
15	151	215
41	121	260
58	67	210
54	14	94
37	-21	33
10	-25	-8
-19	-4	-40
-44	29	51
-62	53	126
-69	44	-36
-63	-3	-178
-40	-83	-144
-7	-165	-22
29	-211	21
58	-200	7
72	-124	49
72	-14	32
64	91	-34
56	153	-200
52	155	-197
46	112	-48
33	53	127
7	11	168
-29	-3	107
-67	2	-143
-91	9	-371
-95	-4	-215
-78	-36	-198
-53	-76	-43
-31	-100	115
-20	-92	104
-12	-49	4
-3	17	-44
11	86	54
31	139	-80
50	165	-46
57	154	37
48	108	77
29	34	41
9	-58	-126
-6	-152	-53
-14	-219	19
-18	-248	-66
-24	-219	-86
-34	-147	-33
-44	-48	113
-46	45	183
-32	106	37
-3	129	-72
30	119	-87
58	93	-17
69	65	28
62	51	-45
42	43	-28
19	34	13
-2	18	74
-18	-8	181
-30	-34	132
-42	-57	34
-53	-66	-249
-61	-62	-493
-61	-51	-413
-52	-32	-275
-34	-9	-74
-12	20	104
10	52	134
27	86	100
34	113	108
38	123	112
36	111	129
31	74	178
24	19	134
15	-43	56
3	-97	-96
-8	-131	-372
-19	-142	-341
-29	-130	-47
-35	-103	-19
-40	-68	-57
-39	-38	26
-34	-18	44
-22	-5	79
-5	6	145
14	24	134
34	50	91
50	81	-7
58	99	-190
56	93	-403
43	54	-317
20	-11	69
-10	-82	132
-40	-133	102
-65	-147	127
-80	-122	-57
-82	-72	-233
-67	-16	-213
-44	29	-65
-17	64	-2
9	89	-3
30	110	-12
44	123	66
56	118	58
65	85	51
69	24	108
65	-41	183
49	-85	289
21	-82	210
-19	-31	67
-57	38	-130
-87	85	-257
-97	77	-246
-80	8	-107
-44	-96	65
2	-183	104
43	-210	85
71	-157	-22
79	-41	-190
69	90	-196
50	192	-186
27	225	-176
9	188	-46
-6	103	87
-18	1	155
-31	-82	117
-46	-131	74
-60	-148	-198
-68	-139	-294
-66	-120	-185
-55	-100	-203
-35	-81	-31
-15	-58	38
3	-33	19
15	-5	-155
24	22	-255
33	45	-157
44	60	-86
54	67	101
56	67	144
46	63	196
23	58	112
-8	47	22
-42	32	54
-68	7	77
-80	-27	84
-75	-63	-113
-59	-92	-182
-38	-94	-104
-17	-62	-103
2	8	-8
20	97	34
39	170	-17
56	195	3
71	151	53
78	48	87
75	-74	141
56	-163	152
25	-184	5
-15	-137	-91
-52	-54	-195
-77	10	-162
-82	24	-59
-65	-14	-10
-36	-68	54
-5	-92	18
18	-55	94
28	35	160
28	139	94
24	215	-16
21	237	-124
22	201	-193
24	131	-136
21	55	-92
12	-13	-16
-5	-82	79
-23	-154	-11
-41	-228	-59
-52	-276	-130
-59	-277	-168
-59	-219	-194
-55	-115	-143
-48	-3	5
-33	80	155
-11	112	302
19	105	326
52	86	190
83	83	-60
99	101	-227
98	124	-282
74	131	-221
27	106	-263
-30	64	-230
-84	21	-25
-116	-10	42
-113	-29	92
-79	-55	97
-20	-101	127
36	-159	228
77	-199	162
82	-184	31
60	-105	-48
27	17	-101
3	126	-147
-3	168	-78
10	122	62
27	23	74
31	-69	94
18	-110	43
-13	-81	-161
-46	-20	-338
-69	20	-328
-78	2	-161
-72	-63	-76
-59	-129	16
-44	-143	-23
-28	-76	-71
-7	45	-43
18	168	-81
49	230	16
72	215	82
77	139	112
56	51	156
16	-2	60
-31	-13	-60
-68	3	-59
-85	11	123
-75	-16	248
-43	-75	-34
-5	-145	-300
22	-194	-243
38	-196	-101
38	-148	8
29	-62	79
21	29	37
22	106	-121
31	153	-236
44	169	-176
50	158	-72
43	131	-10
19	94	145
-14	45	174
-45	-17	150
-64	-92	111
-64	-162	49
-51	-213	115
-34	-221	109
-22	-175	37
-16	-89	-35
-13	13	-72
-7	95	-147
11	131	-166
33	125	-104
55	93	-49
64	66	5
54	62	74
28	80	72
-4	92	-91
-33	76	-132
-52	20	-64
-58	-59	-79
-58	-134	-157
-53	-171	-98
-47	-155	-102
-36	-103	-160
-20	-42	-13
2	-1	22
28	13	4
48	14	-26
61	20	-91
62	47	-12
54	84	72
41	113	99
26	106	179
8	61	99
-12	-11	-72
-31	-81	-177
-49	-122	-243
-60	-125	-179
-62	-96	-55
-50	-53	118
-29	-15	112
-4	16	26
17	43	125
32	76	90
38	109	2
40	134	37
40	134	123
36	105	128
30	55	44
14	6	-89
-11	-18	-191
-42	-14	-85
-70	8	-54
-87	14	-122
-85	-19	-130
-60	-97	-115
-24	-196	39
12	-268	55
41	-275	-60
53	-199	-19
52	-68	134
46	67	81
42	155	-196
41	165	-381
42	112	-409
35	35	-276
17	-16	-23
-16	-15	105
-54	30	134
-89	89	147
-112	127	49
-114	124	-68
-99	85	2
-66	26	345
-26	-35	383
20	-93	254
63	-145	-74
101	-189	-483
124	-207	-424
124	-181	-280
104	-101	-207
64	9	-129
21	108	-12
-14	148	10
-35	103	-22
-44	0	8
-48	-114	45
-52	-173	116
-60	-151	193
-64	-58	230
-60	51	250
-42	126	233
-12	141	34
22	106	-84
49	59	-136
63	35	-245
63	44	-204
50	71	-102
32	86	-15
12	74	39
-9	33	16
-29	-16	-23
-46	-54	-1
-56	-72	-19
-62	-76	-49
-57	-76	-18
-45	-72	50
-28	-62	91
-8	-33	100
12	21	126
32	89	71
50	152	-22
60	181	-167
61	169	-219
51	118	-296
30	50	-175
2	-13	110
-28	-55	0
-53	-76	-57
-71	-84	-2
-79	-92	46
-71	-113	-16
-52	-141	-61
-23	-167	49
6	-170	137
34	-136	250
50	-65	174
55	28	87
52	116	33
46	174	-192
41	187	-296
34	157	-529
24	106	-634
2	59	-413
-29	34	-276
-67	20	-28
-93	-1	108
-99	-54	217
-79	-139	207
-39	-230	107
5	-281	142
39	-258	155
52	-155	156
45	-4	141
29	138	204
16	222	248
13	222	108
19	158	-142
28	76	-279
29	19	-241
19	10	-185
-5	32	-153
-33	49	-50
-56	26	-92
-65	-48	-151
-57	-154	-246
-37	-246	-141
-6	-280	125
23	-237	140
44	-127	48
55	8	-59
56	122	68
50	181	109
41	173	-4
31	120	32
16	56	50
-4	14	-33
-29	5	5
-54	19	37
-72	32	-15
-78	23	12
-67	-17	-4
-46	-70	79
-20	-111	97
-1	-113	120
14	-69	40
26	0	-217
41	66	-197
58	104	-131
74	106	-60
78	85	2
64	65	39
33	58	70
-7	59	12
-42	47	3
-64	7	-70
-70	-62	-111
-65	-140	-60
-58	-189	-25
-50	-184	-5
-46	-122	15
-35	-31	152
-16	52	251
11	103	108
37	110	-79
58	93	-279
63	72	-400
57	64	-356
39	62	-147
18	52	70
-1	21	175
-21	-33	236
-39	-88	-37
-57	-122	-267
-68	-119	-330
-70	-82	-275
-59	-28	-129
-34	22	-137
-4	48	-111
27	57	-4
50	59	85
61	71	77
60	95	101
49	125	195
30	143	267
9	129	225
-10	75	176
-23	-14	87
-31	-114	60
-31	-200	118
-29	-248	26
-31	-246	-14
-34	-194	-238
-39	-113	-399
-39	-27	-422
-30	39	-402
-10	74	-203
20	76	-30
48	59	155
67	47	225
69	53	149
52	77	105
27	100	48
3	92	-17
-13	33	-13
-15	-77	9
-8	-209	169
2	-312	112
6	-338	-65
0	-268	-117
-12	-124	-198
-24	38	-87
-25	161	-72
-12	204	-80
14	175	3
41	115	25
56	74	43
54	77	-8
33	117	31
3	158	65
-28	154	62
-50	96	52
-62	-2	80
-67	-93	62
-68	-139	-10
-68	-127	-45
-63	-75	-155
-49	-12	-192
-24	31	-144
7	45	-46
35	40	-7
55	34	-13
61	35	-19
58	43	-119
44	44	-163
29	32	-49
12	6	134
-4	-24	178
-23	-51	151
-41	-68	200
-54	-80	243
-60	-90	91
-55	-95	-36
-41	-92	-243
-22	-69	-449
0	-28	-407
18	26	-268
35	77	-17
46	106	199
58	110	189
64	92	-30
62	63	-124
49	34	-83
26	11	-20
-2	-6	-55
-32	-24	-100
-54	-43	-27
-64	-61	72
-62	-70	-92
-53	-67	-234
-38	-48	-165
-25	-15	-162
-11	26	-62
6	67	-34
23	101	48
41	123	104
55	127	-132
57	110	-215
42	78	-7
12	29	87
-24	-28	185
-54	-93	170
-69	-157	57
-67	-212	47
-53	-246	-67
-39	-246	-90
-31	-203	-39
-29	-119	7
-25	-19	-9
-11	67	-34
22	112	-6
65	106	77
101	67	186
115	22	196
99	1	186
58	13	142
10	44	24
-30	67	-105
-49	57	-197
-52	15	-148
-46	-42	-30
-43	-88	52
-42	-100	41
-40	-77	-105
-28	-36	-228
-4	0	-159
28	23	-28
55	34	-42
68	45	-47
63	66	11
44	95	-60
22	116	-160
4	114	-114
-10	82	-77
-21	29	-122
-34	-27	-30
-51	-68	26
-64	-88	36
-69	-86	105
-61	-76	152
-42	-63	194
-18	-51	109
5	-33	13
23	-5	-45
34	32	-129
41	71	-178
46	100	-77
46	106	15
41	90	-13
29	57	48
9	17	16
-15	-21	-123
-37	-52	-102
-52	-76	-20
-57	-87	-32
-57	-84	-70
-49	-62	-26
-36	-25	43
-20	19	63
2	59	-53
23	82	-54
41	81	-5
50	58	-90
50	26	-92
36	-8	-18
18	-31	10
-5	-43	-82
-23	-51	-172
-36	-59	-255
-43	-71	-140
-46	-80	100
-48	-80	196
-50	-59	253
-47	-23	376
-36	18	357
-15	51	42
16	62	-228
49	47	-476
77	18	-507
89	-5	-139
81	-8	-30
58	10	-85
27	39	-154
-2	50	-169
-23	30	-83
-35	-23	-110
-41	-90	36
-46	-141	147
-50	-154	181
-52	-118	158
-46	-49	91
-31	27	53
-8	88	-64
16	118	-8
35	127	65
44	124	12
44	124	32
39	125	13
27	119	7
15	96	60
-4	52	95
-25	-9	108
-48	-79	81
-61	-144	98
-60	-204	61
-40	-246	-67
-6	-264	-186
29	-252	-223
50	-196	-260
53	-103	-201
42	12	-67
27	117	-24
20	187	30
25	205	12
37	179	-34
41	135	-82
28	96	-109
-2	70	-43
-41	48	90
-74	11	40
-90	-47	42
-87	-116	85
-72	-159	36
-58	-144	119
-48	-66	16
-38	44	-7
-19	137	-59
16	159	-157
61	97	-248
104	-13	-382
124	-113	-280
114	-145	-328
70	-101	-224
15	-11	58
-36	60	126
-65	64	125
-71	-2	213
-60	-99	395
-49	-160	298
-44	-144	95
-43	-51	-51
-40	72	-270
-24	169	-456
4	197	-501
38	161	-111
64	94	163
74	37	95
62	15	115
36	19	11
12	19	83
-9	-1	221
-16	-45	184
-22	-93	99
-28	-124	-5
-41	-123	-9
-57	-101	-35
-68	-72	-127
-65	-49	-209
-47	-30	-149
-20	-1	-53
8	40	-104
26	93	-2
35	134	133
33	139	116
32	108	38
34	46	-74
40	-16	-8
43	-61	-6
37	-80	-64
17	-82	-46
-16	-84	-47
-51	-92	-26
-75	-100	-12
-77	-94	56
-54	-59	129
-20	-1	178
18	63	192
42	110	166
52	127	-14
46	114	-238
36	89	-345
25	64	-332
20	46	-227
13	27	-157
0	-9	-42
-19	-64	-38
-42	-130	-61
-62	-178	-18
-71	-186	24
-64	-143	113
-47	-58	121
-25	41	79
-7	135	30
2	203	59
7	240	39
13	240	-108
30	199	-193
54	114	-138
82	-16	110
96	-162	245
89	-291	231
53	-355	152
-3	-330	-65
-59	-223	-279
-102	-77	-295
-116	51	-139
-100	117	-147
-63	106	-123
-18	47	-88
26	-17	-167
60	-49	-147
82	-33	25
93	11	149
90	62	126
72	94	-33
44	99	-131
12	78	-58
-22	45	32
-47	11	32
-61	-26	-72
-69	-59	28
-71	-86	12
-74	-93	6
-70	-76	119
-57	-34	77
-29	20	130
9	70	85
48	108	-12
78	123	-72
85	123	-158
70	109	-111
41	85	61
11	51	49
-14	9	-61
-29	-37	-140
-36	-79	-291
-42	-101	-359
-48	-102	-193
-52	-87	103
-51	-66	164
-44	-52	189
-30	-42	106
-12	-32	-36
7	-6	-128
24	38	-107
36	92	6
46	138	-59
51	153	-55
48	133	52
37	81	137
17	14	39
-9	-49	37
-35	-98	152
-55	-127	65
-67	-142	-15
-68	-140	-53
-61	-124	-185
-48	-87	-202
-28	-33	-112
-8	21	-97
14	64	-89
32	77	-86
46	60	20
54	22	48
57	-16	25
52	-40	38
42	-43	49
24	-26	79
0	0	54
-31	29	95
-62	55	74
-86	77	35
-92	84	53
-75	62	31
-38	12	-41
12	-62	-66
59	-136	-60
93	-179	-153
103	-160	-205
90	-84	-122
63	19	48
31	103	42
5	126	-91
-12	81	-102
-24	-5	-127
-34	-83	-131
-45	-114	-93
-55	-92	-37
-58	-38	-32
-48	3	59
-23	13	81
7	-4	22
33	-16	50
45	4	-171
43	64	-282
34	137	-161
26	177	5
23	158	25
22	79	-17
14	-20	25
-3	-92	-25
-31	-111	-61
-59	-82	-3
-80	-41	155
-82	-24	234
-67	-39	225
-46	-68	177
-26	-81	103
-12	-52	21
1	13	-106
14	85	-222
34	131	-358
54	135	-268
69	104	-138
69	62	-51
54	30	27
29	14	91
1	2	276
-24	-21	200
-43	-60	111
-55	-102	-37
-64	-122	-288
-66	-111	-268
-58	-64	-138
-39	-11	-33
-10	33	37
21	50	112
44	48	120
55	43	104
53	51	71
44	74	-67
30	94	-203
18	98	-253
6	68	-200
-9	12	-103
-27	-57	-155
-40	-123	-124
-48	-166	-46
-47	-184	-24
-38	-171	-7
-28	-133	69
-20	-74	138
-14	-5	127
-3	57	161
12	95	46
38	96	-62
63	66	-116
76	27	-26
68	4	119
39	10	138
-3	37	138
-44	61	75
-70	50	43
-78	-8	-115
-66	-101	-202
-48	-184	-50
-31	-215	-69
-16	-174	-282
-4	-69	-231
9	49	-33
23	138	32
39	164	147
54	127	132
64	58	34
68	-4	-38
61	-31	-136
45	-24	-147
20	1	-86
-12	18	-61
-42	14	2
-62	-7	109
-68	-34	55
-60	-42	42
-44	-24	102
-27	17	124
-12	67	81
-3	106	-47
7	123	-129
23	108	-181
44	68	-218
63	11	-115
74	-46	-53
65	-93	-58
35	-118	-80
-7	-112	-65
-50	-85	110
-80	-43	64
-91	-15	-32
-83	-7	-90
-64	-26	-59
-39	-57	78
-15	-79	65
9	-69	138
33	-22	19
54	47	-94
72	112	0
79	150	-99
72	141	-203
52	95	-161
26	29	-113
-2	-29	19
-29	-67	77
-50	-80	-40
-68	-77	-65
-80	-70	-198
-84	-66	-208
-77	-66	-139
-57	-56	-57
-30	-33	113
1	7	158
28	56	186
46	100	111
58	126	87
62	126	63
57	103	4
45	64	5
27	21	26
2	-20	0
-27	-56	-89
-52	-90	-114
-67	-121	-90
-68	-144	-115
-56	-154	-99
-39	-139	21
-21	-99	22
-7	-36	112
4	32	96
16	89	-36
33	120	-85
52	120	-138
65	101	-74
64	76	10
45	57	90
16	47	5
-15	35	-95
-35	5	-163
-36	-52	-143
-25	-129	-51
-12	-198	-29
-9	-227	-64
-16	-190	-147
-29	-90	15
-34	43	142
-20	161	156
10	221	128
48	202	33
76	122	-40
82	20	-126
65	-59	-111
35	-89	-88
3	-76	-48
-24	-41	0
-41	-20	33
-52	-26	26
-60	-53	36
-66	-81	97
-65	-80	119
-56	-42	128
-35	26	135
-6	104	160
20	169	37
36	203	-222
42	200	-361
40	165	-301
35	103	-218
29	32	-108
21	-33	-13
6	-81	-40
-18	-98	-27
-46	-95	16
-67	-87	22
-72	-94	48
-57	-125	25
-30	-171	-47
2	-200	-125
21	-182	-184
29	-107	-140
28	3	-82
28	103	-19
36	151	7
48	134	52
57	71	102
50	9	104
26	-18	-27
-12	-3	-72
-47	23	11
-65	22	60
-64	-24	127
-48	-103	56
-30	-164	12
-18	-163	57
-16	-87	120
-14	33	64
-2	143	-75
19	197	-241
46	183	-365
66	131	-312
68	84	-134
46	64	93
13	67	124
-21	62	164
-40	20	196
-46	-62	124
-45	-154	39
-42	-217	-70
-45	-217	-33
-48	-159	-45
-46	-71	-273
-29	6	-406
2	47	-235
39	57	-121
67	54	-129
77	59	-59
66	76	34
41	88	103
17	83	167
-1	50	164
-10	2	150
-15	-45	111
-23	-74	32
-38	-81	53
-56	-77	12
-65	-67	-89
-62	-61	-151
-41	-50	-144
-11	-25	-114
20	19	-6
40	72	-11
45	121	-15
42	150	72
33	153	-9
29	131	-36
30	96	-5
32	50	55
27	-6	46
10	-72	42
-16	-137	77
-47	-189	62
-69	-202	54
-80	-171	24
-68	-101	-49
-44	-14	-243
-13	58	-371
17	99	-214
40	104	-17
51	86	32
52	64	104
44	50	98
30	48	116
12	49	138
-7	46	68
-28	30	45
-47	3	-54
-59	-36	-177
-64	-84	-221
-57	-130	-242
-40	-170	-194
