File Name: not saved
Channel 2: 'Channel 2', 30380 values, raw ADC, no filters.
Channel 3: 'Channel 3', 30380 values, raw ADC, no filters.
Channel 4: 'Channel 4', 30380 values, raw ADC, no filters.

-126	137	-16
-12	219	-23
66	228	-35
86	169	-30
49	89	-25
-20	27	-28
-85	1	-41
-111	-2	-47
-88	-11	-33
-29	-38	-25
36	-86	-17
77	-124	-15
74	-130	-21
33	-95	-17
-15	-32	-9
-42	23	1
-34	48	-14
4	26	-35
46	-28	-38
65	-90	-46
55	-134	-45
27	-143	-27
7	-116	-23
17	-62	-16
59	4	-8
116	68	-8
155	119	0
158	142	-2
115	132	-14
41	93	-21
-39	30	-27
-108	-38	-30
-156	-97	-24
-177	-129	-22
-175	-129	-15
-148	-93	-15
-96	-28	-23
-29	53	-30
31	135	-33
66	192	-29
59	209	-28
18	178	-25
-36	106	-26
-70	10	-24
-67	-86	-8
-27	-165	-1
27	-218	-13
63	-242	-22
66	-241	-22
39	-210	-33
9	-152	-43
-1	-66	-39
19	32	-25
58	121	-21
89	180	-25
94	199	-32
74	192	-41
51	183	-31
44	194	-24
57	223	-24
63	241	-20
30	218	-25
-61	122	-18
-193	-29	-12
-310	-198	-15
-352	-325	-13
-284	-371	-14
-125	-333	-17
59	-247	-17
196	-159	-11
239	-96	-13
193	-59	-27
103	-22	-29
24	37	-25
-12	113	-15
-10	174	-6
0	181	-10
-10	119	-13
-43	8	-16
-78	-101	-20
-90	-152	-16
-68	-124	-10
-22	-38	-10
29	59	-22
77	129	-34
126	155	-43
191	155	-56
269	154	-43
332	164	-11
328	174	-3
207	163	-22
-17	119	-47
-287	53	-63
-501	-13	-58
-577	-62	-36
-489	-106	-18
-285	-166	-14
-64	-264	-30
85	-388	-29
127	-481	-27
92	-482	-26
45	-351	-19
36	-115	-13
69	144	-12
107	337	-36
106	408	-26
46	366	-4
-34	278	2
-81	213	1
-53	195	-13
37	201	-22
137	168	-21
175	49	-24
120	-141	-17
-3	-348	-15
-130	-482	-18
-185	-488	-11
-136	-358	-17
2	-142	-42
172	81	-49
314	244	-30
388	313	-19
382	298	-17
306	228	-17
170	149	-9
-2	87	-7
-185	48	-4
-332	27	9
-399	3	2
-357	-32	1
-223	-81	-13
-57	-125	-47
67	-143	-74
94	-119	-71
20	-54	-37
-107	22	-20
-218	79	-45
-262	81	-65
-231	26	-48
-152	-66	-23
-71	-159	-4
-16	-213	-8
13	-216	-8
33	-178	-18
52	-121	-28
72	-65	-26
75	-21	-26
54	11	-5
20	35	-2
-7	49	-1
-3	47	-13
29	27	-24
72	-3	-25
95	-19	-17
86	0	-5
53	63	-8
30	153	0
41	232	-4
90	261	-20
159	227	-30
212	132	-20
232	16	-18
212	-82	-32
172	-140	-48
118	-151	-48
52	-129	-35
-34	-92	-29
-153	-51	-19
-281	-9	-21
-380	45	-21
-399	113	-34
-316	191	-47
-150	253	-47
38	272	-31
182	228	-15
241	121	-13
218	-15	0
155	-135	5
94	-189	6
61	-153	-5
46	-45	-15
27	74	-31
-22	131	-46
-99	88	-48
-175	-63	-52
-226	-257	-50
-227	-408	-51
-182	-452	-42
-115	-372	-30
-47	-217	-22
12	-66	-10
57	14	2
89	13	0
106	-33	0
98	-62	-6
63	-32	-15
11	51	-17
-38	147	-22
-56	195	-21
-30	180	-23
29	120	-24
94	68	-27
128	71	-24
110	135	-15
50	229	-19
-23	292	-26
-78	283	-37
-92	194	-37
-66	49	-19
-26	-103	-16
1	-227	-20
3	-300	-13
-20	-326	-8
-44	-316	-13
-50	-274	-23
-23	-208	-35
34	-121	-36
105	-25	-21
170	70	-7
222	154	-7
262	223	-6
292	276	-12
306	310	-25
275	313	-17
172	270	-21
-13	175	-30
-260	38	-23
-503	-109	-27
-664	-230	-34
-672	-299	-32
-523	-312	-18
-271	-288	-17
-18	-253	-27
140	-215	-34
167	-167	-41
89	-94	-38
-8	7	-46
-50	120	-46
4	206	-25
122	241	-15
242	213	-3
299	152	-4
266	96	-18
175	66	-16
71	59	-3
-1	41	-12
-36	-15	-32
-55	-109	-37
-83	-201	-19
-120	-238	-8
-145	-188	-24
-130	-60	-34
-61	81	-34
44	171	-38
148	174	-36
209	100	-21
214	10	-6
175	-37	8
116	-16	-1
58	50	-15
4	110	-16
-50	118	-25
-113	60	-22
-172	-29	-18
-207	-106	-24
-207	-134	-38
-170	-111	-43
-116	-60	-33
-65	-13	-29
-36	11	-24
-15	18	-18
16	19	-25
77	34	-38
159	59	-33
236	83	-22
269	85	-13
236	51	-4
140	-15	-9
21	-106	-26
-79	-194	-35
-123	-260	-19
-108	-278	-13
-55	-238	-3
-1	-154	11
16	-45	12
-19	50	13
-94	112	-14
-185	129	-48
-252	121	-64
-269	113	-69
-228	125	-56
-139	160	-37
-38	188	-17
42	185	-20
82	131	-32
78	39	-30
46	-56	-35
17	-121	-16
15	-134	3
49	-103	-14
107	-49	-28
161	-4	-30
188	19	-33
170	21	-22
113	11	-10
33	5	-12
-38	8	-12
-77	23	-4
-63	53	-6
-6	92	-32
72	130	-37
137	143	-26
154	108	-20
102	7	-20
-7	-143	-38
-139	-304	-53
-248	-413	-58
-300	-426	-34
-282	-343	-19
-208	-198	-24
-105	-54	-24
-4	40	-28
79	78	-26
143	90	-22
194	114	-19
230	171	4
245	244	16
229	280	-1
181	244	-15
113	128	-26
42	-21	-26
-12	-134	-18
-53	-163	-6
-95	-96	-11
-149	19	-32
-213	124	-26
-269	170	-23
-281	149	-30
-234	90	-37
-130	37	-22
-7	19	-8
91	30	-8
135	44	-2
122	32	-10
80	-24	-16
40	-110	-14
19	-196	-17
9	-245	-48
-14	-233	-40
-61	-160	-21
-122	-48	-35
-157	60	-42
-130	126	-39
-34	126	-26
101	65	-17
216	-20	-3
260	-81	3
212	-80	-14
102	-14	-34
-14	79	-47
-82	141	-42
-83	135	-23
-33	56	-6
28	-49	8
71	-113	-2
86	-92	-27
86	11	-34
87	130	-36
96	191	-42
100	137	-33
78	-18	-32
24	-203	-40
-54	-334	-24
-127	-344	-20
-168	-245	-18
-163	-95	-14
-118	25	-15
-52	59	8
13	14	13
62	-66	7
85	-116	-1
69	-94	-27
11	-2	-56
-89	121	-79
-210	230	-83
-308	296	-61
-342	317	-36
-280	311	-35
-130	290	-39
52	260	-35
204	208	-35
265	121	-22
219	4	-10
94	-126	6
-54	-238	14
-169	-311	7
-211	-338	7
-184	-333	4
-114	-316	-7
-28	-296	-18
50	-269	-18
114	-215	-11
161	-118	-20
188	18	-25
193	171	-26
175	300	-29
139	368	-25
97	358	-7
65	287	7
49	185	-13
44	77	-5
40	-17	2
32	-102	-11
18	-179	-13
8	-248	-27
13	-289	-48
34	-283	-89
64	-224	-116
80	-121	-88
60	-11	-51
-4	76	-18
-101	119	1
-202	132	-13
-274	142	-27
-285	161	-26
-229	185	-7
-118	180	-2
12	122	9
130	9	15
214	-118	10
260	-200	5
277	-191	-13
266	-91	-24
223	47	-46
122	150	-64
-43	170	-68
-262	112	-61
-480	26	-34
-616	-29	-12
-596	-23	1
-409	19	1
-114	47	-2
175	21	-8
346	-56	-25
341	-137	-36
179	-168	-40
-38	-122	-32
-201	-34	-31
-232	35	-28
-139	36	-14
11	-29	-3
139	-108	8
202	-134	-17
203	-68	-36
183	57	-38
179	177	-40
196	215	-21
211	158	-1
189	38	-15
116	-66	-31
12	-94	-21
-85	-39	-16
-139	55	-12
-145	123	0
-117	120	0
-79	53	-17
-39	-36	-32
3	-100	-38
55	-113	-33
115	-90	-32
159	-64	-37
164	-66	-39
121	-90	-37
48	-112	-22
-22	-99	-10
-60	-48	4
-58	24	18
-39	79	24
-31	86	7
-52	50	-27
-99	-1	-42
-155	-28	-35
-200	-9	-40
-235	45	-44
-264	103	-33
-288	127	-32
-291	114	-16
-244	76	-2
-132	45	-39
24	41	-61
175	52	-59
254	42	-52
229	-23	-42
119	-147	-42
-7	-296	-36
-72	-405	-20
-37	-421	-4
76	-331	-6
203	-169	2
271	1	7
248	121	-2
151	169	-1
36	171	-20
-37	174	-29
-48	215	-32
-10	287	-25
37	354	-6
58	362	13
38	287	15
-6	145	6
-45	-17	-4
-62	-143	-31
-50	-202	-56
-22	-209	-88
3	-199	-96
4	-208	-71
-28	-239	-47
-83	-265	-31
-139	-252	-37
-170	-170	-32
-156	-35	-27
-89	114	-16
13	230	4
116	284	13
191	283	25
216	244	43
199	198	46
152	147	8
96	90	-26
36	22	-40
-27	-44	-53
-101	-98	-67
-180	-124	-66
-249	-129	-48
-285	-142	-24
-270	-182	-9
-209	-249	-15
-119	-305	-27
-28	-299	-31
44	-200	-23
89	-28	-20
111	152	-17
115	265	-5
105	268	-2
81	182	0
44	65	-15
9	-16	-29
-12	-38	-28
-6	-32	-35
27	-47	-32
77	-113	-32
119	-204	-37
139	-254	-27
136	-205	-13
118	-47	-24
101	157	-40
88	315	-20
78	356	-23
57	275	-45
19	138	-50
-40	34	-38
-110	9	-21
-175	43	-38
-223	76	-41
-241	39	-26
-225	-77	-14
-178	-216	4
-109	-304	24
-31	-275	32
44	-143	19
107	33	1
159	171	-32
195	217	-46
216	177	-33
219	92	-13
196	21	-3
135	-16	-11
37	-22	-16
-84	-31	-18
-203	-64	-17
-285	-117	-37
-312	-163	-63
-281	-171	-74
-214	-135	-62
-135	-70	-30
-61	-3	-17
0	43	-18
48	77	-16
84	105	-4
101	149	1
93	202	-8
58	252	-25
15	266	-69
-15	225	-79
-5	123	-34
44	-27	20
117	-196	56
176	-351	63
203	-449	50
188	-459	5
148	-372	-49
104	-200	-70
72	3	-82
48	185	-101
13	289	-89
-41	292	-58
-113	215	-25
-182	104	-13
-230	13	-10
-239	-35	5
-214	-40	0
-172	-29	-8
-121	-31	-25
-71	-48	-38
-20	-77	-33
33	-93	-25
82	-92	-16
110	-70	-15
113	-34	-11
96	14	-11
80	79	-13
86	153	-11
118	224	-17
154	259	-26
157	228	-16
100	119	-9
-16	-39	-6
-151	-192	-14
-250	-286	-48
-269	-296	-55
-206	-237	-34
-94	-154	-24
11	-92	-32
62	-67	-30
50	-56	-30
1	-23	-12
-39	58	1
-39	171	-15
4	278	-28
69	324	-24
123	279	-10
147	165	-1
133	11	7
105	-127	-1
74	-216	-8
46	-246	-30
16	-222	-45
-29	-167	-34
-86	-99	-19
-137	-39	-25
-154	4	-38
-114	23	-28
-14	28	-41
122	34	-41
245	56	-29
312	106	-12
280	171	11
161	233	9
-12	261	-12
-176	249	-19
-281	197	-27
-298	119	-58
-237	22	-44
-145	-92	-19
-67	-216	-14
-33	-333	-11
-41	-406	-4
-63	-386	-3
-71	-260	-18
-52	-68	-18
-18	117	-17
5	215	-21
1	197	-22
-23	93	-38
-42	-4	-45
-29	-18	-49
29	74	-62
114	213	-53
188	298	-42
223	250	-25
202	74	0
137	-138	-7
57	-273	-28
-16	-257	-34
-68	-119	-25
-100	35	-2
-114	90	-8
-117	-6	-37
-109	-198	-37
-91	-368	-32
-68	-391	-19
-44	-251	-8
-15	-16	-3
30	190	25
103	267	38
199	207	19
291	81	-20
330	-11	-57
270	-21	-68
101	30	-57
-136	66	-52
-354	26	-44
-459	-81	-17
-405	-181	8
-210	-181	28
33	-36	16
212	206	-11
248	438	-52
135	544	-88
-51	468	-68
-214	243	-39
-272	-33	-20
-218	-265	-14
-102	-398	-24
2	-432	-20
34	-400	-18
1	-330	-36
-53	-242	-43
-72	-134	-35
-29	-25	-17
60	48	6
151	58	1
197	-1	3
193	-90	6
162	-145	2
151	-114	-9
172	2	-17
215	143	-19
230	236	-28
172	221	-26
30	113	-28
-151	-24	-31
-303	-108	-35
-364	-94	-48
-314	-2	-50
-180	112	-44
-23	182	-35
93	189	-27
137	156	-14
125	130	0
90	147	14
68	196	10
69	241	-6
86	237	-24
88	174	-40
65	67	-34
20	-38	-23
-24	-111	-18
-43	-148	-22
-27	-158	-31
15	-161	-28
59	-155	-24
83	-129	-23
69	-72	-31
25	4	-34
-35	66	-40
-91	77	-39
-124	21	-13
-123	-78	-3
-89	-166	-13
-34	-186	-10
18	-121	7
36	7	19
4	135	4
-80	203	-3
-182	183	-17
-256	91	-34
-252	-30	-38
-150	-133	-53
21	-192	-46
200	-203	-54
313	-184	-72
311	-143	-71
188	-93	-53
-10	-40	-21
-208	1	-23
-339	9	-12
-360	-27	-3
-274	-104	-18
-121	-189	-13
44	-240	-11
167	-227	-19
214	-149	-6
184	-38	17
113	64	6
52	131	-21
48	169	-32
114	197	-28
219	241	-21
299	301	-27
280	338	-30
148	311	-32
-70	193	-39
-289	4	-37
-415	-196	-35
-393	-338	-18
-261	-372	-3
-100	-300	-16
-5	-163	-30
-24	-21	-23
-128	83	-18
-234	134	-23
-255	142	-24
-156	128	-24
30	100	-13
216	63	-2
331	23	1
343	-4	12
285	2	3
214	53	-15
166	138	-42
139	205	-52
102	205	-43
28	104	-30
-76	-74	-13
-162	-263	-27
-182	-379	-35
-112	-358	-15
18	-204	3
132	18	8
172	218	13
113	323	-12
-4	315	-53
-108	228	-70
-136	122	-76
-74	34	-75
39	-27	-49
129	-89	-18
138	-174	-4
51	-274	-12
-93	-359	-25
-232	-376	-32
-310	-303	-30
-300	-153	-11
-221	15	-4
-109	140	7
0	194	22
86	182	16
150	150	16
198	138	-5
239	166	-30
268	205	-57
269	223	-80
234	189	-66
156	103	-35
46	-1	-9
-74	-92	-9
-178	-144	-22
-250	-165	-32
-274	-176	-33
-255	-187	-46
-201	-196	-50
-129	-186	-46
-53	-134	-39
12	-44	-15
58	58	-3
89	138	3
103	165	-11
109	133	-30
107	72	-20
101	15	-5
82	-12	-2
42	0	-4
-7	33	-13
-58	66	-23
-90	77	-30
-85	60	-18
-42	26	10
23	-12	-3
80	-32	-42
101	-28	-55
69	0	-56
-2	30	-44
-89	38	-25
-157	5	-6
-187	-74	-6
-178	-174	-20
-148	-259	-23
-115	-287	-21
-94	-251	-22
-78	-170	-27
-50	-87	-15
3	-34	-27
82	-9	-35
175	24	-24
254	104	-37
290	237	-31
266	381	-16
192	454	1
89	395	12
-5	203	1
-64	-46	-20
-82	-241	-34
-69	-303	-26
-58	-229	-17
-72	-103	-17
-117	-33	-21
-170	-72	-15
-198	-194	-20
-173	-288	-30
-95	-261	-40
4	-90	-42
80	154	-32
91	339	-30
41	370	-31
-37	236	-19
-91	26	-2
-84	-136	-3
-12	-169	-9
91	-78	-11
172	53	-17
199	124	-17
166	82	-18
101	-47	-12
41	-190	-2
11	-271	-9
6	-256	-36
10	-167	-53
4	-45	-62
-17	62	-62
-43	150	-49
-60	215	-39
-58	268	-23
-48	290	-9
-36	261	5
-33	181	-3
-34	66	-18
-22	-31	0
15	-71	16
72	-46	28
124	14	38
140	53	14
96	29	-39
-8	-59	-101
-142	-170	-124
-259	-246	-95
-311	-250	-58
-272	-183	-33
-150	-90	-24
13	-12	-12
163	27	-5
250	43	-1
252	65	2
184	109	-23
82	168	-20
-8	198	-2
-52	171	-1
-43	84	-12
-6	-21	-21
27	-78	-25
30	-43	-27
-4	84	-22
-60	243	-21
-112	350	-27
-136	340	-56
-128	194	-70
-95	-50	-42
-51	-313	-16
-11	-508	-5
25	-581	7
59	-512	0
93	-337	-2
121	-112	-8
135	85	-17
127	187	-18
102	161	-10
64	29	4
28	-134	-2
-1	-240	-33
-27	-222	-61
-57	-75	-64
-101	124	-50
-154	268	-21
-198	274	-7
-209	139	-3
-172	-52	-15
-81	-177	-24
38	-152	-7
150	9	-12
211	200	-14
195	282	-21
92	181	-36
-72	-67	-27
-248	-332	-9
-375	-460	-4
-400	-384	-17
-310	-144	-32
-128	129	-56
86	301	-75
262	313	-74
346	205	-48
320	87	-21
221	44	-2
103	98	6
23	181	4
3	207	-4
29	129	-12
67	-28	-8
84	-177	-3
72	-237	8
50	-176	3
46	-33	-4
68	120	-9
104	228	-34
120	273	-64
93	279	-93
19	262	-94
-75	227	-74
-145	134	-26
-163	-30	3
-124	-251	-10
-58	-457	-24
-5	-563	-52
2	-524	-39
-35	-358	-16
-97	-154	-6
-149	-9	4
-165	30	4
-141	-13	17
-81	-53	11
-3	-19	-4
83	110	-11
169	279	-21
245	395	-25
290	390	-23
279	256	-20
194	63	-24
41	-106	-20
-139	-190	-26
-291	-192	-35
-363	-170	-25
-333	-168	-21
-228	-211	-10
-101	-260	-4
-5	-260	-2
32	-171	-7
30	-5	-33
33	180	-46
69	313	-38
139	345	-36
196	279	-36
183	151	-25
76	19	-8
-100	-76	9
-269	-121	17
-350	-124	15
-303	-109	-13
-148	-85	-34
38	-63	-43
178	-39	-59
225	-13	-76
198	14	-64
160	41	-39
163	66	-42
216	85	-29
276	95	-4
270	90	-7
162	70	-19
-39	35	-48
-255	-2	-55
-399	-37	-34
-419	-64	-14
-325	-88	-3
-181	-110	-6
-59	-134	-10
-5	-152	-5
-9	-150	-3
-20	-117	-8
8	-56	-9
90	15	-5
194	77	-4
269	117	-11
275	139	-13
203	161	6
91	190	13
-11	224	14
-66	237	1
-75	206	-29
-56	126	-59
-47	18	-85
-66	-69	-90
-109	-105	-86
-144	-80	-69
-143	-29	-50
-96	-7	-36
-7	-48	-14
93	-145	-3
172	-238	-3
208	-259	4
196	-164	9
148	27	13
83	238	17
18	379	5
-40	390	-1
-89	278	-13
-129	105	-38
-158	-48	-67
-168	-131	-89
-141	-151	-68
-70	-151	-32
37	-188	-14
161	-274	0
248	-378	-3
262	-426	-16
187	-359	-12
39	-173	-19
-129	90	-15
-252	339	-10
-285	492	-32
-224	505	-38
-111	380	-30
-14	159	-33
18	-110	-41
-24	-375	-32
-103	-590	-26
-160	-714	-26
-147	-708	-21
-65	-556	-7
35	-283	3
93	35	-8
65	309	-11
-32	450	-23
-144	431	-42
-202	298	-61
-160	129	-64
-28	16	-48
135	-3	-24
258	53	-3
300	129	6
257	174	30
165	164	52
67	121	41
-1	81	4
-36	61	-27
-48	56	-36
-49	39	-50
-39	0	-76
-18	-52	-86
20	-80	-61
60	-43	-43
86	47	-30
82	158	-12
52	222	-6
15	199	-4
-3	96	11
7	-35	26
40	-127	17
78	-143	4
93	-92	-17
80	-27	-27
38	-2	-49
-17	-37	-71
-70	-99	-66
-111	-127	-59
-129	-78	-30
-119	51	-8
-82	208	-14
-25	322	-18
28	342	-8
52	267	-11
33	138	-38
-27	5	-37
-97	-98	-30
-139	-179	-38
-128	-259	-38
-71	-348	-35
0	-429	-18
44	-456	-9
41	-387	4
5	-222	9
-27	-1	-7
-24	193	-25
24	295	-28
88	273	-15
128	161	-4
118	21	-10
59	-74	-9
-12	-84	-3
-62	-17	-17
-80	86	-21
-76	165	-24
-77	173	-41
-97	91	-54
-128	-61	-48
-134	-241	-41
-93	-387	-48
-5	-445	-50
94	-393	-33
155	-245	-14
152	-45	-5
98	132	4
40	240	9
28	252	7
79	195	-20
165	119	-49
223	77	-47
202	87	-38
86	133	-30
-91	174	-15
-260	174	-6
-356	123	-17
-351	45	-51
-262	-21	-70
-139	-57	-61
-39	-67	-49
5	-85	-16
-3	-129	-2
-36	-196	3
-59	-251	7
-47	-243	7
-3	-153	-2
55	-6	-6
101	135	0
107	202	-15
78	166	-13
24	53	-13
-23	-66	-15
-44	-127	-18
-27	-92	-20
21	14	-17
82	134	-23
135	218	-20
171	239	-13
187	215	-21
189	182	-35
175	166	-31
142	162	-32
82	139	-38
-4	74	-44
-99	-43	-41
-173	-176	-33
-200	-270	-27
-172	-275	-23
-100	-174	-20
-16	5	-15
42	197	-10
61	327	-21
44	345	-40
17	244	-46
7	69	-41
22	-120	-24
58	-260	-15
94	-312	-22
112	-281	-24
101	-208	-13
60	-144	-3
4	-126	-16
-58	-153	-45
-114	-192	-58
-149	-200	-49
-147	-145	-35
-101	-36	-18
-17	83	2
82	159	-13
164	158	-24
193	85	-23
150	-13	-26
35	-90	9
-122	-113	19
-277	-94	4
-387	-68	-9
-420	-69	-16
-366	-105	-11
-245	-147	-32
-84	-161	-40
65	-121	-43
160	-40	-47
172	45	-44
111	104	-39
11	125	-24
-78	128	-24
-108	142	-27
-61	182	-13
37	235	-10
141	264	-6
204	250	-6
201	187	-15
150	112	-17
83	53	-24
42	22	-23
39	-3	-16
59	-59	-13
71	-155	-15
52	-263	-26
1	-322	-30
-56	-278	-23
-85	-126	-24
-60	84	-20
10	261	-18
98	339	-10
160	298	-4
165	191	-5
106	93	-7
4	54	-18
-108	72	-46
-193	96	-64
-227	71	-70
-201	-21	-71
-126	-141	-57
-24	-236	-35
82	-259	-9
169	-210	-1
216	-130	4
214	-60	10
164	-21	3
78	6	-4
-20	46	-21
-105	109	-21
-157	164	4
-167	162	32
-139	74	49
-97	-80	16
-66	-231	-32
-69	-307	-76
-108	-276	-108
-165	-176	-91
-206	-85	-55
-206	-71	-18
-151	-144	1
-52	-233	-32
58	-248	-56
151	-136	-40
201	68	-18
207	266	-21
183	345	-44
148	260	-41
115	62	-37
90	-123	-39
68	-190	-47
46	-102	-48
25	79	-20
11	243	10
10	305	15
23	264	-3
43	185	-8
54	148	-20
44	181	-9
7	238	-8
-46	224	-27
-97	77	-23
-122	-183	-18
-109	-449	6
-69	-590	4
-26	-534	6
-8	-309	-1
-28	-37	-15
-79	149	-18
-126	183	-18
-134	103	-17
-70	5	-18
60	-12	-6
228	71	-12
375	205	-18
451	291	-12
411	267	-12
249	145	-36
1	-7	-57
-270	-108	-75
-488	-120	-84
-598	-69	-63
-572	-27	-39
-431	-49	-16
-231	-137	-10
-38	-241	-2
89	-283	0
136	-230	-13
121	-90	-21
82	71	-15
52	188	-12
44	225	-18
57	194	-4
68	145	-4
71	119	-15
68	126	-22
74	143	-41
87	132	-40
106	75	-36
109	-24	-42
85	-124	-34
41	-191	-23
1	-204	-22
-7	-167	-27
24	-108	-30
78	-48	-19
117	-6	-6
104	28	-9
39	65	-23
-52	114	-30
-117	165	-24
-117	189	-19
-45	157	-31
57	47	-33
131	-120	-30
127	-295	-17
38	-405	-2
-92	-391	-21
-198	-249	-50
-228	-34	-52
-166	159	-51
-49	236	-30
57	161	-3
99	-28	1
62	-223	13
-23	-319	-3
-94	-254	-28
-100	-60	-39
-32	170	-51
71	328	-48
142	349	-7
129	248	36
23	98	56
-128	-16	47
-255	-47	7
-294	-6	-20
-228	51	-41
-92	74	-63
44	49	-75
123	2	-70
130	-24	-68
91	-6	-43
57	47	-19
61	91	-7
110	89	-1
169	31	-16
196	-51	-11
170	-106	-4
100	-98	-12
25	-29	-8
-14	63	-18
1	131	-36
55	152	-42
107	123	-35
114	82	-19
52	56	-16
-66	53	-23
-202	58	-44
-307	34	-45
-339	-36	-27
-288	-160	-26
-177	-301	-9
-47	-418	-12
58	-469	-17
107	-422	-15
94	-289	-18
44	-97	-17
-10	99	-22
-36	241	-45
-20	282	-61
25	206	-47
76	44	-30
109	-143	0
111	-278	7
87	-311	1
52	-223	-2
24	-48	-8
7	144	-20
-3	298	-26
-13	368	-28
-25	354	-17
-35	278	2
-37	174	-18
-34	72	-30
-34	-16	-34
-46	-90	-43
-72	-153	-62
-100	-206	-82
-105	-245	-66
-67	-259	-26
5	-236	12
85	-165	25
133	-48	12
124	92	3
68	229	5
4	322	-5
-23	350	-13
5	312	-16
71	227	-9
122	137	-24
107	72	-48
19	50	-74
-113	47	-95
-224	34	-78
-259	-22	-39
-206	-123	8
-101	-238	19
0	-319	3
52	-322	0
52	-240	-14
23	-91	-21
3	72	-23
16	196	-18
51	250	-15
88	229	-5
104	157	-14
99	64	-33
92	-23	-30
107	-91	-42
152	-127	-42
209	-129	-23
245	-94	-15
223	-29	-14
136	36	-14
-4	71	-24
-163	52	-33
-298	-23	-19
-375	-116	5
-383	-177	10
-328	-166	-11
-234	-88	-33
-129	8	-56
-40	56	-64
14	12	-60
32	-115	-45
29	-265	-20
26	-359	6
50	-339	13
111	-214	-2
209	-42	-20
316	101	-43
391	169	-44
394	165	-39
302	135	-33
122	130	-27
-110	170	-11
-333	233	3
-487	264	-4
-524	225	-13
-443	114	-15
-286	-30	-12
-119	-150	-16
5	-195	-22
59	-158	-40
57	-63	-42
38	41	-37
41	117	-35
81	137	-28
141	110	-29
190	51	-21
202	-7	-18
172	-41	-18
118	-29	-9
68	32	-3
40	127	-4
33	225	-19
35	279	-40
30	260	-40
16	150	-26
3	-25	-13
-2	-217	-7
6	-371	0
16	-435	9
19	-395	9
11	-270	18
1	-93	8
4	90	-16
30	237	-39
69	323	-68
98	338	-76
89	295	-76
32	215	-61
-58	121	-45
-152	26	-31
-213	-71	-23
-225	-181	-28
-195	-299	-20
-150	-410	-13
-115	-470	-14
-98	-437	-42
-86	-300	-47
-50	-81	-25
30	142	-13
155	286	7
285	295	29
371	174	23
358	1	10
234	-134	13
24	-165	-2
-204	-89	-18
-369	39	-20
-415	134	-18
-334	148	-24
-181	80	-44
-31	-19	-64
50	-87	-51
40	-96	-30
-33	-54	-11
-116	-1	-3
-151	39	-40
-117	69	-62
-34	108	-52
60	174	-43
133	248	-46
175	289	-48
189	252	-32
192	125	-27
184	-53	-25
157	-222	-24
98	-319	-19
6	-329	-3
-92	-274	-1
-165	-202	-11
-172	-142	-14
-110	-101	-19
1	-56	-21
118	11	-25
205	97	-25
238	179	-23
219	227	-21
161	225	-6
83	187	4
0	132	8
-81	84	14
-148	38	6
-193	-13	-18
-209	-78	-43
-195	-141	-68
-156	-182	-92
-102	-177	-83
-44	-119	-45
16	-30	-15
79	57	-2
135	117	-10
175	143	-22
175	141	-13
130	117	-8
37	72	-32
-70	-3	-34
-162	-104	-19
-201	-209	-9
-173	-276	-5
-88	-275	-19
23	-207	-24
121	-104	-5
180	-23	24
181	3	40
124	-20	21
23	-41	-19
-98	-1	-49
-208	119	-52
-269	286	-46
-259	417	-40
-176	438	-30
-42	336	-25
94	142	-21
187	-53	-17
205	-178	-16
148	-203	-22
48	-159	-9
-47	-97	1
-101	-53	-11
-100	-30	-25
-53	3	-42
9	65	-48
62	148	-54
92	198	-51
97	169	-47
84	40	-52
62	-151	-28
34	-326	-21
4	-412	-21
-28	-368	0
-57	-224	-2
-69	-43	-4
-62	99	6
-30	162	8
17	153	10
62	113	9
85	88	-27
66	94	-63
13	114	-76
-56	110	-77
-111	47	-66
-120	-78	-52
-71	-237	-32
17	-366	-22
107	-406	-21
162	-326	-53
155	-148	-57
91	63	-43
-7	222	-19
-99	262	26
-159	183	47
-172	35	39
-138	-86	14
-77	-107	-2
0	-15	-14
65	138	-15
105	252	-18
98	257	-28
41	134	-27
-50	-48	-16
-141	-192	-13
-193	-222	-12
-181	-125	-10
-113	27	-25
-32	145	-30
17	166	-43
9	91	-46
-44	-19	-34
-103	-97	-26
-112	-105	-13
-52	-55	-2
57	5	5
169	40	-4
234	46	-15
233	55	-23
179	97	-39
118	171	-41
83	244	-45
86	265	-60
107	204	-66
117	74	-48
94	-77	-30
35	-192	-38
-42	-250	-38
-118	-254	-46
-178	-236	-50
-214	-213	-36
-223	-186	-27
-194	-139	-14
-128	-62	-7
-28	25	4
74	93	14
144	113	30
155	85	24
101	50	16
16	57	8
-49	129	-19
-54	244	-20
5	339	-34
94	345	-35
159	237	-44
162	40	-59
100	-172	-55
8	-322	-66
-68	-372	-47
-97	-329	-20
-78	-238	-20
-43	-154	-10
-19	-106	2
-14	-86	20
-13	-75	39
8	-44	21
54	8	0
107	67	-33
123	115	-63
72	129	-60
-44	106	-50
-187	49	-35
-297	-21	-17
-321	-95	14
-253	-148	24
-126	-164	-4
-1	-137	-40
70	-69	-78
74	13	-83
28	92	-58
-26	138	-28
-55	148	-7
-51	129	-4
-30	97	-20
-17	64	-22
-26	23	-5
-51	-35	-7
-66	-119	-5
-50	-213	-9
5	-278	-22
88	-276	-27
166	-187	-19
210	-32	-17
209	135	-25
165	256	-24
99	290	-21
39	250	-15
-1	171	-2
-13	106	1
-5	76	-9
11	74	-20
24	70	-35
24	39	-47
11	-15	-52
-13	-68	-36
-38	-91	-26
-56	-66	-34
-62	-12	-44
-54	37	-38
-32	48	-28
-2	15	-43
31	-35	-54
61	-58	-43
86	-22	-13
102	74	16
101	193	33
81	279	18
38	287	-5
-22	200	-20
-82	41	-30
-122	-127	-26
-122	-248	-35
-81	-276	-56
-10	-216	-87
63	-107	-87
107	-12	-57
100	18	-36
46	-33	-16
-26	-134	8
-85	-225	32
-100	-242	60
-66	-165	57
-6	-21	17
46	121	-10
62	189	-41
30	139	-78
-29	-4	-87
-91	-184	-78
-130	-314	-45
-139	-344	-15
-127	-262	-2
-110	-112	2
-92	45	-6
-58	163	-13
4	221	-14
101	233	-8
209	215	-5
276	195	-11
251	171	-32
114	137	-41
-98	95	-36
-311	37	-23
-436	-25	1
-431	-88	-5
-306	-143	-21
-128	-190	-43
17	-219	-35
85	-216	-27
85	-176	-25
75	-97	-4
113	3	-2
225	98	8
368	168	26
458	197	21
421	200	-10
236	183	-40
-40	161	-68
-306	119	-83
-459	48	-72
-459	-54	-69
-319	-172	-66
-123	-263	-35
38	-292	-13
113	-237	-5
104	-123	-5
58	4	-18
27	99	-18
44	137	-22
100	136	-26
160	123	-25
187	130	-23
172	152	-21
128	162	-18
83	135	0
59	64	10
62	-24	16
76	-90	9
83	-99	-4
66	-51	-22
30	23	-34
-18	86	-47
-67	109	-52
-115	93	-39
-154	57	-26
-176	25	-11
-167	5	-16
-113	-8	-40
-13	-21	-40
116	-31	-29
234	-25	-23
285	1	-11
238	36	4
90	48	-1
-124	4	-25
-340	-103	-48
-488	-245	-55
-532	-354	-47
-456	-378	-39
-300	-289	-45
-111	-124	-54
59	50	-38
184	171	-21
257	202	1
284	158	7
275	72	-6
230	-11	-14
148	-78	-24
33	-130	-7
-90	-170	-5
-190	-191	-3
-232	-176	4
-199	-116	-2
-106	-20	-9
11	80	-28
104	141	-30
142	147	-30
124	103	-17
71	46	-1
16	16	8
-10	29	0
-4	71	-17
27	110	-30
66	123	-50
94	109	-66
102	91	-63
86	84	-42
50	87	-27
1	76	-37
-52	17	-50
-91	-91	-46
-100	-222	-42
-70	-311	-36
-14	-305	-26
50	-192	-9
98	-9	3
113	174	-5
94	287	-9
60	301	-3
30	240	5
15	156	10
12	100	8
10	99	3
-1	130	-26
-27	153	-43
-60	120	-36
-93	22	-37
-119	-118	-39
-135	-256	-37
-143	-343	-26
-138	-351	-26
-115	-282	-28
-66	-169	-13
-5	-48	-21
53	47	-25
87	103	-18
85	122	-42
56	116	-47
28	99	-32
33	70	-19
81	28	-3
145	-34	17
184	-112	16
151	-184	-11
30	-224	-22
-148	-201	-24
-314	-121	-16
-401	-6	-24
-372	102	-40
-245	160	-42
-72	153	-53
82	93	-61
182	23	-54
227	-21	-54
245	-19	-57
273	15	-32
311	43	-2
330	38	9
285	-16	-3
151	-92	-12
-60	-145	-12
-291	-139	-16
-465	-55	-2
-523	78	13
-448	213	8
-280	296	1
-79	299	-7
94	231	-16
196	127	-15
223	35	-30
195	-27	-40
138	-60	-37
76	-92	-27
25	-137	-3
-7	-196	-13
-10	-249	-35
15	-259	-59
65	-209	-69
117	-114	-71
141	-14	-74
119	51	-48
42	57	-23
-61	17	-6
-154	-27	0
-191	-37	-3
-162	5	2
-76	78	-7
30	139	-20
111	150	-33
141	88	-39
110	-24	-23
34	-149	-14
-60	-240	-3
-148	-271	-10
-205	-238	-24
-217	-154	-23
-180	-43	-17
-97	72	-1
11	171	13
109	243	21
167	270	8
166	261	-9
115	222	-32
44	169	-66
-10	121	-71
-23	83	-62
4	51	-34
43	13	-5
62	-37	-20
46	-99	-37
2	-157	-37
-41	-188	-43
-54	-186	-45
-24	-151	-35
37	-100	-26
102	-51	-27
144	-7	-6
152	33	16
136	82	22
110	138	33
84	191	15
50	215	-31
1	194	-56
-71	120	-63
-157	9	-72
-228	-104	-60
-256	-190	-38
-218	-223	1
-126	-201	22
-16	-137	9
71	-50	-2
100	36	-23
66	106	-34
-10	143	-33
-87	149	-35
-129	129	-32
-119	96	-21
-64	62	-24
9	26	-23
68	-26	-2
86	-109	7
58	-224	4
-10	-345	16
-91	-424	7
-155	-409	-16
-172	-282	-35
-124	-82	-61
-12	122	-50
147	248	-31
302	256	-23
405	166	-30
409	56	-45
301	5	-45
109	51	-41
-112	169	-35
-295	277	-55
-389	301	-55
-383	202	-27
-299	10	-20
-184	-207	-19
-82	-364	-12
-10	-418	-16
37	-364	-23
75	-237	-19
107	-86	-15
126	48	-7
114	137	-2
63	174	-4
-10	161	-1
-68	109	-2
-79	49	-16
-28	11	-22
51	14	-14
116	54	-9
118	105	-12
57	128	-23
-29	100	-23
-82	31	-21
-58	-49	-33
42	-95	-38
171	-88	-49
254	-35	-60
244	28	-55
140	68	-47
0	79	-24
-108	71	7
-133	76	22
-72	102	37
24	138	26
86	147	7
69	97	-8
-30	-12	-35
-169	-154	-62
-285	-277	-82
-331	-336	-71
-287	-317	-62
-180	-237	-64
-50	-134	-54
62	-38	-35
139	39	-6
179	103	13
193	161	29
190	215	31
175	259	11
143	274	-2
92	257	-22
21	213	-48
-63	160	-46
-152	105	-30
-224	51	-30
-260	-8	-28
-250	-86	-17
-189	-174	-32
-89	-260	-42
34	-318	-43
159	-337	-24
269	-312	2
351	-256	-5
405	-186	-15
414	-111	-20
366	-32	-25
242	51	-36
42	123	-36
-210	166	-19
-450	159	-9
-603	103	-12
-626	24	-35
-511	-36	-41
-312	-42	-37
-101	2	-35
59	59	-13
144	78	-1
175	24	-10
187	-81	-21
206	-178	-30
219	-196	-35
203	-112	-24
135	41	-15
31	185	-11
-65	240	-7
-101	178	-6
-57	42	-2
31	-81	4
104	-127	14
98	-89	7
6	-8	-12
-129	40	-36
-231	27	-66
-239	-29	-70
-148	-64	-60
-10	-26	-48
102	90	-27
148	233	0
127	322	-1
89	312	-27
83	204	-36
127	59	-32
194	-66	-18
224	-149	-12
172	-195	-18
33	-242	-23
-142	-294	-24
-285	-332	-23
-332	-308	-24
-274	-196	-26
-144	-23	-28
-1	153	-24
105	264	-18
151	282	-12
140	231	3
107	168	29
75	138	32
59	153	-8
55	168	-58
52	138	-82
36	45	-97
-3	-90	-92
-61	-219	-65
-129	-296	-42
-184	-309	-17
-206	-275	4
-180	-224	8
-110	-170	12
-15	-113	9
69	-49	0
114	19	-6
107	70	-15
60	86	-18
9	62	-19
-18	20	-26
-4	-6	-18
41	6	-15
91	48	-24
117	90	-33
107	100	-44
69	67	-45
21	18	-39
-20	-11	-20
-51	3	-13
-76	53	-17
-101	108	-17
-122	138	-27
-126	135	-54
-102	120	-48
-45	119	-12
28	140	2
99	165	14
147	151	16
172	77	10
186	-46	-3
202	-168	-29
214	-233	-35
198	-211	-38
126	-119	-39
-13	-14	-41
-185	51	-46
-325	42	-28
-361	-21	-16
-267	-97	-12
-75	-142	-4
123	-137	-6
214	-97	-17
136	-53	-40
-88	-33	-52
-361	-53	-54
-565	-106	-34
-610	-183	-7
-477	-263	1
-237	-332	5
13	-357	-6
195	-317	-21
284	-196	-26
311	-9	-15
319	197	-18
332	362	-27
338	435	-22
301	413	-21
199	323	-17
46	221	-9
-108	156	-2
-208	134	-28
-222	132	-55
-158	109	-46
-63	38	-36
15	-71	-25
52	-189	-20
58	-263	-12
60	-268	-3
77	-202	-9
105	-94	-30
122	24	-57
106	120	-77
55	174	-75
-5	182	-59
-44	143	-34
-44	70	-5
-13	-16	0
20	-91	0
30	-127	-9
8	-119	-19
-23	-67	-18
-32	-2	-18
0	56	-9
61	92	4
115	108	5
129	120	-30
90	139	-49
27	169	-36
-15	190	-28
1	183	-3
68	131	16
149	41	13
184	-64	1
127	-157	-1
-18	-208	-1
-211	-214	-10
-385	-181	-25
-484	-138	-54
-484	-110	-58
-399	-113	-55
-270	-141	-60
-136	-173	-39
-28	-179	-28
46	-130	-33
99	-27	-34
133	103	-31
161	215	-18
181	262	-19
190	225	-11
179	110	-5
145	-34	-2
91	-157	22
26	-223	25
-31	-223	24
-60	-183	-2
-52	-134	-42
-18	-102	-46
20	-79	-66
29	-51	-72
-4	-2	-76
-69	75	-72
-134	161	-41
-160	233	-31
-117	268	-31
-17	250	-41
101	174	-48
190	50	-20
210	-110	20
160	-281	20
54	-416	12
-64	-470	14
-166	-406	-7
-224	-226	-31
-231	20	-41
-185	253	-16
-97	398	-6
18	418	-3
132	336	3
208	213	-8
218	113	-15
163	68	-27
68	68	-41
-18	70	-41
-57	43	-31
-39	-16	-21
11	-79	-19
45	-112	-32
28	-108	-31
-39	-80	-30
-121	-61	-12
-162	-71	-1
-129	-100	-10
-33	-110	-14
83	-71	-27
157	17	-33
158	119	-38
97	185	-32
15	182	-20
-37	116	-12
-34	34	-4
9	-13	-2
57	-4	-10
80	45	-37
65	86	-42
36	80	-30
22	19	-16
34	-58	-4
68	-93	-6
95	-47	-21
92	79	-51
54	230	-61
3	328	-45
-38	305	-33
-52	143	-19
-45	-113	-8
-35	-380	13
-45	-559	35
-79	-590	32
-121	-475	12
-156	-277	-37
-166	-93	-89
-152	3	-121
-125	-15	-121
-103	-103	-93
-89	-180	-50
-78	-165	-24
-60	-32	-25
-30	171	-31
13	359	-30
64	437	-25
111	364	-9
154	164	3
190	-69	16
215	-243	33
222	-292	26
191	-218	19
115	-79	9
-2	55	-7
-139	125	-12
-262	119	-16
-344	68	-19
-361	18	-42
-311	11	-57
-208	48	-51
-79	106	-26
51	143	-2
156	131	1
219	70	-5
233	-11	-22
195	-75	-33
117	-100	-44
17	-91	-51
-80	-79	-47
-149	-95	-38
-171	-145	-39
-143	-209	-25
-69	-237	-21
32	-184	-11
136	-44	-1
212	144	-11
236	320	-5
196	422	-10
103	427	-6
-10	353	-14
-103	244	-19
-141	138	-10
-113	43	-18
-39	-55	-28
48	-173	-26
104	-300	-11
112	-391	-16
79	-401	-21
30	-294	-41
-12	-97	-43
-37	112	-31
-54	253	-35
-72	274	-22
-96	185	-22
-110	48	-29
-95	-52	-23
-37	-75	-21
44	-24	-20
113	48	-24
127	80	-21
72	47	-8
-26	-36	-6
-119	-115	-3
-156	-145	3
-109	-114	-9
-1	-42	-32
117	29	-50
197	75	-85
215	92	-96
186	105	-82
144	131	-47
112	163	-6
93	169	3
63	110	2
-1	-21	-8
-102	-196	-5
-210	-343	-2
-280	-392	-13
-281	-322	-30
-216	-167	-43
-121	-9	-32
-48	77	-19
-28	62	1
-54	-12	26
-87	-66	26
-76	-30	6
0	112	-6
118	308	-10
222	461	-19
252	483	-40
178	352	-56
20	110	-58
-166	-153	-54
-311	-348	-50
-361	-439	-38
-305	-443	-28
-172	-408	-48
-16	-384	-46
116	-376	-49
193	-358	-46
212	-281	-21
192	-127	-3
153	77	0
113	277	-8
83	401	-6
55	421	-15
27	344	-9
-2	224	1
-28	115	3
-40	57	0
-31	51	-4
-6	74	6
20	101	1
34	117	-14
31	123	-26
20	124	-30
25	124	-18
65	114	-21
139	87	-27
214	49	-14
242	11	-13
186	-13	-30
44	-26	-44
-137	-43	-42
-295	-85	-46
-357	-158	-58
-311	-240	-59
-195	-287	-63
-83	-262	-32
-29	-159	13
-48	-13	22
-105	111	1
-136	161	-19
-101	119	-42
-6	13	-66
98	-97	-56
154	-168	-29
136	-182	-15
64	-155	-3
-14	-115	-2
-48	-70	7
-25	-18	1
29	61	-8
72	161	10
75	249	2
45	277	-14
9	208	-42
-4	53	-48
14	-131	-39
44	-263	-20
63	-282	-21
59	-183	-45
44	-15	-38
46	137	-39
74	211	-30
119	185	-38
150	99	-43
144	9	-22
107	-36	-8
76	-25	5
85	18	11
151	56	33
225	68	22
228	59	-18
90	40	-57
-191	22	-79
-540	-2	-68
-821	-54	-46
-909	-138	-13
-756	-233	4
-411	-289	0
-14	-260	2
288	-132	12
418	58	12
379	233	-9
253	317	-55
128	272	-77
60	126	-65
41	-48	-47
32	-178	-25
2	-219	-7
-42	-183	-12
-60	-111	-31
-21	-48	-34
79	-9	-39
188	19	-42
244	64	-54
206	134	-40
90	206	-2
-41	236	9
-121	186	-4
-113	59	-18
-31	-103	-16
64	-244	-6
116	-313	7
94	-300	5
12	-227	-14
-82	-136	-35
-150	-61	-45
-170	-8	-48
-148	35	-42
-106	87	-32
-56	147	-18
-5	202	-11
53	225	-14
118	209	-6
175	164	6
206	115	-4
195	99	-21
147	118	-22
78	160	-31
10	183	-22
-41	150	-2
-79	47	-9
-110	-115	-34
-145	-287	-59
-182	-419	-59
-211	-466	-62
-213	-416	-56
-180	-282	-31
-113	-108	-7
-28	59	9
59	183	-4
132	241	-8
184	237	-11
212	195	-15
214	149	-12
198	125	-21
174	130	-19
152	147	-13
136	145	2
120	100	10
83	14	-7
4	-91	-19
-122	-168	-26
-280	-183	-33
-421	-129	-44
-486	-38	-47
-435	35	-37
-279	43	-34
-65	-26	-29
128	-139	-42
239	-242	-64
244	-276	-57
165	-229	-32
57	-127	9
-31	-28	51
-83	19	59
-104	8	34
-117	-36	0
-130	-63	-51
-135	-40	-95
-102	33	-107
-21	122	-90
101	185	-49
225	205	-1
309	197	12
326	204	-15
280	248	-21
196	317	-16
106	357	-12
35	309	4
-16	140	6
-52	-110	-9
-82	-358	-24
-101	-507	-50
-110	-501	-66
-105	-355	-71
-95	-154	-63
-89	-1	-43
-87	32	-27
-74	-49	-5
-32	-182	21
41	-278	32
126	-276	12
172	-177	4
136	-28	1
4	96	-30
-189	150	-49
-369	127	-43
-459	65	-26
-415	14	-7
-260	3	3
-63	36	-1
98	92	-14
176	141	-33
183	171	-35
155	183	-32
138	191	-20
151	203	-5
182	219	-8
190	221	-7
159	189	-12
94	114	-26
24	3	-39
-18	-117	-50
-21	-215	-56
5	-257	-58
33	-234	-70
44	-153	-59
41	-45	-34
35	50	-24
41	110	-3
58	124	7
72	110	14
64	90	19
27	89	8
-27	106	-11
-72	127	-30
-94	126	-44
-90	88	-48
-77	19	-47
-76	-46	-25
-91	-74	-5
-108	-49	-8
-102	5	-12
-48	41	-28
51	10	-43
169	-97	-62
254	-242	-68
266	-353	-30
183	-359	-16
25	-246	-32
-153	-60	-34
-291	101	-25
-338	142	5
-277	29	17
-139	-188	20
5	-403	16
88	-502	-8
69	-423	-16
-34	-195	-40
-163	93	-62
-233	333	-50
-191	457	-25
-42	461	-15
143	392	-14
271	311	-15
276	244	-13
151	185	-13
-41	105	-14
-210	-13	-9
-276	-147	-9
-226	-256	-14
-102	-301	-21
22	-270	-21
94	-196	-32
104	-127	-23
85	-99	-9
88	-104	0
131	-111	11
199	-74	12
245	18	-8
227	141	-43
135	243	-58
0	274	-67
-123	228	-64
-186	131	-37
-170	41	-21
-101	-5	-25
-18	3	-47
38	38	-69
55	53	-69
41	24	-51
22	-53	-33
23	-144	-32
49	-207	-41
93	-202	-20
124	-125	10
121	-2	24
67	123	39
-28	210	34
-135	233	22
-213	196	-2
-228	125	-22
-166	51	-21
-48	-4	-37
78	-34	-32
154	-51	-15
144	-63	-20
44	-78	-32
-99	-82	-40
-229	-62	-44
-285	-22	-51
-243	26	-61
-111	51	-52
67	33	-22
240	-31	-10
358	-107	-10
394	-151	-9
340	-126	-13
204	-36	-13
18	68	-3
-173	129	16
-313	99	2
-361	-21	-20
-303	-174	-30
-161	-291	-41
2	-314	-40
118	-238	-21
139	-104	-8
66	32	-8
-52	127	-2
-149	174	-11
-169	201	-34
-101	231	-49
16	260	-53
123	260	-39
169	193	-10
140	44	6
66	-142	-4
-6	-301	-21
-43	-355	-25
-43	-280	-23
-30	-108	-34
-31	81	-49
-58	205	-63
-93	222	-53
-101	141	-42
-52	27	-41
46	-61	-37
163	-84	-32
245	-44	-25
248	21	-22
170	72	-19
41	81	-2
-91	46	21
-182	-17	28
-212	-88	32
-191	-141	23
-139	-166	12
-78	-150	-16
-22	-98	-33
32	-15	-30
86	74	-45
139	142	-57
184	174	-48
208	168	-35
195	132	-35
141	89	-28
55	48	-26
-48	8	-25
-143	-51	-33
-207	-130	-36
-223	-218	-24
-190	-281	-14
-122	-283	-7
-46	-209	-6
11	-66	-1
38	102	4
34	257	-13
11	362	-40
-18	398	-37
-41	362	-36
-49	252	-33
-39	78	-17
-3	-142	-12
59	-358	-24
149	-504	-35
237	-524	-28
291	-401	-18
269	-182	-17
170	40	-14
11	173	-3
-148	177	-15
-245	80	-33
-252	-29	-41
-182	-63	-48
-93	14	-52
-47	166	-53
-72	309	-39
-148	366	-32
-211	310	-24
-209	174	-18
-120	30	-16
21	-56	-3
148	-64	22
198	-11	35
161	61	36
67	110	24
-25	113	-8
-68	63	-34
-52	-24	-61
-1	-133	-88
44	-238	-86
61	-307	-71
51	-317	-59
43	-259	-60
60	-154	-68
111	-45	-59
175	24	-22
222	33	19
219	6	31
163	-15	24
69	8	11
-31	77	-7
-109	153	-9
-142	182	3
-130	131	-9
-91	27	-11
-51	-76	-25
-37	-109	-43
-62	-58	-15
-115	38	-16
-169	104	-42
-182	75	-32
-137	-49	-8
-42	-204	7
62	-292	22
127	-254	22
125	-105	0
54	72	-21
-44	174	-31
-126	140	-49
-157	-5	-56
-135	-174	-53
-87	-263	-53
-40	-217	-40
-7	-58	-18
24	130	1
66	267	-3
128	305	-25
187	261	-41
211	187	-35
175	128	-33
81	100	-54
-39	84	-51
-139	52	-30
-185	-1	-20
-180	-64	-4
-147	-107	10
-114	-112	3
-91	-84	-11
-65	-45	-25
-20	-20	-53
50	-18	-72
128	-27	-72
179	-30	-59
175	-23	-54
124	-6	-49
53	0	-38
14	-10	-20
31	-35	13
107	-60	28
208	-75	38
289	-72	30
318	-56	1
276	-29	-20
169	10	-15
6	69	-1
-182	153	15
-358	247	49
-480	324	42
-496	351	-10
-392	305	-76
-198	195	-97
30	45	-105
205	-102	-114
269	-211	-82
219	-278	-36
103	-309	21
-14	-331	32
-80	-352	15
-97	-371	-9
-98	-373	-23
-122	-332	-34
-176	-238	-55
-223	-103	-51
-215	41	-43
-125	161	-30
24	227	-17
170	228	-11
237	187	0
199	135	6
85	104	-11
-31	99	-12
-84	101	-9
-46	85	-27
43	29	-23
123	-53	-16
133	-135	-1
65	-173	6
-42	-147	2
-131	-64	-8
-156	38	-24
-107	114	-21
-18	145	-26
67	129	-37
114	100	-51
116	82	-55
90	92	-58
56	118	-65
30	136	-62
12	127	-50
-4	84	-50
-19	19	-50
-28	-44	-30
-23	-88	4
6	-96	29
56	-68	31
117	-6	32
171	82	19
207	174	4
223	244	-1
219	262	-3
206	210	-17
178	85	-55
125	-77	-86
36	-235	-92
-94	-340	-59
-256	-376	-33
-413	-348	-22
-522	-279	0
-546	-202	-1
-474	-131	-1
-337	-82	2
-178	-51	-7
-54	-41	-24
3	-48	-49
0	-50	-59
-26	-24	-63
-32	60	-48
7	202	-21
88	362	7
175	467	22
229	438	7
230	248	-15
188	-64	-30
128	-390	-24
74	-612	-22
33	-646	-18
-5	-498	-5
-52	-251	-15
-104	-13	-42
-139	137	-46
-130	186	-51
-64	174	-47
41	166	-27
149	186	-6
216	219	16
214	229	12
160	183	-6
81	96	-5
17	5	-15
-10	-37	-25
8	-13	-6
54	53	9
115	118	-2
167	133	-24
192	88	-38
171	-3	-48
87	-103	-51
-53	-181	-34
-223	-218	-32
-363	-207	-30
-421	-151	-8
-377	-52	15
-247	68	13
-90	178	-10
30	233	-27
85	197	-51
82	74	-66
63	-93	-86
66	-228	-95
102	-263	-82
141	-184	-54
153	-25	-31
110	133	-11
32	228	17
-42	233	32
-72	180	60
-50	127	47
-2	115	-7
34	142	-54
29	157	-92
-12	110	-70
-60	-22	-47
-78	-200	-17
-55	-354	16
-10	-404	21
27	-321	9
33	-135	-14
12	78	-25
-14	227	-32
-20	257	-28
5	166	-23
35	-2	-22
38	-170	-17
-2	-269	-22
-75	-260	-12
-135	-153	-21
-140	16	-42
-71	181	-36
48	279	-26
163	285	-2
216	193	9
189	37	-4
91	-135	-18
-27	-281	-30
-114	-375	-41
-137	-410	-51
-103	-390	-43
-36	-320	-30
33	-201	-27
82	-48	-21
97	113	-7
71	241	-9
0	296	-2
-111	264	17
-239	171	10
-339	80	-9
-365	39	-28
-287	69	-38
-108	139	-48
113	189	-60
300	171	-49
384	80	-35
342	-33	-31
201	-106	-33
18	-101	-39
-139	-29	-40
-224	50	-26
-224	92	-26
-158	77	-21
-59	41	-1
39	29	-9
114	58	-20
151	101	-22
148	95	-23
110	1	-37
52	-164	-41
1	-321	-36
-31	-376	-8
-30	-288	10
-1	-89	-5
44	123	-11
94	253	-35
129	257	-50
147	181	-46
141	101	-17
114	77	5
69	106	-4
11	123	-7
-44	62	1
-86	-90	1
-107	-270	-12
-114	-380	-13
-123	-352	-20
-143	-192	-35
-176	7	-33
-203	138	-14
-204	152	-2
-158	76	-14
-66	6	-28
52	22	-36
172	141	-40
269	295	-52
325	377	-46
326	323	-29
273	145	-31
169	-64	-22
21	-210	-14
-148	-244	-35
-300	-206	-29
-400	-183	-26
-419	-240	-40
-357	-371	-46
-243	-492	-68
-116	-498	-57
-12	-340	-17
60	-52	19
107	244	41
140	431	49
171	438	29
189	301	1
179	115	-14
136	-18	-22
75	-57	-46
13	-24	-91
-22	20	-69
-28	31	-35
-17	7	-30
-10	-17	-33
-22	0	-41
-48	60	-30
-71	132	-23
-70	169	-13
-39	132	-12
6	43	-15
44	-56	-12
57	-111	-1
42	-100	-4
15	-34	-32
-6	43	-42
-13	96	-24
-7	108	-11
-4	84	-36
-15	41	-42
-41	-7	-19
-70	-62	-9
-84	-131	-14
-74	-210	-17
-36	-278	-12
17	-308	3
75	-275	11
130	-183	-11
181	-49	-24
224	85	-34
248	178	-40
236	206	-24
171	165	-23
51	78	-31
-101	-20	-34
-245	-89	-18
-339	-103	-21
-355	-56	-36
-297	37	-29
-188	147	-27
-63	243	-17
46	305	3
136	331	13
216	332	20
292	316	-4
346	283	-26
346	215	-32
253	98	-37
59	-70	-26
-191	-259	-35
-418	-412	-39
-531	-481	-49
-481	-443	-60
-287	-329	-63
-40	-207	-63
150	-139	-36
201	-159	-10
104	-230	-1
-70	-281	-9
-218	-238	-9
-260	-79	3
-178	155	8
-17	372	-10
143	492	-23
237	467	-33
245	327	-53
198	153	-60
140	17	-68
105	-41	-42
95	-39	-12
87	-28	3
59	-46	22
2	-104	1
-61	-164	-14
-108	-196	-19
-121	-181	-17
-98	-137	21
-60	-106	26
-26	-112	22
-5	-153	-10
2	-186	-66
1	-171	-104
-1	-90	-117
-4	27	-80
-5	125	-36
1	154	3
22	99	19
59	4	-9
97	-70	-44
114	-66	-47
91	25	-40
28	169	-25
-43	301	0
-82	372	21
-51	356	32
41	274	21
154	165	-2
221	61	-27
198	-19	-29
85	-76	-35
-71	-112	-47
-202	-126	-39
-253	-120	-46
-212	-101	-38
-111	-75	-18
1	-63	-8
83	-76	-7
114	-100	-12
97	-109	-19
41	-80	-27
-40	-7	-20
-136	86	-17
-229	157	-26
-285	170	-31
-273	119	-23
-186	35	-28
-50	-33	-18
83	-48	10
160	-2	8
159	79	-8
99	150	-13
34	182	-23
10	168	-38
40	123	-50
99	75	-45
141	40	-41
136	17	-46
93	-5	-37
49	-44	-17
48	-102	-7
102	-178	-14
179	-264	-7
226	-352	-5
199	-432	-25
97	-481	-38
-48	-482	-43
-182	-424	-46
-262	-309	-66
-285	-162	-78
-271	-20	-69
-253	80	-54
-248	127	-20
-240	138	5
-195	145	32
-98	174	45
45	233	46
192	295	32
277	331	3
260	326	-34
132	283	-80
-55	222	-81
-234	156	-62
-329	82	-41
-307	-13	-16
-184	-138	-19
-19	-278	-14
122	-386	-5
198	-413	4
206	-325	4
184	-141	-6
169	80	-9
180	261	-6
207	345	7
212	323	0
169	219	-9
65	91	-12
-64	-22	-17
-173	-98	-19
-221	-140	-29
-191	-155	-42
-121	-149	-57
-43	-116	-58
4	-54	-47
16	27	-37
8	110	-30
11	168	-24
40	182	-24
87	153	-33
132	95	-49
155	40	-43
151	10	-19
132	14	-7
121	43	-3
123	77	3
131	82	-6
117	41	-12
58	-39	-7
-42	-136	-27
-166	-203	-26
-269	-207	-4
-319	-140	-5
-292	-27	-9
-199	77	-9
-66	129	12
67	117	18
169	69	13
207	41	-10
175	76	-38
79	171	-41
-51	279	-56
-175	325	-59
-255	253	-74
-272	76	-76
-236	-152	-59
-182	-343	-80
-142	-441	-85
-134	-449	-67
-147	-413	-33
-141	-395	-8
-97	-419	-3
-6	-443	11
104	-401	9
191	-253	-9
225	-17	-28
202	224	-22
148	364	-8
97	345	-8
65	197	-24
53	17	-40
52	-78	-37
59	-32	-5
91	123	36
163	291	28
273	370	9
378	313	0
414	156	-13
320	-9	-32
89	-110	-59
-215	-120	-59
-481	-81	-41
-602	-49	-15
-538	-60	-8
-333	-103	-20
-89	-125	-18
80	-92	-16
122	-1	-11
63	99	-4
-12	161	6
-20	161	20
74	127	2
240	122	-25
401	186	-50
474	315	-70
411	445	-91
229	503	-112
-15	428	-92
-248	223	-57
-407	-53	-13
-459	-330	21
-419	-541	22
-315	-666	4
-208	-693	-26
-145	-645	-30
-149	-530	-14
-195	-359	-6
-241	-168	10
-226	11	22
-113	139	37
77	205	49
282	227	29
425	240	7
446	279	-7
345	341	-59
159	394	-102
-34	390	-105
-169	300	-104
-215	140	-89
-180	-49	-63
-97	-222	-53
-1	-345	-25
82	-416	-11
140	-437	-27
165	-413	-4
154	-331	-17
112	-184	-34
54	9	-17
3	202	-23
-24	335	-18
-15	365	-8
22	299	22
69	186	47
110	88	41
143	43	32
172	47	5
209	59	-19
238	43	-37
229	-8	-53
150	-59	-28
-10	-75	-5
-223	-32	-31
-421	37	-44
-530	85	-45
-497	68	-53
-329	-17	-52
-77	-127	-44
167	-207	-23
318	-222	13
332	-179	8
214	-126	-14
10	-105	-16
-212	-126	-16
-387	-153	-15
-459	-147	-13
-425	-81	-23
-292	21	-40
-108	110	-60
78	150	-85
224	139	-72
306	127	-43
324	162	-26
296	259	-18
242	372	-1
170	424	10
82	349	5
-20	145	0
-120	-116	-11
-178	-338	-5
-165	-441	-7
-63	-417	-8
90	-320	-14
234	-218	-32
295	-160	-31
234	-131	-38
65	-94	-38
-141	-18	-20
-300	93	-10
-352	187	0
-291	224	32
-163	183	52
-30	109	22
62	56	-19
104	68	-66
114	142	-98
122	223	-102
139	252	-92
149	198	-57
123	84	-44
50	-45	-42
-57	-141	-28
-157	-195	-20
-203	-223	-2
-173	-249	8
-85	-283	17
26	-300	24
113	-261	4
158	-157	-1
162	2	-11
152	163	-10
151	279	-5
158	330	-32
159	321	-48
122	275	-43
30	210	-54
-115	117	-81
-277	-11	-99
-410	-161	-74
-470	-299	-40
-433	-364	-25
-310	-326	4
-134	-201	22
39	-46	18
164	57	9
208	76	-9
175	16	-14
99	-55	-2
24	-87	-9
-6	-65	0
24	-25	19
104	-21	10
195	-69	-13
250	-135	-30
238	-144	-50
154	-49	-70
24	129	-42
-107	305	-2
-197	377	28
-215	298	31
-161	102	-2
-59	-94	-38
45	-185	-58
113	-136	-52
115	-2	-45
52	108	-49
-46	114	-49
-136	9	-44
-180	-126	-30
-156	-192	-41
-77	-135	-83
21	17	-63
96	175	-14
122	254	1
104	215	3
64	112	18
37	13	29
40	-25	20
71	-1	10
105	35	11
112	36	11
81	-17	-5
23	-90	-25
-32	-128	-54
-51	-108	-76
-11	-43	-85
86	16	-54
212	29	-8
328	-6	26
380	-48	56
333	-41	52
180	37	24
-49	158	-19
-300	250	-71
-502	247	-111
-603	129	-143
-584	-61	-151
-477	-248	-99
-339	-361	-16
-231	-376	13
-178	-316	-3
-165	-233	-9
-142	-167	1
-71	-125	4
52	-86	-3
195	-24	-19
297	71	-30
317	174	-29
257	244	-30
165	244	-17
96	174	-14
87	60	-15
128	-50	-9
166	-111	-4
148	-102	-24
54	-32	-26
-83	56	7
-205	115	22
-257	108	30
-213	28	4
-100	-91	-47
24	-196	-71
111	-235	-64
140	-177	-43
125	-38	-32
98	131	-13
82	262	-3
79	309	-9
80	257	-5
66	139	-2
37	12	5
1	-84	-5
-27	-127	-36
-33	-140	-61
-22	-145	-84
-1	-162	-75
11	-178	-43
9	-168	-12
-7	-112	11
-34	-12	9
-62	97	-3
-85	168	-10
-86	174	-25
-52	131	-24
24	80	-18
132	70	-21
245	123	-12
320	210	-20
312	266	-40
207	235	-44
39	101	-54
-134	-87	-50
-249	-242	-20
-271	-285	14
-217	-198	30
-135	-29	24
-87	128	25
-104	189	0
-177	123	-52
-255	-25	-68
-287	-173	-54
-247	-245	-58
-143	-215	-57
-17	-127	-43
89	-43	-32
149	-19	-32
163	-62	-44
145	-132	-40
110	-178	-41
61	-163	-49
-3	-94	-55
-71	-13	-40
-126	43	-14
-137	56	6
-92	43	22
0	40	10
103	76	-7
178	144	8
198	213	23
160	244	19
93	213	16
30	133	-4
-7	38	-14
-20	-32	-32
-17	-61	-52
-11	-65	-45
-3	-78	-27
14	-127	-11
50	-210	-8
105	-287	-9
158	-297	-23
180	-196	-16
157	6	5
87	251	7
-7	450	-1
-93	525	-21
-151	445	-32
-170	244	-48
-158	5	-81
-130	-199	-104
-101	-316	-99
-74	-344	-71
-46	-311	-66
-16	-257	-69
18	-211	-46
49	-175	-7
76	-144	22
95	-110	21
111	-74	26
128	-30	15
147	16	0
157	78	-12
142	155	-31
94	232	-27
13	282	-23
-84	278	-23
-162	210	-25
-195	99	-18
-177	-6	-12
-123	-64	-11
-67	-66	7
-44	-33	22
-63	-13	24
-112	-33	9
-153	-81	-25
-161	-111	-60
-126	-76	-80
-77	29	-89
-42	158	-92
-49	233	-46
-92	193	-8
-138	41	-6
-153	-151	0
-115	-286	-8
-36	-304	-15
48	-196	-21
111	-36	-22
139	98	-17
150	158	-16
167	153	-5
202	132	-3
242	139	-15
252	174	-22
209	191	-31
113	134	-31
-1	-14	-22
-85	-210	-26
-106	-376	-30
-62	-441	-33
5	-387	-31
58	-260	-19
66	-131	-4
30	-53	20
-24	-29	39
-61	-11	27
-66	44	14
-42	156	8
-4	279	-14
29	354	-50
51	332	-96
60	215	-124
61	62	-122
56	-58	-86
46	-94	-32
40	-55	-8
44	1	-4
66	14	10
100	-48	26
124	-160	38
107	-253	42
33	-261	23
-97	-163	-11
-242	6	-63
-348	169	-114
-373	252	-130
-304	230	-95
-175	129	-38
-42	17	3
39	-53	18
43	-60	-8
-16	-33	-26
-103	-16	-27
-170	-38	-22
-191	-97	-8
-159	-151	-2
-89	-167	4
-3	-129	-5
81	-60	-9
155	0	-7
214	25	-11
257	20	-19
275	19	-30
254	59	-24
193	150	1
99	271	49
-3	372	91
-85	410	104
-118	368	56
-99	268	-36
-46	137	-109
2	-3	-165
16	-147	-188
-18	-298	-157
-81	-444	-88
-135	-557	-25
-148	-578	13
-101	-478	19
-12	-268	4
84	-9	-11
151	207	-19
176	317	-14
172	301	-27
162	208	-30
159	112	-15
158	65	-10
136	74	-11
72	93	-8
-37	65	-2
-158	-34	-12
-242	-176	-36
-249	-290	-54
-170	-308	-38
-37	-200	-18
90	-5	-16
160	196	-28
156	315	-32
96	305	-40
29	179	-38
-4	3	-24
11	-142	0
52	-204	16
87	-176	13
78	-97	19
17	-25	23
-78	-6	25
-184	-45	1
-269	-108	-23
-321	-139	-39
-332	-98	-40
-303	16	-51
-235	165	-87
-135	287	-113
-16	335	-92
101	300	-43
188	215	-25
226	139	-15
210	118	3
156	144	22
88	179	16
25	157	-15
-23	43	-34
-64	-152	-45
-103	-365	-31
-138	-527	-12
-160	-584	-1
-153	-533	8
-112	-404	-6
-40	-246	-16
44	-90	-18
126	56	-39
192	188	-35
244	290	-6
287	343	14
325	317	32
344	213	18
323	66	-24
238	-62	-45
90	-129	-81
-93	-120	-103
-262	-66	-86
-366	-18	-56
-373	-3	-3
-288	-17	26
-148	-22	14
-1	7	-11
107	65	-26
158	118	-16
154	117	-21
111	51	-48
45	-47	-66
-38	-117	-57
-132	-113	-22
-229	-37	0
-308	58	-10
-345	110	-30
-330	92	-23
-257	23	-22
-144	-27	-16
-18	-9	-7
100	79	-12
191	181	-9
254	223	-20
288	166	-18
290	34	-15
250	-97	-19
161	-154	-24
32	-123	-28
-107	-47	-28
-214	-3	-29
-247	-31	-18
-191	-113	-5
-64	-175	13
84	-142	39
198	-2	26
237	186	-7
191	319	-20
96	327	-60
-1	213	-106
-58	54	-108
-57	-49	-108
-16	-59	-60
32	-8	-8
50	5	5
29	-94	28
-20	-305	17
-68	-533	-4
-92	-648	-21
-78	-580	-26
-36	-346	-32
5	-69	-42
27	112	-25
21	126	-24
-1	10	-19
-19	-113	-15
-15	-123	-25
16	24	-21
64	267	-18
109	483	-6
135	568	18
143	495	26
140	330	37
133	171	51
124	97	32
97	103	-11
32	124	-44
-71	88	-72
-197	-37	-104
-300	-214	-92
-339	-365	-62
-288	-418	-55
-167	-353	-65
-27	-210	-55
71	-64	-22
85	23	3
19	35	16
-84	-3	-10
-167	-44	-37
-190	-53	-48
-156	-19	-62
-90	40	-57
-37	97	-39
-21	127	-12
-31	129	4
-39	109	9
-17	77	2
50	45	-11
140	26	-12
227	25	-14
280	45	-17
288	77	-32
258	100	-46
198	90	-46
120	30	-28
29	-69	-6
-59	-181	-12
-126	-256	-2
-152	-264	22
-125	-204	34
-61	-105	26
3	-15	1
33	29	-29
3	21	-50
-70	-10	-65
-148	-18	-65
-178	32	-27
-140	144	4
-48	279	16
57	395	3
130	438	-28
154	409	-55
132	317	-75
107	195	-92
98	61	-71
110	-81	-4
118	-237	48
93	-402	49
19	-546	-12
-89	-620	-68
-196	-590	-101
-263	-452	-109
-269	-248	-91
-208	-46	-58
-94	91	-22
48	148	0
192	153	22
306	158	19
346	199	-2
300	259	5
151	298	22
-57	262	39
-269	152	36
-401	4	14
-409	-108	-17
-302	-135	-49
-138	-85	-78
-5	-13	-84
49	7	-57
19	-53	-36
-40	-159	-11
-62	-228	9
-6	-190	0
111	-45	-3
229	140	-15
280	265	-27
230	256	-21
100	121	-31
-51	-58	-41
-157	-174	-43
-186	-166	-33
-149	-50	-18
-87	85	-7
-38	159	-9
-14	127	-15
5	24	-20
46	-67	-25
118	-86	-14
203	-17	-14
261	89	-18
251	161	-28
158	148	-30
5	55	-22
-150	-59	-12
-253	-138	-4
-262	-142	-10
-187	-88	-7
-60	-15	1
65	35	24
148	48	23
167	45	-8
129	56	-60
68	99	-127
16	160	-131
-5	209	-75
7	207	1
44	137	54
81	14	26
94	-125	-30
68	-237	-51
-2	-296	-39
-106	-301	-30
-225	-278	-43
-329	-256	-35
-389	-249	-42
-383	-252	-76
-307	-241	-87
-177	-191	-54
-29	-95	-13
96	31	10
175	157	12
208	250	-1
205	298	-4
188	299	-7
171	267	-3
152	210	6
122	127	21
71	23	28
2	-84	21
-65	-167	3
-111	-196	-27
-109	-171	-52
-60	-119	-75
18	-86	-83
98	-108	-68
149	-174	-38
156	-237	-15
115	-225	-9
40	-106	-21
-46	90	-32
-117	284	-27
-155	386	-19
-144	350	-7
-91	205	-6
-11	35	-9
72	-76	-19
129	-90	-22
145	-29	-19
115	42	-19
48	79	-3
-31	67	-4
-98	51	-13
-125	78	-10
-102	165	-10
-30	286	-15
62	379	-24
139	394	-44
170	310	-54
138	153	-53
52	-32	-47
-50	-203	-7
-134	-334	30
-176	-416	37
-178	-433	21
-167	-384	6
-165	-264	-27
-181	-103	-77
-191	51	-90
-160	154	-98
-55	178	-96
111	147	-84
287	112	-65
401	114	-27
389	153	3
242	174	12
4	120	0
-227	-42	-27
-359	-270	-45
-351	-475	-21
-221	-569	16
-45	-519	50
89	-379	74
132	-237	63
86	-167	44
4	-168	-11
-46	-177	-55
-26	-111	-70
52	62	-109
150	296	-134
213	495	-116
225	578	-46
188	526	-11
136	394	-12
92	258	11
50	166	14
-11	92	-12
-107	-15	-27
-225	-192	-16
-319	-403	-1
-340	-554	10
-267	-551	2
-129	-362	-16
8	-61	-31
80	214	-41
62	350	-44
-13	310	-43
-86	163	-22
-99	31	-1
-40	10	2
51	101	-8
119	230	-17
124	283	-22
72	204	-20
9	16	-16
-21	-188	-27
4	-303	-34
63	-282	-35
112	-158	-34
117	-4	-24
80	101	-17
26	126	-9
-3	96	-6
12	61	-12
52	61	-7
85	105	2
78	162	2
28	193	-6
-39	171	-14
-87	96	-25
-89	-12	-42
-53	-122	-48
-1	-205	-40
35	-244	-16
50	-224	-4
54	-148	-30
69	-32	-54
109	95	-72
161	193	-91
192	225	-94
170	174	-71
81	53	-27
-58	-91	-3
-202	-205	-7
-300	-246	-14
-317	-207	-1
-256	-117	12
-143	-26	13
-26	17	31
59	1	11
99	-60	-33
92	-122	-46
59	-143	-44
14	-104	-11
-34	-21	37
-80	70	57
-122	132	39
-151	139	1
-161	96	-40
-145	21	-88
-114	-56	-128
-77	-116	-107
-42	-150	-45
-13	-151	-13
22	-127	-4
74	-78	-3
142	-21	-16
208	34	-22
242	76	-15
216	97	-9
139	109	5
32	124	20
-63	158	2
-113	197	-9
-112	221	-12
-78	195	-43
-47	110	-63
-38	-24	-74
-53	-170	-76
-70	-281	-40
-64	-332	-8
-25	-313	7
39	-242	-3
94	-138	-22
121	-13	-22
107	121	-20
62	252	-4
5	350	4
-46	390	8
-78	351	-4
-83	247	-32
-63	127	-49
-19	35	-51
45	-1	-35
118	-2	-30
178	-26	-21
206	-120	-12
184	-292	5
107	-482	-8
-4	-603	-58
-124	-578	-64
-224	-401	-45
-273	-144	-38
-261	92	-19
-191	223	5
-84	238	22
32	195	34
120	171	1
156	217	-28
138	308	-38
83	372	-44
25	341	-46
-2	200	-72
21	-5	-56
83	-183	-35
149	-270	-24
178	-249	0
142	-170	9
42	-100	5
-93	-77	-20
-211	-95	-52
-273	-109	-67
-262	-83	-51
-190	-4	-23
-94	96	13
-14	171	61
29	205	93
38	209	74
36	215	29
49	244	-19
90	279	-74
147	275	-112
186	189	-128
175	21	-98
99	-179	-48
-30	-322	-30
-162	-351	-53
-245	-253	-65
-245	-90	-43
-159	43	-12
-28	69	-2
86	-25	-8
128	-192	-25
76	-347	-49
-45	-420	-31
-177	-378	-5
-256	-254	1
-245	-108	1
-151	0	7
-18	44	4
96	36	-14
148	13	-25
138	20	-31
100	78	-34
77	181	-30
100	291	-21
170	366	-5
252	372	11
300	296	13
279	161	0
182	7	-12
41	-114	-13
-101	-173	-7
-202	-162	-6
-236	-101	-19
-197	-25	-30
-110	30	-39
-6	41	-40
80	14	-22
124	-42	-5
120	-106	-2
75	-150	-6
8	-160	-34
-61	-127	-59
-118	-57	-80
-153	33	-102
-166	117	-80
-158	168	-45
-129	174	-19
-81	137	20
-16	81	42
47	28	25
90	0	-4
96	-6	-32
61	-6	-53
6	-13	-64
-40	-32	-62
-50	-41	-32
-17	-23	-9
36	32	-3
81	102	1
84	147	-2
46	131	-4
-8	45	-15
-46	-81	1
-38	-196	39
-1	-253	22
36	-238	-3
33	-171	-18
-24	-91	-44
-120	-21	-76
-209	35	-89
-247	93	-72
-212	157	-63
-123	207	-47
-20	208	-6
60	129	27
107	-24	17
132	-196	-4
165	-317	-14
224	-330	-27
300	-230	-30
352	-70	-10
344	78	0
245	162	-22
71	171	-43
-144	138	-64
-329	93	-81
-429	51	-51
-420	4	-34
-319	-60	-19
-173	-133	0
-39	-182	0
42	-163	4
62	-65	9
38	77	21
9	197	15
2	237	-12
30	181	-36
82	72	-36
128	-19	-32
148	-46	-36
122	-13	-52
61	27	-66
-18	15	-57
-88	-72	-50
-130	-198	-43
-133	-282	-35
-93	-260	-11
-20	-119	17
68	80	36
148	243	40
197	289	27
204	205	-12
167	39	-48
98	-122	-56
8	-202	-79
-82	-182	-88
-161	-95	-77
-213	-5	-50
-232	35	0
-207	14	29
-141	-37	44
-47	-69	37
50	-54	4
120	8	-24
143	85	-48
117	134	-70
66	131	-75
17	90	-35
-5	41	2
-2	15	5
14	24	-9
25	47	-11
23	57	-12
25	34	-41
48	-16	-57
106	-55	-52
181	-51	-27
236	20	-11
223	131	13
123	237	41
-41	275	37
-215	225	19
-335	99	-2
-361	-53	-40
-299	-171	-91
-188	-222	-111
-85	-205	-106
-21	-155	-62
5	-109	-6
22	-87	12
57	-86	-5
116	-85	-27
172	-58	-35
189	-5	-15
142	71	9
41	145	11
-70	201	7
-148	217	-3
-158	187	-18
-104	102	-40
-20	-35	-44
49	-200	-44
77	-355	-58
57	-449	-65
7	-449	-66
-49	-355	-50
-95	-215	-28
-115	-96	2
-106	-49	18
-64	-83	4
3	-142	-5
81	-153	-4
139	-57	-18
148	134	-21
96	351	-16
-4	493	-20
-105	483	-12
-161	334	0
-145	111	19
-74	-77	40
9	-162	43
56	-135	32
43	-46	1
-10	38	-54
-61	83	-89
-67	98	-100
-11	118	-93
85	169	-74
181	237	-45
244	277	-25
259	244	-33
231	135	-40
175	-21	-43
105	-167	-34
16	-258	-39
-87	-292	-53
-185	-297	-43
-248	-306	-34
-251	-322	-16
-189	-329	0
-92	-286	-3
3	-177	2
63	-30	16
90	110	43
101	197	65
123	227	60
154	233	37
162	266	0
107	345	-40
-18	438	-74
-178	488	-86
-301	422	-66
-316	230	-52
-205	-40	-55
-28	-297	-50
118	-453	-49
154	-471	-41
67	-376	-21
-82	-238	-18
-194	-127	-35
-195	-83	-43
-83	-90	-28
77	-105	-8
198	-86	-5
229	-14	3
182	95	4
111	203	-3
69	269	1
74	272	-6
90	210	-30
78	107	-38
12	4	-34
-80	-68	-42
-158	-98	-27
-185	-92	-5
-166	-81	-10
-141	-95	-19
-145	-149	-18
-185	-223	-24
-221	-278	-27
-195	-274	-11
-85	-192	-16
87	-60	-15
245	79	12
318	171	33
268	198	33
131	168	-4
-18	109	-36
-102	58	-74
-85	20	-114
12	-18	-87
124	-82	-41
188	-167	-30
169	-250	-23
72	-286	-36
-64	-238	-58
-198	-102	-59
-282	86	-54
-302	261	-24
-250	370	4
-147	372	8
-21	286	6
90	144	2
162	2	-7
175	-92	-23
150	-121	-48
110	-89	-47
90	-23	-32
106	38	-10
150	71	41
190	66	84
191	38	105
132	9	70
26	8	-6
-94	40	-77
-181	95	-137
-206	143	-159
-170	149	-124
-95	98	-66
-17	-1	-33
30	-111	-18
37	-192	-7
16	-219	-3
-16	-184	-7
-39	-112	-21
-50	-33	-24
-55	23	-19
-62	49	-25
-76	54	-29
-85	56	-32
-80	70	-26
-48	91	-9
5	109	13
71	112	37
139	99	37
195	76	-12
229	52	-51
237	32	-42
210	-1	-17
142	-62	-16
34	-160	-17
-101	-270	-22
-231	-343	-46
-310	-334	-60
-317	-230	-39
-247	-69	3
-131	72	36
-15	117	26
63	39	-21
93	-113	-56
82	-246	-94
54	-263	-108
25	-137	-76
-9	77	-37
-53	265	-1
-114	323	6
-172	215	-4
-194	0	1
-153	-207	3
-48	-305	6
83	-253	9
195	-96	19
242	81	16
219	205	-5
149	256	-20
75	260	-48
25	257	-67
2	264	-62
-16	260	-35
-52	201	-33
-108	74	-13
-163	-98	3
-185	-251	-26
-159	-322	-48
-97	-286	-78
-30	-168	-77
11	-32	-67
20	62	-46
11	84	-18
15	47	4
46	-8	18
98	-38	26
147	-23	45
170	32	36
166	105	7
149	165	-28
141	192	-40
154	181	-27
167	140	-16
154	85	-10
86	33	-21
-28	-1	-39
-158	-15	-44
-255	-20	-34
-282	-34	-24
-237	-72	-35
-142	-142	-49
-45	-224	-43
17	-285	-35
34	-301	-20
20	-254	0
-2	-162	-9
-18	-56	-25
-18	27	-32
-11	59	-44
-3	47	-47
2	3	-39
5	-40	-32
15	-58	-44
30	-40	-30
46	10	-19
63	78	-4
75	144	18
89	199	40
104	235	42
120	249	13
124	240	1
99	215	-21
39	174	-28
-46	126	-36
-132	71	-44
-191	16	-48
-205	-38	-76
-178	-95	-75
-136	-152	-60
-105	-209	-44
-102	-261	-18
-117	-301	-13
-127	-311	-37
-105	-279	-57
-48	-206	-52
28	-97	-24
92	25	1
114	137	17
92	211	16
51	243	-7
24	230	-15
31	189	-24
71	131	-19
114	65	-12
120	-8	-17
68	-98	-9
-33	-190	-11
-144	-269	-8
-216	-309	-1
-217	-283	-2
-148	-198	-9
-25	-69	-19
99	58	-15
190	150	-28
225	182	-36
204	160	-34
144	106	-29
66	45	-20
-7	-3	-23
-58	-36	-41
-75	-53	-75
-53	-54	-85
-7	-39	-66
45	0	-30
82	53	3
83	108	6
50	143	4
0	150	-2
-44	135	-13
-65	112	-39
-61	99	-42
-45	93	-20
-34	84	-25
-40	50	-21
-59	-16	-18
-80	-104	-15
-86	-188	-11
-77	-234	-12
-57	-231	3
-42	-184	22
-35	-118	22
-31	-56	-5
-15	-5	-40
29	39	-77
105	90	-96
203	153	-92
299	218	-54
365	268	-3
373	287	19
311	274	7
170	233	-6
-27	170	-21
-245	85	-32
-433	-23	-13
-537	-154	1
-525	-274	3
-392	-339	10
-183	-303	6
43	-161	-3
226	29	-2
324	174	-16
330	189	-43
260	47	-70
139	-179	-99
-6	-370	-112
-153	-403	-101
-275	-259	-56
-343	-24	8
-333	152	45
-240	153	39
-85	-21	5
82	-257	-34
202	-384	-59
237	-300	-57
191	-41	-39
100	240	1
13	365	38
-36	266	50
-44	13	24
-26	-207	-40
-11	-240	-75
-12	-54	-88
-20	217	-79
-25	374	-51
-16	290	-23
-3	-16	10
3	-362	29
-13	-546	47
-42	-446	39
-64	-129	18
-60	219	0
-24	414	-18
31	372	-24
82	171	-19
104	-33	-14
93	-104	-35
65	-13	-57
42	156	-78
38	279	-95
51	279	-86
69	185	-55
79	72	-25
74	14	-20
68	25	-15
79	48	-2
109	21	-2
155	-77	3
184	-192	14
169	-245	11
83	-182	-10
-60	-30	-26
-229	124	-43
-366	194	-65
-430	141	-53
-393	19	-14
-276	-86	5
-112	-105	-2
43	-35	-9
150	56	-8
198	95	-20
206	43	-29
196	-51	-10
188	-109	13
172	-59	19
135	98	-8
57	290	-46
-45	410	-68
-141	373	-70
-188	186	-44
-163	-87	-42
-85	-336	-47
-1	-466	-43
31	-456	-47
-15	-334	-38
-118	-186	-24
-225	-80	-18
-278	-52	-22
-253	-100	-22
-167	-175	-16
-65	-233	-1
8	-233	13
39	-171	32
49	-68	38
69	48	28
118	153	28
183	233	40
233	277	19
234	287	-40
179	257	-100
91	174	-153
3	43	-178
-54	-114	-134
-81	-256	-46
-88	-337	7
-93	-325	17
-96	-229	12
-79	-81	-5
-22	66	-18
77	171	-19
193	221	-18
277	227	-2
283	210	12
194	189	0
32	171	-25
-143	149	-40
-272	109	-29
-316	54	4
-279	-13	28
-192	-83	29
-104	-144	8
-45	-192	-26
-21	-218	-57
-18	-210	-84
-11	-161	-76
12	-77	-35
48	26	-5
86	120	-4
111	182	-18
120	201	-43
119	181	-65
118	138	-50
119	85	-20
111	31	2
83	-25	13
18	-82	13
-65	-131	8
-148	-165	-4
-188	-171	-14
-170	-150	-25
-99	-108	-43
-4	-58	-64
69	-12	-64
98	37	-53
80	88	-41
41	148	-22
15	208	2
19	260	35
49	294	58
84	298	35
96	272	-18
75	209	-31
33	105	-52
-6	-40	-78
-23	-211	-72
-21	-373	-61
-12	-474	-22
-17	-470	3
-43	-348	-4
-77	-139	-23
-93	83	-51
-69	243	-65
-6	292	-77
74	230	-70
131	99	-43
137	-44	-18
85	-152	13
-8	-203	24
-108	-209	12
-188	-186	-2
-232	-156	-7
-242	-123	-6
-221	-97	-6
-170	-75	16
-92	-54	35
10	-30	54
116	19	62
198	98	14
224	198	-26
179	282	-72
76	301	-112
-45	225	-105
-142	65	-103
-187	-111	-82
-178	-228	-48
-142	-233	-25
-105	-140	-14
-79	-27	-10
-57	20	-6
-22	-41	-8
33	-176	-10
94	-292	-12
132	-295	-9
127	-155	-4
75	71	-6
12	272	-18
-19	353	-19
13	294	-17
97	153	-14
192	36	-9
245	11	-11
232	81	-17
158	174	-13
65	211	-20
6	152	-35
-10	20	-34
4	-108	-31
4	-170	-27
-40	-145	-40
-125	-74	-40
-213	-14	-39
-256	1	-30
-227	-18	-23
-132	-25	-22
-17	12	-17
70	90	-15
107	165	-13
93	185	-24
51	129	-28
10	24	-24
-16	-68	-14
-32	-104	-19
-42	-77	-11
-51	-18	6
-50	16	-5
-25	0	1
26	-50	1
90	-81	6
144	-48	-23
171	48	-68
156	169	-70
109	241	-56
46	222	-51
-13	109	-89
-58	-36	-91
-91	-151	-36
-108	-189	-10
-116	-159	-2
-110	-109	8
-95	-93	15
-69	-137	16
-36	-226	-6
-1	-312	-16
39	-348	-3
86	-320	-9
139	-238	-15
192	-133	2
226	-28	-4
216	66	-52
150	147	-85
28	202	-83
-122	215	-46
-262	169	-16
-360	70	-1
-388	-50	-4
-350	-147	-16
-271	-180	-4
-183	-145	-6
-112	-75	-13
-68	-12	-4
-46	14	-11
-32	14	-45
-16	21	-62
6	68	-64
30	157	-52
51	248	-37
69	290	-27
86	252	1
107	145	1
131	22	-4
151	-58	-7
155	-71	-7
139	-30	2
107	18	1
71	35	4
46	11	-14
42	-25	-23
56	-33	-31
71	7	-30
69	88	-16
46	169	-11
8	214	-13
-23	205	-21
-28	150	-26
3	67	-38
54	-21	-48
101	-102	-46
104	-164	-35
53	-189	-30
-38	-161	-15
-132	-77	32
-185	39	70
-162	131	56
-61	148	-6
81	60	-60
211	-92	-103
280	-238	-120
266	-300	-82
172	-242	-18
34	-102	15
-104	42	-26
-204	116	-77
-255	90	-88
-259	4	-98
-235	-72	-68
-195	-82	7
-142	-23	61
-74	60	76
17	104	53
116	76	12
201	-13	-17
236	-118	-23
198	-192	-37
90	-216	-38
-63	-199	-15
-204	-158	-13
-281	-99	-36
-264	-16	-58
-166	94	-44
-26	221	-31
99	321	-32
163	345	-38
141	272	-56
46	114	-54
-83	-74	-57
-201	-227	-50
-269	-294	-36
-273	-274	-9
-214	-188	21
-112	-72	21
0	40	4
98	130	-7
163	185	-9
196	190	-16
206	137	-26
206	39	-34
207	-77	-26
209	-163	-23
200	-182	-27
163	-130	-34
93	-43	-29
-5	22	-19
-108	30	-11
-181	-16	2
-198	-71	-4
-150	-77	-17
-54	-6	-35
47	116	-45
109	222	-26
104	248	-2
27	174	10
-90	38	17
-198	-79	26
-250	-117	24
-228	-59	20
-141	41	4
-29	110	-25
62	88	-37
111	-25	-47
113	-167	-53
94	-257	-55
80	-235	-61
89	-106	-67
119	77	-86
154	237	-90
175	317	-51
175	301	-35
155	222	-35
121	110	-27
77	-1	8
18	-100	30
-53	-181	21
-128	-241	20
-182	-259	-2
-187	-227	-28
-129	-141	-50
-22	-27	-53
89	84	-52
154	162	-26
139	196	18
45	195	22
-89	174	15
-209	150	-32
-263	119	-87
-245	76	-89
-172	15	-69
-88	-56	-41
-34	-131	-19
-22	-200	-10
-37	-257	-7
-51	-296	-5
-30	-304	-11
42	-261	-20
162	-155	-37
297	9	-46
407	185	-38
454	311	-18
400	328	0
240	224	-10
-3	43	-13
-273	-131	-9
-497	-227	-11
-614	-222	-4
-588	-151	15
-433	-85	13
-204	-72	-8
22	-108	-24
182	-142	-32
244	-116	-13
209	-16	-1
109	109	-10
-12	183	-24
-110	154	-43
-153	39	-46
-124	-81	-41
-36	-117	-35
86	-37	-32
201	112	-36
269	225	-24
269	210	13
198	67	44
90	-124	42
-19	-238	8
-95	-196	-38
-128	-17	-92
-125	193	-120
-101	311	-95
-71	273	-65
-41	122	-48
-11	-32	-27
18	-89	3
39	-25	22
49	93	25
50	162	20
50	114	26
61	-35	12
87	-195	-25
116	-268	-51
127	-211	-52
104	-65	-43
46	78	-43
-22	143	-42
-69	114	-62
-71	40	-78
-23	-9	-77
54	0	-53
123	51	-19
154	84	3
126	51	12
44	-40	8
-68	-136	6
-187	-171	-3
-278	-111	-5
-317	13	2
-291	127	16
-208	159	32
-94	83	11
16	-61	-8
82	-199	-32
85	-261	-59
41	-230	-59
-14	-137	-35
-39	-40	-15
-10	15	-3
69	26	-16
158	26	-32
209	47	-37
194	104	-50
113	165	-67
0	183	-70
-98	120	-52
-143	-15	-32
-126	-171	1
-68	-276	28
-5	-271	21
31	-159	-9
29	13	-24
-1	163	-13
-36	230	-22
-51	203	-23
-39	120	-12
-12	54	-23
12	58	-17
12	130	-20
-13	215	-26
-51	247	-21
-82	171	-22
-85	4	-36
-51	-192	-45
8	-334	-40
74	-362	-31
124	-273	5
147	-124	13
130	19	2
83	101	-16
12	114	-48
-60	77	-68
-118	21	-68
-141	-41	-36
-128	-111	4
-84	-190	12
-31	-263	6
7	-292	-3
17	-246	-2
1	-121	-10
-16	43	-44
-11	174	-52
27	210	-51
87	138	-31
143	13	-2
162	-89	-16
127	-99	-42
53	-8	-64
-23	131	-80
-64	249	-58
-55	282	-16
-4	238	17
58	158	17
100	101	2
103	96	-7
69	122	-30
23	138	-38
-21	108	-23
-47	33	-28
-59	-57	-21
-63	-116	4
-70	-123	5
-79	-91	1
-89	-52	-15
-98	-38	-46
-104	-58	-62
-104	-97	-63
-88	-125	-45
-46	-129	-33
26	-113	-19
120	-86	7
211	-61	19
265	-36	16
253	-7	8
175	27	0
59	58	-17
-48	67	-41
-105	51	-43
-92	22	-23
-32	13	-2
27	49	17
41	137	15
-12	244	-16
-120	322	-51
-240	320	-90
-321	219	-102
-340	43	-78
-291	-160	-36
-205	-330	-31
-123	-427	-38
-74	-452	-7
-61	-417	10
-70	-356	-6
-70	-291	-12
-42	-227	-20
22	-162	-39
107	-82	-47
189	15	-41
242	119	-25
262	211	-15
257	275	-8
237	301	-21
210	298	-24
174	274	-12
115	238	12
34	183	11
-54	97	-8
-126	-34	-24
-145	-196	-44
-102	-345	-35
-11	-416	-51
89	-364	-58
151	-185	-22
144	67	2
80	305	10
-12	443	6
-89	437	-9
-122	313	-28
-113	131	-22
-81	-35	-12
-52	-152	-2
-38	-214	9
-34	-246	-8
-19	-268	-14
20	-273	-30
77	-241	-25
123	-153	-8
126	-25	-8
64	108	-6
-52	200	-29
-187	219	-37
-286	174	-39
-311	96	-47
-245	30	-39
-115	1	-30
25	5	-25
125	21	-18
162	22	-27
145	-2	-46
114	-42	-56
105	-83	-58
130	-106	-53
166	-105	-47
164	-84	-39
93	-47	-40
-44	1	-28
-192	50	-17
-280	96	9
-253	127	71
-111	137	106
77	129	93
215	109	36
229	96	-34
109	89	-97
-83	90	-145
-243	77	-150
-288	41	-93
-194	-17	-24
-13	-82	-3
161	-123	-15
248	-123	-46
221	-75	-67
111	1	-64
-12	68	-42
-86	99	1
-86	82	43
-32	26	45
36	-37	-2
78	-79	-46
81	-87	-63
52	-75	-53
9	-68	-8
-35	-99	26
-80	-175	39
-124	-276	17
-168	-358	-3
-199	-372	13
-202	-291	-2
-169	-128	-23
-102	62	-13
-20	224	-11
49	309	-32
97	305	-48
117	247	-48
125	168	-49
139	101	-53
169	45	-51
205	-6	-25
224	-72	-11
198	-139	-11
114	-184	-21
-19	-185	-32
-163	-138	-35
-272	-71	-40
-300	-28	-35
-245	-32	-37
-129	-74	-28
-9	-107	-7
64	-87	5
72	13	10
29	155	8
-16	279	-9
-13	323	-26
60	261	-33
181	131	-41
299	-1	-28
346	-72	15
299	-64	59
148	-6	47
-56	52	14
-251	68	-11
-385	43	-55
-425	8	-95
-383	-4	-131
-280	18	-128
-154	51	-90
-35	64	-50
59	34	-25
118	-27	-22
145	-85	-23
147	-104	-10
133	-84	-5
115	-47	-14
101	-34	-10
92	-63	-12
86	-114	-21
77	-143	-30
57	-109	-9
29	-3	22
1	139	25
-10	265	32
4	325	29
43	313	4
90	256	-16
113	183	-25
90	108	-44
16	20	-25
-80	-106	-9
-159	-263	-27
-176	-409	-32
-118	-474	-63
-10	-411	-89
99	-232	-67
156	-9	-34
136	157	-35
52	195	-30
-56	121	-24
-142	8	-43
-178	-47	-44
-170	-5	-33
-140	93	-5
-110	149	3
-87	76	0
-61	-122	-8
-26	-357	3
16	-487	23
44	-419	9
37	-170	-6
-10	134	-30
-72	333	-47
-114	331	-49
-103	150	-54
-33	-81	-53
54	-212	-27
111	-171	14
101	8	16
28	198	-1
-67	284	-2
-132	223	16
-130	71	21
-70	-64	13
11	-107	15
68	-56	-28
84	16	-82
60	31	-124
33	-45	-138
31	-164	-84
65	-240	-26
116	-204	-3
159	-57	-7
175	131	-15
170	280	-36
159	332	-44
162	294	-40
188	215	-31
216	158	-26
226	135	-23
175	127	-6
62	99	-4
-103	31	16
-287	-57	30
-443	-131	16
-523	-163	6
-496	-154	13
-354	-130	24
-134	-112	17
111	-94	13
302	-44	15
383	65	7
312	229	-30
116	391	-82
-125	467	-99
-311	401	-97
-361	192	-109
-262	-85	-116
-60	-326	-88
144	-453	-54
258	-436	-16
237	-330	24
114	-211	16
-37	-152	-2
-136	-166	-8
-150	-227	-8
-93	-280	9
-26	-286	10
2	-232	1
-18	-130	1
-58	-9	2
-74	113	-15
-41	218	-39
21	286	-52
75	296	-48
79	221	-36
32	71	-2
-32	-118	43
-57	-283	54
-13	-355	20
101	-297	-11
245	-124	-36
366	94	-70
421	276	-70
390	364	-81
285	345	-80
125	272	-62
-58	187	-69
-242	129	-61
-385	93	-35
-445	47	-13
-394	-36	-2
-248	-155	-7
-51	-263	-18
118	-312	-28
187	-265	-27
125	-149	-10
-42	-17	1
-233	71	13
-361	85	26
-378	51	18
-280	26	1
-124	51	-25
26	132	-56
126	230	-59
164	279	-30
163	250	-3
156	149	-6
159	28	-10
161	-48	-7
147	-55	-22
102	-15	-22
36	27	4
-23	28	23
-46	-16	21
-24	-71	-16
27	-94	-55
69	-60	-94
76	5	-135
37	57	-123
-20	55	-75
-56	-6	-17
-41	-89	5
25	-137	4
110	-115	12
165	-28	11
156	78	22
81	141	33
-19	127	57
-89	37	65
-88	-90	26
-12	-211	-31
96	-281	-78
175	-281	-95
172	-214	-98
71	-92	-105
-98	53	-80
-276	181	-30
-400	244	-25
-426	208	-23
-360	74	-6
-231	-116	-5
-90	-280	0
16	-353	-5
65	-298	-15
66	-154	-27
44	-4	-32
37	74	-52
71	51	-54
152	-31	-22
256	-96	8
341	-74	22
358	45	19
280	205	17
111	316	-6
-109	310	-28
-320	185	-53
-453	0	-64
-472	-160	-53
-380	-237	-43
-222	-224	-18
-55	-156	0
65	-84	-1
115	-28	-9
103	14	-29
61	68	-45
29	147	-45
32	228	-39
71	278	-17
133	268	1
197	202	-3
245	112	-19
269	47	-13
262	31	-4
225	50	-2
151	67	16
46	40	20
-74	-35	-2
-181	-133	-25
-239	-198	-44
-217	-192	-54
-121	-113	-53
10	6	-35
121	110	-15
161	162	-24
118	149	-30
23	97	-22
-58	47	-24
-72	25	-22
-10	29	-18
85	32	15
133	6	36
80	-74	10
-83	-195	-44
-296	-322	-82
-459	-411	-92
-497	-408	-111
-393	-307	-100
-205	-127	-49
-12	76	25
117	241	24
166	321	-6
169	300	0
175	203	-17
216	74	-27
275	-42	-52
302	-123	-43
263	-173	-18
147	-202	-12
-10	-227	-15
-143	-234	-22
-205	-208	-5
-186	-127	1
-118	2	15
-40	141	10
12	249	-9
29	279	-24
19	231	-35
-4	127	-25
-28	22	-15
-51	-41	-21
-74	-48	-36
-91	-13	-31
-97	32	-27
-91	51	-46
-77	25	-88
-64	-43	-99
-61	-134	-64
-61	-215	-15
-48	-251	-5
-5	-222	-4
76	-119	16
184	28	11
283	181	12
342	287	2
333	309	16
245	248	37
99	129	36
-83	5	20
-251	-87	-29
-366	-128	-60
-394	-134	-79
-344	-126	-82
-231	-117	-65
-103	-98	-21
-5	-55	25
40	16	39
40	100	42
32	161	19
53	168	-19
122	121	-74
222	52	-122
311	15	-125
346	41	-85
314	120	-36
221	213	-4
103	261	-6
0	229	-15
-72	115	-18
-113	-40	-33
-136	-195	-17
-141	-312	-12
-121	-371	-15
-62	-362	-4
32	-286	-15
133	-148	-19
194	30	-17
167	197	-1
46	298	-9
-131	284	-27
-292	171	-40
-371	16	-41
-336	-102	-16
-214	-121	-12
-67	-49	-18
46	41	-43
111	66	-57
142	-20	-43
181	-184	-30
245	-339	-24
310	-389	8
312	-301	46
201	-128	66
-29	40	41
-316	119	-26
-556	92	-51
-652	8	-57
-581	-56	-96
-390	-52	-137
-175	2	-129
-18	54	-90
54	50	-33
66	-14	-2
80	-94	18
127	-123	61
198	-64	98
245	60	112
234	192	87
161	261	31
75	252	-23
40	189	-92
89	127	-136
194	109	-116
283	132	-78
283	162	-45
172	149	-21
-9	81	-5
-176	-23	12
-252	-124	9
-214	-184	7
-105	-206	-20
-1	-200	-58
38	-192	-77
3	-175	-74
-65	-136	-43
-110	-54	-28
-91	66	-15
-14	189	-11
81	261	-27
142	252	-32
151	165	-35
116	49	-38
69	-33	-25
44	-41	5
50	16	24
74	96	16
86	131	-3
66	93	-19
11	-18	-19
-65	-157	-36
-139	-261	-43
-190	-299	-37
-207	-260	-35
-184	-180	-30
-120	-97	-29
-22	-43	-25
97	-33	-12
210	-51	6
288	-75	7
302	-81	5
251	-56	1
139	-7	16
-2	56	42
-144	118	37
-262	164	-21
-339	178	-100
-366	157	-104
-343	92	-80
-277	-7	-69
-186	-122	-44
-93	-226	-16
-22	-280	8
12	-269	26
18	-188	51
19	-64	69
44	57	58
100	139	13
170	157	-37
214	121	-95
202	64	-173
129	30	-209
27	39	-159
-47	85	-62
-59	139	2
-8	165	17
61	149	27
97	97	54
61	43	54
-35	20	39
-140	38	5
-194	83	-27
-170	119	-56
-81	119	-71
18	71	-32
75	-6	8
68	-83	20
21	-129	-4
-18	-133	-28
-8	-112	-39
58	-87	-35
147	-81	-11
210	-88	-21
213	-89	-47
160	-53	-64
81	35	-53
22	163	-26
13	295	-18
49	370	-15
104	352	-21
137	229	-14
126	30	-18
67	-181	-25
-15	-348	-11
-89	-429	-10
-134	-423	-8
-141	-351	-6
-121	-248	0
-94	-145	-4
-77	-56	-8
-78	13	-27
-93	71	-52
-116	114	-36
-128	135	-20
-129	136	7
-120	121	24
-115	103	13
-125	89	-1
-154	69	-13
-191	20	-42
-215	-80	-77
-209	-230	-77
-158	-393	-60
-76	-508	-22
19	-516	3
96	-384	-10
133	-149	-45
132	119	-65
107	334	-48
83	434	-27
81	421	4
111	335	32
162	244	53
213	191	45
237	187	-15
212	203	-89
138	198	-160
32	147	-183
-81	52	-136
-166	-55	-53
-201	-145	52
-181	-199	91
-115	-208	46
-27	-187	10
62	-140	-20
138	-79	-45
201	3	-60
253	96	-52
301	183	-12
340	241	24
346	241	40
306	179	30
194	69	0
21	-45	-62
-180	-134	-98
-351	-175	-70
-443	-173	-28
-432	-153	16
-338	-143	29
-211	-160	28
-113	-187	37
-71	-202	8
-84	-179	-17
-102	-111	-27
-78	-17	-40
12	80	-56
140	157	-66
251	213	-42
275	250	-10
184	274	9
5	277	28
-195	241	16
-337	157	-23
-375	30	-65
-310	-108	-88
-184	-215	-61
-52	-261	-16
48	-249	26
117	-202	56
172	-154	49
238	-121	6
302	-99	-54
346	-64	-98
331	-6	-111
233	71	-127
71	142	-136
-107	177	-139
-244	156	-91
-303	81	-6
-285	-24	24
-216	-139	18
-138	-238	-20
-78	-303	-27
-32	-315	-15
14	-261	19
81	-148	61
166	8	46
252	161	44
308	265	29
317	291	9
273	244	-20
196	156	-46
99	60	-38
-7	-11	-24
-128	-58	-21
-262	-88	-27
-392	-110	-28
-488	-116	-39
-504	-89	-47
-422	-20	-42
-257	81	-36
-60	178	-30
107	233	-16
203	221	-4
225	153	-8
199	64	-20
169	-5	-30
160	-33	-31
172	-27	-23
192	-8	-27
192	-5	-16
163	-29	10
110	-71	22
48	-116	35
-15	-136	49
-79	-121	52
-138	-64	26
-181	34	-19
-186	164	-71
-132	301	-120
-22	409	-150
115	449	-135
228	385	-75
269	218	12
221	-11	69
100	-240	75
-49	-403	40
-177	-466	-3
-253	-441	-67
-269	-379	-154
-241	-333	-185
-188	-330	-159
-117	-343	-76
-31	-312	-7
70	-179	4
175	67	17
262	372	14
300	634	7
268	745	5
175	654	-3
50	394	5
-46	52	1
-67	-248	3
7	-433	-4
144	-481	-20
266	-433	-19
275	-355	-21
113	-289	-9
-204	-246	5
-581	-204	7
-869	-144	5
-938	-57	-2
-762	33	13
-399	106	21
2	153	-6
297	183	-16
409	221	-29
354	268	-50
229	308	-57
138	305	-56
131	233	-62
185	104	-88
234	-41	-90
216	-145	-74
124	-181	-58
1	-149	-35
-91	-91	-18
-108	-49	-5
-50	-31	3
42	-13	11
130	43	28
179	150	32
184	279	6
153	362	-30
87	344	-41
-10	210	-47
-130	-1	-69
-247	-213	-47
-321	-368	-1
-321	-432	11
-240	-425	-2
-108	-379	-30
21	-309	-42
101	-215	-44
120	-90	-38
103	60	-27
92	194	-14
116	262	13
171	244	64
223	155	119
234	53	138
186	2	104
96	22	4
1	80	-116
-72	118	-208
-111	88	-260
-125	-2	-221
-130	-93	-89
-134	-109	16
-123	-23	34
-83	135	33
-5	284	42
94	336	35
182	265	-1
226	108	-44
207	-51	-64
134	-143	-76
29	-147	-70
-83	-95	-47
-186	-55	-23
-270	-66	-27
-325	-129	-23
-346	-194	-19
-314	-212	-8
-222	-163	34
-84	-66	49
64	22	40
175	62	29
214	45	30
179	9	6
107	-5	-72
54	26	-137
56	88	-132
114	126	-63
186	96	-4
214	-16	13
156	-165	18
21	-278	24
-138	-289	20
-250	-184	-12
-267	-9	-33
-190	153	-28
-69	228	-46
22	191	-59
33	81	-64
-40	-35	-55
-153	-99	-15
-241	-95	0
-251	-48	-15
-174	-3	-29
-34	16	-41
116	16	-31
237	13	-5
306	25	12
328	31	37
325	0	60
297	-94	43
240	-230	-17
135	-340	-72
-23	-349	-128
-217	-219	-159
-401	10	-102
-511	243	0
-507	370	72
-375	336	52
-156	179	-7
72	-4	-49
234	-104	-69
288	-79	-51
242	36	-4
142	150	61
53	183	78
14	120	39
26	16	16
62	-46	24
86	-21	12
82	71	-23
59	160	-51
46	168	-96
61	82	-133
101	-51	-137
136	-141	-117
131	-136	-68
67	-43	-21
-39	70	1
-150	120	-6
-222	71	-23
-227	-49	-19
-173	-166	-20
-91	-214	-21
-22	-171	-5
11	-82	22
10	-6	37
-5	16	40
-10	-6	24
12	-24	-15
53	3	-53
99	82	-75
133	174	-61
152	226	-12
155	213	29
143	152	24
118	99	-5
68	106	-65
-8	171	-124
-104	254	-118
-194	278	-72
-239	194	-27
-208	4	-31
-87	-230	-26
106	-430	1
318	-540	0
478	-541	16
526	-471	7
419	-371	-23
169	-280	-44
-173	-207	-54
-518	-145	-35
-766	-94	-13
-842	-45	1
-740	-8	26
-497	16	59
-215	35	60
16	62	36
137	105	-3
144	153	-52
79	195	-68
5	211	-69
-32	203	-72
-22	174	-49
16	140	-30
57	99	-35
89	43	-44
111	-27	-47
135	-102	-34
167	-149	-8
193	-139	24
199	-68	43
175	25	44
133	81	27
91	56	-13
68	-48	-50
65	-171	-72
74	-234	-96
74	-179	-92
60	-18	-51
44	171	5
46	305	37
79	321	16
126	237	-26
164	115	-24
157	34	-17
96	21	-27
-5	52	-24
-111	75	-22
-189	43	-24
-223	-30	-31
-221	-99	-38
-201	-103	-48
-182	-19	-42
-165	116	-25
-137	236	-12
-89	272	-3
-19	207	2
57	71	48
113	-75	84
138	-175	82
129	-216	36
103	-209	-36
74	-186	-103
57	-160	-189
55	-124	-221
67	-59	-138
101	41	-12
151	162	53
214	266	28
263	313	-9
263	291	-36
178	215	-61
3	120	-67
-224	31	-67
-425	-46	-47
-530	-124	-30
-503	-222	11
-361	-332	50
-179	-433	56
-31	-485	28
32	-459	-18
18	-354	-61
-34	-207	-103
-74	-71	-84
-78	7	-39
-57	13	0
-38	-35	42
-31	-92	84
-29	-114	91
-6	-72	32
49	23	-12
125	143	-56
183	241	-119
190	268	-114
132	213	-46
44	88	29
-30	-59	50
-55	-178	13
-30	-218	-6
18	-170	-35
53	-56	-58
60	81	-57
44	192	-51
32	253	-60
40	262	-60
69	237	-28
100	199	-12
115	156	-7
113	112	-17
104	56	-19
95	-2	-35
86	-57	-62
54	-94	-58
-15	-101	-58
-116	-87	-33
-214	-66	-2
-255	-56	8
-206	-59	7
-72	-68	14
80	-66	29
175	-41	32
159	9	28
34	72	17
-143	130	32
-285	168	51
-321	174	22
-234	154	-28
-67	110	-61
100	52	-79
201	-7	-83
208	-59	-85
136	-86	-84
32	-77	-55
-56	-29	-30
-104	48	-15
-113	129	-20
-97	182	-48
-70	183	-41
-40	127	-14
2	26	10
64	-86	32
140	-170	25
221	-194	1
284	-152	-17
312	-60	-68
299	38	-124
245	105	-120
181	105	-87
122	41	-32
85	-60	29
67	-156	90
57	-205	110
29	-191	54
-29	-124	-18
-113	-37	-100
-195	28	-157
-242	45	-139
-241	13	-50
-205	-59	34
-183	-141	43
-217	-209	21
-324	-249	-1
-459	-254	-28
-552	-235	-48
-526	-191	-80
-361	-129	-70
-107	-56	-33
155	23	5
339	95	32
411	150	-2
396	174	-41
350	168	-23
312	127	6
271	67	5
192	6	1
40	-33	-27
-162	-31	-59
-343	6	-83
-415	60	-82
-343	88	-44
-169	53	-7
11	-54	13
107	-206	17
91	-334	37
7	-376	51
-50	-288	49
-21	-92	19
90	141	-13
212	327	-42
272	401	-85
237	365	-107
137	265	-104
49	174	-70
29	138	-41
77	150	-11
136	171	-4
145	150	-9
85	70	-14
-14	-39	-20
-81	-119	-16
-71	-129	0
4	-61	48
87	46	124
110	133	155
48	163	113
-65	123	29
-156	51	-84
-160	-10	-187
-68	-33	-265
72	-17	-229
192	12	-103
234	29	-12
191	14	-4
94	-25	-5
-14	-72	10
-104	-112	-4
-168	-133	-9
-211	-142	-45
-233	-136	-75
-222	-110	-55
-161	-47	-34
-54	53	-8
74	179	28
181	294	53
234	341	46
224	291	45
160	140	42
63	-56	34
-55	-224	20
-191	-296	-29
-339	-249	-62
-469	-137	-75
-539	-43	-95
-506	-48	-59
-366	-173	-34
-157	-359	-44
50	-507	-47
188	-519	-54
229	-370	-52
198	-119	-50
164	117	-43
182	233	-37
258	190	-16
351	40	-6
395	-108	-38
336	-165	-36
176	-100	-25
-30	33	-16
-213	144	24
-321	158	79
-343	60	127
-302	-91	105
-237	-210	27
-176	-229	-57
-123	-134	-144
-69	29	-194
-8	197	-160
59	305	-54
121	342	42
163	321	66
181	272	43
180	219	22
171	166	-27
158	106	-62
136	27	-81
106	-58	-68
67	-135	-36
39	-178	-40
36	-168	-26
67	-102	-2
122	5	-6
172	122	-22
186	218	-15
144	265	-1
52	247	1
-65	170	4
-174	55	4
-242	-51	12
-255	-118	8
-218	-121	-4
-158	-70	-16
-97	-3	-22
-64	36	-15
-71	14	-20
-111	-63	-38
-162	-162	-51
-190	-218	-45
-165	-189	-31
-82	-61	-7
46	125	17
181	300	24
269	395	36
280	372	1
212	247	-68
88	65	-138
-50	-106	-149
-158	-229	-130
-210	-296	-132
-198	-325	-83
-136	-346	-35
-43	-364	-4
57	-368	22
145	-329	67
202	-230	94
214	-85	85
182	69	46
114	188	-22
35	244	-81
-28	243	-145
-63	205	-153
-76	165	-92
-78	126	-9
-91	71	53
-119	-26	49
-151	-173	40
-165	-343	38
-145	-474	25
-95	-497	9
-30	-388	-25
24	-168	-39
56	82	-41
69	275	-66
82	356	-91
105	332	-88
137	268	-55
164	241	-27
165	290	-6
137	393	-2
99	469	5
71	438	20
74	264	27
96	-11	12
107	-292	-25
79	-479	-36
-3	-516	-35
-111	-419	-33
-199	-270	-25
-226	-144	-13
-181	-83	-5
-93	-68	-16
-19	-48	-22
4	27	20
-30	162	65
-92	313	71
-131	418	15
-124	421	-39
-76	309	-82
-20	117	-159
3	-100	-172
-14	-282	-118
-55	-393	-39
-83	-418	9
-72	-353	2
-37	-222	1
-11	-48	-16
-26	115	-30
-91	223	-19
-170	243	-13
-217	168	3
-185	41	4
-75	-84	-17
74	-151	-29
197	-140	-28
257	-76	-25
245	-2	-33
195	31	-15
148	12	22
130	-41	29
132	-82	9
130	-70	-22
101	-3	-64
47	97	-82
-8	181	-70
-28	210	-22
2	174	55
68	94	99
130	10	95
141	-38	27
89	-36	-40
-17	-2	-98
-128	34	-165
-195	42	-161
-182	15	-99
-87	-30	-41
52	-61	-18
183	-52	-21
249	-6	-16
216	59	0
87	109	19
-97	121	41
-273	96	74
-377	59	76
-369	39	1
-248	39	-89
-56	39	-141
143	-5	-161
290	-122	-106
342	-296	-13
296	-464	39
172	-537	33
17	-453	16
-128	-215	24
-226	93	8
-247	345	-8
-188	438	-36
-70	345	-81
51	135	-92
118	-78	-71
82	-182	-37
-63	-143	-19
-267	-11	-20
-448	112	0
-516	137	18
-439	50	6
-248	-97	1
-26	-211	4
143	-226	-12
211	-127	-26
193	25	-25
150	154	-30
149	203	-25
216	159	-14
330	61	-8
421	-37	-10
428	-98	-4
320	-111	16
119	-87	46
-106	-49	42
-287	-16	8
-377	4	-32
-360	4	-85
-262	-16	-112
-128	-51	-116
4	-85	-76
104	-96	-20
158	-70	26
171	-8	38
156	71	24
122	138	9
78	174	-40
27	177	-46
-24	168	-32
-70	161	-34
-99	158	-36
-96	139	-48
-63	79	-44
-3	-28	-80
65	-151	-107
128	-233	-82
167	-230	-19
178	-131	47
162	16	34
124	135	-10
75	171	-24
23	119	-41
-18	33	-59
-36	-9	-55
-26	43	-28
2	175	6
27	305	6
15	339	-8
-48	225	-20
-161	-5	-18
-288	-260	-10
-383	-432	4
-412	-466	28
-361	-387	12
-255	-264	-18
-126	-188	-39
-6	-178	-37
91	-199	-25
165	-175	-23
211	-49	-4
230	165	8
219	397	-15
194	534	-44
175	507	-69
191	324	-105
242	57	-96
297	-181	-64
294	-298	-21
175	-265	45
-60	-133	81
-360	22	106
-617	119	87
-726	117	12
-639	34	-79
-392	-86	-182
-87	-185	-235
165	-237	-181
288	-229	-42
291	-184	68
219	-127	91
148	-75	87
116	-32	79
121	3	63
132	31	34
111	50	-15
48	54	-69
-36	40	-82
-106	19	-92
-135	5	-127
-113	15	-124
-56	43	-83
6	74	-21
51	77	-9
68	33	-21
68	-47	-16
59	-126	-9
60	-157	8
72	-113	7
86	-7	5
84	110	12
56	174	-12
2	159	-17
-63	65	-9
-115	-45	-7
-133	-114	-4
-112	-98	1
-64	-4	12
-18	122	-1
12	229	-14
15	278	-22
4	272	-39
-4	233	-59
4	177	-71
26	115	-64
50	34	-52
57	-63	-43
40	-169	-32
8	-246	-17
-26	-264	-8
-40	-222	-7
-30	-136	-10
8	-54	11
64	-3	24
133	13	38
210	23	61
276	61	84
310	142	81
279	244	-5
163	324	-103
-31	338	-141
-259	268	-160
-458	143	-141
-561	4	-50
-538	-110	11
-404	-180	-1
-218	-216	-24
-52	-233	-17
53	-249	-5
93	-261	0
98	-263	-8
107	-242	-37
138	-192	-40
188	-122	-34
231	-47	-20
251	21	-11
252	70	-16
252	96	-30
261	85	-72
265	47	-105
225	-12	-104
100	-69	-74
-115	-108	-32
-366	-113	-10
-564	-96	4
-619	-78	14
-496	-80	21
-235	-110	24
46	-148	7
236	-157	9
268	-97	-2
170	39	-37
28	219	-35
-56	389	-8
-41	480	14
50	456	7
138	324	-13
144	130	-38
42	-66	-54
-123	-226	-54
-279	-329	-56
-360	-384	-46
-345	-394	-22
-263	-371	14
-168	-291	47
-88	-155	72
-25	23	45
39	203	-14
121	328	-68
210	362	-131
275	305	-149
287	197	-93
242	90	-7
169	24	37
107	8	22
84	16	12
96	23	20
116	12	4
113	-2	-3
71	-2	-10
7	25	-25
-52	68	-34
-83	97	-54
-79	85	-48
-53	33	-26
-24	-36	-10
6	-78	15
44	-68	41
97	-9	38
162	59	15
216	100	-22
234	89	-39
190	33	-39
95	-25	-68
-29	-53	-71
-145	-34	-71
-229	9	-56
-276	40	-29
-298	27	-41
-307	-30	-44
-301	-97	-61
-273	-124	-84
-204	-84	-84
-94	7	-57
38	89	-22
167	93	-21
261	-15	-25
296	-207	-20
263	-402	14
175	-498	59
49	-449	77
-87	-259	79
-193	-17	75
-232	171	11
-174	250	-74
-28	219	-115
156	154	-141
292	131	-134
311	190	-93
182	296	-2
-38	365	50
-242	318	24
-321	131	-2
-218	-138	-28
13	-390	-27
245	-516	2
339	-478	18
224	-305	13
-62	-81	-5
-392	106	-20
-614	206	-28
-627	211	-33
-439	153	-31
-148	69	-15
122	-9	-21
290	-66	-40
336	-97	-47
302	-92	-33
244	-53	-18
191	4	-19
139	51	-20
68	55	-22
-31	8	-18
-143	-74	-20
-226	-143	-15
-245	-151	-1
-187	-84	-1
-82	34	3
36	141	7
132	185	13
196	145	16
225	63	8
224	-1	-1
193	10	-3
131	107	-32
48	244	-76
-35	340	-75
-89	327	-64
-94	185	-84
-56	-45	-108
-8	-280	-113
16	-433	-93
-6	-453	-77
-57	-343	-26
-102	-159	46
-102	22	89
-46	140	86
40	171	18
118	142	-28
147	97	-68
117	84	-126
57	116	-112
10	174	-54
9	218	1
64	211	22
159	152	21
245	62	27
280	-13	18
227	-45	17
77	-43	-23
-144	-44	-62
-377	-89	-71
-542	-187	-60
-572	-309	-21
-436	-384	3
-175	-361	18
117	-229	9
326	-41	-12
371	112	-34
245	164	-32
16	100	-17
-195	-19	-14
-300	-112	-4
-267	-116	-24
-154	-37	-28
-42	56	-15
-3	88	-14
-46	17	-24
-124	-116	-26
-164	-222	-19
-110	-214	-15
38	-72	-5
239	142	-12
421	324	-18
529	382	-19
530	301	-25
417	143	-26
210	5	-8
-57	-43	33
-325	2	70
-526	85	67
-598	130	13
-511	99	-47
-296	2	-101
-32	-101	-159
172	-156	-199
249	-141	-187
192	-80	-108
66	-17	-16
-32	13	30
-34	8	36
75	-17	26
242	-35	-6
383	-46	-28
425	-60	-34
341	-90	-30
150	-131	17
-94	-163	57
-332	-157	70
-503	-99	35
-572	-14	-29
-518	60	-59
-357	83	-111
-134	50	-124
90	-7	-48
254	-40	24
324	-11	45
301	79	27
226	190	20
145	264	3
88	265	-32
49	187	-83
2	66	-98
-68	-45	-80
-156	-118	-48
-221	-139	-3
-227	-133	-2
-162	-125	-8
-50	-127	-9
62	-136	-21
136	-129	-36
162	-96	-42
161	-35	-32
172	26	-32
216	63	-10
280	65	1
317	38	-22
274	7	-30
137	-8	-21
-65	4	2
-272	32	42
-409	53	84
-438	58	81
-362	45	42
-229	38	-8
-90	50	-81
17	89	-144
81	138	-136
113	174	-33
137	185	48
169	162	42
198	125	10
210	84	4
184	45	-27
117	-2	-71
18	-72	-72
-88	-164	-75
-173	-257	-75
-211	-317	-75
-197	-318	-76
-139	-254	-77
-56	-148	-59
20	-28	-19
68	82	16
74	171	53
41	241	53
-7	279	13
-40	268	-15
-33	182	-52
18	8	-98
93	-228	-74
150	-466	-26
144	-631	-3
60	-660	16
-88	-551	5
-253	-337	-13
-382	-89	-27
-428	129	-35
-383	275	-44
-271	345	-48
-133	353	-27
-3	313	-12
101	240	-7
175	138	3
224	33	18
238	-53	24
212	-92	7
144	-68	-5
56	0	-3
-22	78	-2
-48	121	-8
-7	114	15
85	69	40
181	22	32
221	7	-20
172	35	-78
49	89	-117
-97	127	-128
-199	123	-82
-217	70	-36
-141	-1	-2
-15	-51	-16
107	-53	-54
186	-11	-57
199	36	-56
157	51	-37
82	10	-11
-8	-75	0
-94	-162	0
-162	-200	21
-197	-167	51
-185	-72	59
-122	45	36
-19	145	-21
91	205	-80
172	222	-111
204	205	-101
191	170	-50
159	109	3
136	25	29
138	-80	36
150	-173	26
147	-214	-15
108	-175	-62
41	-62	-105
-26	81	-80
-65	194	-26
-63	236	-19
-44	210	-18
-45	157	-61
-102	118	-85
-208	102	-50
-330	68	1
-404	-33	9
-393	-227	-21
-314	-460	-22
-201	-635	-24
-122	-654	3
-116	-492	30
-173	-230	24
-241	-1	9
-258	72	-12
-189	-35	-19
-39	-238	-17
141	-389	-15
299	-374	-38
384	-183	-43
393	90	-39
343	311	-46
268	394	-50
186	351	-38
106	267	-30
33	230	-16
-28	257	1
-63	300	9
-65	277	3
-37	150	-15
3	-36	-30
32	-183	-42
27	-208	-33
-10	-110	-9
-55	32	39
-77	110	94
-51	66	100
17	-65	45
101	-188	-42
164	-198	-118
175	-75	-171
135	115	-170
58	258	-116
-18	269	-43
-63	153	-2
-67	-13	-6
-38	-120	4
4	-117	-4
40	-22	-20
60	88	-18
72	140	-15
93	121	5
130	69	8
172	51	11
198	99	0
167	187	-26
53	250	-50
-130	224	-67
-340	93	-54
-507	-95	-19
-569	-262	-3
-509	-346	-11
-350	-322	-9
-152	-222	-23
11	-97	-38
100	3	-61
118	51	-75
101	53	-72
96	25	-49
124	-11	15
188	-32	49
261	-29	51
318	3	36
342	48	13
326	79	-21
262	59	-66
140	-23	-101
-42	-154	-78
-272	-286	-28
-489	-355	-31
-627	-326	-70
-623	-208	-74
-480	-50	-48
-249	74	-27
-25	118	-6
111	81	0
133	5	-4
87	-51	-5
50	-43	19
86	26	37
206	122	48
360	193	47
476	207	32
504	166	6
435	96	-34
311	37	-39
172	6	3
42	-2	39
-91	-3	47
-239	-22	36
-392	-58	-5
-509	-100	-54
-532	-119	-101
-423	-95	-129
-201	-22	-132
62	80	-106
281	177	-77
395	236	-60
374	233	-43
258	171	-19
89	72	-18
-81	-36	-53
-223	-127	-44
-316	-187	17
-350	-208	68
-317	-198	86
-222	-159	31
-87	-96	-25
44	-20	-83
130	61	-134
156	136	-118
132	198	-66
96	237	-17
76	244	-14
84	210	-50
103	112	-70
107	-48	-61
82	-252	-21
36	-437	28
-5	-538	51
-18	-492	30
-1	-300	6
28	-24	-17
46	225	-43
38	344	-39
21	298	-4
14	131	7
37	-43	-11
90	-114	-16
155	-39	-15
206	133	-13
228	296	2
216	345	9
188	250	3
139	66	-1
74	-98	5
-13	-158	1
-108	-99	3
-189	16	-1
-229	96	-23
-215	78	-19
-170	-24	-17
-127	-135	-30
-123	-175	-26
-153	-109	-47
-183	22	-57
-162	129	-45
-66	141	-49
64	41	-40
151	-108	-28
115	-218	-24
-71	-217	-26
-347	-102	-34
-584	59	-35
-665	170	-38
-547	154	-30
-285	10	-27
-6	-200	-2
175	-374	15
206	-426	22
134	-331	14
60	-130	-18
69	85	-38
171	235	-61
306	265	-65
389	183	-57
359	37	-30
236	-108	-17
89	-208	-26
-4	-247	-35
-6	-229	-46
54	-175	-34
115	-100	-13
127	-15	19
86	72	43
30	154	34
10	211	-2
43	240	-51
107	238	-104
149	225	-135
126	214	-111
41	215	-41
-68	218	30
-148	205	76
-159	157	108
-110	77	100
-42	-15	60
3	-90	-26
2	-126	-137
-32	-119	-156
-72	-85	-113
-91	-42	-50
-80	-6	-53
-50	20	-61
-16	39	-21
16	52	-9
52	53	9
98	31	-23
150	-17	-63
190	-84	-61
198	-141	-51
166	-164	-28
101	-142	-16
37	-80	-7
6	0	-1
25	68	6
85	105	3
144	112	-4
155	93	-2
80	66	22
-88	43	62
-307	29	87
-504	28	90
-589	40	42
-515	65	-18
-288	88	-84
-1	91	-127
213	51	-128
244	-39	-92
46	-166	-33
-303	-297	-32
-644	-386	-40
-812	-406	-56
-714	-356	-100
-393	-263	-105
14	-167	-65
354	-97	-13
508	-54	8
492	-23	5
380	16	-11
287	68	-10
267	126	-1
296	165	19
300	171	44
226	153	39
81	126	7
-63	110	-30
-127	97	-47
-77	70	-45
52	4	-37
172	-105	-13
213	-229	16
148	-312	22
26	-305	26
-81	-192	24
-115	-9	2
-78	182	-30
-13	305	-48
29	323	-48
24	243	-50
-10	113	-50
-37	-8	-44
-29	-71	-27
6	-74	-21
42	-29	-30
56	27	-24
42	70	1
30	89	6
44	92	-5
91	92	-20
138	98	-55
143	113	-78
74	127	-64
-59	128	-23
-207	109	7
-303	62	1
-300	-2	-9
-210	-74	-33
-75	-132	-64
48	-162	-71
125	-155	-58
152	-116	-44
140	-62	-11
113	-11	34
68	28	81
3	53	97
-84	74	49
-165	93	-19
-206	116	-75
-182	126	-131
-95	114	-165
14	71	-115
93	10	-40
110	-49	-21
68	-83	-5
8	-78	48
-32	-51	98
-42	-27	108
-40	-32	58
-60	-75	-6
-117	-137	-56
-181	-184	-93
-200	-180	-103
-132	-115	-109
25	-8	-109
212	92	-62
344	136	-15
355	96	-16
238	-24	-36
47	-179	-19
-130	-313	0
-231	-376	-2
-231	-345	-21
-160	-240	-44
-70	-102	-55
-3	23	-82
34	106	-83
59	140	-69
95	139	-55
145	117	-28
192	90	-1
203	58	32
155	26	60
49	2	95
-83	-6	116
-205	17	105
-279	60	56
-288	106	-19
-239	122	-94
-154	90	-139
-68	22	-130
-11	-55	-78
11	-99	-35
10	-90	-25
13	-33	-8
52	38	9
144	88	39
274	103	76
394	95	78
438	92	57
359	113	-7
151	153	-68
-141	182	-116
-426	169	-167
-600	97	-151
-602	-16	-83
-436	-124	-10
-178	-191	-7
76	-198	-17
238	-153	10
273	-83	24
206	-11	29
97	49	-14
12	97	-59
-17	131	-84
5	139	-103
44	112	-80
75	43	-48
77	-42	-2
57	-109	22
38	-117	12
32	-63	4
41	18	11
59	72	22
74	59	26
80	-13	28
77	-90	11
65	-97	-4
48	1	-18
23	171	-31
-10	327	-21
-38	364	28
-50	235	89
-30	-25	104
17	-294	47
75	-453	-25
107	-435	-93
84	-271	-159
1	-75	-194
-124	31	-179
-251	-19	-133
-331	-196	-111
-334	-390	-114
-261	-482	-98
-137	-408	-58
-8	-191	-21
94	68	4
162	260	17
198	317	24
233	254	21
278	150	32
336	96	40
387	136	32
396	262	26
341	410	14
208	503	1
12	492	-3
-222	366	0
-451	168	0
-639	-71	6
-751	-297	3
-759	-481	0
-664	-590	-6
-474	-612	-17
-239	-535	-22
-9	-370	-21
171	-161	-4
283	37	38
340	178	63
368	244	46
393	258	-7
402	250	-122
370	248	-196
262	247	-172
85	224	-131
-125	141	-108
-291	-1	-76
-358	-167	-8
-296	-294	8
-144	-325	-9
23	-243	-4
143	-77	-2
192	106	-11
184	233	-35
163	264	-40
150	194	-32
133	59	-14
86	-90	2
-14	-210	-6
-148	-272	-6
-257	-273	-15
-290	-218	-20
-215	-129	-12
-62	-28	5
98	67	49
196	138	60
207	182	28
159	197	-11
107	198	-61
100	189	-104
144	174	-128
198	158	-71
205	130	44
135	90	104
9	36	91
-116	-19	58
-177	-67	43
-143	-99	14
-36	-106	-24
80	-85	-84
136	-41	-123
101	15	-131
-15	75	-142
-159	116	-117
-271	130	-92
-315	112	-77
-286	63	-54
-208	6	-31
-111	-44	2
-15	-66	14
78	-61	6
170	-37	23
254	-8	46
310	7	80
306	4	83
216	-13	32
51	-34	-14
-152	-48	-76
-337	-44	-120
-448	-23	-122
-454	4	-99
-366	26	-49
-226	24	-34
-86	-14	-14
16	-98	49
70	-215	91
90	-341	95
104	-437	71
130	-460	17
169	-390	-48
201	-228	-84
205	-15	-95
170	188	-82
106	317	-75
44	331	-67
23	233	-27
65	67	-23
167	-94	-49
284	-189	-62
363	-175	-49
352	-64	-10
242	90	5
54	225	26
-148	279	84
-306	237	97
-383	117	64
-389	-29	9
-366	-142	-44
-356	-190	-47
-378	-162	-31
-410	-84	-12
-411	14	-9
-343	99	-43
-198	155	-109
-8	183	-176
171	191	-167
292	183	-104
339	162	-52
314	123	-46
251	68	-59
178	-5	-41
114	-84	-36
59	-162	-15
15	-218	12
-20	-246	13
-42	-230	12
-47	-171	13
-37	-87	35
-22	7	37
-8	77	16
6	110	-2
22	104	-25
47	78	-53
84	55	-60
122	53	-34
155	76	30
175	97	102
188	98	154
195	66	127
201	15	52
192	-22	4
148	-21	-59
57	30	-120
-70	104	-139
-199	160	-122
-282	158	-92
-289	89	-85
-222	-19	-94
-113	-116	-85
-15	-160	-61
35	-139	-39
42	-82	0
39	-32	14
67	-25	3
139	-65	-6
228	-125	-4
270	-155	-1
216	-127	1
52	-36	-7
-170	82	-27
-363	183	-17
-454	229	-1
-410	203	27
-263	122	55
-93	14	34
26	-83	-15
58	-145	-94
20	-164	-176
-46	-143	-198
-91	-106	-143
-95	-81	-57
-65	-93	-6
-26	-154	3
15	-249	-1
64	-333	-7
143	-354	0
254	-276	13
366	-100	15
428	121	22
380	310	47
200	405	64
-70	390	58
-344	305	67
-529	211	39
-562	162	-8
-450	143	-40
-255	110	-93
-59	6	-128
62	-178	-140
97	-387	-102
70	-523	-10
31	-506	57
11	-334	55
13	-77	-1
22	148	-57
19	251	-106
5	221	-119
-3	122	-99
20	53	-85
80	74	-47
156	171	-24
215	274	-2
229	301	14
192	224	24
123	72	29
52	-77	9
-1	-155	4
-29	-149	15
-45	-89	29
-51	-33	60
-48	-9	111
-20	-14	126
41	-6	65
128	43	-34
210	138	-109
249	244	-178
227	313	-228
148	313	-167
49	257	-63
-24	178	26
-52	106	53
-43	57	13
-39	12	-15
-80	-64	-64
-183	-195	-56
-321	-374	-23
-442	-557	-12
-480	-693	-34
-412	-727	-69
-257	-631	-77
-70	-426	-72
86	-157	-43
180	106	-30
211	312	-19
224	417	1
252	427	16
309	372	21
366	305	37
374	266	45
300	264	20
129	279	-12
-85	262	-41
-277	174	-55
-383	-2	-40
-378	-237	-17
-285	-456	-16
-160	-575	-3
-53	-537	28
0	-334	38
1	-36	21
-31	252	-19
-70	419	-41
-106	404	-56
-129	221	-86
-142	-44	-78
-134	-274	-31
-96	-376	19
-19	-320	43
84	-153	16
186	35	-30
255	158	-64
275	170	-88
248	94	-70
204	-12	-36
180	-78	-11
200	-72	-9
251	4	-30
290	105	-27
262	181	-42
129	195	-43
-105	135	38
-389	24	104
-630	-97	107
-744	-187	43
-700	-216	-59
-509	-178	-145
-248	-95	-211
-4	-6	-209
152	53	-132
205	63	-41
191	35	16
159	0	41
153	-7	60
172	28	62
192	95	64
180	165	49
122	198	9
46	180	-30
-4	114	-58
5	25	-67
77	-65	-48
179	-144	-18
256	-199	0
262	-225	26
182	-203	15
42	-126	-27
-106	11	-56
-212	180	-95
-245	329	-98
-206	403	-57
-118	368	-12
-21	239	3
49	64	-4
75	-88	-4
56	-173	-8
15	-188	-33
-31	-165	-55
-54	-148	-44
-53	-158	-39
-27	-183	-27
11	-182	-2
47	-119	24
75	10	46
90	166	41
91	282	29
82	301	15
65	204	11
49	26	-26
39	-164	-66
37	-300	-84
39	-330	-113
34	-264	-128
10	-143	-104
-35	-19	-49
-89	64	-17
-125	97	-15
-124	91	15
-88	71	45
-37	60	42
-10	67	24
-33	85	-16
-107	96	-46
-191	93	-64
-240	71	-53
-209	39	-40
-105	9	-40
31	-8	-34
140	-10	-24
170	-7	4
107	-14	34
-12	-48	29
-132	-112	-8
-206	-191	-28
-214	-256	-45
-170	-275	-43
-104	-233	-24
-45	-132	-9
0	-14	-11
38	83	-3
83	123	32
137	99	7
188	35	-38
214	-32	-63
198	-69	-86
140	-63	-80
64	-27	-69
3	8	-57
-21	13	-21
-7	-19	-12
25	-74	-25
42	-117	-6
22	-116	1
-36	-52	10
-107	57	-4
-151	174	-40
-135	256	-37
-60	268	-21
46	219	11
144	139	23
190	79	19
169	61	16
98	84	-16
11	106	-52
-58	85	-67
-91	1	-58
-88	-123	-32
-59	-224	-24
-21	-243	-31
16	-159	-35
51	-6	-35
78	140	-32
86	209	-30
67	174	-26
21	68	-38
-39	-35	-31
-91	-82	-25
-108	-56	-35
-86	-4	-12
-30	18	-4
29	-29	2
68	-128	3
67	-222	-2
29	-246	6
-28	-174	-8
-80	-33	-26
-99	117	-44
-81	219	-64
-25	254	-68
54	241	-40
136	215	-3
202	205	20
230	203	24
216	185	22
161	130	13
75	41	-12
-23	-51	-9
-116	-124	7
-185	-163	0
-214	-190	-5
-203	-226	-15
-162	-283	-23
-109	-339	-39
-76	-343	-53
-79	-264	-66
-129	-118	-85
-201	35	-75
-262	120	-60
-270	89	-66
-209	-37	-89
-92	-177	-80
48	-238	-33
164	-166	-14
228	13	14
234	210	66
208	324	130
175	298	152
151	155	69
126	-28	-44
86	-159	-160
23	-196	-252
-51	-144	-229
-111	-59	-95
-126	6	55
-80	32	109
17	35	74
136	49	27
240	92	-24
299	153	-28
291	200	-16
221	202	3
96	154	18
-60	71	-8
-217	-12	-23
-340	-70	-48
-392	-90	-81
-360	-79	-100
-253	-53	-80
-107	-23	-59
32	2	-30
130	22	-14
180	33	-18
196	34	3
191	26	-11
169	7	-46
113	-21	-62
7	-59	-55
-143	-107	-38
-304	-161	-19
-410	-202	-18
-406	-208	-8
-281	-162	22
-81	-63	55
111	54	79
228	153	59
236	193	17
166	170	-35
78	120	-84
32	86	-116
46	102	-104
92	150	-20
123	189	47
107	169	36
44	72	6
-28	-63	2
-72	-181	-5
-66	-228	-6
-21	-199	-12
31	-131	-21
63	-83	-5
68	-79	5
57	-101	-20
51	-101	-58
60	-33	-72
81	96	-79
97	238	-84
90	325	-60
57	318	-46
5	235	-49
-52	128	-41
-103	53	0
-135	18	39
-145	-8	45
-126	-80	52
-72	-210	57
12	-354	32
117	-437	10
216	-391	15
280	-218	-2
288	10	-21
242	186	-13
156	233	-45
52	144	-151
-54	-12	-232
-159	-145	-236
-259	-204	-205
-351	-196	-141
-417	-171	-28
-439	-177	76
-403	-215	102
-319	-242	70
-214	-194	44
-126	-50	26
-84	155	9
-80	345	-10
-85	438	-28
-57	415	-42
15	298	-66
123	154	-69
223	44	-51
266	-4	-15
234	-11	24
141	-12	32
39	-28	24
-26	-64	9
-31	-105	-3
10	-139	-18
65	-162	-21
102	-174	-14
106	-174	-13
95	-150	-9
91	-90	-15
113	4	-16
155	106	-26
198	183	-28
218	208	-11
208	174	7
169	112	22
113	59	-5
48	40	-21
-26	56	-24
-112	81	-19
-203	88	1
-279	63	9
-311	14	2
-272	-37	-31
-167	-65	-60
-22	-62	-90
116	-30	-96
202	23	-83
214	83	-63
156	133	-20
64	156	6
-18	139	9
-56	80	12
-44	-9	23
2	-95	28
44	-142	10
47	-133	-31
-10	-78	-70
-120	-13	-92
-239	19	-85
-312	-9	-46
-288	-85	-6
-158	-170	5
46	-212	-14
252	-185	-44
373	-93	-65
355	23	-75
207	109	-59
-2	124	-8
-180	65	22
-248	-40	4
-188	-147	0
-48	-199	7
89	-177	20
144	-84	-2
102	47	-47
-2	170	-43
-92	253	-64
-110	280	-107
-44	266	-83
61	228	-6
137	182	69
137	132	98
57	65	65
-57	-28	5
-161	-147	-64
-216	-263	-114
-236	-346	-141
-244	-376	-119
-262	-353	-69
-282	-309	-53
-273	-270	-47
-202	-251	-46
-69	-234	-16
84	-184	12
198	-84	44
229	58	44
180	193	23
97	269	26
40	266	16
42	204	13
93	147	7
144	141	11
156	202	3
121	278	-20
76	299	-19
74	205	-24
154	7	-34
291	-223	-19
423	-391	7
462	-426	17
362	-326	16
133	-157	-1
-149	3	-44
-392	88	-97
-534	100	-138
-545	72	-128
-459	62	-75
-340	88	-16
-239	135	51
-174	166	121
-142	153	119
-120	96	24
-90	23	-60
-47	-27	-138
1	-42	-215
42	-30	-194
81	-15	-85
118	-11	6
165	-8	16
216	13	-8
271	68	-2
313	143	10
321	202	7
296	209	-7
238	150	-16
157	54	-5
57	-39	-3
-48	-92	-2
-150	-102	25
-228	-92	49
-262	-99	44
-249	-135	21
-190	-178	-28
-107	-187	-94
-27	-127	-128
32	-8	-98
69	127	-56
102	221	-52
147	235	-33
214	174	-24
285	85	-1
338	19	59
331	8	120
245	45	141
93	97	103
-95	115	17
-273	85	-78
-402	8	-138
-459	-84	-196
-452	-163	-194
-392	-216	-106
-299	-246	-48
-184	-260	-34
-51	-263	-30
102	-246	-24
270	-199	-2
422	-118	33
516	-18	77
493	75	75
331	126	11
46	114	-59
-281	29	-108
-556	-101	-131
-684	-243	-114
-627	-352	-44
-420	-391	31
-143	-349	57
94	-224	25
222	-40	-5
228	171	-26
148	372	-54
46	505	-45
-26	546	-22
-52	466	8
-42	279	13
-15	35	-7
14	-192	-9
49	-333	-1
99	-343	30
169	-226	54
245	-37	47
313	143	31
336	250	-4
301	259	-46
210	199	-86
78	124	-139
-65	87	-138
-191	95	-76
-276	121	-7
-304	113	32
-279	41	11
-218	-86	-1
-150	-224	1
-92	-306	-23
-57	-299	-36
-37	-211	-26
-15	-96	-11
28	-9	0
99	26	-10
180	21	-43
249	22	-55
278	59	-70
253	130	-84
175	196	-65
68	210	-29
-38	153	-6
-120	46	-30
-167	-52	-41
-180	-96	-18
-169	-68	-21
-149	-3	-27
-124	50	-18
-98	56	-13
-63	14	-21
-10	-44	-50
77	-85	-57
200	-93	-32
343	-85	17
475	-80	79
536	-77	116
472	-55	129
261	13	98
-63	129	40
-423	250	-38
-702	301	-136
-816	233	-223
-731	46	-252
-491	-186	-172
-198	-355	-42
39	-381	21
164	-251	13
189	-36	-2
172	164	-8
180	272	-11
226	270	14
276	208	52
275	147	54
184	126	38
21	127	20
-143	101	13
-232	3	13
-205	-180	-28
-91	-393	-60
38	-573	-59
109	-648	-60
97	-595	-59
28	-436	-59
-35	-232	-34
-49	-41	-28
-15	92	-37
24	151	-42
23	157	-41
-32	141	-20
-108	138	-34
-148	170	-44
-105	233	-50
10	301	-41
154	340	-40
258	322	-44
287	244	-12
245	132	2
175	20	9
107	-68	21
50	-122	30
-19	-152	26
-123	-167	20
-258	-167	8
-379	-138	-15
-426	-66	-33
-366	41	-41
-208	155	-49
-13	221	-62
139	203	-60
201	110	-55
171	-15	-55
100	-111	-51
46	-138	-32
37	-106	-15
62	-57	4
84	-47	41
76	-91	79
40	-157	82
13	-186	24
30	-133	-24
100	-1	-79
192	158	-137
250	262	-128
226	272	-63
113	192	11
-54	80	24
-209	-2	13
-296	-16	26
-296	20	19
-229	51	-6
-144	37	-37
-83	-32	-77
-59	-118	-100
-60	-170	-113
-54	-150	-100
-14	-66	-47
64	35	7
160	110	41
244	142	66
285	150	87
274	175	77
221	244	38
144	341	-24
66	408	-88
-2	373	-129
-63	211	-170
-124	-59	-156
-191	-359	-83
-262	-590	-10
-325	-677	36
-369	-620	49
-366	-460	42
-319	-278	15
-227	-142	-6
-106	-83	5
14	-90	-12
115	-123	-40
180	-153	-58
210	-152	-78
207	-117	-83
188	-57	-79
163	16	-34
139	96	15
118	168	24
93	211	2
58	215	-8
14	169	-39
-33	93	-80
-66	15	-74
-71	-26	-58
-34	-6	-42
52	72	-1
180	181	44
325	279	74
450	338	94
505	338	108
446	279	117
245	180	64
-67	54	-33
-431	-77	-129
-728	-192	-190
-872	-270	-172
-813	-286	-88
-574	-248	-16
-255	-171	-9
22	-107	-7
171	-86	-4
176	-116	-12
97	-166	-5
15	-181	-14
-5	-116	-35
45	31	-37
124	209	-18
175	339	-5
166	357	-13
111	256	-21
55	88	-21
34	-65	-19
52	-139	-10
92	-118	4
119	-46	5
122	15	-21
110	27	-37
106	-4	-40
117	-35	-50
129	-14	-39
110	71	-23
36	195	-11
-76	300	-7
-179	329	-23
-226	268	-38
-189	131	-37
-92	-39	-56
11	-211	-42
64	-358	4
40	-470	12
-42	-530	13
-133	-517	-14
-190	-416	-54
-189	-233	-66
-141	-11	-49
-70	189	-22
0	310	-17
64	332	-18
125	282	-23
184	225	-25
230	207	-13
248	244	-8
226	296	3
167	300	24
97	210	32
41	22	3
20	-214	-37
31	-413	-66
49	-503	-91
47	-446	-79
2	-268	-12
-88	-36	72
-194	171	108
-279	290	46
-307	295	-42
-259	203	-137
-155	66	-228
-33	-57	-229
54	-131	-115
76	-142	19
30	-116	29
-41	-83	-9
-80	-71	-11
-40	-83	-9
71	-102	21
204	-105	27
278	-80	22
230	-37	14
57	5	2
-176	31	-1
-373	41	-22
-448	50	-36
-376	68	-32
-198	100	-27
4	121	-24
151	116	-19
205	70	-10
186	1	-16
137	-61	-40
96	-93	-30
75	-83	-17
51	-54	4
5	-37	30
-68	-46	37
-143	-67	39
-178	-70	4
-144	-28	-30
-43	58	-36
91	150	-34
209	196	-23
269	161	2
262	56	34
204	-63	38
123	-135	-16
44	-121	-72
-23	-39	-96
-81	57	-116
-126	108	-124
-156	81	-105
-156	5	-68
-114	-70	-52
-32	-89	-34
75	-43	4
190	35	35
291	88	44
357	68	61
369	-15	81
309	-121	38
169	-182	-38
-47	-167	-103
-299	-83	-141
-525	24	-132
-647	92	-78
-626	89	3
-459	22	54
-213	-61	53
17	-114	14
161	-104	-24
189	-40	-68
133	45	-79
61	119	-70
28	158	-53
54	162	0
114	142	45
164	115	81
172	84	64
138	45	3
85	3	-54
44	-39	-105
28	-65	-125
27	-68	-120
22	-43	-81
3	1	-1
-22	45	34
-36	83	11
-23	103	-9
6	110	-38
34	100	-43
40	64	-27
21	-6	-25
-5	-112	-28
-24	-229	-4
-26	-321	10
-22	-346	-7
-31	-289	-3
-56	-166	11
-82	-25	32
-67	82	26
2	131	-12
114	132	-20
205	134	-43
204	169	-77
74	237	-72
-156	298	-48
-390	279	-21
-518	152	-31
-476	-76	-29
-275	-318	-3
-7	-471	6
204	-460	16
283	-289	10
228	-40	2
107	165	-18
14	223	-38
0	113	-34
54	-107	-38
121	-317	-40
128	-409	-36
50	-337	-47
-79	-133	-50
-195	110	-43
-239	299	-23
-190	372	15
-80	327	20
36	209	36
105	76	57
121	-29	25
105	-94	1
94	-126	-40
114	-135	-116
162	-125	-162
208	-90	-141
216	-27	-89
162	53	-62
47	127	-56
-95	170	-37
-228	170	-13
-310	140	-3
-315	108	-5
-247	93	-17
-129	98	-16
-1	108	-18
103	94	-6
162	39	24
175	-51	48
156	-143	65
126	-201	56
94	-196	32
62	-138	-11
22	-48	-49
-26	29	-84
-71	68	-104
-99	71	-83
-91	51	-56
-47	38	3
13	43	56
65	65	76
90	93	59
88	103	4
72	93	-44
64	67	-59
67	40	-62
74	17	-64
57	-6	-52
7	-39	-52
-74	-86	-70
-153	-136	-90
-199	-170	-80
-189	-155	-33
-126	-85	-3
-45	23	-3
20	129	16
48	185	19
40	162	-1
22	62	-24
22	-66	-51
56	-173	-50
116	-204	-30
175	-140	-2
203	-3	11
181	153	2
111	265	-10
9	284	-19
-96	192	-32
-180	3	-48
-228	-233	1
-243	-449	94
-229	-582	152
-191	-595	112
-137	-482	-1
-68	-283	-99
6	-67	-188
69	106	-215
107	200	-161
109	215	-44
75	195	31
25	179	24
-20	183	26
-46	190	29
-54	155	-11
-54	45	-35
-64	-116	-54
-88	-264	-66
-112	-312	-64
-118	-198	-71
-88	44	-76
-28	319	-69
40	492	-36
85	477	8
89	282	38
50	9	51
-4	-204	77
-43	-265	75
-50	-178	32
-20	-29	-43
25	65	-94
69	40	-107
97	-76	-115
110	-189	-72
118	-205	9
133	-90	98
161	101	129
193	261	91
221	305	26
230	218	-33
212	56	-104
161	-86	-131
79	-139	-117
-26	-97	-89
-127	-8	-70
-195	60	-59
-208	71	-31
-163	35	-31
-86	-8	-30
-18	-17	-23
2	13	-16
-38	64	-2
-118	100	3
-194	97	2
-222	57	-23
-185	0	-53
-104	-51	-30
-21	-89	5
28	-109	18
30	-117	39
-1	-111	63
-32	-90	72
-38	-56	32
-19	-25	-37
9	-15	-96
23	-29	-155
16	-60	-183
2	-82	-135
5	-64	-41
44	-5	27
118	84	24
197	168	17
245	218	20
238	228	17
167	201	24
53	157	3
-60	93	-28
-143	5	-64
-178	-117	-67
-167	-258	-37
-136	-381	-21
-112	-439	3
-112	-401	14
-130	-277	12
-147	-115	-10
-133	24	-8
-71	100	19
32	110	11
156	85	-25
256	67	-52
299	69	-59
262	86	-59
158	88	-58
17	63	-50
-124	26	-36
-234	4	-6
-295	20	22
-296	64	39
-246	108	46
-154	110	60
-38	62	68
81	-11	26
180	-58	-36
236	-43	-102
236	32	-161
175	129	-182
83	188	-147
-11	171	-87
-72	93	-40
-85	-16	-27
-47	-107	-31
23	-156	-24
100	-167	-21
163	-165	-12
194	-165	20
190	-158	75
145	-127	118
67	-63	114
-35	13	61
-135	65	-36
-194	61	-155
-181	-2	-236
-95	-84	-229
23	-129	-121
111	-99	12
106	-4	64
-8	100	31
-190	150	14
-350	112	22
-402	11	6
-321	-90	-1
-149	-124	-11
28	-66	-7
125	55	8
116	177	11
37	241	5
-33	233	-7
-38	178	-25
28	127	-40
117	106	-37
171	110	-20
151	99	2
79	35	13
4	-82	18
-27	-221	-20
-8	-315	-62
26	-322	-64
33	-240	-50
-3	-98	-27
-54	41	-23
-68	137	-20
-3	171	-8
132	164	-1
285	137	4
383	117	15
378	105	0
270	88	-30
104	48	-22
-58	-20	-26
-180	-114	-47
-251	-218	-45
-288	-317	-51
-308	-381	-61
-315	-394	-60
-299	-347	-47
-247	-233	-36
-158	-71	-40
-47	101	-27
60	239	11
154	312	49
221	319	57
260	283	31
262	244	-7
216	235	-62
119	241	-118
-15	233	-133
-150	166	-125
-241	27	-80
-255	-161	-34
-190	-340	-20
-72	-444	-2
54	-435	9
150	-326	12
192	-170	9
179	-24	28
120	62	43
22	85	31
-93	66	4
-201	41	-32
-267	37	-91
-263	54	-151
-191	79	-138
-71	89	-77
37	71	-9
87	32	8
56	-16	16
-24	-50	24
-100	-52	9
-116	-26	21
-53	23	22
62	71	28
183	103	22
266	110	4
296	103	-3
285	99	-14
257	114	-13
214	150	-24
140	179	-6
27	166	35
-127	87	56
-277	-58	46
-370	-227	-4
-363	-359	-48
-264	-400	-100
-125	-336	-130
-5	-199	-129
51	-49	-82
49	55	-29
27	100	-30
31	103	-32
78	108	-51
147	139	-59
192	190	-60
181	221	-56
111	190	-10
19	91	31
-54	-42	48
-82	-148	80
-67	-175	117
-36	-116	104
-12	-8	46
-3	84	-38
6	113	-140
37	76	-195
94	13	-172
167	-18	-87
234	16	-8
269	103	5
263	188	-10
221	205	-5
139	114	11
26	-66	26
-111	-278	6
-250	-439	-41
-354	-482	-60
-390	-393	-58
-345	-209	-44
-246	-5	-54
-144	150	-47
-101	221	-60
-136	210	-104
-217	157	-83
-278	90	-64
-248	31	-40
-111	-35	1
94	-122	24
278	-229	22
358	-321	10
302	-345	11
150	-270	23
-31	-101	44
-163	100	42
-212	252	21
-190	296	-7
-134	223	-15
-84	86	-24
-53	-41	-34
-31	-100	-22
-1	-83	-19
46	-17	-17
111	55	-18
170	105	-24
209	131	-29
222	148	-30
205	153	-23
170	132	-17
119	69	12
62	-31	21
14	-138	2
-15	-196	-17
-16	-174	-27
2	-72	-32
25	59	-35
32	158	-39
11	189	-52
-30	155	-60
-68	101	-67
-80	66	-47
-53	68	-1
-1	84	30
54	79	14
102	37	-23
143	-22	-49
196	-60	-60
267	-48	-45
333	10	-3
346	76	70
250	96	97
25	45	2
-288	-56	-100
-599	-162	-125
-782	-218	-138
-768	-198	-129
-565	-119	-83
-263	-21	-37
12	54	-3
172	84	-11
196	68	-37
125	20	-18
44	-44	-6
14	-117	-7
39	-190	4
96	-241	-13
133	-249	-17
136	-194	-22
110	-84	-27
85	53	-21
77	178	-14
78	252	-2
66	268	-19
24	243	-47
-36	201	-68
-89	161	-83
-96	111	-50
-52	36	-1
15	-79	1
64	-218	-12
67	-344	-19
28	-400	14
-17	-362	39
-23	-237	30
27	-72	28
113	68	8
186	151	-27
198	165	-40
132	143	-27
13	122	-21
-115	127	-18
-205	148	-10
-231	155	1
-201	117	8
-139	21	-1
-75	-112	-9
-20	-240	-22
23	-313	-24
54	-305	-21
75	-218	-27
74	-83	-30
53	53	-50
21	157	-61
3	205	-56
22	203	-35
90	178	-4
190	150	22
269	143	28
278	155	1
175	168	-23
-24	154	-42
-262	97	-58
-459	-5	-88
-545	-136	-93
-489	-256	-63
-333	-326	-33
-153	-322	8
-18	-242	39
41	-119	55
47	12	11
52	110	-44
100	162	-75
200	177	-105
313	180	-82
381	197	-2
357	235	80
238	275	91
62	283	49
-109	227	5
-225	86	-52
-256	-112	-104
-221	-320	-135
-143	-466	-130
-64	-497	-92
-7	-394	-61
25	-207	-43
35	2	-32
36	152	-15
36	200	24
48	157	45
72	77	42
105	26	32
139	46	10
161	123	-11
161	203	-34
133	221	-45
87	137	-63
27	-25	-69
-32	-210	-45
-88	-344	-25
-128	-384	-12
-150	-326	3
-142	-214	-10
-102	-96	-37
-32	-5	-38
54	43	-34
131	66	-40
175	79	-54
171	86	-45
115	91	-25
25	87	-6
-70	77	32
-144	68	60
-181	71	76
-177	93	72
-147	119	38
-104	138	-13
-63	128	-69
-34	79	-135
-7	-11	-141
17	-118	-71
42	-212	-10
60	-263	0
56	-243	-22
22	-151	-14
-37	-12	-16
-102	121	-40
-140	201	-42
-132	195	-34
-74	113	3
14	1	21
93	-89	22
127	-109	41
101	-67	30
24	3	7
-77	55	-19
-162	57	-76
-209	20	-119
-209	-24	-136
-165	-41	-107
-92	-22	-48
-7	12	-7
75	28	17
133	3	33
162	-46	39
152	-89	31
114	-86	9
66	-29	-5
39	59	-9
52	137	-21
107	170	-58
184	153	-76
242	106	-53
252	64	-21
194	40	19
85	30	43
-40	15	43
-138	-23	16
-184	-81	-22
-175	-147	-74
-138	-192	-131
-107	-207	-127
-101	-196	-67
-124	-174	-3
-153	-151	21
-161	-131	-22
-129	-112	-69
-64	-81	-81
14	-33	-38
79	30	-12
110	106	-42
111	190	-42
93	268	-34
76	323	-20
71	335	-4
77	291	14
85	200	21
88	85	7
94	-20	-1
114	-81	-6
156	-98	-3
205	-88	21
231	-92	38
188	-128	26
57	-196	21
-145	-258	4
-358	-265	-16
-496	-199	-33
-491	-62	-53
-340	97	-58
-100	222	-64
135	273	-47
269	244	-8
258	170	2
134	74	-12
-21	-15	-12
-119	-96	-34
-117	-176	-52
-34	-251	-50
62	-305	-52
99	-300	-55
44	-218	-74
-71	-64	-63
-182	114	-32
-217	259	-19
-152	317	-18
-20	282	-15
114	188	-18
179	90	-40
144	41	-43
32	55	-24
-97	104	-1
-190	147	-5
-213	138	-20
-174	64	-15
-109	-61	4
-53	-202	26
-26	-320	38
-18	-388	45
-6	-391	45
24	-339	-1
76	-240	-79
137	-116	-118
188	8	-147
210	106	-140
208	164	-78
191	170	12
175	132	61
175	81	42
193	36	51
222	16	62
237	18	47
211	23	36
118	13	21
-43	-29	-2
-248	-93	-51
-444	-151	-103
-569	-168	-124
-576	-118	-116
-459	-8	-106
-263	127	-102
-61	237	-93
82	272	-60
140	211	-8
130	80	19
97	-67	23
86	-171	-1
109	-183	-34
147	-110	-64
163	8	-56
139	112	5
89	154	62
51	126	74
59	53	48
111	-8	14
172	-21	-36
188	29	-83
127	116	-97
-2	190	-92
-144	211	-68
-244	155	-36
-262	39	-7
-216	-100	9
-151	-218	16
-113	-283	-5
-118	-286	-21
-142	-234	-21
-141	-150	-4
-85	-54	52
23	37	102
140	124	130
216	204	113
230	269	47
187	301	-51
126	274	-149
89	174	-211
93	18	-198
124	-155	-109
150	-281	-28
141	-314	-5
91	-234	-19
7	-79	-16
-84	81	-25
-161	171	-37
-204	157	-35
-208	49	-49
-173	-101	-42
-107	-224	-23
-28	-275	-6
39	-245	0
65	-152	-8
35	-36	-7
-43	65	15
-139	127	35
-208	137	43
-216	90	31
-161	0	5
-65	-117	-12
28	-226	-32
85	-286	-46
93	-279	-52
71	-198	-32
54	-68	-22
74	77	-16
143	202	8
245	279	0
344	310	-20
392	296	-41
344	252	-62
197	187	-79
-29	112	-86
-272	34	-76
-459	-39	-58
-522	-99	-57
-432	-144	-20
-234	-167	53
-10	-169	87
138	-144	82
150	-97	12
29	-30	-88
-148	46	-145
-280	114	-172
-286	157	-159
-159	161	-104
34	131	-22
203	77	11
275	15	-8
237	-33	12
132	-58	38
36	-48	31
-3	-12	16
24	42	7
80	88	3
119	99	-9
119	64	10
90	-9	24
62	-87	26
62	-124	48
94	-86	48
132	29	19
154	177	-3
140	290	-27
96	301	-52
32	188	-77
-36	-27	-86
-105	-259	-58
-180	-426	-30
-253	-475	-26
-303	-404	-38
-300	-264	-48
-216	-127	-49
-58	-35	-28
138	3	-7
314	17	-8
411	32	-27
409	67	-51
314	103	-66
162	113	-71
-14	83	-39
-185	30	16
-347	-9	43
-484	-8	34
-572	34	10
-584	77	-16
-497	74	-14
-321	1	12
-101	-119	47
93	-223	89
200	-244	83
206	-157	9
142	4	-109
72	169	-208
46	265	-263
80	266	-225
148	203	-90
211	129	9
239	97	10
229	99	-26
195	98	-21
151	41	-25
90	-86	-7
1	-242	32
-119	-356	38
-239	-354	22
-303	-224	-8
-264	-14	-31
-120	183	-40
81	289	-8
261	277	31
343	183	48
306	82	26
191	29	-8
67	35	-38
-7	59	-65
-22	45	-50
-7	-34	-20
-7	-162	8
-37	-268	24
-76	-292	49
-81	-210	35
-30	-49	-6
56	108	-18
128	195	-40
130	171	-77
50	75	-89
-75	-33	-74
-176	-84	-63
-203	-45	-60
-152	61	-65
-70	175	-46
-24	233	-21
-50	193	-5
-143	64	-20
-242	-112	-37
-285	-273	-40
-232	-373	-44
-98	-378	-19
71	-296	12
222	-153	52
314	11	69
337	150	42
297	237	-8
210	261	-65
89	237	-139
-47	182	-176
-174	128	-117
-261	81	-18
-282	36	64
-234	-20	91
-130	-98	76
-11	-185	45
98	-254	32
181	-268	22
244	-211	-11
291	-93	-52
311	54	-80
273	186	-86
145	272	-120
-63	296	-125
-310	262	-91
-504	188	-38
-572	83	-3
-484	-36	-9
-273	-151	0
-38	-229	9
125	-246	21
169	-194	24
114	-99	29
31	-11	41
-8	23	18
27	-18	-32
117	-103	-79
208	-169	-88
251	-152	-74
234	-31	-47
175	153	-6
120	317	7
82	379	-12
55	305	-41
20	119	-59
-36	-103	-57
-101	-282	-40
-144	-372	-14
-137	-362	1
-84	-288	13
-13	-181	10
30	-66	-1
19	41	-7
-31	145	-30
-78	235	-37
-77	298	1
-17	323	51
72	309	57
136	261	30
128	194	-21
49	119	-82
-55	35	-116
-124	-47	-129
-115	-125	-99
-26	-181	0
101	-202	110
214	-187	167
269	-144	132
262	-99	31
209	-70	-64
125	-63	-159
17	-67	-218
-117	-61	-204
-271	-32	-116
-418	26	-7
-507	93	39
-500	142	57
-389	147	55
-212	101	16
-33	12	-18
89	-92	-43
130	-172	-65
111	-202	-63
72	-169	-22
55	-90	10
68	-3	-18
99	45	-48
125	27	-49
141	-52	-64
156	-159	-75
175	-235	-51
196	-241	-33
188	-166	-25
124	-39	-19
1	84	-23
-147	162	-11
-257	177	11
-270	149	17
-182	111	17
-35	95	13
97	106	34
153	129	47
115	132	8
19	100	-44
-74	35	-71
-117	-36	-62
-101	-85	-32
-53	-86	0
-18	-43	11
-12	26	10
-29	93	-7
-40	131	-50
-21	131	-68
30	95	-28
91	34	14
134	-33	14
144	-84	-9
121	-103	-40
83	-83	-91
42	-29	-164
5	35	-168
-37	83	-78
-87	88	20
-135	45	70
-162	-30	59
-144	-95	41
-83	-113	18
11	-70	-26
100	17	-42
152	99	-36
154	130	-10
116	85	-3
65	-9	-37
26	-105	-53
12	-144	-43
20	-98	-13
38	13	21
58	142	10
77	233	1
93	259	-17
102	229	-49
96	164	-49
61	89	-48
7	-3	-15
-54	-127	5
-96	-297	-10
-105	-481	-19
-93	-611	-37
-94	-620	-49
-138	-475	-44
-236	-215	-24
-353	63	-2
-423	248	7
-390	273	3
-235	159	4
-3	-6	-28
219	-106	-56
346	-75	-64
332	77	-84
209	265	-81
56	387	-57
-41	380	-35
-42	247	-15
42	62	5
154	-98	32
216	-176	56
203	-169	48
110	-113	10
-18	-46	-35
-141	1	-44
-231	31	-40
-285	52	-44
-304	65	-39
-292	61	-42
-246	23	-27
-162	-46	-10
-46	-127	1
70	-184	32
159	-190	42
197	-141	2
182	-66	-35
140	-6	-80
107	14	-124
98	-9	-106
115	-44	-65
139	-57	-33
158	-23	-54
164	55	-57
172	153	-8
195	233	18
223	267	41
231	247	49
175	183	46
40	102	10
-161	27	-42
-366	-23	-69
-503	-43	-86
-520	-47	-68
-419	-56	-53
-252	-93	-43
-89	-152	-26
17	-215	13
58	-247	42
61	-216	28
71	-123	-9
107	9	-67
155	131	-98
181	201	-93
159	213	-52
90	191	-6
13	174	-2
-30	189	-18
-17	225	-19
37	236	-8
92	181	-2
107	41	10
68	-147	22
-1	-314	26
-58	-393	31
-69	-348	22
-30	-200	7
39	-18	-18
107	131	-21
151	201	-19
167	194	-43
155	149	-67
116	111	-77
42	106	-46
-71	118	-18
-210	108	32
-333	35	53
-382	-105	29
-312	-282	13
-134	-437	-27
87	-509	-80
252	-473	-116
280	-353	-112
156	-209	-66
-68	-95	-7
-296	-40	-21
-426	-20	-50
-420	9	-41
-300	87	-35
-137	211	-1
-3	332	49
65	381	84
78	313	65
71	150	16
77	-38	-49
104	-169	-120
136	-192	-154
155	-126	-121
151	-35	-55
139	10	3
141	-12	14
162	-66	13
184	-91	24
175	-34	20
111	89	13
1	215	-36
-107	277	-75
-156	238	-64
-106	126	-63
27	12	-62
178	-40	-47
269	-20	-5
242	28	18
99	44	26
-102	-6	36
-277	-100	7
-360	-176	-45
-331	-174	-95
-230	-85	-106
-115	50	-86
-32	159	-62
9	193	-18
32	147	19
70	64	39
139	0	38
219	-22	20
272	-15	10
257	-14	-1
160	-43	-11
6	-93	-40
-160	-127	-75
-282	-110	-74
-330	-39	-35
-292	59	-10
-195	135	4
-79	160	37
28	135	71
101	101	87
133	93	48
133	129	-4
121	189	-79
109	227	-181
107	203	-195
113	111	-118
114	-33	-42
94	-186	-27
44	-315	8
-29	-393	38
-107	-424	44
-161	-402	67
-169	-332	45
-124	-224	-1
-40	-96	-30
58	13	-52
143	64	-77
187	33	-84
179	-76	-41
120	-218	-9
18	-332	5
-106	-357	10
-226	-271	-26
-313	-98	-71
-339	104	-88
-285	261	-78
-162	339	-53
7	325	-14
179	252	2
310	170	12
366	121	21
331	119	0
210	150	-2
36	197	7
-143	227	15
-273	228	-5
-311	195	-32
-242	134	-21
-93	47	-27
71	-61	-52
170	-181	-74
148	-286	-88
5	-348	-90
-198	-345	-87
-373	-275	-58
-434	-164	-13
-354	-57	7
-167	12	25
44	33	51
200	36	57
259	58	41
234	121	14
178	215	-25
139	295	-57
144	311	-39
175	240	19
199	110	70
187	-26	61
138	-113	6
79	-128	-80
34	-95	-150
23	-50	-134
31	-24	-66
