File Name: not saved
Channel 2: 'Channel 2', 31930 values, raw ADC, no filters.
Channel 3: 'Channel 3', 31930 values, raw ADC, no filters.
Channel 4: 'Channel 4', 31930 values, raw ADC, no filters.

69	8	-20
184	-43	-8
227	-99	-4
192	-98	9
116	-14	16
62	131	1
67	262	-12
124	310	-30
182	237	-56
175	77	-62
82	-83	-51
-79	-166	-39
-242	-139	-12
-342	-41	14
-339	52	23
-240	75	4
-89	15	-26
67	-75	-36
191	-116	-46
278	-48	-39
326	121	-35
342	330	-58
326	483	-67
271	517	-62
182	408	-46
75	196	-25
-28	-51	-11
-111	-275	8
-169	-434	26
-209	-510	22
-241	-506	13
-272	-432	1
-291	-311	-26
-291	-173	-55
-263	-65	-74
-212	-22	-67
-152	-47	-34
-88	-116	-10
-24	-170	-10
44	-164	-8
121	-71	-4
190	82	-7
226	244	-8
198	362	-12
101	403	4
-43	372	31
-183	295	15
-260	202	-9
-229	106	-24
-93	12	-40
100	-83	-58
276	-173	-72
371	-238	-72
351	-263	-57
230	-236	-27
51	-169	-12
-130	-87	-25
-264	-17	-37
-329	18	-42
-315	17	-42
-236	-13	-21
-118	-52	-13
16	-86	-8
135	-90	-7
221	-58	-16
249	6	-19
215	93	-3
127	171	10
5	215	6
-121	208	-3
-221	157	-14
-259	91	-20
-225	43	-25
-126	39	-26
8	70	-32
125	113	-20
182	134	7
151	119	12
48	74	-12
-83	23	-43
-181	-10	-51
-208	-28	-67
-154	-53	-97
-54	-115	-83
40	-222	-32
89	-345	-6
84	-438	3
44	-446	0
8	-354	0
6	-183	-8
47	12	-23
124	178	-32
211	283	-38
283	324	-35
324	321	-30
321	283	-24
271	221	-24
180	121	-18
63	0	-8
-53	-117	-14
-137	-183	-13
-174	-163	-15
-163	-62	-31
-127	72	-39
-99	181	-40
-98	211	-23
-120	158	-18
-143	63	-23
-142	-16	-6
-101	-49	-3
-33	-43	-33
32	-38	-38
67	-74	-9
68	-153	-1
59	-235	7
79	-263	0
155	-207	-30
269	-87	-45
373	26	-40
380	66	-24
222	3	-20
-111	-131	-27
-545	-248	-38
-934	-270	-39
-1131	-170	-29
-1039	2	-17
-676	157	-6
-152	210	-15
351	140	-20
669	-1	-21
717	-124	-20
539	-148	-1
266	-49	4
46	123	-6
-30	294	-20
30	388	-46
151	388	-58
237	317	-52
226	227	-46
124	145	-32
-14	84	-15
-126	22	-5
-180	-53	0
-162	-131	-3
-88	-185	1
26	-187	6
162	-139	-4
280	-71	-5
339	-30	-14
280	-43	-24
103	-99	-40
-153	-161	-56
-388	-177	-56
-500	-130	-41
-436	-36	-4
-236	57	15
-1	108	-8
154	103	-22
175	58	-22
105	15	-34
21	-2	-49
0	7	-54
46	19	-48
105	1	-27
97	-55	3
-4	-136	-6
-151	-200	-26
-256	-214	-27
-243	-167	-27
-115	-70	-31
61	38	-24
192	132	-15
216	194	-13
155	228	-20
79	239	-28
50	236	-33
89	213	-39
150	165	-27
170	90	-22
123	1	-21
26	-79	-4
-61	-127	-7
-100	-136	-14
-84	-115	-34
-53	-89	-58
-55	-79	-55
-99	-95	-53
-157	-124	-30
-178	-140	-5
-143	-124	13
-68	-64	19
-1	16	-24
27	92	-40
16	130	-24
-3	120	-18
8	69	-12
46	4	-22
79	-48	-35
61	-81	-30
-6	-97	-26
-79	-117	-17
-85	-155	0
12	-204	1
167	-243	-15
266	-238	-30
188	-178	-30
-99	-72	-21
-503	33	-21
-838	100	-15
-923	109	-3
-702	76	-15
-262	48	-23
188	68	-15
446	153	-20
422	267	-27
211	354	-26
5	364	-21
-14	279	-12
201	135	1
541	-16	-3
800	-115	-5
800	-145	-15
522	-121	-24
82	-79	-19
-296	-46	-20
-442	-29	-18
-325	-14	-37
-55	14	-56
180	55	-56
248	94	-77
133	103	-96
-48	67	-76
-157	-6	-31
-107	-101	-6
62	-183	-4
226	-237	-21
245	-253	-38
69	-242	-29
-225	-209	-10
-484	-160	-9
-564	-97	-13
-424	-25	-2
-145	45	-18
112	105	-21
210	137	-3
102	142	5
-134	129	10
-345	110	1
-397	95	-2
-245	83	-13
47	68	-13
355	41	1
558	13	-7
583	-4	-12
462	10	-22
266	64	-38
87	147	-38
-25	225	-41
-59	260	-43
-41	231	-48
-4	141	-41
22	23	-17
20	-84	-19
-19	-149	-24
-98	-163	-30
-203	-148	-45
-308	-130	-62
-372	-131	-72
-361	-160	-53
-260	-199	-27
-87	-231	-5
107	-237	16
269	-208	26
352	-148	8
344	-56	3
258	50	7
123	163	-21
-31	254	-43
-185	299	-33
-321	270	-10
-428	166	-16
-481	3	-31
-473	-177	-30
-402	-322	-34
-291	-394	-39
-173	-389	-37
-76	-312	-31
-1	-201	-34
78	-84	-35
192	21	-12
363	117	6
562	201	10
723	272	2
769	313	-1
648	308	9
383	252	-6
52	160	-25
-229	66	-45
-375	6	-66
-350	-6	-65
-206	17	-52
-34	43	-51
66	39	-59
44	-9	-53
-83	-83	-30
-248	-145	5
-366	-162	20
-389	-123	38
-306	-45	43
-152	37	40
20	93	26
164	104	-5
260	74	-25
306	22	-66
302	-28	-112
245	-60	-115
119	-61	-79
-68	-37	-35
-289	9	-6
-473	51	3
-550	65	-19
-481	34	-40
-291	-44	-36
-46	-145	-39
161	-232	-21
266	-264	-16
262	-240	-20
191	-171	-13
107	-103	-8
53	-70	-2
31	-76	-6
14	-94	-5
-12	-81	-9
-37	-12	-19
-30	106	-27
33	228	-27
135	299	-20
226	294	-28
245	219	-32
179	128	-23
60	70	-17
-32	76	-18
-29	129	-21
81	183	-34
242	191	-37
357	126	-35
351	9	-11
214	-121	7
-4	-211	-4
-223	-233	-27
-375	-194	-16
-432	-122	-7
-409	-53	-10
-321	-12	-2
-189	-5	-30
-7	-25	-39
209	-53	-40
413	-82	-39
534	-94	-43
498	-89	-51
291	-56	-51
-40	-5	-40
-392	57	-16
-644	117	3
-717	149	24
-610	141	26
-366	98	14
-71	40	10
189	-3	2
373	-6	-30
467	33	-34
473	100	-42
407	164	-60
283	192	-49
115	169	-47
-81	100	-45
-276	3	-42
-435	-92	-25
-524	-165	-1
-523	-203	17
-431	-207	46
-274	-174	49
-100	-113	28
41	-36	-19
119	40	-67
138	86	-109
135	82	-147
163	14	-141
248	-100	-90
373	-225	-25
470	-311	5
469	-320	9
326	-248	-3
74	-118	-17
-202	20	-23
-394	117	-22
-439	144	-10
-341	104	-5
-167	32	8
-10	-36	8
68	-67	-3
66	-57	-14
30	-18	-30
16	30	-24
46	68	-20
107	102	-10
151	138	-5
145	189	3
93	244	1
32	279	-19
11	265	-16
48	174	-10
128	27	-8
200	-138	-6
222	-256	-23
183	-282	-30
110	-218	-21
51	-104	-37
32	-8	-56
38	19	-59
16	-29	-58
-87	-108	-46
-282	-151	-19
-525	-103	-7
-724	33	-11
-787	200	0
-676	324	6
-433	340	-17
-150	241	-40
78	72	-57
207	-92	-62
253	-196	-34
280	-224	-3
340	-190	7
432	-140	11
506	-93	6
501	-53	-5
386	2	-13
201	82	-16
41	180	-31
-1	267	-21
100	301	14
280	261	22
415	154	15
383	10	-24
137	-131	-74
-258	-240	-112
-676	-301	-115
-986	-321	-76
-1095	-308	-41
-1000	-270	-32
-740	-206	-17
-378	-114	-8
32	0	-8
436	123	-12
775	236	-12
967	313	-9
947	330	-20
701	283	-17
312	180	-20
-78	41	-21
-321	-98	-24
-353	-208	-26
-214	-265	-11
-24	-279	2
92	-261	13
94	-233	10
34	-206	11
16	-168	12
99	-102	-16
251	6	-53
363	137	-43
333	254	-38
135	310	-64
-137	277	-78
-337	177	-87
-357	64	-79
-208	2	-46
-7	14	-5
101	85	10
40	154	12
-145	158	14
-335	77	6
-403	-64	5
-319	-204	-12
-159	-286	-16
-42	-289	-7
-57	-241	4
-199	-187	-3
-388	-158	-4
-516	-145	-4
-516	-111	-27
-383	-17	-12
-158	144	-5
112	329	-15
391	461	-40
642	483	-56
818	374	-27
839	181	-35
671	-31	-43
336	-180	-21
-55	-230	-28
-350	-189	-45
-428	-101	-51
-277	-15	-57
-4	38	-63
231	51	-56
300	40	-30
184	25	-13
-15	12	3
-162	6	20
-176	-1	13
-69	-8	6
66	-15	-3
137	-16	-16
116	-12	-7
50	-13	-28
22	-21	-43
64	-42	-27
131	-70	-42
127	-92	-41
-23	-93	-42
-312	-69	-54
-632	-36	-51
-836	-11	-60
-825	-18	-38
-610	-63	-18
-279	-132	-16
29	-193	-15
236	-211	-1
332	-171	-4
365	-70	-21
386	51	-20
407	158	-17
405	205	-2
344	182	-9
228	99	-8
98	-3	-6
9	-79	-15
-13	-104	-17
1	-75	-18
-13	-23	-18
-102	12	-30
-260	-1	-30
-425	-66	-18
-522	-155	-17
-507	-225	-36
-402	-240	-36
-267	-195	-25
-152	-109	-14
-55	-13	-15
66	70	-20
262	143	-4
528	224	19
793	320	24
947	422	5
902	495	3
666	497	-8
328	410	-39
16	252	-66
-170	71	-88
-208	-77	-97
-161	-166	-85
-118	-204	-48
-148	-231	-27
-248	-275	-28
-363	-336	-31
-420	-379	-20
-385	-355	-5
-262	-247	7
-117	-70	13
-4	110	9
41	238	11
25	275	8
-10	238	-25
-20	177	-57
23	138	-30
117	142	-1
226	171	11
299	174	24
284	122	-13
172	12	-55
-14	-118	-79
-213	-222	-87
-354	-254	-75
-383	-219	-53
-289	-150	-31
-113	-85	-23
69	-52	-13
190	-51	-2
216	-58	2
167	-55	-6
95	-33	-10
49	-12	-8
58	-11	-19
99	-45	-33
123	-101	-46
87	-149	-49
-28	-158	-21
-194	-107	6
-356	-14	-3
-448	91	-20
-418	164	-21
-260	184	-9
-13	151	2
242	89	-2
411	29	-9
416	-8	-5
242	-15	-9
-63	-5	-19
-385	1	-27
-589	-14	-30
-589	-55	-26
-366	-106	-38
-22	-152	-38
299	-166	-33
456	-141	-43
403	-89	-45
188	-31	-48
-65	4	-38
-237	4	-19
-262	-25	-23
-175	-48	-20
-55	-33	-22
20	43	-33
38	170	-28
38	301	-20
78	379	-11
179	356	-6
300	227	-9
363	22	1
300	-188	0
116	-340	-6
-115	-394	-8
-295	-353	-11
-344	-246	-19
-253	-115	-30
-72	1	-26
132	97	-17
318	170	-18
466	230	-8
575	275	31
632	298	46
591	287	13
413	239	-38
110	166	-64
-237	88	-88
-513	19	-102
-621	-37	-82
-553	-90	-43
-392	-145	-6
-261	-206	-4
-248	-254	-18
-336	-265	-19
-424	-236	-2
-380	-167	7
-150	-90	-7
207	-33	-38
545	-15	-55
716	-17	-52
664	-1	-58
439	69	-46
194	208	-40
51	373	-30
67	503	-10
181	507	-13
273	366	-21
254	95	-31
105	-219	-22
-103	-460	-15
-259	-547	-27
-276	-448	-15
-152	-227	-10
32	15	0
162	174	9
135	202	-7
-71	119	-24
-416	-6	-21
-773	-94	-5
-1013	-111	7
-1043	-76	7
-847	-44	-13
-496	-68	-21
-108	-151	-23
184	-248	-52
308	-292	-86
260	-241	-74
123	-106	-36
5	56	-23
-17	166	-5
61	189	0
182	135	1
266	68	2
269	43	-23
206	90	-16
145	174	-9
151	241	-16
238	236	-26
358	143	-50
430	0	-44
387	-143	-41
216	-240	-40
-25	-278	-26
-253	-264	-15
-399	-224	1
-425	-159	-2
-347	-64	-7
-199	55	-7
-24	185	-3
144	284	-7
278	316	-41
346	261	-60
335	142	-56
249	13	-53
125	-83	-36
15	-122	-15
-37	-124	-7
-25	-122	1
21	-136	3
52	-161	11
37	-160	5
-17	-106	6
-65	-2	-1
-57	110	-30
18	171	-56
130	158	-75
210	75	-54
189	-17	-19
52	-62	3
-165	-32	-4
-380	52	-21
-516	131	-23
-526	158	-27
-420	110	-15
-247	21	-16
-69	-64	-28
47	-104	-34
91	-90	-56
81	-37	-58
71	25	-49
124	85	-50
274	140	-70
501	183	-67
716	201	-19
800	168	8
660	71	9
291	-60	0
-208	-182	4
-669	-233	10
-929	-189	4
-911	-78	13
-668	34	4
-344	76	-1
-93	26	9
8	-87	0
0	-187	-14
-18	-214	-40
48	-147	-53
212	-26	-60
403	83	-54
506	131	-26
470	108	-11
310	47	-26
115	-8	-55
-15	-32	-48
-45	-28	-37
-6	-21	-18
33	-31	3
19	-58	18
-47	-83	22
-117	-85	3
-149	-56	-22
-137	-9	-66
-119	39	-93
-140	84	-81
-206	123	-55
-276	165	-47
-278	199	-39
-181	208	-19
-11	158	-18
148	34	-14
210	-148	3
141	-351	4
-16	-510	-9
-167	-589	1
-226	-562	-8
-167	-438	-6
-36	-254	5
92	-39	-22
162	165	-49
165	329	-33
133	424	2
107	435	2
105	373	8
110	269	3
97	171	-11
54	119	-33
1	126	-47
-33	171	-55
-27	206	-53
14	183	-31
62	85	-25
94	-67	-12
105	-224	-20
107	-326	-21
105	-351	-30
82	-294	-54
-5	-196	-63
-191	-98	-43
-463	-32	-10
-748	-14	-5
-920	-34	11
-889	-83	22
-632	-137	3
-217	-177	-16
216	-188	-30
544	-153	-24
689	-66	-8
680	62	-18
597	211	-32
518	345	-38
466	437	-57
409	466	-48
299	431	-12
124	350	5
-57	249	11
-156	150	6
-100	69	7
96	18	12
338	-16	-6
490	-42	-19
460	-79	-22
245	-131	-41
-53	-200	-60
-299	-265	-80
-392	-305	-85
-330	-292	-71
-188	-223	-63
-76	-111	-61
-59	8	-52
-132	95	-16
-225	127	16
-259	109	17
-198	56	3
-70	3	-2
56	-34	13
116	-55	9
78	-72	-9
-47	-97	-28
-215	-131	-32
-378	-171	3
-497	-196	8
-545	-196	-22
-507	-165	-31
-372	-102	-23
-153	-13	-18
110	100	-30
345	215	-40
474	312	-38
451	350	-37
288	309	-30
56	183	-27
-159	12	-33
-280	-145	-41
-279	-240	-30
-170	-244	-5
2	-183	16
183	-108	37
329	-66	9
401	-71	-13
373	-92	0
241	-79	-6
28	-1	-25
-197	127	-32
-335	253	-17
-308	313	-32
-104	271	-77
202	144	-105
474	-11	-100
583	-131	-60
468	-179	-24
174	-159	-8
-175	-96	1
-439	-30	0
-539	20	-4
-481	43	-20
-335	41	-37
-174	-1	-48
-31	-80	-52
97	-181	-54
229	-263	-51
349	-274	-21
407	-183	-13
340	-6	-10
129	182	0
-160	295	10
-408	274	22
-487	129	8
-344	-58	6
-38	-188	-16
287	-189	-41
486	-69	-26
505	97	-23
385	223	-27
241	247	-11
169	180	1
175	77	-3
179	6	-20
60	-2	-17
-229	35	6
-616	71	14
-937	66	8
-1024	15	-18
-797	-54	-43
-328	-99	-59
190	-97	-64
554	-55	-56
648	-7	-43
496	13	-39
234	-4	-38
16	-45	-18
-78	-76	-18
-55	-69	-17
-10	-20	-12
-23	53	-30
-123	118	-29
-260	150	-32
-344	135	-39
-299	81	-33
-105	5	-17
184	-70	8
478	-127	5
676	-152	4
716	-134	9
599	-82	6
366	1	0
103	90	-21
-104	164	-57
-195	201	-67
-168	192	-48
-70	138	-35
11	47	-39
10	-68	-48
-89	-199	-54
-239	-334	-68
-360	-459	-77
-388	-541	-56
-314	-557	-7
-194	-490	24
-96	-343	34
-67	-149	19
-87	45	20
-97	199	3
-43	294	-45
75	340	-55
196	358	-48
237	372	-2
147	380	41
-43	362	38
-241	309	9
-337	214	-27
-276	112	-38
-80	31	-50
160	-3	-65
330	-6	-54
370	-15	-32
277	-62	-21
107	-163	-32
-82	-274	-44
-248	-348	-38
-380	-330	-48
-465	-222	-55
-493	-69	-32
-435	58	-12
-271	111	-17
-23	93	-17
251	47	-8
467	33	-7
549	71	-11
476	138	-4
287	171	0
74	122	-15
-77	-12	-43
-107	-182	-51
-24	-304	-23
124	-322	-4
270	-233	-6
359	-84	1
366	53	-2
301	140	-21
184	179	-14
46	207	4
-91	259	-13
-208	335	-26
-288	395	-42
-317	386	-55
-285	282	-44
-205	99	-47
-109	-101	-39
-30	-258	-32
8	-330	-26
11	-322	-17
-3	-269	-10
-14	-207	12
-18	-157	5
-31	-114	-4
-81	-72	-18
-170	-27	-36
-274	13	-36
-343	27	-33
-325	7	-22
-218	-43	2
-44	-103	12
131	-148	-4
265	-157	-30
346	-133	-42
399	-82	-21
459	-12	-32
527	66	-44
566	147	-43
518	218	-46
346	272	-23
81	299	-15
-195	290	-11
-378	256	-18
-415	196	-18
-325	115	-14
-202	14	-9
-152	-110	-4
-228	-244	-13
-392	-356	-31
-550	-403	-37
-589	-351	-18
-450	-199	-30
-160	4	-51
196	180	-43
503	261	4
671	213	34
670	68	2
516	-92	-3
258	-184	-23
-38	-159	-59
-312	-32	-76
-509	131	-74
-585	256	-52
-535	284	-50
-382	210	-37
-183	68	-19
-9	-94	-8
94	-238	0
110	-336	3
61	-381	-2
-12	-357	-12
-62	-265	-22
-65	-119	-40
-7	51	-46
103	195	-52
248	267	-49
398	244	-34
521	156	-20
581	44	-19
562	-38	-11
461	-76	-6
291	-82	-12
79	-85	-6
-159	-100	-14
-392	-114	-25
-585	-96	-18
-686	-17	1
-645	114	6
-443	253	2
-121	341	0
221	337	-14
462	249	-13
529	121	-16
428	17	-40
244	-25	-43
106	-5	-39
91	48	-32
182	90	-24
285	93	-30
291	48	-19
156	-27	-22
-79	-116	-35
-304	-198	-42
-425	-258	-50
-419	-275	-24
-354	-234	-5
-331	-129	-10
-394	20	-9
-515	171	-14
-572	268	-43
-475	275	-40
-200	183	-14
163	27	2
462	-144	24
569	-280	19
469	-355	8
236	-363	-21
10	-317	-64
-87	-230	-60
-20	-113	-14
154	16	13
332	136	24
421	221	8
387	249	-7
248	228	-33
59	178	-82
-138	130	-97
-311	96	-95
-439	65	-77
-509	12	-72
-507	-85	-51
-436	-210	-13
-315	-322	-4
-178	-363	-2
-59	-311	2
20	-178	13
69	-27	13
113	78	7
172	106	4
252	76	17
332	41	8
386	57	-20
392	137	-38
344	248	-81
245	321	-99
107	309	-85
-59	195	-52
-239	22	-20
-392	-153	-25
-475	-271	-31
-450	-311	-23
-303	-278	-15
-65	-191	-6
194	-72	-8
410	65	-9
541	213	-15
592	350	-18
584	452	-18
549	489	-16
486	458	-7
373	373	-9
190	279	-14
-62	199	-11
-339	136	-12
-580	62	-17
-740	-60	-19
-801	-248	-4
-779	-475	6
-690	-676	6
-546	-766	-5
-350	-713	-9
-123	-532	-18
79	-309	-9
184	-143	0
143	-100	-36
-20	-163	-24
-198	-251	-10
-240	-252	-37
-50	-97	-53
334	197	-42
753	528	-22
991	755	-22
930	777	-40
596	579	-55
166	253	-65
-130	-53	-67
-156	-222	-49
40	-201	-33
275	-48	-28
346	129	-20
180	225	-20
-153	193	-9
-459	63	4
-571	-85	-12
-442	-173	-1
-182	-174	20
41	-110	9
116	-42	-3
45	-19	-20
-65	-51	-32
-117	-111	-37
-82	-149	-40
-28	-133	-27
-57	-65	-15
-205	22	-16
-397	89	-23
-499	110	-32
-407	85	-39
-123	41	-41
223	10	-41
452	7	-44
458	28	-39
262	53	-20
8	60	-7
-152	32	22
-137	-21	58
7	-87	41
158	-138	-8
193	-164	-38
81	-161	-84
-114	-135	-94
-280	-103	-70
-336	-72	-64
-273	-44	-17
-150	-3	11
-36	57	7
32	140	0
72	235	-15
125	307	-60
215	328	-115
324	270	-86
400	139	-46
401	-42	-21
313	-226	6
161	-362	13
-17	-421	20
-191	-381	8
-350	-261	-18
-481	-99	-51
-571	58	-49
-579	165	-17
-481	187	-6
-279	127	4
-19	17	28
229	-90	26
406	-131	-5
488	-83	-21
496	43	-12
462	183	4
401	253	26
296	205	16
133	43	0
-77	-157	-15
-273	-300	-51
-373	-309	-80
-312	-179	-93
-102	22	-77
172	204	-62
386	287	-54
439	257	-34
333	157	-22
130	57	-22
-58	5	-19
-165	-4	-24
-188	-4	-29
-185	-34	-22
-222	-97	-16
-307	-162	-12
-392	-180	-19
-393	-127	-18
-273	-26	-5
-50	68	1
192	103	-8
358	58	-4
392	-31	3
313	-105	-1
190	-115	-23
94	-54	-43
48	42	-35
22	120	-31
-47	143	-32
-191	112	-33
-392	59	-31
-577	19	-22
-654	6	-11
-584	8	-7
-378	-5	-11
-106	-49	-9
145	-114	-4
313	-160	15
373	-150	24
337	-68	5
249	60	-9
155	189	-28
93	264	-42
93	261	-65
155	190	-96
254	92	-82
341	7	-37
354	-37	-21
258	-43	-48
82	-34	-52
-101	-41	-51
-191	-77	-53
-135	-135	-41
42	-195	-8
234	-226	4
301	-211	13
165	-152	36
-151	-63	10
-506	24	-17
-740	87	-43
-727	106	-45
-487	83	-25
-130	31	-37
172	-21	-33
297	-56	18
222	-62	13
37	-41	-14
-116	-15	-11
-141	3	-31
-15	-1	-53
195	-20	-70
382	-39	-75
449	-41	-77
371	-10	-35
205	45	-9
42	110	-13
-23	161	21
39	181	33
196	166	42
359	122	35
413	69	24
287	19	-7
-16	-20	-39
-409	-54	-51
-762	-93	-58
-950	-142	-51
-905	-198	-35
-659	-240	-20
-297	-242	-26
44	-178	-30
268	-60	-27
329	84	-33
257	202	-43
121	249	-22
0	208	-4
-60	101	11
-47	-18	41
18	-99	11
96	-113	-36
156	-76	-55
178	-26	-65
162	-3	-76
118	-16	-66
69	-42	-36
33	-49	-24
27	-3	-9
52	86	-2
99	179	-26
143	229	-36
159	202	-34
132	106	-21
68	-20	-18
-11	-122	-9
-77	-168	4
-105	-149	-13
-94	-90	-10
-56	-26	-19
-19	15	-23
-7	24	-9
-32	13	-9
-91	-2	-23
-161	-7	-27
-214	5	-20
-227	28	-25
-189	48	-29
-118	49	-11
-49	20	26
-21	-41	41
-50	-127	19
-120	-210	-9
-167	-258	-27
-121	-245	-51
62	-170	-74
358	-61	-94
666	32	-101
846	63	-81
786	14	-54
462	-92	-19
-33	-191	-5
-507	-222	-14
-779	-138	-16
-751	36	-15
-459	238	-7
-53	386	-19
288	421	-40
439	343	-20
373	203	4
180	75	0
-8	5	-12
-94	-5	-22
-55	6	-37
49	-13	-38
123	-81	-26
93	-171	-19
-61	-222	-9
-285	-181	-11
-487	-49	-27
-571	123	-31
-497	250	-30
-299	265	-24
-54	156	-23
121	-23	-42
140	-191	-24
-8	-281	-8
-253	-278	-6
-472	-224	14
-531	-174	14
-366	-167	15
-4	-183	3
446	-163	-9
831	-53	-6
1030	161	-12
995	422	-17
772	638	-48
446	722	-76
124	643	-98
-124	438	-79
-273	195	-36
-324	-20	-17
-303	-174	19
-237	-280	32
-159	-376	20
-97	-470	-21
-70	-536	-51
-90	-524	-43
-147	-403	-33
-216	-194	9
-259	31	59
-249	185	60
-170	228	36
-28	174	7
151	105	-55
332	98	-106
475	182	-134
541	313	-121
506	403	-89
373	372	-102
170	210	-102
-39	-41	-57
-195	-286	-21
-253	-451	-16
-213	-508	-28
-112	-482	-23
-13	-420	-14
25	-351	-11
-11	-272	-2
-103	-167	16
-195	-30	27
-240	119	44
-206	232	52
-101	269	56
33	233	53
141	143	14
175	61	-37
107	19	-77
-57	18	-86
-281	23	-77
-506	2	-38
-653	-59	-3
-665	-135	3
-509	-178	-12
-217	-145	-34
128	-32	-48
419	126	-51
558	273	-39
486	356	-17
234	345	-1
-112	261	-5
-417	133	-10
-566	7	-16
-511	-93	-8
-286	-152	-6
10	-171	-14
258	-164	-10
383	-134	-5
373	-96	-4
299	-53	-6
258	-15	-8
320	21	-16
478	61	-19
652	112	-27
724	171	-30
623	233	-25
343	269	-30
-20	272	-21
-329	228	-35
-480	143	-68
-450	35	-64
-311	-84	-64
-172	-214	-61
-123	-352	-35
-185	-490	-27
-310	-590	-15
-409	-606	-7
-421	-487	-4
-333	-233	3
-177	97	2
8	399	14
187	567	11
346	548	-6
469	372	-4
516	135	19
446	-50	23
251	-122	-9
-30	-86	-39
-296	-11	-74
-433	27	-97
-383	-7	-60
-165	-90	-42
102	-154	-61
285	-150	-57
306	-60	-41
189	68	-35
27	174	-56
-77	211	-93
-81	166	-87
-30	66	-10
-15	-51	13
-101	-154	3
-269	-233	4
-426	-282	-2
-470	-304	9
-344	-286	-7
-93	-219	-1
175	-117	-5
339	-4	-19
341	89	-28
216	142	-25
60	164	23
-36	171	74
-28	190	74
66	222	24
190	247	-22
273	235	-75
271	164	-115
182	45	-118
21	-84	-106
-170	-174	-69
-339	-196	-30
-434	-147	-13
-409	-48	-18
-255	55	-25
-6	131	-39
257	155	-41
446	130	-11
496	67	10
411	-8	19
233	-72	3
34	-111	-3
-126	-112	-5
-229	-86	-11
-288	-45	-9
-338	-14	6
-383	-2	9
-407	-11	-22
-378	-28	-39
-273	-39	-25
-105	-38	-2
82	-24	-4
229	-11	-6
299	-3	-17
276	-4	-42
181	-5	-59
49	-2	-54
-78	-1	-31
-167	-19	-14
-189	-72	-25
-133	-160	-44
-9	-251	-44
148	-304	-35
288	-281	-24
365	-177	-15
354	-26	-3
273	109	-2
166	174	2
79	157	-3
39	85	-20
24	21	-43
-1	12	-57
-76	70	-41
-197	158	-22
-325	215	-20
-394	210	-47
-357	135	-46
-205	39	-42
23	-23	-35
254	-19	-23
421	41	-24
481	112	-12
425	142	-10
274	108	-7
67	33	-13
-147	-37	-14
-320	-62	-25
-413	-38	-27
-405	15	-18
-304	53	-9
-151	53	-8
2	22	-7
109	-13	11
154	-21	20
152	0	21
136	24	15
126	16	14
107	-45	-12
50	-145	-53
-71	-243	-70
-243	-282	-64
-399	-241	-25
-452	-127	-14
-350	15	-18
-102	137	1
207	210	-13
462	230	-39
562	212	-51
482	171	-62
269	116	-62
18	39	-60
-185	-55	-66
-303	-152	-56
-351	-225	-25
-366	-252	-20
-371	-233	-24
-358	-192	-47
-307	-163	-49
-195	-165	-10
-38	-183	4
123	-177	-7
245	-108	-32
299	35	-26
290	215	-3
251	365	7
204	414	-4
159	339	-23
101	164	-21
24	-40	-5
-62	-207	19
-128	-292	32
-136	-304	17
-71	-270	8
44	-226	-12
163	-181	-42
234	-121	-48
239	-30	-41
193	96	-23
131	229	-35
81	331	-30
38	364	-15
-22	325	-41
-130	237	-49
-277	136	-51
-422	61	-32
-496	19	2
-450	-2	14
-285	-22	28
-59	-49	19
141	-74	-31
245	-81	-57
241	-66	-44
160	-41	-47
65	-37	-88
7	-70	-112
-10	-139	-76
-8	-207	-31
-20	-232	-4
-48	-179	11
-60	-54	0
-14	92	-2
107	204	16
273	237	17
407	189	-11
438	99	-10
329	22	-12
121	-8	-19
-97	10	-15
-227	41	-46
-223	48	-64
-111	14	-52
31	-43	-25
119	-81	-25
111	-60	-33
25	22	-35
-62	135	-34
-85	225	-13
-5	244	-3
142	187	-4
279	77	-10
322	-43	-15
225	-133	-1
9	-179	11
-245	-199	-6
-437	-214	-24
-503	-240	-17
-433	-263	-4
-291	-263	-5
-169	-213	-15
-142	-102	-34
-234	38	-55
-392	165	-62
-520	229	-46
-529	204	-25
-371	100	-14
-84	-44	-9
238	-173	-10
484	-247	-7
569	-244	-1
486	-179	16
292	-81	1
81	15	-16
-55	84	-30
-81	116	-38
-14	106	-48
84	67	-70
141	9	-54
119	-47	-63
21	-75	-47
-101	-54	-11
-188	25	2
-195	142	-8
-112	253	-45
31	307	-59
190	268	-51
313	145	-40
369	-21	-25
351	-161	7
278	-222	6
169	-183	13
54	-84	12
-47	17	-10
-117	66	-36
-157	35	-51
-172	-50	-56
-180	-147	-60
-200	-198	-54
-228	-180	-46
-241	-95	19
-204	29	43
-93	149	16
86	231	-9
283	253	-42
419	223	-55
430	148	-52
302	60	-14
85	-7	11
-133	-33	23
-267	-2	40
-275	75	31
-189	170	3
-89	243	-26
-54	255	-53
-118	194	-76
-258	63	-75
-400	-105	-51
-473	-275	-30
-422	-407	-20
-249	-475	-12
18	-464	-17
324	-376	-16
611	-228	-3
824	-45	-17
915	133	-15
869	279	-5
701	372	-9
470	410	4
253	415	9
110	396	-23
41	356	-57
-8	278	-68
-117	139	-59
-328	-71	-50
-600	-332	-45
-825	-582	-34
-872	-751	-43
-704	-771	-46
-378	-636	-39
-47	-390	-25
132	-116	1
99	100	-1
-83	215	11
-251	236	29
-252	202	28
-35	162	29
306	142	21
596	138	-3
665	122	-30
459	80	-36
44	15	-37
-416	-44	-48
-766	-77	-65
-921	-70	-84
-895	-47	-121
-753	-32	-132
-554	-41	-80
-330	-66	-47
-89	-77	-35
163	-45	-36
388	33	-36
528	131	-10
547	199	15
454	200	30
302	123	42
171	5	57
105	-110	44
105	-175	24
121	-181	-5
101	-144	-36
34	-90	-35
-38	-35	-32
-53	19	-13
20	79	-11
156	150	-33
278	215	-46
299	254	-44
186	244	-22
-11	190	12
-191	109	26
-262	34	20
-188	-9	10
-15	-15	4
171	-3	5
297	14	-24
341	23	-60
344	22	-79
354	17	-64
389	13	-63
414	4	-61
373	-16	-52
232	-40	-35
15	-61	-4
-200	-56	3
-336	-27	13
-351	18	4
-281	51	-40
-197	49	-68
-161	6	-54
-181	-61	-48
-215	-117	-70
-202	-139	-79
-113	-123	-28
21	-85	8
135	-46	17
170	-15	32
107	15	26
-14	60	5
-130	121	-11
-198	174	-20
-200	181	-44
-160	113	-42
-105	-18	-33
-43	-173	-38
29	-280	-44
115	-304	-34
187	-242	-1
196	-140	1
97	-59	9
-104	-33	38
-348	-49	27
-538	-56	5
-588	-11	-20
-480	99	-46
-262	222	-44
-45	282	-38
83	230	-35
95	59	-35
35	-154	-40
-17	-318	-35
-3	-355	-31
82	-263	-35
184	-102	-48
240	40	-38
208	93	10
110	60	26
7	-9	52
-43	-39	57
-14	6	4
67	110	-23
148	214	-50
180	251	-89
154	196	-136
97	74	-129
57	-53	-67
66	-131	-66
121	-145	-60
194	-117	-20
242	-94	-14
229	-97	1
149	-125	-19
16	-142	-37
-148	-117	-13
-304	-49	-30
-424	37	-21
-472	98	7
-424	113	4
-279	85	10
-75	51	1
125	48	-10
242	84	-15
229	139	-18
98	170	1
-77	139	6
-191	48	-14
-166	-65	-18
4	-151	-15
241	-165	-30
419	-102	-25
439	6	-44
290	105	-66
52	159	-54
-139	162	-36
-175	138	-21
-23	128	-27
229	160	-43
449	225	-42
524	290	1
429	313	26
228	265	30
26	153	2
-96	4	-15
-124	-135	-11
-106	-241	-31
-105	-297	-36
-150	-319	-37
-224	-318	-13
-285	-292	6
-315	-235	-12
-332	-133	-30
-377	-4	-42
-465	117	-44
-561	174	-37
-577	138	-7
-447	11	28
-159	-156	22
196	-283	9
486	-322	-4
580	-274	-36
447	-188	-52
159	-131	-48
-148	-151	-46
-347	-227	-38
-383	-289	-24
-288	-269	-30
-140	-131	-39
-8	80	-55
74	282	-71
123	392	-63
163	374	-31
203	279	-19
234	177	-16
230	135	-9
184	158	-14
107	188	-6
18	144	-9
-68	-14	-5
-153	-249	12
-237	-460	15
-302	-538	16
-305	-413	26
-198	-122	45
44	230	57
386	511	53
722	635	8
918	591	-60
899	430	-118
646	250	-151
256	116	-179
-134	51	-165
-392	29	-108
-466	14	-45
-380	-26	5
-228	-90	-12
-108	-157	-11
-70	-203	-13
-106	-214	2
-160	-196	0
-184	-157	-34
-156	-108	-3
-95	-58	4
-39	-16	-1
-20	10	-2
-34	10	-49
-58	-24	-74
-61	-81	-15
-32	-140	22
18	-173	19
60	-157	39
67	-93	38
33	-4	26
-21	80	21
-69	132	15
-86	153	-1
-64	159	-33
-23	173	-51
8	207	-55
7	247	-42
-23	252	-52
-55	183	-80
-53	16	-80
2	-218	-48
100	-460	-24
196	-632	1
238	-669	51
198	-562	53
99	-343	43
-5	-93	4
-53	110	-45
-27	211	-57
36	209	-57
78	145	-48
50	80	-58
-28	74	-66
-85	136	-59
-52	244	-30
84	335	-23
242	350	-32
288	267	-30
121	103	-38
-255	-86	-49
-702	-235	-44
-1017	-299	-19
-1050	-273	2
-786	-190	-4
-339	-94	-21
100	-20	-15
381	29	4
450	65	6
373	106	-29
269	157	-46
216	196	-25
230	203	-23
254	162	-9
242	88	37
190	11	57
132	-32	43
120	-29	16
167	7	-20
234	40	-50
260	39	-69
204	-6	-66
82	-74	-57
-51	-123	-43
-124	-124	-19
-101	-75	-19
-3	5	-30
111	72	-64
172	101	-85
149	77	-78
44	26	-64
-98	-27	-9
-232	-62	1
-313	-78	12
-321	-89	22
-262	-110	2
-164	-145	1
-60	-179	-3
12	-179	-23
30	-127	-25
1	-20	-11
-41	114	-5
-52	233	6
1	291	-8
114	278	-33
244	200	-78
334	92	-98
343	0	-35
265	-52	-4
130	-58	-8
-14	-38	7
-130	-14	-6
-209	-4	-24
-260	-20	-36
-288	-53	-30
-295	-103	-22
-262	-160	-19
-191	-221	-33
-112	-265	-48
-71	-278	-20
-110	-233	-12
-223	-117	-13
-344	45	2
-375	214	12
-240	333	-8
66	365	-39
454	305	-57
762	177	-69
863	31	-48
706	-97	-39
363	-192	-18
-18	-261	4
-285	-311	-1
-360	-331	0
-260	-301	-9
-85	-202	-9
49	-49	-29
80	110	-40
8	215	-36
-112	228	-43
-226	157	-35
-298	65	-25
-329	33	-7
-328	102	10
-291	244	15
-213	372	0
-84	386	-20
68	240	-26
196	-28	-30
238	-311	-36
175	-495	-31
53	-507	-33
-43	-361	-30
-34	-137	-12
96	68	-9
289	189	-16
436	215	-23
449	181	-30
302	131	-21
78	95	13
-117	70	46
-198	39	60
-162	-11	45
-84	-77	-2
-55	-140	-60
-124	-181	-94
-248	-187	-130
-330	-162	-157
-269	-111	-83
-48	-44	-13
253	35	-16
502	116	-32
583	193	-27
472	244	-4
228	252	-29
-26	215	-39
-183	150	-21
-207	74	-18
-135	11	-25
-33	-25	-51
52	-41	-17
127	-46	35
234	-53	32
397	-62	15
586	-62	-17
705	-41	-63
636	3	-95
318	56	-95
-213	97	-70
-816	101	-46
-1301	61	-21
-1328	-3	-5
-1218	-70	-1
-1019	-110	5
-540	-111	18
-142	-81	28
52	-50	27
39	-47	16
-92	-85	0
-215	-160	-34
-224	-246	-71
-103	-309	-50
80	-326	-32
226	-288	-47
262	-201	-17
184	-92	20
62	14	19
0	93	15
81	131	6
325	139	-6
656	135	-8
950	136	-17
1087	157	-33
1003	183	-42
730	200	-43
366	179	-41
28	121	-46
-205	37	-54
-330	-38	-55
-402	-80	-36
-473	-86	-30
-555	-75	-40
-603	-82	-31
-551	-119	-16
-370	-174	-10
-102	-206	-6
143	-174	14
266	-75	28
237	59	28
115	171	39
19	214	44
38	183	28
179	117	-27
342	70	-94
401	79	-107
273	131	-100
-6	182	-85
-316	179	-59
-509	110	-18
-497	2	13
-304	-83	24
-20	-98	42
226	-29	34
358	88	30
354	191	-2
249	235	-40
87	202	-49
-90	114	-92
-252	8	-151
-360	-89	-148
-383	-162	-89
-317	-209	-31
-191	-226	4
-78	-205	-12
-28	-144	13
-48	-55	47
-71	41	48
4	109	25
239	125	-22
588	93	-27
891	29	-21
976	-39	-23
740	-93	-21
234	-127	-32
-355	-142	-42
-797	-136	-51
-930	-105	-60
-757	-42	-54
-420	37	-40
-118	99	-19
35	105	-7
44	32	9
12	-103	-1
40	-248	-28
151	-340	-14
275	-336	4
295	-246	-3
151	-117	-27
-108	-12	-39
-352	31	-45
-445	20	-25
-332	-11	2
-71	-11	-2
192	40	-14
324	128	-32
273	211	-36
93	244	-32
-99	203	-30
-191	93	-18
-156	-45	-3
-32	-167	-15
85	-223	-27
112	-190	-27
24	-86	-16
-144	57	-5
-328	178	-5
-453	229	-12
-470	195	-52
-355	102	-56
-126	10	-39
172	-18	-23
474	44	-7
688	168	-1
732	277	31
592	296	15
302	191	-6
-30	1	-9
-291	-186	-53
-387	-276	-91
-315	-235	-116
-153	-105	-76
-10	12	-16
36	26	1
-16	-91	14
-113	-273	32
-165	-400	39
-121	-375	31
6	-174	9
154	119	-11
245	372	-42
244	469	-80
161	379	-86
41	166	-83
-61	-49	-65
-115	-165	-38
-117	-150	-5
-86	-47	29
-36	55	39
22	89	41
88	43	17
162	-44	0
245	-116	-15
336	-135	-64
419	-100	-91
466	-38	-79
428	15	-67
258	48	-31
-50	70	-21
-439	98	-56
-786	137	-64
-934	181	-37
-787	209	-15
-383	207	-40
126	171	-16
529	108	3
665	32	-10
506	-53	-10
166	-137	-20
-163	-211	-4
-321	-263	-9
-281	-275	14
-112	-243	36
50	-171	6
122	-79	-59
99	8	-93
41	70	-49
7	98	13
-3	90	25
-38	53	-8
-152	3	8
-325	-49	42
-469	-86	41
-459	-88	-8
-236	-51	-61
145	12	-81
523	72	-45
707	106	-75
608	98	-111
275	63	-92
-123	34	-93
-405	36	-40
-465	72	-23
-325	109	-8
-109	109	14
53	45	31
95	-58	26
44	-154	-6
-18	-192	-8
-32	-152	-8
8	-76	21
52	-27	31
46	-62	21
-24	-178	-26
-114	-311	-92
-153	-368	-84
-91	-281	-59
53	-76	-50
212	169	-27
301	336	-16
269	354	-15
137	230	-13
-24	37	-19
-137	-121	-21
-161	-188	-27
-101	-164	-37
-12	-109	-32
54	-85	-35
64	-114	-38
18	-171	-28
-65	-202	-14
-156	-171	-9
-232	-89	-23
-286	0	-25
-308	43	-24
-303	31	-9
-267	-5	8
-215	-4	16
-153	80	29
-83	244	34
4	434	18
127	574	-27
300	607	-56
506	521	-44
716	353	-30
864	166	-33
892	15	-23
771	-72	-5
506	-96	-10
145	-70	-37
-250	-19	-35
-614	48	-32
-887	109	-43
-1025	140	-37
-1000	120	-26
-814	28	-24
-503	-123	-34
-125	-299	-19
239	-437	-9
516	-490	-20
652	-436	-30
639	-299	-44
506	-130	-45
326	3	-59
150	53	-64
20	20	-35
-51	-62	-4
-89	-129	22
-122	-122	21
-173	-15	13
-232	170	26
-259	369	16
-211	495	-18
-65	483	-7
151	323	16
358	57	-36
462	-215	-104
389	-408	-166
151	-464	-153
-152	-393	-50
-385	-263	-3
-434	-140	3
-285	-71	13
-21	-48	45
226	-27	58
342	31	46
306	131	44
196	237	37
128	291	9
178	268	-44
324	174	-60
453	62	-82
429	-24	-130
180	-68	-131
-249	-96	-95
-712	-138	-60
-1039	-212	-35
-1124	-286	-9
-969	-309	-19
-669	-246	-1
-345	-104	-21
-94	58	-50
60	171	-19
143	202	-21
204	169	4
273	128	21
351	127	21
419	168	27
468	197	-13
488	160	-14
474	30	-11
403	-150	-24
245	-297	-34
-8	-333	-68
-325	-245	-78
-618	-93	-64
-779	28	-31
-736	43	-7
-497	-51	9
-168	-191	21
104	-282	29
209	-260	20
133	-126	-3
-32	60	0
-154	222	1
-134	301	2
38	301	-4
284	252	-7
493	196	-16
592	161	-42
575	150	-59
502	154	-66
415	155	-70
326	155	-49
205	148	-14
30	137	-2
-181	115	-11
-354	78	-31
-406	21	-52
-300	-46	-48
-83	-111	-22
139	-163	-40
266	-190	-42
261	-195	-17
175	-171	-30
97	-125	-19
82	-70	-10
107	-30	-12
84	-37	-8
-69	-105	-13
-361	-230	-24
-702	-364	-22
-953	-449	19
-1009	-432	57
-842	-304	56
-526	-110	43
-149	88	32
216	225	-8
547	282	-59
836	279	-92
1048	260	-113
1143	256	-82
1060	264	-37
818	262	-12
472	227	7
163	158	18
-20	88	21
-78	62	-8
-107	104	-31
-226	195	-54
-481	286	-92
-789	316	-175
-991	257	-184
-950	117	-61
-644	-55	12
-212	-217	49
136	-334	57
245	-400	12
113	-425	17
-124	-409	34
-280	-352	-1
-248	-257	-50
-60	-140	-93
154	-42	-45
251	1	-2
184	-25	13
36	-84	-8
-65	-112	-21
-26	-51	-14
144	106	-64
358	300	-89
503	435	-114
519	427	-55
425	257	-2
290	-3	16
162	-242	11
40	-355	-48
-110	-313	-57
-311	-157	-39
-526	15	-21
-675	120	-15
-665	123	0
-481	52	9
-191	-33	7
79	-89	-12
216	-102	-16
182	-94	12
36	-91	7
-106	-102	2
-127	-111	7
21	-90	8
296	-24	14
583	76	10
762	180	10
732	250	-5
494	262	-16
100	214	-25
-315	126	-27
-619	17	-8
-718	-85	-6
-611	-163	-16
-380	-195	-26
-137	-173	-32
12	-98	-37
46	7	-60
13	101	-98
7	147	-91
88	119	-49
241	32	-37
369	-71	-42
365	-141	-38
178	-140	-34
-142	-74	-18
-465	24	-21
-647	103	-40
-630	125	-42
-459	83	-38
-271	-3	-16
-165	-94	-3
-161	-157	9
-174	-171	13
-70	-132	-1
224	-48	-7
648	60	-4
1035	171	5
1190	261	4
1023	299	2
592	268	11
97	181	16
-245	63	4
-295	-43	-11
-95	-105	-30
175	-105	-61
311	-55	-74
208	14	-65
-88	71	-42
-419	93	-41
-615	68	-63
-583	-2	-50
-372	-105	-16
-110	-223	-22
68	-319	-17
105	-362	-38
28	-325	-77
-80	-201	-69
-143	-24	-47
-129	150	-18
-47	262	-21
58	279	-27
162	203	-16
237	81	-10
265	-29	-30
223	-83	-27
93	-67	16
-112	-8	14
-335	55	18
-491	89	34
-511	85	24
-387	48	14
-177	3	-11
15	-38	-58
101	-71	-91
56	-103	-54
-71	-143	-16
-191	-192	-38
-235	-246	-39
-195	-283	-32
-116	-282	-13
-55	-227	-1
-38	-102	-18
-35	76	-12
10	275	-15
139	446	-22
338	533	-5
540	502	7
665	358	22
664	150	26
543	-57	5
360	-199	-19
179	-248	-44
39	-216	-62
-59	-149	-70
-134	-93	-56
-194	-70	-72
-231	-80	-68
-221	-89	-36
-161	-71	-39
-85	-24	-40
-44	35	-21
-88	80	11
-215	85	16
-363	48	4
-439	-12	-23
-366	-78	-32
-125	-136	-26
223	-179	-31
558	-207	-27
768	-206	-17
775	-160	12
584	-52	24
258	106	20
-115	275	12
-450	400	11
-675	422	-19
-744	331	-50
-668	154	-58
-472	-32	-78
-218	-159	-81
24	-183	-51
192	-114	-21
262	-9	-6
254	70	11
224	82	7
221	30	-6
263	-47	-24
324	-102	-39
339	-101	-40
257	-48	-34
69	36	-20
-174	120	-27
-400	183	-49
-539	219	-22
-566	225	-11
-508	190	3
-412	99	32
-313	-54	64
-217	-259	98
-115	-460	47
1	-599	-8
111	-612	-70
180	-488	-116
175	-272	-164
97	-38	-208
-7	140	-161
-68	233	-126
-30	249	-111
107	229	-28
285	208	14
416	187	17
425	143	39
300	49	20
94	-82	-6
-91	-204	-32
-166	-254	-21
-91	-190	7
98	-33	52
310	148	84
439	268	52
446	275	23
328	192	9
167	80	-5
42	15	-31
2	16	-74
31	50	-97
56	41	-50
7	-58	-30
-150	-237	-4
-371	-418	31
-565	-501	31
-641	-429	32
-556	-223	-5
-350	30	-38
-111	225	-65
65	305	-35
132	284	2
111	235	-24
66	219	-8
58	265	10
107	333	-1
191	354	-64
255	286	-95
257	134	-38
192	-40	-15
89	-171	-3
-20	-215	-31
-109	-188	-43
-174	-134	-45
-213	-101	-58
-223	-98	-46
-190	-96	-47
-113	-57	-38
-4	37	-15
104	166	24
181	278	16
225	328	-10
262	294	-23
336	195	-16
452	69	0
553	-46	9
545	-140	7
335	-215	-11
-79	-277	-40
-595	-322	-67
-1025	-340	-46
-1194	-325	-30
-1032	-281	-35
-621	-237	-37
-151	-207	-49
195	-196	-48
320	-183	-36
254	-137	-30
118	-50	-17
35	58	-13
46	148	2
106	178	15
126	141	-20
56	64	-52
-78	-8	-74
-191	-41	-71
-201	-28	-67
-87	10	-51
90	45	-11
234	72	7
276	101	16
228	149	1
155	215	-6
151	277	3
251	298	7
415	252	3
537	155	-1
524	43	1
340	-39	8
50	-78	29
-229	-86	0
-388	-99	-47
-383	-140	-77
-255	-196	-100
-115	-233	-78
-60	-210	-21
-133	-126	21
-288	-16	34
-433	65	20
-470	82	-3
-358	41	-16
-126	-8	-43
139	-13	-53
349	41	-69
446	126	-64
423	178	-30
328	144	-31
211	26	-16
113	-124	-15
42	-227	-16
-8	-230	1
-66	-127	-2
-142	20	-24
-231	135	-48
-306	170	-35
-330	122	-30
-274	41	-37
-134	-14	-28
55	-5	0
230	54	-1
321	120	-13
292	141	-3
166	93	-7
10	-5	-15
-91	-108	-32
-82	-164	-4
30	-150	34
178	-77	4
273	17	-25
258	89	-32
130	116	-60
-59	100	-89
-249	67	-84
-394	41	-65
-494	31	-64
-542	27	-53
-539	3	-21
-452	-55	-11
-255	-148	10
46	-237	24
385	-281	28
648	-254	20
736	-153	-13
600	-21	-48
312	86	-38
-2	123	4
-211	84	15
-260	-5	12
-190	-90	-5
-107	-122	-26
-109	-86	-74
-214	-1	-100
-354	80	-86
-415	110	-64
-319	59	-69
-86	-67	-80
176	-227	-39
341	-359	-12
317	-404	15
120	-329	24
-134	-148	-3
-303	84	-26
-281	279	-40
-79	372	-24
216	337	-28
474	215	-25
588	88	-12
527	47	11
346	124	27
138	286	24
-14	445	32
-77	497	12
-80	405	-21
-83	183	-42
-135	-89	-48
-240	-320	-46
-347	-454	-38
-377	-487	-11
-271	-449	1
-36	-380	19
251	-291	20
470	-170	26
517	1	43
355	211	19
48	421	1
-276	557	-76
-485	568	-145
-516	434	-91
-399	198	-70
-223	-71	-96
-84	-295	-58
-14	-413	-51
25	-419	-23
107	-341	-8
274	-233	-30
490	-143	-19
655	-95	6
659	-82	23
462	-66	61
123	-12	74
-227	105	45
-454	266	48
-496	424	43
-392	516	-2
-260	490	-126
-200	350	-241
-255	137	-246
-383	-83	-133
-497	-255	-60
-509	-356	-31
-382	-406	35
-126	-435	48
195	-459	37
503	-459	16
719	-393	9
775	-238	-2
641	-9	-28
334	233	-49
-48	408	-39
-374	465	8
-509	400	11
-412	267	16
-137	135	15
172	51	-10
358	15	-21
341	-17	-34
159	-84	-12
-46	-192	-5
-147	-307	8
-85	-364	46
71	-320	3
189	-175	-66
158	17	-112
-37	183	-97
-298	265	-27
-480	253	-24
-477	180	-28
-285	99	-27
0	51	-41
249	38	-51
366	29	-40
327	-16	-46
175	-116	-46
-8	-254	22
-162	-380	41
-255	-435	8
-281	-386	-37
-248	-234	-68
-156	-28	-69
-18	171	-24
143	305	15
287	352	11
380	325	16
401	257	-13
355	195	-36
262	154	-17
143	135	-11
5	117	-19
-139	81	-11
-264	21	-6
-337	-43	-11
-321	-85	-22
-215	-86	-33
-61	-43	-40
69	17	-35
121	58	-23
82	51	-20
-3	-13	-27
-58	-109	-44
-49	-202	-36
1	-249	-22
21	-232	-16
-52	-153	0
-221	-41	10
-393	58	2
-459	120	-1
-338	121	-4
-71	70	-13
204	-15	-8
340	-102	-13
254	-154	-36
1	-154	-51
-260	-96	-64
-355	6	-51
-213	117	-49
101	200	-51
419	227	-44
569	191	-44
468	112	-11
147	30	-9
-252	-21	-12
-569	-19	-16
-681	27	-32
-548	90	-38
-208	139	-35
248	150	7
700	121	28
1017	60	21
1097	-14	-15
908	-90	-48
505	-155	-51
36	-201	-60
-321	-211	-52
-452	-171	-27
-341	-84	-34
-105	24	-75
89	103	-61
117	101	-12
-23	0	0
-226	-173	9
-345	-340	13
-299	-426	-1
-119	-379	-23
74	-209	-39
162	7	-44
100	189	-39
-36	279	9
-115	283	34
-50	244	16
134	224	8
314	244	8
333	279	22
116	279	22
-269	200	-9
-641	46	-46
-816	-135	-51
-708	-278	-7
-383	-340	20
-20	-321	15
198	-260	16
182	-200	4
-18	-154	-57
-256	-108	-126
-382	-42	-155
-333	40	-109
-160	106	-59
29	115	-51
136	50	-27
138	-47	-39
85	-108	-75
56	-65	-66
101	81	3
201	256	54
295	352	41
314	291	40
248	91	22
134	-149	-6
44	-286	-34
26	-240	-87
82	-38	-118
165	201	-86
221	332	-58
214	279	-25
159	75	-4
87	-163	-23
28	-304	-30
-12	-289	-25
-55	-160	8
-120	-18	14
-210	37	4
-298	-25	-2
-348	-156	-7
-337	-259	-4
-264	-263	-4
-159	-154	-6
-35	17	-6
95	179	-14
234	273	-37
366	283	-74
456	229	-57
439	138	-6
278	38	-10
-25	-64	13
-378	-153	34
-638	-203	28
-683	-186	15
-473	-88	-3
-82	71	-3
341	243	-23
645	365	-15
728	406	-17
612	365	-42
392	287	-53
184	212	-50
60	163	-36
26	127	-18
37	70	-6
49	-16	-31
47	-124	-48
44	-202	-40
59	-208	-39
94	-137	-32
121	-28	-26
98	40	-6
1	6	-4
-162	-143	-15
-351	-351	-15
-511	-524	-69
-605	-570	-65
-603	-460	-14
-515	-236	-7
-354	7	6
-160	166	4
18	187	-17
119	88	-42
91	-60	-50
-63	-164	-56
-288	-165	-30
-474	-65	-6
-526	72	-24
-389	179	-33
-111	200	-28
201	138	-36
417	43	-47
462	-31	-42
359	-51	-11
203	-30	8
104	3	4
119	11	-3
229	-8	-34
350	-26	-70
390	-9	-71
302	50	-30
114	121	-7
-100	150	-10
-269	98	4
-347	-27	20
-344	-167	29
-287	-248	-1
-211	-216	-30
-136	-85	-33
-68	83	-34
-12	208	-53
30	243	-70
55	194	-70
77	114	-74
117	61	-51
201	56	-9
318	82	12
423	90	19
455	50	42
369	-26	29
178	-101	9
-45	-121	-1
-197	-66	-27
-207	39	-48
-74	149	-54
120	209	-70
269	208	-86
295	161	-15
196	109	24
34	74	2
-115	57	-10
-211	38	-35
-264	-6	-41
-324	-74	-12
-402	-147	8
-465	-191	-22
-431	-196	-42
-232	-171	-44
129	-142	-36
547	-135	-38
845	-153	-34
865	-181	-36
569	-186	-21
33	-162	13
-550	-108	8
-976	-46	1
-1115	1	-2
-950	30	10
-580	46	-5
-163	63	-32
170	80	-51
350	84	-63
388	63	-43
336	13	-13
257	-50	5
182	-102	4
119	-116	7
54	-85	4
-20	-16	-2
-90	68	-44
-119	147	-87
-64	205	-74
94	228	-44
339	205	-14
591	129	2
732	12	16
656	-115	21
320	-202	15
-223	-204	26
-804	-112	38
-1213	42	12
-1197	187	-15
-965	257	-38
-352	227	-34
325	123	-38
824	17	-124
986	-39	-157
822	-26	-99
476	19	-114
144	45	-108
-35	10	-38
-46	-76	-12
21	-164	26
50	-206	29
-17	-177	36
-156	-104	29
-279	-38	11
-316	-18	-19
-251	-47	-51
-141	-88	-50
-60	-98	-69
-50	-51	-70
-86	33	-53
-106	114	-10
-62	150	-9
41	125	-7
160	68	10
229	18	-9
216	8	-13
150	34	6
72	74	41
24	89	45
6	63	28
-16	7	-11
-62	-59	-33
-125	-106	-19
-153	-121	-13
-98	-105	-14
45	-64	-28
219	-14	-47
330	39	-64
294	76	-80
101	72	-58
-179	10	-28
-426	-111	-28
-539	-261	-28
-480	-381	-33
-277	-408	-25
-21	-318	-6
221	-133	8
399	76	24
496	231	44
502	290	35
401	261	-12
178	194	-40
-150	141	-48
-516	130	-46
-814	142	-36
-934	142	-46
-805	105	-75
-473	37	-89
-45	-27	-78
327	-59	-87
540	-55	-43
569	-41	-7
495	-47	5
410	-87	19
392	-138	0
436	-160	13
469	-118	16
393	-21	29
162	89	28
-182	158	4
-526	156	-6
-720	91	-7
-679	7	-12
-412	-59	-6
-47	-88	1
229	-92	-57
276	-87	-69
62	-81	11
-303	-61	29
-617	-10	-31
-682	67	-93
-407	145	-121
116	171	-104
665	130	-112
990	36	-68
947	-51	6
583	-68	29
93	1	12
-277	112	-26
-365	179	-47
-181	119	-68
99	-78	-77
269	-348	-56
211	-566	1
-34	-632	28
-297	-498	20
-410	-223	7
-297	88	2
-25	318	-21
245	415	-40
382	391	-38
341	308	-85
201	233	-66
64	196	-27
-1	186	-7
-10	171	16
-28	129	9
-102	61	8
-212	-4	46
-277	-41	74
-224	-40	65
-56	-18	40
129	-6	16
200	-30	-6
72	-87	-47
-221	-153	-74
-530	-194	-69
-690	-187	-62
-601	-126	-67
-296	-26	-37
85	85	-18
383	191	-48
489	261	-24
418	279	-17
261	233	-43
126	114	-23
64	-56	-45
58	-242	-46
46	-384	-41
-20	-436	-48
-144	-379	-38
-278	-237	-52
-362	-68	-48
-366	58	-38
-297	102	-19
-201	55	3
-125	-46	13
-80	-143	1
-44	-184	-20
26	-148	-19
171	-38	6
401	98	19
671	210	16
902	256	3
1012	215	0
923	108	0
628	-31	-10
197	-152	-6
-259	-219	-3
-610	-219	-4
-770	-171	-36
-744	-101	-67
-610	-39	-54
-465	-1	-26
-379	27	-23
-345	61	-51
-295	119	-48
-157	190	-28
71	253	-20
314	277	-34
447	241	-47
373	158	-40
95	50	-48
-267	-34	-35
-545	-70	-17
-599	-53	-8
-412	-3	0
-82	43	-5
251	58	-16
470	38	-44
541	-1	-36
498	-33	-4
409	-34	-4
292	-4	-15
127	39	-65
-116	67	-118
-426	53	-97
-724	-5	-24
-886	-95	17
-805	-182	3
-481	-236	2
-13	-242	19
439	-206	-3
730	-151	-14
793	-99	43
665	-63	87
458	-37	87
273	-2	61
184	57	14
180	143	-30
211	229	-122
216	279	-155
159	269	-122
39	198	-151
-119	91	-108
-271	-8	-35
-374	-59	-20
-392	-55	-30
-321	-16	-21
-182	23	-35
-7	32	6
148	11	85
245	-17	56
263	-13	24
219	41	-29
142	138	-76
70	233	-100
18	268	-101
-20	201	-48
-56	31	2
-98	-191	13
-132	-393	5
-134	-510	6
-89	-506	-11
2	-405	-15
99	-268	-13
147	-163	-14
107	-121	-15
-20	-126	-25
-195	-127	-45
-344	-79	-12
-402	30	44
-347	162	46
-210	254	64
-55	265	41
50	200	-12
75	111	-39
30	62	-39
-40	81	-32
-91	135	-54
-101	160	-49
-94	99	-32
-110	-53	-7
-180	-233	-21
-299	-353	-65
-420	-348	-64
-485	-227	-57
-434	-55	-61
-256	80	-75
16	126	-76
325	104	-23
600	77	15
783	112	-11
837	227	-31
750	372	-70
517	464	-93
175	431	-52
-204	262	-27
-532	7	15
-713	-248	8
-696	-417	5
-489	-456	21
-170	-371	11
148	-204	19
368	-9	4
451	162	-32
428	277	-30
360	321	-8
314	294	-13
310	215	-27
317	119	-39
292	32	-31
208	-30	-18
69	-71	-2
-79	-116	1
-198	-178	-13
-272	-257	-21
-307	-322	-26
-325	-337	-25
-339	-268	-7
-329	-129	6
-263	31	12
-126	151	-5
71	194	-28
280	160	-4
432	93	-9
478	45	-34
396	47	-32
210	90	-46
-28	125	-55
-262	112	-38
-439	29	-31
-529	-104	-30
-513	-246	-25
-392	-343	-24
-188	-368	-30
49	-315	-47
262	-192	-57
395	-21	-54
421	170	-46
354	345	-50
234	457	-43
105	458	-43
-12	333	-42
-116	114	-8
-221	-136	9
-321	-329	32
-385	-404	27
-364	-353	24
-231	-223	9
-3	-83	-7
238	16	4
387	64	9
365	95	4
178	150	-36
-87	250	-38
-305	365	-2
-382	438	-68
-295	422	-190
-109	299	-181
62	103	-134
139	-107	-59
107	-270	31
30	-358	62
-8	-380	87
42	-357	48
164	-315	14
279	-261	-39
296	-196	-95
172	-120	-108
-50	-42	-28
-269	25	32
-375	79	-36
-315	126	6
-115	183	-2
126	253	-30
297	315	-25
322	330	-35
212	259	1
42	103	10
-85	-101	21
-104	-278	22
-14	-366	5
121	-340	-35
211	-230	-44
188	-106	-42
42	-24	-51
-162	-11	-34
-337	-32	-2
-404	-44	7
-335	-8	-5
-168	77	-22
26	166	-46
162	210	-41
199	179	-30
139	80	-7
27	-52	5
-95	-171	-6
-191	-240	-33
-253	-253	-53
-281	-210	-17
-255	-119	-2
-150	19	-6
53	198	-13
344	393	-37
653	560	-30
869	647	-28
901	619	-25
693	465	-14
300	233	-14
-150	-18	-30
-511	-217	-44
-690	-322	-21
-672	-337	7
-518	-286	14
-324	-215	9
-148	-171	-16
-5	-174	-37
105	-227	-23
191	-304	-19
229	-373	-29
180	-395	-20
29	-356	-3
-187	-246	-18
-393	-90	-64
-506	63	-104
-480	171	-98
-345	198	-62
-184	140	-44
-67	29	-8
-15	-86	42
13	-154	42
85	-149	-2
242	-72	-34
453	40	-61
625	152	-108
662	222	-103
517	244	-51
225	231	-44
-102	203	-35
-345	188	-30
-415	189	-43
-307	198	17
-92	192	24
130	158	11
275	93	24
308	14	26
241	-50	36
115	-86	1
-20	-79	5
-130	-44	21
-207	4	22
-251	41	-20
-263	53	-56
-253	33	-43
-213	-17	-41
-141	-87	-37
-39	-158	-80
78	-204	-80
188	-209	-22
262	-167	-8
284	-90	-8
249	-15	-5
166	26	-8
62	10	-39
-36	-49	-60
-103	-117	-34
-133	-144	10
-132	-105	55
-115	-5	16
-94	112	-81
-69	202	-97
-40	235	3
0	210	30
50	159	-23
99	113	-40
130	84	-66
133	58	-63
110	14	-75
75	-60	-50
43	-155	-7
29	-233	22
24	-255	47
9	-206	26
-43	-94	-9
-143	38	-68
-281	150	-88
-416	205	-22
-497	190	24
-493	119	17
-389	16	8
-213	-85	-50
-20	-167	-110
147	-211	-86
267	-225	-46
355	-216	-38
432	-194	0
508	-159	24
565	-99	30
537	-11	10
389	97	-52
117	194	-81
-209	230	-68
-481	168	-31
-601	4	1
-526	-203	24
-308	-375	27
-47	-424	25
151	-322	41
241	-106	54
251	136	30
241	318	-9
253	388	-37
275	360	-60
244	291	-80
99	232	-91
-160	190	-92
-458	148	-75
-669	65	-34
-713	-56	-19
-565	-187	-19
-304	-259	-9
-32	-225	-9
158	-87	-35
245	96	-56
268	241	-74
279	282	-54
306	207	8
323	58	17
289	-93	27
188	-192	75
44	-210	56
-75	-167	-24
-123	-89	-72
-84	-10	-99
1	55	-68
77	103	-1
110	130	-3
107	138	3
103	124	4
115	96	16
128	62	40
91	39	27
-31	25	-9
-226	10	-47
-415	-15	-76
-503	-60	-106
-433	-109	-132
-223	-147	-151
30	-147	-72
212	-103	-3
259	-36	1
184	32	22
67	71	23
-4	77	26
14	51	9
105	17	-4
205	-16	-4
258	-41	2
245	-60	32
188	-71	26
125	-61	8
74	-33	-2
27	15	-21
-34	61	-59
-117	77	-113
-208	48	-160
-273	-22	-132
-285	-103	-58
-237	-168	-32
-140	-199	-29
-14	-211	-7
119	-232	-4
239	-270	-2
317	-319	25
314	-334	24
194	-277	-3
-41	-142	-17
-346	32	-29
-616	171	-46
-736	224	-48
-636	170	-36
-339	63	-2
39	-26	21
350	-36	8
467	36	-7
355	145	-15
77	223	-24
-234	218	-42
-439	141	-48
-454	41	-32
-278	-17	-4
15	-4	17
326	68	14
554	153	16
642	191	-12
575	163	-53
386	79	-54
138	-20	-62
-93	-89	-61
-262	-102	-42
-347	-54	-24
-353	33	13
-308	137	35
-233	228	36
-147	284	14
-51	296	-62
44	259	-96
126	186	-35
175	89	-5
175	-9	-5
133	-100	-6
80	-177	-21
56	-241	-45
86	-291	-76
154	-312	-75
215	-291	-51
225	-214	-13
167	-93	-3
81	44	-20
31	158	9
64	210	29
172	193	24
279	114	35
290	14	57
155	-82	38
-93	-151	-11
-345	-188	-65
-480	-196	-119
-424	-176	-109
-214	-126	-57
31	-45	-25
183	53	-39
172	147	-56
42	205	-56
-104	210	-38
-159	171	3
-85	110	20
66	59	9
188	39	22
189	48	45
54	70	20
-149	74	-46
-328	38	-147
-407	-51	-160
-378	-183	-82
-287	-340	-42
-198	-482	-41
-149	-562	-115
-124	-538	-119
-78	-391	-59
31	-148	13
204	122	49
395	332	29
529	405	36
537	327	6
397	150	-2
132	-25	-8
-183	-112	-6
-459	-76	-2
-626	43	-2
-627	157	20
-473	185	14
-226	101	10
22	-49	7
196	-189	17
262	-241	12
251	-190	7
225	-69	-11
248	53	-36
342	136	-31
454	171	-28
484	174	-27
346	171	-16
20	162	-8
-433	110	-20
-869	-5	-25
-1135	-180	-24
-1108	-351	-38
-878	-432	-43
-444	-355	-29
37	-131	-37
451	150	-45
736	372	-50
902	437	-59
984	332	-40
1003	138	-7
950	-13	0
791	-30	-19
506	95	-20
140	282	-24
-230	405	-35
-489	374	-31
-572	192	-52
-486	-66	-63
-321	-286	-32
-208	-389	-24
-226	-362	-26
-370	-272	-22
-545	-192	-28
-630	-170	-14
-549	-192	4
-314	-211	19
-21	-179	22
206	-86	38
294	38	34
249	145	24
144	200	22
64	203	-29
54	181	-102
105	165	-118
162	165	-76
175	163	-69
148	138	-71
115	80	-64
129	-2	-13
214	-80	1
346	-125	-7
452	-127	44
462	-97	21
341	-45	16
118	13	22
-128	71	-3
-313	124	-20
-379	158	-46
-327	150	-46
-202	85	-50
-75	-35	-74
7	-177	-43
24	-286	-32
-5	-322	-55
-51	-273	-50
-95	-160	-34
-130	-40	-12
-159	47	-21
-173	84	-39
-152	91	-61
-77	103	-52
46	142	3
183	203	58
271	251	66
268	252	21
172	189	-16
34	79	-29
-53	-47	-11
-30	-157	-76
110	-232	-165
301	-279	-100
444	-307	-24
459	-314	-27
325	-287	-41
83	-216	-47
-190	-103	-16
-422	22	14
-588	113	16
-682	136	19
-718	86	-3
-692	-6	-20
-598	-92	-18
-431	-133	-21
-226	-127	-16
-47	-98	-6
42	-80	-7
17	-92	-13
-84	-120	-30
-174	-133	-46
-170	-100	-27
-36	-12	-9
188	106	-11
415	219	0
551	290	-4
553	311	-7
439	290	2
286	248	8
156	197	9
80	135	24
36	60	38
-19	-27	24
-119	-111	-6
-258	-167	-88
-383	-180	-112
-426	-147	-41
-344	-87	-2
-137	-24	-1
132	18	-45
375	39	-78
508	41	-87
498	41	-53
363	45	-13
171	52	-19
-2	62	-1
-101	70	-4
-118	84	-30
-77	106	-30
-18	135	-23
31	162	-31
78	171	-45
144	157	-33
241	116	12
346	69	-18
415	30	-20
396	1	-2
278	-25	-8
109	-67	36
-29	-133	16
-63	-214	-37
20	-273	-66
167	-278	-58
273	-210	-43
253	-90	-67
86	34	-112
-166	101	-83
-405	77	-10
-556	-24	-2
-611	-144	8
-615	-209	0
-619	-165	-35
-641	-15	-34
-630	179	-2
-516	327	28
-277	357	27
31	247	16
278	43	-6
345	-168	-30
194	-305	-80
-93	-326	-151
-350	-251	-91
-422	-137	4
-271	-49	14
17	-23	26
280	-44	8
389	-71	-24
317	-60	-21
157	3	-15
58	95	-16
110	170	-40
290	190	-44
476	151	-56
525	76	-36
373	4	5
79	-43	22
-227	-66	36
-404	-88	28
-392	-127	21
-248	-175	0
-66	-206	-32
62	-182	-48
123	-94	-40
165	30	-42
245	138	-34
383	185	-7
521	163	12
569	105	7
470	70	-40
230	95	-56
-78	163	-19
-351	222	4
-513	205	-14
-545	90	-59
-481	-88	-65
-385	-248	-35
-288	-315	-27
-209	-263	-40
-144	-135	-57
-92	-19	-39
-57	23	10
-38	-26	21
-18	-111	12
29	-157	15
120	-110	-10
245	24	-37
358	186	-52
410	300	-58
373	321	-55
263	260	-50
144	165	-54
62	88	-54
27	48	-41
2	32	-41
-60	12	-38
-180	-35	-40
-325	-100	-30
-426	-159	13
-432	-185	46
-346	-170	78
-237	-129	87
-180	-83	63
-204	-45	-3
-259	-17	-72
-256	13	-85
-123	43	-46
130	66	-48
398	64	-128
547	31	-89
493	-21	-19
261	-69	-23
-29	-90	-34
-233	-78	-49
-267	-40	-37
-148	4	-36
28	50	-68
154	98	-87
182	158	-28
148	231	22
120	298	39
147	325	42
216	294	6
262	201	-4
207	74	-4
32	-49	17
-208	-151	34
-397	-234	61
-433	-317	68
-277	-423	23
23	-540	-16
339	-627	-46
531	-631	-66
506	-524	-111
282	-318	-138
-55	-61	-119
-369	179	-102
-531	354	-52
-486	450	0
-262	481	0
41	471	10
312	434	4
466	372	-5
490	274	-2
421	149	9
324	14	-21
239	-94	-75
176	-152	-65
111	-157	-40
13	-124	-31
-128	-87	-27
-289	-62	-14
-426	-54	-11
-500	-48	13
-497	-34	33
-431	-8	15
-333	22	9
-243	40	5
-178	39	-8
-140	21	-43
-126	-5	-87
-120	-35	-58
-114	-71	-13
-99	-117	-13
-63	-173	36
3	-218	72
107	-231	77
253	-182	57
422	-71	-16
575	77	-79
662	221	-135
619	310	-140
419	325	-106
79	270	-93
-324	177	-52
-676	77	-12
-864	-5	-21
-827	-62	-43
-589	-108	-60
-252	-150	-58
48	-190	-31
210	-218	-15
209	-226	4
111	-205	15
16	-166	30
2	-121	18
71	-80	-7
165	-41	-21
195	7	-20
117	74	4
-31	164	0
-151	262	-8
-137	341	-20
46	372	-20
346	334	-28
626	230	-35
749	82	5
631	-79	20
306	-210	-9
-97	-291	-49
-432	-306	-66
-584	-260	-66
-536	-171	-55
-342	-64	-48
-101	35	-21
101	110	26
234	147	32
312	145	37
368	112	30
413	58	-11
429	-9	-41
373	-79	-53
226	-139	-63
-3	-181	-54
-258	-192	-30
-470	-171	-35
-595	-118	-25
-626	-46	4
-588	27	-4
-506	90	-27
-392	126	-57
-228	133	-42
8	114	-18
295	77	-25
569	36	-33
746	7	-69
743	7	-66
560	34	-46
258	81	-66
-50	117	-52
-260	115	-34
-333	54	-24
-314	-56	-7
-281	-185	16
-310	-282	40
-402	-309	60
-502	-244	69
-518	-111	53
-392	43	31
-126	169	-9
202	233	-55
484	229	-95
628	174	-95
599	100	-58
407	19	-35
120	-56	-7
-178	-126	19
-419	-179	3
-552	-207	-23
-561	-191	-27
-448	-127	-47
-251	-26	-79
-15	89	-61
204	185	-5
360	241	2
429	250	-16
417	219	-43
346	162	-76
255	92	-70
159	17	-86
71	-60	-72
-5	-127	-25
-66	-177	3
-107	-195	-19
-112	-181	-25
-63	-141	5
42	-93	11
201	-44	7
380	3	-14
522	50	-5
558	108	16
435	166	63
144	214	91
-256	228	66
-654	194	17
-921	119	-1
-968	21	-16
-787	-68	-90
-469	-128	-170
-143	-147	-179
72	-127	-90
144	-80	-40
128	-9	9
126	72	68
212	153	30
383	205	19
551	199	2
597	110	-4
456	-59	-36
164	-264	-84
-161	-448	-97
-381	-537	-108
-417	-504	-86
-290	-371	-61
-100	-200	-12
40	-71	34
72	-32	53
22	-80	52
-32	-162	28
-24	-208	-6
51	-168	-28
141	-37	-56
172	141	-61
101	312	-43
-44	424	-28
-182	467	-23
-233	450	-57
-172	401	-46
-43	338	-1
71	257	-10
107	155	1
62	32	48
-7	-90	39
-24	-180	5
52	-211	-19
195	-178	-32
326	-103	-37
354	-20	-63
241	41	-66
9	82	-32
-262	112	-8
-489	149	-12
-632	194	-25
-684	219	-38
-668	188	-46
-589	68	-44
-432	-125	-43
-161	-348	-37
219	-527	-47
642	-596	-54
979	-525	-22
1100	-337	-3
947	-101	13
549	110	37
48	243	20
-377	279	-11
-585	259	-33
-542	224	-43
-319	221	-29
-41	267	-9
172	345	-17
274	410	-31
280	406	-20
245	298	-22
210	74	-29
182	-219	-37
131	-517	-40
22	-725	-35
-148	-775	-19
-343	-646	-5
-497	-381	1
-550	-77	-4
-474	161	-8
-292	254	-9
-70	206	-12
115	85	-16
211	-15	-28
194	-21	-22
89	65	-31
-44	179	-39
-147	222	-2
-178	149	31
-136	-24	16
-56	-209	-32
20	-301	-42
62	-249	-25
68	-81	-60
64	116	-157
84	249	-193
140	274	-78
212	215	6
259	147	38
234	123	99
124	160	112
-28	207	88
-159	203	37
-205	106	-21
-141	-56	-71
-3	-222	-105
135	-316	-109
206	-311	-92
175	-227	-52
72	-121	-64
-51	-50	-61
-132	-32	-40
-148	-31	-117
-111	-12	-104
-64	58	-42
-34	164	-40
-25	259	12
-10	298	34
35	252	32
105	149	18
171	26	8
189	-68	7
141	-125	-3
50	-150	-15
-31	-168	-16
-51	-195	0
0	-223	0
90	-226	19
151	-177	29
128	-72	29
14	68	24
-143	210	8
-271	313	-1
-315	353	-11
-270	325	-8
-177	244	-15
-93	136	-40
-51	34	-71
-35	-39	-68
-7	-76	-25
65	-82	-14
171	-86	-1
252	-117	-4
242	-191	-42
115	-294	-56
-87	-383	-43
-275	-406	-43
-351	-329	-40
-274	-163	-32
-92	38	-40
96	197	-51
183	248	-81
122	168	-86
-50	-9	-64
-228	-209	-33
-303	-351	-21
-221	-371	1
7	-260	31
287	-53	26
522	183	15
614	379	3
536	480	5
306	465	0
0	349	-2
-295	179	-8
-489	12	-30
-545	-108	-69
-468	-167	-86
-320	-174	-71
-184	-165	-59
-128	-168	-49
-165	-194	-20
-244	-230	46
-279	-246	83
-200	-216	87
6	-134	42
283	-16	-18
529	116	-46
649	233	-67
619	331	-49
478	406	-37
326	467	-15
241	505	14
250	505	-1
314	448	-48
350	322	-105
283	143	-160
87	-53	-173
-194	-228	-115
-481	-344	-78
-686	-393	-52
-759	-390	-40
-699	-359	-13
-545	-320	42
-357	-278	49
-183	-229	46
-36	-156	28
96	-59	11
239	45	10
403	132	31
566	177	49
671	171	14
659	122	3
483	63	-4
162	17	-23
-223	6	-23
-549	22	-7
-713	50	8
-670	70	-57
-459	61	-142
-191	19	-118
3	-58	-64
46	-161	-72
-55	-270	-36
-228	-358	-1
-363	-390	14
-389	-346	21
-285	-224	33
-92	-61	35
118	82	-15
292	149	-63
411	118	-64
493	21	-36
558	-71	-15
608	-84	38
633	15	18
599	196	-18
484	380	-33
299	475	-49
71	438	-48
-145	296	-51
-298	107	-20
-352	-38	-16
-303	-87	-11
-169	-39	9
3	66	27
151	175	11
216	252	-14
162	279	-27
-16	266	-42
-276	210	-29
-546	103	-20
-736	-61	-13
-781	-276	6
-668	-504	28
-434	-677	31
-160	-741	-25
76	-652	-92
219	-438	-127
269	-171	-154
259	59	-151
242	177	-105
248	161	-32
274	44	7
283	-91	4
234	-168	9
111	-149	32
-60	-43	21
-226	85	-36
-321	171	-33
-318	179	1
-227	112	16
-97	13	26
9	-58	-8
58	-70	-60
60	-28	-58
49	42	-1
75	103	22
150	136	2
253	149	-15
331	155	-34
333	169	-23
237	181	21
70	171	46
-96	128	27
-191	58	24
-167	-8	10
-41	-33	-36
128	2	-117
262	85	-163
311	178	-135
261	239	-108
148	243	-59
30	194	-34
-52	121	3
-87	60	35
-87	30	42
-76	27	37
-64	31	13
-55	21	-16
-46	-17	-59
-50	-80	-57
-90	-157	-11
-181	-233	36
-311	-291	47
-426	-322	28
-458	-315	6
-350	-264	-46
-112	-183	-89
179	-85	-83
407	0	-47
478	48	-11
373	51	-2
151	24	-12
-83	-6	-18
-231	-12	-11
-259	19	-16
-190	70	-24
-81	109	-24
22	98	-8
114	27	-14
205	-88	-51
301	-196	-63
366	-254	-34
346	-230	-18
198	-129	3
-58	1	3
-341	106	-21
-535	144	-22
-561	108	-32
-424	24	-3
-215	-62	16
-53	-110	6
-14	-108	-4
-88	-63	-24
-188	-10	-51
-218	26	-106
-133	33	-118
29	19	-92
178	3	-91
232	-1	-83
171	16	-26
54	50	32
-21	86	65
8	116	47
140	132	9
302	141	-19
415	143	-38
418	142	-15
319	137	-40
171	125	-55
37	103	-23
-50	70	-55
-101	32	-40
-142	-12	-36
-191	-58	-40
-232	-104	20
-237	-142	20
-181	-160	-10
-75	-153	-18
36	-116	-5
103	-64	-1
101	-21	-11
56	-13	-51
17	-54	-75
33	-133	-21
106	-218	3
184	-264	2
187	-247	0
59	-157	-28
-187	-24	-4
-459	106	13
-635	192	22
-610	210	35
-366	171	29
0	99	26
333	35	17
495	11	0
432	43	-48
216	135	-85
-6	270	-111
-96	421	-105
7	540	-65
249	585	-54
486	523	-58
583	345	-30
484	89	-11
245	-180	-51
0	-384	-74
-130	-469	-55
-105	-426	-12
9	-305	3
83	-189	8
6	-148	18
-235	-211	5
-545	-345	5
-768	-470	-3
-781	-495	4
-556	-379	39
-177	-145	22
196	123	-35
425	327	-42
456	391	2
345	309	22
209	135	6
154	-43	-63
214	-155	-157
341	-170	-148
425	-111	-85
373	-23	-60
156	48	-50
-169	89	0
-489	103	65
-692	109	56
-718	115	20
-579	111	-23
-351	82	-57
-130	15	-83
6	-80	-113
32	-175	-98
-28	-237	-69
-119	-236	-42
-185	-168	-5
-191	-48	6
-125	82	5
-4	183	10
141	230	31
284	210	58
405	148	56
484	74	45
506	24	46
459	7	35
322	12	-7
101	5	-48
-184	-42	-109
-481	-131	-130
-726	-242	-95
-844	-319	-63
-798	-320	-11
-581	-229	17
-224	-63	12
189	123	29
569	279	22
846	368	-1
965	373	7
917	321	3
740	236	-7
476	150	-35
198	88	-47
-41	60	2
-200	66	-27
-274	89	-70
-288	96	-50
-285	65	-35
-296	-16	-16
-336	-136	-28
-381	-248	-15
-390	-309	-34
-329	-288	-56
-197	-196	-63
-29	-82	-95
115	1	-80
184	13	-37
163	-35	-9
72	-108	-14
-34	-151	0
-109	-142	3
-121	-94	15
-79	-40	16
-3	-11	-7
79	-6	-19
152	-8	-16
207	14	-8
240	62	-17
240	113	-6
204	126	34
140	80	68
72	-7	96
34	-91	84
44	-116	13
101	-66	-21
172	28	-50
212	112	-133
189	132	-154
97	78	-152
-35	-19	-221
-178	-97	-239
-295	-107	-129
-372	-37	-36
-401	82	9
-378	197	51
-295	265	55
-148	267	62
36	214	29
204	131	-13
281	48	-56
216	-19	-72
13	-71	-56
-256	-111	-52
-473	-153	-3
-529	-203	31
-392	-263	40
-124	-320	31
166	-343	26
366	-308	27
432	-192	9
405	-12	27
385	189	20
450	345	19
592	412	22
723	365	-28
713	240	-50
470	96	-80
8	-13	-72
-534	-49	-51
-969	-25	-62
-1155	24	-40
-1073	67	-34
-799	83	-23
-486	72	-17
-248	43	-22
-121	2	-10
-67	-66	-1
-13	-164	14
82	-280	5
196	-380	-41
277	-417	-59
280	-359	-45
222	-208	-7
154	-11	12
143	165	-7
206	261	5
299	260	6
334	180	-40
262	71	-77
104	-18	-98
-68	-68	-100
-162	-86	-70
-132	-94	-43
-16	-113	-31
98	-142	-17
133	-167	-4
80	-165	24
-1	-123	45
-23	-45	54
65	51	36
241	148	1
411	225	-22
482	266	-67
409	265	-97
229	215	-87
18	126	-40
-148	18	5
-241	-75	8
-282	-120	8
-318	-110	2
-372	-57	-12
-433	-4	-9
-473	13	-24
-471	-15	-62
-428	-70	-44
-371	-108	8
-316	-96	14
-262	-28	10
-191	57	-2
-87	113	-32
44	103	-51
166	30	-60
245	-62	-38
275	-120	-23
283	-106	-53
317	-23	-50
394	92	-68
493	197	-96
545	255	-53
496	261	18
342	231	101
143	180	125
-4	119	109
-30	47	69
50	-35	29
137	-125	-38
115	-209	-128
-81	-275	-171
-393	-314	-171
-692	-329	-164
-814	-320	-127
-681	-280	-59
-341	-203	-22
56	-82	-7
346	71	-2
446	227	13
380	337	34
249	366	34
151	317	25
117	209	33
98	98	14
14	19	-2
-170	-9	-2
-410	-8	-54
-595	-12	-72
-621	-41	-34
-450	-98	-15
-123	-151	-17
234	-169	-13
512	-135	-16
646	-60	-30
636	21	-52
523	81	-54
346	99	-22
140	86	14
-75	64	40
-259	58	41
-358	72	24
-335	92	-17
-194	86	-48
-4	25	-46
126	-94	-49
116	-253	-71
-54	-401	-104
-303	-485	-36
-502	-464	-7
-533	-334	-19
-369	-129	-15
-71	85	-62
239	247	-81
439	317	-113
484	300	-46
374	228	21
186	151	21
-12	101	34
-159	79	41
-229	58	41
-215	16	9
-125	-57	-1
19	-138	-7
182	-187	-2
306	-173	0
339	-92	8
254	24	1
77	126	-36
-127	174	-105
-281	154	-92
-337	81	-32
-291	-14	-51
-195	-95	-48
-113	-145	-30
-85	-159	-1
-110	-137	9
-153	-97	-2
-175	-43	-15
-156	4	-20
-95	34	-16
-10	40	-35
94	26	-54
221	10	-60
373	16	-33
535	59	-4
645	137	-2
636	225	-5
462	289	-1
144	301	-17
-225	244	-20
-507	130	-13
-602	-20	-8
-484	-179	-9
-237	-307	-22
6	-380	-25
131	-379	-30
103	-304	-46
-16	-174	-65
-115	-30	-74
-106	86	-97
16	147	-98
172	145	-44
266	109	0
228	71	7
71	58	4
-115	71	13
-229	85	17
-223	75	22
-123	24	14
-17	-44	-1
18	-102	-8
-50	-114	-25
-188	-77	-35
-315	-12	-34
-361	39	-42
-299	45	-64
-143	4	-83
61	-57	-59
269	-104	-8
439	-103	37
541	-54	58
530	25	79
391	110	56
137	187	9
-153	257	-7
-377	325	-71
-432	382	-125
-296	405	-114
-33	362	-121
209	228	-125
292	14	-50
172	-234	10
-74	-449	22
-290	-572	24
-331	-573	-18
-153	-471	-23
159	-319	-7
436	-171	-5
529	-66	32
396	-14	26
130	7	-11
-117	16	-28
-225	30	-48
-174	41	-63
-45	40	-91
38	19	-110
2	-13	-75
-136	-31	-31
-282	-18	-27
-338	37	-4
-262	119	29
-101	195	41
53	233	44
124	211	31
94	145	9
12	57	-17
-54	-19	-10
-62	-66	-9
-23	-79	-27
11	-70	-25
0	-56	-13
-57	-43	0
-114	-35	-37
-110	-27	-74
-16	-22	-57
142	-24	-55
297	-37	-43
383	-62	-21
373	-83	-10
296	-85	14
203	-53	24
136	4	2
85	68	-30
2	110	-77
-162	106	-89
-410	59	-10
-676	-13	3
-850	-72	-16
-839	-94	-13
-617	-61	-24
-255	13	-36
116	96	-46
366	154	-8
436	160	21
354	115	-6
210	40	-20
107	-25	-1
101	-47	-19
172	-13	-56
257	68	-72
296	160	-44
267	221	-7
201	226	-39
143	174	-54
124	89	-6
130	5	8
118	-50	3
43	-75	-11
-94	-84	-32
-259	-110	-22
-385	-173	-17
-419	-271	-19
-357	-380	-21
-234	-454	-19
-105	-454	1
-8	-365	25
56	-206	51
107	-24	43
169	125	-8
230	198	-35
260	185	-74
216	113	-121
95	31	-138
-71	-14	-149
-212	-1	-58
-262	61	10
-209	136	-41
-86	193	-52
37	209	1
101	193	14
87	161	-2
37	121	9
9	77	27
42	9	42
130	-81	12
216	-182	-7
245	-258	-18
176	-277	-36
30	-225	-39
-144	-131	-65
-281	-49	-42
-347	-21	-27
-336	-51	-16
-258	-100	14
-118	-100	-15
86	-2	-20
337	187	-32
592	398	-13
756	540	-8
743	540	-58
506	399	-71
87	171	-83
-375	-42	-50
-697	-170	-14
-742	-192	2
-501	-149	12
-100	-98	24
262	-80	25
418	-95	24
306	-111	19
-1	-90	3
-343	-27	10
-550	50	21
-535	96	-12
-321	82	-112
-18	11	-158
239	-77	-116
346	-139	-101
271	-157	-99
44	-131	-56
-253	-101	-15
-509	-83	-5
-631	-85	-16
-561	-87	-19
-312	-65	-20
39	-15	-5
373	51	19
580	106	24
584	129	12
409	115	-4
147	80	-10
-89	41	-20
-211	3	-35
-195	-36	-5
-88	-89	13
46	-145	-6
149	-187	0
198	-184	12
201	-121	8
175	-13	19
132	103	42
62	178	36
-31	185	-2
-133	129	-60
-206	39	-86
-217	-41	-75
-159	-89	-70
-54	-95	-34
52	-77	-13
127	-50	3
156	-28	29
153	-11	31
139	7	-54
131	23	-103
127	38	-51
119	43	-74
107	40	-51
103	40	-7
132	51	-13
206	79	-28
302	112	-20
369	139	36
341	142	43
179	118	-2
-100	71	-90
-431	14	-144
-718	-39	-137
-869	-88	-61
-842	-130	12
-659	-166	53
-392	-183	70
-141	-175	43
25	-134	19
86	-65	-25
69	7	-64
35	55	-118
31	53	-120
75	2	-72
140	-80	-31
186	-151	12
182	-170	22
130	-117	26
72	3	16
52	150	5
89	267	-1
167	301	-25
232	229	-64
237	65	-110
166	-133	-90
52	-288	-23
-48	-346	3
-89	-282	6
-55	-131	-8
23	43	-5
95	179	-27
117	233	-68
78	211	-15
5	148	8
-52	87	1
-54	56	22
14	57	19
132	71	24
254	75	13
317	64	19
270	46	-4
107	35	-48
-137	36	-58
-389	40	-59
-556	33	-48
-569	9	-54
-419	-24	-55
-173	-48	-32
59	-46	-27
180	-19	-46
152	7	-11
24	6	5
-108	-41	-11
-157	-119	-19
-91	-192	-7
42	-223	9
156	-191	-16
179	-123	-30
106	-63	-31
-1	-54	-28
-62	-102	-3
-28	-166	11
90	-185	-16
221	-120	-36
289	17	-24
254	169	-17
131	251	-45
-36	219	-63
-201	90	-65
-342	-61	-57
-448	-153	-20
-504	-139	-29
-473	-47	-7
-303	47	20
14	80	24
423	28	43
800	-55	61
995	-98	56
902	-48	8
518	81	-25
-34	215	-74
-556	276	-102
-872	229	-99
-895	105	-81
-653	-19	-40
-281	-74	-4
65	-47	16
268	15	24
288	45	-17
183	3	-103
36	-94	-111
-68	-183	-110
-93	-207	-153
-51	-151	-149
13	-54	-77
56	22	5
64	38	87
53	10	134
55	-13	94
97	16	51
175	110	13
253	218	-32
283	274	-71
227	228	-56
91	98	-118
-82	-51	-121
-221	-144	6
-276	-134	12
-234	-40	10
-125	80	15
-3	153	29
94	151	41
154	94	32
196	27	12
245	-4	-49
296	4	-50
317	22	-33
251	3	-93
74	-77	-92
-197	-206	-12
-470	-340	10
-638	-419	4
-624	-412	7
-426	-315	26
-133	-160	14
139	7	-3
283	154	-2
263	253	-18
124	313	-40
-31	343	-81
-108	354	-87
-62	345	-74
72	309	-34
210	228	16
253	96	38
139	-64	61
-117	-219	22
-439	-314	-47
-702	-321	-45
-796	-247	-68
-668	-145	-116
-339	-84	-71
86	-106	-17
481	-202	3
731	-303	14
791	-326	-7
706	-224	-38
580	-20	-40
505	195	-24
508	317	-24
547	287	-25
495	139	-18
245	-35	-18
-209	-135	-25
-770	-119	-42
-1259	-33	-40
-1277	34	-34
-1168	10	-40
-1026	-104	-41
-465	-229	-20
103	-260	16
524	-147	46
728	74	48
743	295	16
652	400	-24
520	345	-45
380	185	-49
245	20	-53
114	-52	-40
9	-13	-42
-41	86	-50
-23	153	-42
44	128	-21
118	14	-27
148	-125	-31
112	-213	-28
25	-215	-36
-82	-144	-41
-176	-57	-41
-247	0	-23
-302	14	-33
-343	6	-36
-363	7	-14
-344	34	11
-267	81	19
-143	122	13
-1	143	14
118	141	7
196	120	3
241	89	6
270	36	-31
297	-40	-101
300	-142	-87
242	-238	-48
105	-291	-53
-95	-268	-43
-288	-165	-32
-389	-19	-9
-358	122	8
-222	208	31
-69	225	59
-10	178	78
-93	99	58
-275	11	11
-433	-67	-41
-443	-124	-126
-240	-145	-164
125	-115	-132
519	-26	-74
786	98	-4
831	225	26
662	301	41
373	309	28
95	247	15
-99	157	-1
-199	74	-30
-255	21	-59
-318	-15	-72
-394	-71	-56
-445	-166	-39
-399	-284	-18
-234	-381	-16
4	-408	-6
219	-345	-14
314	-226	-40
262	-112	-48
124	-63	-33
24	-99	-18
66	-177	-11
257	-237	23
486	-224	45
597	-125	36
454	22	1
59	164	-88
-459	257	-111
-880	294	-56
-1039	286	-33
-888	253	39
-537	202	69
-172	120	34
46	5	-4
67	-123	-85
-31	-214	-103
-109	-219	-82
-50	-119	-75
154	49	-31
411	215	-13
592	301	-21
604	272	-24
451	153	-53
214	11	-83
10	-79	-56
-88	-78	-31
-75	-5	-32
-8	86	4
46	138	20
54	122	34
28	43	38
12	-65	15
39	-171	2
111	-242	-17
188	-257	-35
216	-205	-35
154	-78	-20
0	106	-30
-206	301	-55
-409	445	-76
-539	469	-62
-554	341	-5
-447	89	28
-247	-206	23
-10	-443	33
202	-546	42
337	-492	39
383	-330	45
358	-129	-17
306	41	-130
274	149	-141
276	197	-93
296	213	-84
287	215	-49
219	207	-1
89	175	16
-68	110	-11
-206	17	-28
-285	-81	-30
-310	-157	-60
-318	-188	-62
-352	-178	-7
-420	-135	21
-496	-88	28
-518	-46	36
-450	-20	7
-299	-11	-15
-120	-16	-36
8	-47	-27
52	-107	-10
38	-189	-33
36	-263	-60
113	-296	-56
283	-253	-17
491	-122	21
628	58	28
620	233	1
452	339	-35
195	342	-55
-49	257	-62
-195	131	-70
-232	24	-59
-199	-30	-25
-159	-33	-17
-142	-13	-27
-132	-1	-5
-84	-7	15
27	-17	23
171	-4	10
280	39	-22
299	99	-30
211	138	-35
94	127	-40
41	62	-60
115	-33	-47
280	-117	0
421	-160	27
392	-157	28
119	-126	21
-338	-94	8
-805	-70	-16
-1078	-48	-23
-1037	-6	-23
-708	67	-7
-241	165	-8
160	253	-38
340	301	-84
269	291	-90
54	224	-72
-152	123	-61
-236	16	-20
-176	-71	13
-31	-133	5
105	-160	-35
175	-156	-58
179	-128	-51
154	-91	-49
132	-64	-81
118	-66	-56
89	-107	5
30	-170	16
-31	-231	25
-29	-257	42
85	-227	30
302	-150	22
536	-44	-2
656	59	-60
583	143	-112
328	203	-86
4	244	-63
-232	273	-30
-280	279	2
-156	255	-24
25	193	-17
125	110	-31
87	32	-15
-43	-8	-11
-148	8	-40
-132	67	-5
5	126	49
153	134	55
170	56	34
-14	-107	-5
-346	-318	-21
-676	-506	-5
-837	-615	-14
-744	-603	22
-454	-478	-4
-100	-280	-63
167	-78	-159
269	67	-203
224	126	-121
110	99	-114
18	26	-45
1	-43	14
65	-61	26
187	-11	35
333	96	4
462	228	14
533	338	18
494	395	-9
318	386	-37
29	317	-33
-281	211	-27
-489	97	-31
-491	-3	-12
-281	-74	17
47	-106	33
338	-108	36
450	-86	13
331	-49	-18
52	-5	-30
-246	47	-39
-420	103	-34
-411	152	-24
-258	174	-21
-70	154	-40
44	85	-44
35	-24	-41
-78	-136	-38
-222	-214	-20
-317	-232	-17
-316	-186	-6
-224	-110	-3
-71	-39	-10
90	-4	-6
222	-3	0
301	-14	12
312	-8	5
254	23	-33
139	67	-56
-5	95	-44
-151	77	-23
-256	9	-2
-299	-87	12
-271	-171	7
-188	-211	-17
-80	-196	-53
30	-136	-76
122	-52	-70
201	38	-46
274	120	-17
346	191	-16
411	244	-63
439	268	-86
416	244	-58
314	162	-26
153	28	-14
-22	-129	-10
-151	-263	-24
-190	-338	-39
-132	-326	-11
-12	-244	-4
94	-130	-20
121	-37	17
39	0	56
-123	-17	60
-299	-55	28
-412	-65	-23
-426	-19	-31
-351	75	-43
-239	164	-48
-138	187	-86
-65	117	-98
3	-19	-84
102	-140	-109
237	-166	-75
357	-63	-40
383	118	8
242	277	21
-55	318	10
-407	205	19
-647	4	9
-645	-171	18
-355	-214	-19
133	-101	-33
632	94	-30
930	253	-15
917	279	13
600	165	18
123	-21	16
-331	-173	-32
-627	-227	-79
-720	-192	-74
-659	-144	-51
-545	-150	-62
-448	-223	-43
-382	-301	4
-298	-301	32
-136	-160	55
130	90	7
462	362	-50
769	540	-72
936	557	-54
910	416	-13
688	189	0
346	-29	8
-5	-178	-20
-285	-241	-31
-456	-240	-51
-524	-209	-57
-518	-171	-28
-472	-138	-28
-389	-110	-19
-279	-89	-24
-149	-72	-18
-23	-54	-17
59	-17	-22
86	58	-4
65	171	11
42	290	33
64	362	15
141	340	-37
242	204	-34
297	-13	5
242	-238	-53
63	-395	-104
-182	-439	-101
-393	-371	-76
-472	-231	-17
-370	-84	0
-117	28	29
196	98	41
469	139	1
628	182	-18
645	228	-4
544	262	-11
363	265	-2
162	218	19
-20	135	16
-140	45	-13
-181	-8	-62
-141	-11	-85
-48	30	-123
49	79	-135
104	91	-100
85	48	-25
14	-45	29
-63	-157	2
-100	-252	-7
-70	-305	38
2	-313	34
67	-286	-18
67	-230	-9
-29	-155	22
-217	-62	17
-453	32	-4
-684	108	-52
-840	139	-49
-872	112	-49
-735	34	-77
-415	-58	-77
34	-121	-78
496	-131	-10
825	-89	11
898	-19	2
669	46	32
229	94	12
-245	124	-13
-547	150	-16
-554	170	21
-292	162	35
85	109	10
393	0	-16
502	-126	-46
406	-213	-86
206	-207	-134
37	-102	-109
-18	48	-45
24	156	-23
80	144	33
64	10	42
-40	-179	-4
-178	-309	-45
-262	-294	-101
-225	-126	-93
-81	114	-75
90	300	-61
197	338	-13
193	210	14
97	-4	20
-30	-196	39
-136	-281	56
-215	-242	55
-304	-133	30
-433	-34	36
-582	3	69
-663	-9	68
-556	-21	26
-202	25	-28
350	147	-83
927	313	-123
1307	469	-124
1337	565	-77
1023	582	-56
517	530	-80
43	438	-55
-218	322	-58
-236	177	-46
-126	2	12
-67	-199	15
-170	-388	-32
-394	-524	-63
-588	-564	39
-569	-504	84
-287	-376	21
149	-232	-7
518	-126	-51
618	-82	-138
395	-90	-145
-23	-112	-43
-409	-112	-24
-572	-72	-56
-470	3	-76
-194	82	-45
78	142	-35
203	160	-11
149	137	36
-17	97	58
-198	61	60
-332	55	29
-410	82	4
-451	129	-30
-459	164	-38
-411	152	-52
-274	72	-53
-60	-67	-41
165	-236	-53
310	-387	-43
306	-474	-23
174	-486	5
-3	-436	23
-102	-359	39
-58	-291	58
100	-237	32
260	-187	7
297	-111	-5
149	8	-30
-141	160	-50
-447	311	-72
-610	417	-69
-526	453	-66
-208	422	-91
238	353	-105
655	279	-90
902	227	-46
909	200	-22
695	183	-23
355	169	-16
19	149	13
-209	132	34
-288	129	39
-239	137	46
-133	140	39
-44	114	30
-14	35	21
-41	-106	11
-85	-286	-16
-99	-460	-56
-64	-577	-91
1	-589	-95
61	-481	-105
84	-278	-98
61	-49	-72
16	130	-56
-20	206	26
-24	169	49
-6	66	32
15	-33	26
22	-63	13
17	-8	16
22	102	-26
54	204	-55
111	244	-63
152	209	-68
128	127	-35
8	49	-2
-188	9	2
-393	3	-12
-523	6	-43
-501	-8	-49
-321	-41	-60
-50	-64	-102
222	-43	-76
395	21	-16
421	94	-13
313	115	19
125	45	14
-71	-97	-8
-227	-248	37
-313	-319	58
-330	-263	64
-280	-100	37
-158	89	9
35	213	-18
280	225	-61
508	138	-89
636	23	-92
562	-51	-60
263	-51	-41
-170	-2	-48
-585	44	-33
-787	49	-18
-680	5	-4
-281	-57	7
236	-102	36
636	-99	52
754	-60	1
545	-8	-32
144	38	-83
-244	75	-144
-452	115	-135
-431	161	-42
-259	201	10
-85	205	-15
-28	144	2
-107	19	-17
-243	-144	-66
-317	-289	-51
-258	-373	-30
-79	-365	-38
135	-281	0
279	-162	33
288	-48	24
175	22	-7
4	45	-32
-148	26	-13
-224	-13	-21
-221	-52	-32
-165	-88	-37
-99	-113	-7
-59	-132	31
-55	-138	28
-68	-116	4
-65	-44	-32
-13	89	-46
107	266	-77
279	445	-67
446	552	-27
539	530	-6
496	357	13
326	88	16
90	-185	-9
-103	-352	-41
-163	-345	-68
-67	-185	-95
113	40	-84
248	211	-80
230	244	-45
39	143	26
-227	-22	34
-407	-149	29
-374	-171	37
-106	-91	24
284	21	3
606	85	-19
696	62	-33
508	-23	-36
156	-99	-45
-201	-102	-47
-409	-16	-49
-420	106	-60
-306	195	-48
-180	196	-4
-125	112	21
-126	6	29
-99	-63	14
45	-61	-31
306	-14	-47
575	23	-19
689	2	8
505	-77	-18
27	-160	-15
-589	-183	11
-1108	-106	20
-1287	41	4
-1165	186	-78
-720	237	-92
-195	142	-76
193	-74	-125
306	-334	-106
169	-527	-62
-85	-565	-1
-285	-434	77
-320	-179	87
-186	88	71
35	267	46
236	282	12
341	137	-97
339	-102	-192
271	-322	-182
182	-425	-84
89	-364	-1
-20	-175	26
-153	56	33
-298	231	15
-389	295	-14
-353	262	-26
-153	205	-23
186	187	-30
568	233	-28
864	305	-27
984	336	-3
901	268	17
671	118	12
409	-42	3
202	-127	-7
90	-92	-15
42	33	-23
2	162	-12
-90	201	-19
-247	120	-52
-425	-38	-76
-562	-192	-74
-603	-265	-50
-540	-259	-34
-412	-214	-24
-281	-200	-12
-207	-248	5
-200	-322	20
-231	-356	26
-221	-283	13
-100	-103	-2
151	132	-19
484	338	-26
785	449	-29
916	457	-46
786	400	-37
410	329	-19
-98	270	-12
-545	221	5
-765	149	15
-700	48	5
-419	-68	-4
-86	-169	-7
133	-227	-18
155	-246	-39
10	-248	-108
-182	-261	-163
-296	-286	-88
-279	-297	-5
-163	-254	-40
-24	-148	-55
74	4	-17
129	150	23
182	243	30
273	272	31
398	268	3
490	269	-35
478	300	-6
336	331	18
110	310	-12
-101	185	-76
-197	-35	-90
-147	-288	-21
0	-474	20
149	-510	12
221	-391	-24
201	-182	-46
129	12	-35
58	108	-19
8	96	-22
-43	24	-58
-138	-24	-41
-281	-2	-9
-431	77	-13
-506	142	-67
-459	119	-80
-310	-21	5
-144	-241	71
-75	-446	31
-153	-548	6
-336	-494	21
-497	-305	0
-521	-50	-40
-351	189	-80
-41	352	-106
280	418	-145
484	400	-123
515	327	-23
406	227	11
241	129	-31
94	47	-43
-15	-7	-36
-117	-36	-60
-229	-52	-59
-325	-66	-2
-330	-91	10
-169	-113	29
167	-111	41
590	-64	19
930	35	25
1042	157	21
850	257	16
434	289	-8
-35	239	-4
-370	127	-12
-473	4	-31
-370	-87	-27
-184	-127	-28
-48	-136	-13
-29	-145	-10
-101	-178	-2
-178	-219	-3
-194	-241	-5
-142	-204	-9
-79	-105	-20
-67	25	-35
-131	132	-36
-224	174	-46
-259	140	-68
-178	64	-40
9	-4	-27
224	-29	-24
368	-9	-12
381	23	-9
275	32	-13
114	2	-38
-35	-61	-43
-148	-118	-31
-237	-142	-30
-327	-126	-22
-415	-87	-8
-448	-54	-7
-381	-40	-20
-191	-44	-9
61	-37	17
279	-5	8
374	57	-20
340	129	-58
242	179	-94
189	192	-91
245	168	-42
396	124	19
536	79	85
553	40	106
396	4	65
109	-38	60
-200	-86	11
-433	-130	-115
-555	-160	-198
-595	-167	-179
-614	-154	-137
-632	-129	-134
-617	-96	-151
-509	-46	-117
-281	23	-12
28	113	69
328	201	126
527	257	123
586	257	76
539	203	46
459	122	7
395	55	-67
336	32	-150
236	45	-100
50	67	-20
-190	57	-30
-397	3	-34
-463	-74	-49
-342	-136	-27
-90	-142	32
162	-92	63
280	-9	32
216	60	-7
14	87	-41
-214	64	-72
-371	11	-83
-411	-53	-20
-375	-129	78
-325	-222	61
-299	-332	48
-281	-443	58
-230	-505	21
-115	-478	-76
49	-339	-152
214	-121	-107
337	110	-68
411	287	-43
467	372	-24
537	380	-32
614	345	-78
648	320	-98
569	305	-3
363	290	-6
72	244	-51
-180	153	-50
-296	32	-63
-249	-87	-30
-112	-179	-4
-13	-242	5
-50	-282	-1
-228	-313	9
-442	-322	18
-555	-282	13
-480	-182	-3
-240	-32	-26
44	112	-21
237	194	-8
249	171	14
104	62	32
-101	-80	36
-253	-189	9
-295	-225	-23
-242	-192	-23
-160	-122	-12
-106	-43	-13
-96	41	-15
-100	152	30
-71	290	95
14	431	68
140	515	-36
265	481	-121
341	320	-187
342	88	-211
285	-114	-183
209	-202	-106
158	-148	-18
160	-5	9
214	130	9
292	183	0
332	135	-8
273	33	7
77	-58	11
-255	-100	-11
-644	-106	-23
-970	-123	-12
-1101	-186	-16
-965	-286	-19
-558	-378	-8
12	-398	-1
575	-326	7
967	-194	-5
1060	-57	-13
892	28	-23
551	52	-10
210	48	4
1	56	1
-27	97	3
79	150	-23
216	174	-37
280	144	-51
226	72	-43
82	11	-3
-86	6	2
-213	76	-6
-282	181	5
-321	260	12
-377	250	-13
-465	139	-38
-561	-38	-48
-607	-225	-39
-546	-361	-60
-372	-423	-33
-125	-407	6
109	-326	-30
261	-205	-59
287	-44	-91
204	129	-107
59	282	-114
-91	370	-111
-201	362	-68
-255	261	-37
-245	121	2
-178	1	52
-59	-53	49
90	-39	30
238	4	-14
346	21	-16
390	-16	60
357	-95	110
268	-166	108
158	-173	-17
59	-92	-89
-2	50	-76
-36	195	-82
-60	287	-84
-89	294	-141
-124	218	-93
-147	93	-9
-134	-47	-7
-77	-182	14
12	-291	13
94	-362	1
123	-375	-5
74	-309	-33
-45	-177	-60
-183	-1	-87
-273	160	-95
-259	252	-36
-123	244	-11
92	158	10
309	43	35
446	-33	39
459	-29	45
365	47	24
226	150	26
114	211	-2
74	187	-14
93	77	-22
111	-69	-33
62	-186	-26
-89	-223	-31
-314	-168	-25
-535	-65	-41
-665	18	-48
-639	26	-45
-474	-57	-60
-228	-198	-64
6	-332	-54
151	-389	-33
183	-334	-4
127	-196	18
40	-26	27
-31	100	42
-64	143	63
-68	101	29
-61	18	-22
-55	-46	-34
-35	-52	-53
22	10	-57
132	111	-58
283	211	-43
416	278	-3
468	299	-26
394	283	-32
208	251	-41
-24	213	-47
-207	168	-58
-273	105	-88
-212	20	-82
-85	-72	-71
13	-152	-78
5	-190	-78
-113	-174	-45
-273	-115	-3
-375	-36	29
-340	31	18
-162	68	13
84	76	42
291	61	41
380	41	21
342	23	13
232	15	-22
133	10	-62
95	11	-63
104	19	-44
104	35	-33
41	62	-20
-87	87	23
-231	101	62
-308	85	99
-271	34	91
-129	-47	13
44	-145	-91
165	-230	-192
183	-276	-238
122	-268	-173
67	-207	-58
104	-115	2
262	-23	22
486	39	34
662	61	-4
652	43	-38
387	2	-50
-94	-52	-45
-654	-116	-32
-1116	-190	-20
-1278	-278	-6
-1170	-356	-1
-904	-393	40
-423	-348	-17
49	-203	-52
391	15	-10
562	244	-23
591	400	6
534	435	25
450	350	5
363	207	-6
270	79	-17
160	25	-12
30	49	-16
-91	104	-5
-159	129	28
-150	88	19
-62	-1	-6
67	-83	-3
192	-103	-9
262	-43	-57
250	65	-97
155	169	-37
-7	215	-7
-201	197	-58
-390	144	-58
-518	97	-79
-545	82	-55
-425	89	-12
-169	90	-9
167	61	9
493	11	22
704	-27	13
730	-23	-25
563	29	-39
262	94	-24
-78	117	-43
-344	57	-96
-469	-78	-117
-443	-238	-120
-315	-359	-53
-169	-391	2
-75	-334	36
-76	-224	98
-154	-118	103
-257	-57	39
-310	-52	-52
-256	-87	-120
-85	-122	-139
164	-134	-81
407	-108	14
561	-42	52
561	45	14
401	127	-11
122	166	-25
-182	140	-24
-431	48	-6
-555	-78	-1
-538	-185	10
-392	-215	-12
-164	-147	-44
91	-15	-56
314	117	-32
453	179	-20
476	147	-24
374	49	-17
184	-37	-18
-47	-56	-19
-243	2	-51
-336	95	-96
-291	145	-62
-132	112	-4
77	5	7
250	-100	10
322	-127	8
275	-47	-2
155	109	-17
26	253	-32
-38	305	-36
-12	243	-17
69	102	1
138	-34	11
127	-101	21
12	-86	-17
-178	-30	-43
-369	3	-58
-484	-23	-80
-488	-98	-80
-407	-173	-78
-296	-195	-68
-206	-148	-34
-159	-52	-16
-129	39	-4
-80	85	16
11	77	34
121	37	42
202	-2	33
209	-14	52
143	-6	80
52	4	46
12	-1	-4
77	-21	-75
249	-37	-153
472	-24	-106
649	33	-23
707	127	2
623	238	21
417	328	-18
169	372	-76
-55	352	-103
-209	266	-140
-291	130	-133
-329	-31	-53
-361	-177	37
-408	-271	63
-459	-289	59
-485	-243	55
-451	-167	39
-338	-114	-9
-158	-125	-62
40	-205	-62
206	-322	-48
302	-419	-53
333	-444	-81
327	-381	-77
318	-242	-56
317	-71	-16
291	93	34
196	226	19
1	318	8
-264	362	-22
-515	350	-46
-635	275	-51
-561	138	-40
-312	-26	11
-7	-170	28
206	-236	8
229	-200	15
65	-89	14
-172	39	-14
-329	114	-4
-299	105	-24
-62	34	11
285	-33	20
608	-40	-80
778	30	-107
753	142	-91
541	218	-77
230	195	-104
-104	63	-67
-390	-118	-9
-577	-263	6
-630	-304	19
-548	-222	24
-366	-67	32
-140	72	-2
52	131	-17
163	98	-47
183	13	-79
158	-56	-77
141	-57	-40
175	14	38
242	126	82
287	228	75
255	278	42
125	273	-27
-64	230	-114
-250	171	-167
-360	106	-123
-366	28	-21
-291	-69	-16
-176	-170	-63
-51	-242	-87
65	-251	-52
170	-188	39
245	-79	78
260	31	90
181	90	68
4	88	37
-218	45	4
-402	3	-17
-459	-12	-31
-353	-6	-68
-123	-8	-69
142	-46	-65
342	-118	-49
419	-183	-30
375	-194	-40
269	-127	-39
157	-9	-28
65	95	-51
-5	124	-56
-70	63	-27
-129	-46	-5
-172	-130	-2
-170	-129	-21
-124	-45	-12
-55	61	11
-8	116	-10
-11	68	-26
-59	-58	-49
-108	-199	-42
-105	-268	-10
-20	-230	4
127	-106	13
276	43	-10
358	157	-34
336	211	-15
216	224	16
56	230	9
-85	244	-1
-163	254	-42
-174	229	-69
-137	144	-62
-83	13	-58
-33	-126	-52
6	-223	-69
36	-251	-25
65	-222	21
85	-167	27
87	-125	41
63	-104	86
7	-92	106
-74	-60	57
-173	-3	-14
-267	66	-124
-336	126	-211
-361	153	-231
-330	145	-176
-248	123	-84
-127	110	-82
2	110	-59
117	117	50
184	110	82
205	79	57
178	41	36
119	27	-11
50	63	-46
0	143	-62
-10	228	-52
34	259	-21
136	189	9
263	17	12
378	-205	-1
425	-401	-24
383	-498	-31
262	-473	1
120	-351	8
23	-202	20
17	-98	52
85	-76	46
139	-126	6
79	-210	-11
-163	-279	-8
-552	-304	-15
-954	-281	-7
-1194	-228	7
-1129	-153	-1
-740	-55	4
-129	72	-15
478	235	-54
883	410	-81
967	557	-109
775	627	-81
454	596	-28
180	467	-59
54	275	-43
63	74	4
98	-98	14
46	-227	31
-130	-305	32
-371	-345	52
-540	-339	13
-526	-278	-97
-291	-166	-246
74	-23	-252
411	109	-97
569	187	-60
492	182	-46
206	110	-2
-158	7	14
-456	-71	35
-589	-97	35
-538	-74	72
-361	-32	108
-153	-7	101
14	-8	34
109	-13	-32
149	19	-78
167	112	-133
193	252	-121
225	391	-38
238	461	19
204	422	28
122	278	20
13	71	-12
-80	-130	-9
-118	-279	-7
-89	-352	-26
-21	-358	-20
40	-322	-42
54	-260	-66
20	-178	-106
-29	-81	-121
-38	21	-24
29	98	28
172	118	26
335	68	47
436	-37	34
411	-151	30
245	-218	-28
-26	-209	-79
-319	-119	-63
-550	12	-65
-668	134	-71
-659	205	-100
-561	211	-86
-402	170	-4
-227	115	9
-48	78	-11
121	71	-15
263	92	-4
357	112	10
372	103	-12
302	42	-4
172	-66	11
36	-200	19
-61	-318	-1
-94	-374	-28
-76	-346	-28
-43	-246	-7
-24	-114	7
-21	-11	22
5	23	38
90	-21	28
240	-102	22
404	-159	7
496	-132	-69
446	-9	-103
234	169	-79
-63	331	-123
-315	400	-136
-402	349	-102
-290	204	-62
-40	38	-6
208	-72	19
328	-87	42
258	-13	56
38	91	41
-218	166	-4
-405	171	-32
-465	112	-30
-426	26	-37
-344	-48	-26
-270	-85	26
-214	-87	100
-141	-72	106
-21	-60	54
145	-52	-23
300	-44	-122
373	-34	-230
316	-24	-250
154	-29	-120
-40	-58	-17
-169	-109	19
-174	-157	64
-69	-177	51
78	-154	30
183	-94	-6
202	-24	-69
142	32	-103
63	61	-89
24	74	-86
51	87	-98
126	110	-48
191	137	-2
193	144	49
119	114	89
-1	46	80
-106	-31	57
-136	-85	-9
-67	-87	-68
67	-43	-94
193	10	-124
216	31	-68
79	-11	-25
-221	-102	-36
-601	-201	26
-936	-260	24
-1073	-240	16
-946	-150	17
-567	-23	-11
-46	89	13
454	161	34
785	188	64
872	193	49
736	202	2
456	228	-95
140	256	-189
-135	253	-189
-338	195	-142
-451	81	-70
-450	-63	-2
-303	-185	10
4	-238	4
422	-202	14
828	-96	16
1057	32	33
991	129	15
620	157	-13
63	112	-2
-474	22	5
-805	-76	-7
-853	-159	-33
-676	-219	-35
-444	-273	-36
-311	-333	-22
-330	-391	49
-432	-425	129
-476	-400	116
-350	-298	20
-36	-127	-89
363	74	-177
698	261	-243
846	400	-187
785	469	-42
591	480	-7
371	449	10
211	382	16
133	290	1
100	174	8
52	50	21
-34	-60	43
-152	-131	28
-253	-147	5
-297	-122	-26
-269	-92	-105
-181	-92	-153
-67	-139	-95
34	-218	-41
101	-282	-30
120	-289	5
89	-211	-16
14	-62	-39
-87	113	-31
-189	254	-24
-259	313	8
-281	278	39
-258	163	36
-204	12	14
-145	-129	18
-99	-224	-16
-68	-249	-51
-43	-210	-63
-14	-119	-55
24	-3	-21
69	109	-22
124	200	9
191	252	12
271	265	7
359	243	-3
425	195	-48
428	127	-60
331	47	-33
144	-36	-12
-88	-116	-41
-299	-178	-40
-428	-214	-26
-456	-216	0
-412	-189	29
-342	-140	26
-285	-79	3
-248	-17	-11
-199	33	-6
-110	57	-12
25	44	-14
170	-5	-36
271	-82	-44
288	-151	-51
212	-184	-57
83	-160	-25
-46	-89	-11
-137	-3	2
-179	51	46
-176	44	64
-141	-16	14
-79	-94	-86
11	-138	-172
120	-119	-165
223	-38	-155
288	67	-120
299	158	-26
262	203	-12
212	206	-8
184	189	-12
184	168	-5
190	148	34
151	114	35
39	50	34
-132	-39	60
-318	-131	76
-459	-187	38
-523	-181	-8
-515	-118	-10
-459	-36	-44
-375	20	-96
-244	30	-117
-35	1	-129
254	-26	-67
575	-13	-32
822	55	-51
869	160	-30
676	254	-27
296	300	-18
-120	276	-6
-409	195	-8
-474	80	1
-345	-37	-2
-139	-142	-16
1	-224	-17
1	-270	1
-108	-270	10
-228	-215	18
-260	-121	26
-173	-18	35
-10	50	14
144	51	-17
228	-8	-50
226	-94	-90
182	-144	-86
139	-123	-58
117	-30	-19
93	89	6
41	170	12
-38	174	11
-109	103	3
-114	-7	-1
-32	-101	4
111	-136	31
244	-110	79
292	-47	83
231	26	4
87	89	-59
-70	147	-72
-188	210	-101
-250	279	-122
-285	330	-158
-329	318	-179
-389	213	-96
-432	11	-30
-401	-241	-7
-269	-469	20
-68	-590	-3
113	-559	-42
186	-389	-118
107	-141	-138
-81	85	-67
-273	214	-22
-361	210	35
-285	106	71
-80	-28	72
148	-117	57
285	-119	24
280	-46	-13
166	41	-27
46	82	44
24	41	50
137	-55	7
333	-148	18
488	-163	-8
496	-74	-67
328	96	-95
61	270	-93
-158	380	-55
-198	384	-19
-26	301	-17
265	199	-35
503	132	-46
526	127	-42
283	149	-40
-129	137	-20
-520	41	17
-707	-138	34
-605	-344	25
-272	-492	9
111	-510	-13
363	-393	-22
373	-183	-36
170	31	-62
-120	171	-89
-348	210	-96
-423	164	-31
-340	87	-17
-176	30	-32
-25	19	-22
55	40	-22
63	65	3
32	68	34
0	43	109
-17	5	164
-30	-29	126
-53	-38	24
-89	-28	-70
-124	-9	-151
-133	3	-231
-112	-3	-254
-69	-24	-130
-22	-53	-2
21	-80	-6
72	-95	20
157	-96	-3
294	-78	-28
470	-50	-25
642	-23	-9
740	-13	18
723	-35	-21
575	-89	-9
333	-153	-14
63	-191	-18
-167	-170	-6
-324	-68	-40
-410	95	-32
-448	273	49
-465	410	87
-480	456	65
-477	402	62
-443	267	43
-362	100	-4
-253	-57	-62
-143	-175	-116
-84	-240	-134
-109	-258	-109
-222	-240	-89
-374	-195	-55
-480	-135	5
-452	-70	40
-250	-6	27
86	47	-5
452	94	-67
709	137	-120
769	171	-93
608	196	-54
328	189	-22
58	143	18
-86	63	41
-77	-32	44
19	-111	11
106	-159	-42
104	-170	-57
9	-173	-60
-125	-190	-74
-219	-236	-71
-235	-292	-86
-187	-325	-40
-128	-297	28
-99	-195	37
-95	-42	34
-75	115	12
1	235	-16
134	290	-20
279	289	-7
369	257	9
359	221	-7
263	185	-15
136	149	-2
42	96	6
10	21	12
23	-63	-2
38	-142	-25
23	-196	-46
-22	-216	-96
-65	-202	-109
-78	-160	-109
-62	-92	-75
-48	-5	1
-79	88	1
-165	169	2
-269	213	4
-315	206	-2
-231	158	-15
-1	93	-18
329	55	-42
642	64	-41
809	116	-25
736	175	-113
417	204	-124
-77	174	-44
-601	95	14
-999	4	41
-1145	-68	56
-995	-107	69
-603	-123	53
-109	-140	30
326	-169	13
569	-195	-28
596	-190	-57
446	-137	-56
237	-53	-54
76	18	-44
21	24	-43
49	-44	-38
103	-157	-29
115	-242	-28
75	-242	-32
4	-150	-36
-55	-17	-35
-83	71	-40
-94	62	-50
-126	-42	-52
-207	-175	-30
-321	-251	-8
-416	-218	16
-436	-94	38
-352	56	60
-187	162	69
-3	183	31
131	137	-15
189	67	-27
175	17	-47
133	-5	-66
90	-15	-63
59	-28	-55
25	-45	-55
-20	-38	-63
-69	16	-45
-97	122	-28
-71	241	-13
13	313	3
132	300	-22
241	203	-49
300	70	-81
291	-41	-119
236	-96	-97
164	-99	-40
98	-94	-17
36	-117	-10
-36	-180	-4
-125	-243	6
-209	-257	30
-242	-178	44
-184	-13	61
-42	187	67
139	356	94
277	435	122
314	410	38
234	301	-59
91	158	-80
-40	14	-139
-100	-105	-257
-87	-192	-215
-52	-251	-66
-52	-275	-12
-109	-259	15
-182	-198	12
-195	-106	-17
-93	-15	-34
117	51	-34
355	76	-14
508	71	15
523	65	68
402	93	72
229	159	42
99	243	-40
50	301	-94
41	290	-62
-28	194	-47
-232	23	26
-558	-168	68
-900	-326	48
-1106	-401	6
-1058	-373	-45
-743	-256	-63
-234	-93	-84
320	62	-61
769	159	-12
1022	169	-30
1046	92	-22
858	-31	13
506	-147	-4
68	-204	-15
-366	-187	-67
-682	-116	-112
-775	-44	-97
-627	-23	-71
-297	-65	-63
74	-149	-51
324	-208	-34
358	-189	-25
183	-76	0
-78	99	30
-269	261	75
-281	345	87
-100	324	69
190	223	53
459	96	21
596	6	-21
540	-24	-58
306	-16	-91
-38	-5	-95
-410	-26	-89
-714	-77	-108
-889	-127	-86
-888	-142	-46
-720	-107	-9
-448	-40	0
-156	21	-8
66	40	-6
178	11	3
210	-41	-22
227	-77	-64
292	-64	-27
417	-7	-16
545	65	-36
580	115	-29
461	117	-27
198	71	10
-106	3	67
-321	-59	112
-351	-101	69
-186	-118	5
85	-127	-49
317	-133	-117
386	-137	-136
262	-134	-88
2	-117	21
-263	-86	51
-432	-45	28
-433	7	13
-288	75	-17
-65	161	-38
151	260	-79
300	345	-96
366	373	-64
360	328	-17
299	200	-14
195	37	-42
61	-102	-32
-85	-162	-3
-206	-126	-17
-260	-29	-20
-221	77	-18
-93	139	-63
66	144	-48
193	113	-26
229	84	-18
160	80	39
26	93	11
-107	96	-45
-183	56	-65
-189	-26	-45
-150	-133	-20
-117	-229	-31
-116	-286	13
-136	-311	22
-130	-313	21
-47	-309	21
129	-289	8
363	-235	14
568	-127	22
660	25	45
592	174	84
373	267	70
89	261	-7
-165	164	-34
-315	22	-122
-340	-98	-248
-273	-158	-259
-183	-156	-222
-132	-122	-145
-156	-99	-76
-252	-92	-48
-383	-79	-35
-501	-22	-8
-562	91	19
-537	233	31
-417	345	42
-218	372	48
21	301	36
249	158	44
416	10	44
498	-89	15
508	-123	12
495	-112	23
470	-92	9
439	-80	-27
363	-69	-4
172	-39	64
-157	14	61
-572	59	-27
-953	51	-103
-1146	-43	-126
-1064	-202	-142
-708	-357	-154
-200	-418	-92
280	-336	15
580	-137	52
636	90	52
508	241	66
328	252	59
195	139	45
147	-19	15
141	-131	-64
115	-148	-104
23	-74	-79
-111	30	-98
-224	110	-113
-253	139	-70
-189	132	-20
-65	122	13
56	123	47
144	131	53
214	122	31
299	79	7
411	13	-38
526	-41	-50
566	-52	-27
470	-11	4
231	60	5
-81	117	0
-343	127	13
-448	80	20
-369	-3	4
-172	-89	-27
27	-149	-45
127	-173	-40
96	-167	-50
-26	-140	-136
-156	-100	-136
-216	-51	-86
-185	-5	-82
-84	23	-27
46	24	-22
169	2	-30
269	-18	-17
350	2	2
405	91	36
430	240	52
414	398	36
342	495	16
209	465	7
12	301	-33
-248	54	-41
-555	-182	-55
-850	-319	-66
-1034	-313	-39
-994	-192	-11
-669	-40	5
-103	47	-15
541	16	-31
1020	-123	-70
1119	-296	-99
759	-417	-60
59	-427	-58
-707	-333	-48
-1259	-188	-33
-1198	-64	-42
-1095	-13	-12
-581	-30	9
-25	-78	43
335	-104	78
418	-87	126
301	-32	117
142	29	33
69	65	-33
105	70	-107
181	49	-154
195	24	-163
87	1	-90
-120	-17	3
-325	-32	54
-417	-37	87
-328	-18	60
-66	41	7
288	139	-38
626	244	-48
846	320	-55
883	325	-71
720	259	-90
429	147	-107
92	31	-89
-191	-46	-60
-351	-84	-33
-361	-86	4
-251	-76	48
-71	-63	57
111	-40	31
262	7	14
360	83	8
399	170	-12
365	235	-65
252	244	-97
63	195	-77
-160	106	-90
-350	16	-88
-433	-41	-14
-385	-60	12
-243	-59	14
-94	-65	44
-22	-98	46
-59	-151	52
-167	-198	31
-257	-211	-35
-258	-179	-86
-161	-105	-110
-23	-13	-97
68	74	-57
69	143	-6
2	195	9
-60	233	-2
-47	252	2
55	249	9
192	206	7
279	112	-3
265	-26	-25
172	-196	-32
80	-372	-27
52	-519	-40
101	-611	-91
155	-618	-144
119	-535	-115
-55	-370	-80
-321	-156	-92
-561	56	-40
-644	208	48
-529	265	60
-272	225	28
-9	120	1
140	10	1
144	-57	-3
75	-64	20
44	-24	53
135	28	59
322	64	69
498	74	69
534	76	72
355	95	13
6	142	-85
-386	208	-124
-675	261	-133
-762	278	-142
-641	249	-102
-386	194	-28
-89	137	-16
155	103	-23
302	84	-21
350	61	-53
313	13	-63
211	-65	-31
63	-157	0
-105	-233	45
-269	-265	84
-380	-263	71
-405	-235	45
-313	-208	12
-110	-192	-67
165	-182	-118
439	-154	-103
636	-96	-113
694	-9	-61
597	90	-17
395	179	-18
175	241	41
33	279	31
3	299	7
59	301	-6
125	279	-57
121	221	-93
16	119	-118
-151	-6	-61
-287	-121	-14
-319	-189	-6
-225	-182	0
-59	-116	-7
83	-26	13
131	43	13
71	60	-2
-35	33	-43
-106	-13	-48
-92	-40	-1
-11	-33	-6
68	5	18
65	42	32
-47	54	19
-232	28	22
-394	-26	17
-455	-85	10
-371	-124	-27
-174	-136	-61
53	-127	-104
239	-115	-119
339	-110	-68
357	-119	-45
330	-131	-89
287	-141	-68
239	-131	12
167	-94	5
46	-24	-12
-127	71	-19
-330	169	-29
-503	236	-22
-589	225	-12
-550	115	-8
-399	-84	-8
-181	-322	12
44	-510	12
234	-578	13
373	-482	19
486	-246	56
575	48	95
626	309	61
592	457	45
419	474	0
99	389	-116
-312	265	-184
-686	154	-187
-895	83	-126
-856	40	-68
-617	4	-54
-318	-41	-63
-110	-90	-83
-75	-118	-75
-167	-107	-52
-253	-48	-30
-189	37	7
67	116	28
425	163	-3
716	162	-1
786	122	38
605	64	56
276	7	72
-24	-38	77
-165	-81	79
-116	-121	65
29	-168	31
139	-209	10
132	-228	-28
31	-206	-115
-84	-142	-192
-131	-48	-204
-95	50	-159
-29	129	-101
-10	174	-45
-61	186	-8
-137	177	27
-150	168	34
-41	168	40
159	181	65
354	198	81
432	206	72
346	183	41
159	126	16
-18	38	-60
-82	-60	-151
-13	-140	-215
119	-179	-176
216	-171	-37
216	-135	13
137	-95	41
50	-72	43
22	-68	-28
52	-59	-35
86	-19	-29
41	62	-20
-106	158	12
-308	217	20
-465	197	-20
-487	81	4
-366	-95	-13
-167	-273	-59
2	-384	-63
64	-412	-94
12	-368	-39
-103	-292	-4
-202	-222	4
-230	-152	-7
-169	-77	-19
-37	16	-19
132	104	-10
314	150	7
461	122	11
508	22	13
405	-92	-15
105	-154	-34
-337	-116	-35
-789	0	-19
-1093	121	-31
-1123	165	-44
-869	93	-5
-422	-52	13
47	-180	6
386	-198	-10
530	-83	15
516	110	68
432	279	84
346	338	60
266	270	3
155	130	-66
-15	9	-148
-214	-30	-164
-357	16	-97
-353	95	-49
-178	139	-27
105	118	-74
369	41	-119
494	-39	-64
435	-84	-34
245	-82	-22
37	-51	-30
-90	-27	-37
-105	-26	-8
-44	-44	5
22	-57	9
47	-56	4
26	-50	16
-1	-52	12
4	-71	42
62	-87	86
153	-55	69
241	53	26
288	233	-17
284	418	-132
231	535	-231
144	505	-197
51	341	-116
-26	89	1
-64	-138	19
-56	-258	-21
-9	-238	-13
44	-126	-4
66	-12	35
28	23	38
-56	-49	49
-143	-189	33
-175	-316	10
-118	-351	21
4	-262	24
130	-85	6
190	110	-50
148	244	-100
16	268	-115
-145	189	-138
-273	43	-160
-345	-111	-57
-366	-237	46
-376	-313	39
-389	-349	24
-394	-353	-8
-358	-337	-13
-255	-300	7
-95	-240	-10
66	-159	-7
161	-67	-2
154	14	1
59	76	35
-53	110	42
-108	121	-7
-62	119	-43
66	104	-56
216	77	-84
324	30	-111
346	-29	-105
302	-85	-44
221	-111	0
144	-86	22
82	-7	24
18	103	-10
-72	201	-15
-191	253	-16
-314	244	-6
-388	194	47
-361	144	93
-210	134	61
42	183	-8
340	268	-84
606	353	-150
771	390	-160
794	356	-126
679	267	-34
439	152	43
135	49	48
-186	-27	37
-472	-85	16
-691	-145	-28
-825	-227	-70
-865	-316	-92
-812	-391	-84
-669	-417	-43
-458	-376	-35
-210	-278	-42
18	-157	-9
175	-53	5
241	9	2
225	23	35
172	4	74
147	-33	119
184	-74	143
279	-113	77
378	-145	-24
414	-153	-105
346	-122	-207
189	-41	-234
8	71	-140
-111	185	-115
-108	252	-96
17	244	-4
201	166	68
344	51	96
369	-49	95
248	-107	32
26	-118	-33
-211	-105	-92
-375	-91	-200
-407	-79	-204
-303	-52	-66
-111	19	39
97	142	42
253	294	54
317	421	43
285	466	17
182	397	17
53	229	3
-54	16	-11
-112	-177	-20
-112	-294	-15
-76	-313	-18
-34	-254	-33
-19	-149	-30
-42	-46	-13
-93	16	-27
-152	14	-43
-191	-50	-27
-199	-154	-16
-174	-256	-37
-125	-312	-58
-66	-296	-65
-13	-208	-40
17	-85	-2
9	28	-13
-47	95	12
-139	109	23
-240	100	9
-304	103	12
-291	142	8
-185	213	-3
-1	284	-18
216	321	-26
418	305	-51
558	250	-70
608	179	-55
575	114	-30
462	55	28
283	-11	80
60	-89	108
-170	-166	95
-361	-204	21
-469	-176	-75
-473	-81	-170
-400	40	-234
-296	119	-229
-217	101	-115
-188	-23	-30
-197	-202	-7
-204	-361	8
-172	-427	-9
-97	-390	8
-6	-281	11
62	-165	-5
86	-94	-49
78	-71	-93
77	-70	-49
111	-44	21
186	27	28
258	131	16
279	230	0
219	277	-2
97	258	15
-30	174	4
-100	60	6
-83	-60	0
2	-166	-13
91	-242	-18
135	-274	-36
113	-253	-38
62	-175	-9
39	-56	-31
96	68	-47
229	164	-4
384	206	-45
472	202	-68
421	180	-19
204	168	-4
-128	168	-9
-480	158	-41
-735	109	-36
-804	8	-16
-679	-118	-13
-424	-219	-32
-151	-254	-48
36	-209	14
86	-123	49
31	-48	32
-42	-13	19
-41	-6	-24
81	24	-63
280	125	-105
466	299	-135
530	483	-84
435	594	-44
225	565	-95
-2	395	-57
-135	158	3
-133	-48	-4
-24	-150	45
104	-144	52
175	-90	42
169	-59	39
103	-104	23
22	-204	7
-57	-308	-47
-159	-344	-66
-325	-288	-42
-554	-163	-31
-770	-15	-33
-842	98	-2
-665	158	20
-201	168	18
439	147	16
1030	106	-16
1330	43	-66
1230	-41	-116
775	-143	-94
170	-233	-34
-335	-278	-14
-554	-257	-13
-459	-183	-26
-193	-94	-30
38	-32	-43
81	-24	-80
-78	-62	-65
-312	-111	14
-459	-122	87
-422	-77	98
-214	20	97
31	139	61
175	237	20
149	284	-16
3	272	-120
-142	209	-166
-178	114	-92
-78	9	-18
97	-86	-81
242	-154	-149
285	-180	-97
234	-164	-52
154	-108	-59
111	-31	-64
128	45	-16
166	106	13
162	142	-8
81	155	6
-57	148	22
-191	122	31
-272	72	30
-291	-4	37
-298	-99	36
-342	-195	14
-443	-261	-10
-561	-274	-41
-611	-233	-50
-535	-149	-61
-329	-53	-45
-55	28	-7
192	81	27
342	106	49
380	108	52
338	96	27
273	72	-11
222	50	-43
181	36	-104
128	40	-117
51	60	-72
-35	68	-46
-93	31	-31
-86	-71	-25
-11	-226	-16
96	-362	-3
178	-407	-4
191	-303	-20
124	-66	-23
15	209	-25
-86	410	-35
-122	445	-65
-68	321	-98
64	119	-90
236	-34	-55
383	-65	-16
439	14	-8
361	110	9
144	110	32
-175	-37	44
-501	-282	67
-727	-498	70
-779	-567	54
-630	-443	20
-328	-180	-48
34	92	-68
358	261	-54
575	291	-76
662	233	-97
631	174	-113
517	188	-92
361	265	-71
199	344	-100
65	345	-50
-14	229	13
-27	39	11
14	-149	32
68	-247	56
89	-225	58
41	-113	45
-62	25	16
-186	122	4
-279	157	4
-311	137	16
-285	101	49
-234	78	32
-191	71	-4
-172	76	33
-159	68	-1
-131	41	-40
-80	-6	-9
-17	-66	-61
40	-129	-160
78	-187	-219
107	-228	-190
155	-243	-172
234	-223	-158
328	-168	-33
383	-84	43
340	12	50
156	93	41
-152	150	11
-516	171	-16
-836	155	-39
-1020	93	-16
-1022	-8	6
-837	-133	-7
-502	-249	1
-83	-308	48
338	-270	85
688	-124	89
902	96	-19
967	312	-143
886	438	-108
707	409	-70
474	228	-54
229	-51	-26
5	-322	-39
-180	-494	-30
-311	-510	-20
-382	-387	1
-382	-185	4
-325	10	4
-245	122	7
-183	131	-17
-175	52	-28
-215	-58	-9
-258	-144	16
-231	-176	31
-75	-155	31
201	-108	19
518	-67	-19
743	-52	-80
754	-53	-77
502	-41	-66
51	3	-77
-439	96	-60
-783	213	-35
-861	323	-10
-664	382	9
-302	370	-3
54	292	-24
261	170	7
257	35	26
107	-84	23
-68	-164	9
-150	-192	-10
-93	-166	1
69	-87	4
251	28	-4
363	150	11
371	247	19
296	294	-40
191	276	-96
104	209	-143
55	117	-177
35	30	-167
29	-28	-89
29	-56	2
40	-64	-2
74	-75	32
126	-96	59
183	-130	53
211	-169	38
198	-187	0
133	-171	-32
31	-112	-49
-106	-21	1
-255	78	-1
-403	159	1
-516	200	11
-561	199	-60
-507	160	-111
-353	105	-90
-139	48	-69
65	1	-41
201	-36	-5
248	-70	-33
239	-107	-11
233	-152	0
265	-191	-10
323	-223	-22
339	-227	-30
242	-196	-24
11	-136	-5
-297	-48	27
-562	39	67
-676	106	140
-605	129	145
-402	100	132
-186	24	85
-63	-75	-4
-62	-166	-140
-123	-228	-313
-137	-245	-341
-32	-219	-189
184	-166	-56
419	-101	-43
558	-42	-64
527	3	-36
338	30	28
90	42	12
-100	47	-21
-161	50	-25
-99	65	-35
11	93	-35
83	132	-20
74	166	-19
8	174	-25
-48	134	-5
-31	43	-7
66	-78	8
187	-192	14
237	-257	8
145	-243	-17
-87	-150	-18
-371	-18	19
-577	93	18
-603	130	31
-424	85	40
-112	-7	29
204	-76	15
415	-54	-12
476	77	-57
428	269	-84
351	438	-63
318	492	-24
328	395	10
331	182	22
261	-42	18
93	-182	-24
-132	-179	-55
-325	-55	-83
-409	106	-112
-357	224	-72
-223	244	-13
-86	183	-6
-16	90	-13
-30	10	-11
-93	-42	-6
-151	-92	4
-164	-166	10
-141	-268	13
-109	-359	-4
-94	-389	-20
-92	-317	-21
-78	-162	-14
-22	7	3
74	106	16
171	91	24
221	-16	-9
192	-144	-85
101	-207	-88
1	-163	-55
-42	-36	-65
5	103	-12
131	182	-12
277	174	-56
375	103	-35
393	22	-66
326	-20	-76
221	-18	-25
119	5	44
54	17	48
24	10	14
1	4	-27
-45	25	-59
-136	87	-44
-267	153	-33
-413	170	-43
-534	100	-56
-589	-44	-20
-550	-202	18
-410	-292	32
-200	-263	51
26	-140	38
204	6	-10
290	85	-43
275	53	-95
188	-60	-198
82	-173	-233
-1	-196	-179
-50	-102	-99
-85	70	-47
-133	232	-21
-206	301	19
-273	252	57
-291	122	85
-229	-15	66
-92	-102	51
63	-129	21
170	-131	16
186	-151	6
135	-206	-24
82	-268	23
102	-286	-19
222	-214	-42
401	-53	21
543	150	-7
558	325	-18
411	424	3
148	433	-14
-136	379	-21
-347	300	19
-428	224	3
-390	148	-33
-285	53	-35
-178	-67	-62
-106	-206	-76
-78	-322	-105
-92	-378	-138
-148	-348	-83
-248	-253	-6
-378	-133	-7
-489	-40	6
-503	-4	-1
-347	-19	-19
-5	-54	-4
451	-66	4
869	-33	9
1105	45	8
1047	145	32
732	225	29
299	252	17
-72	219	1
-247	142	-25
-208	52	-45
-54	-12	-77
67	-25	-57
62	10	-17
-71	76	-10
-244	130	-20
-340	131	-21
-307	61	-9
-177	-69	-2
-44	-222	-23
4	-337	-61
-49	-372	-34
-145	-313	-7
-188	-182	-32
-118	-25	-38
52	105	-15
245	174	8
373	182	20
382	149	-7
279	100	-50
111	63	-34
-63	43	16
-223	38	36
-358	38	-30
-473	34	-96
-538	27	-108
-516	11	-113
-383	-9	-106
-154	-42	-75
101	-84	-7
302	-121	-15
392	-140	-63
371	-124	-79
290	-76	-46
216	-11	1
179	41	7
162	62	-5
113	48	4
-7	20	42
-191	10	36
-386	27	34
-509	67	34
-515	97	-41
-392	81	-115
-195	4	-74
-1	-115	12
132	-230	68
171	-297	41
130	-286	11
46	-211	4
-32	-109	-32
-74	-21	-38
-58	28	-77
9	41	-75
107	45	-59
209	64	-47
280	108	-12
306	166	-2
288	215	-16
248	241	-24
205	233	-23
172	201	-31
143	155	-28
102	105	-30
42	53	-10
-19	-2	2
-42	-57	-23
2	-102	-32
118	-126	-3
260	-120	-1
346	-95	-5
306	-63	1
111	-40	-13
-185	-33	-1
-489	-30	-21
-689	-17	-45
-720	15	-59
-589	56	-76
-377	82	-80
-182	67	-64
-77	3	12
-71	-86	40
-115	-158	10
-142	-171	9
-100	-112	5
9	0	18
142	121	31
245	206	18
286	238	8
274	228	-17
245	202	-38
234	171	-49
248	136	-51
262	65	-68
234	-56	-70
137	-211	-60
-10	-349	-64
-160	-394	-79
-255	-325	-67
-267	-153	-25
-195	38	-71
-78	153	-97
50	132	-62
169	-13	-45
280	-203	-5
391	-343	-47
481	-354	-38
502	-230	87
399	-28	152
143	171	217
-231	291	199
-617	301	116
-895	210	8
-976	50	-147
-856	-138	-254
-603	-317	-282
-333	-449	-210
-144	-501	-140
-70	-454	-102
-72	-315	-24
-58	-118	-1
44	89	-1
262	265	12
550	398	-3
815	497	7
965	586	-2
935	652	-7
739	664	1
425	574	12
93	370	10
-172	83	1
-312	-195	35
-329	-364	44
-267	-379	21
-195	-258	11
-174	-94	27
-221	10	53
-303	1	48
-362	-101	8
-348	-214	-9
-243	-259	-27
-80	-197	-82
74	-62	-112
158	76	-123
150	156	-98
77	161	-55
0	118	-26
-27	82	18
12	81	36
90	108	5
155	126	-24
155	102	-42
85	27	-35
-26	-67	-16
-128	-142	-4
-177	-166	-9
-150	-140	-30
-58	-97	-47
74	-63	-75
212	-59	-86
333	-66	-46
416	-57	24
439	-8	51
398	81	9
266	177	-15
58	229	-32
-206	185	-55
-472	26	-67
-676	-234	-128
-781	-530	-139
-765	-771	-43
-645	-870	-4
-459	-774	-20
-244	-486	0
-23	-81	-6
202	335	-7
429	643	-3
645	777	-17
800	735	-22
846	579	-24
716	392	-36
415	238	-28
6	129	16
-378	41	1
-605	-57	-19
-595	-175	-13
-383	-277	0
-83	-319	-2
167	-265	2
260	-139	28
189	3	33
11	96	63
-176	105	85
-304	59	99
-360	14	81
-366	20	-9
-347	76	-107
-295	126	-144
-188	106	-166
-20	-15	-139
167	-196	-59
294	-353	-40
288	-389	-41
148	-276	-43
-59	-71	-79
-210	126	-97
-203	224	-59
-23	196	-37
242	91	-34
454	-2	7
504	-21	69
374	38	53
151	120	16
-48	158	-13
-134	121	-47
-91	31	-57
18	-57	-94
107	-102	-27
118	-96	68
54	-69	24
-36	-57	-7
-100	-70	-36
-111	-82	-26
-80	-52	4
-34	34	3
1	149	29
26	241	-21
52	258	-42
90	193	-69
133	81	-116
162	-20	-128
158	-69	-82
116	-66	-45
54	-43	-58
-8	-40	-10
-54	-66	39
-77	-102	84
-83	-108	49
-79	-59	-7
-72	30	-34
-59	124	-50
-42	175	-46
-17	169	-32
21	109	-10
81	35	-25
172	-24	-28
295	-59	16
415	-78	11
472	-95	-26
393	-109	-30
127	-112	-50
-300	-89	-46
-787	-44	-55
-1183	-1	-51
-1220	11	-20
-1121	-21	2
-830	-84	14
-252	-138	16
337	-138	8
786	-68	-13
1012	41	-7
995	141	-7
793	168	12
488	97	55
166	-49	96
-104	-211	64
-277	-317	-36
-335	-325	-86
-291	-237	-117
-178	-96	-173
-50	32	-137
40	95	-40
59	77	11
-2	-7	13
-120	-112	1
-248	-186	-18
-340	-196	-30
-366	-136	-31
-320	-29	-31
-221	90	-39
-99	183	-49
9	227	-16
78	215	15
104	174	20
103	126	-21
107	98	-58
140	102	-47
204	131	-71
270	164	-75
302	179	-10
273	164	7
178	127	-3
55	79	-12
-41	40	-23
-75	15	-13
-42	-8	-21
19	-39	-50
59	-89	-55
46	-143	-24
-11	-183	-9
-72	-177	-4
-93	-114	-14
-58	-7	-19
9	106	-4
69	174	46
93	178	70
76	113	44
51	17	17
54	-61	-47
83	-88	-83
111	-53	-77
90	11	-87
-5	65	-74
-166	68	-78
-332	13	-149
-436	-77	-76
-443	-162	5
-363	-205	9
-243	-192	45
-120	-131	26
-5	-50	7
131	24	-43
322	77	-48
563	106	-31
794	120	-26
918	129	2
852	143	-31
558	162	-63
97	182	-43
-406	185	-20
-810	153	-19
-1019	65	-8
-1013	-86	-6
-856	-279	1
-632	-474	18
-415	-604	12
-236	-616	-9
-88	-495	-23
53	-270	-22
201	-17	-13
342	182	1
454	275	-1
504	260	-10
484	181	-14
411	98	-15
306	59	-26
205	72	-11
119	109	7
53	124	17
-13	93	43
-97	18	86
-207	-75	120
-325	-145	82
-416	-174	2
-439	-157	-89
-370	-110	-198
-217	-56	-296
-23	-5	-260
158	39	-107
279	88	-12
322	137	5
299	185	-3
237	213	-30
169	211	-36
122	186	-17
104	149	-18
116	121	1
147	108	21
172	101	20
162	66	30
76	-21	37
-100	-154	50
-339	-303	38
-566	-393	16
-684	-372	6
-616	-222	-40
-348	19	-99
42	261	-167
429	418	-183
671	435	-67
698	327	15
516	161	-4
226	28	-9
-47	-14	-35
-203	38	-36
-210	130	-51
-107	187	-72
36	153	-21
143	24	1
171	-153	5
105	-318	15
-28	-423	-17
-193	-459	-33
-339	-445	-19
-421	-413	7
-407	-376	26
-281	-322	59
-84	-235	76
136	-111	32
302	33	-36
365	155	-68
306	215	-34
154	210	-62
-36	164	-131
-197	122	-97
-282	119	-31
-277	157	-47
-190	202	-51
-56	213	-22
82	161	4
188	58	39
232	-54	69
204	-135	79
117	-154	46
7	-116	14
-92	-54	-26
-143	-4	-45
-144	14	-29
-108	2	-3
-56	-23	22
-10	-39	41
31	-35	12
71	-8	-49
107	35	-145
121	88	-230
76	139	-159
-57	174	-54
-264	178	-28
-488	127	24
-616	28	61
-554	-98	41
-269	-208	17
184	-258	-17
666	-223	-49
1012	-111	-90
1088	27	-89
885	142	-27
465	192	3
-7	174	-20
-366	121	-47
-518	76	-50
-459	68	14
-280	95	90
-92	119	42
15	102	-6
8	30	-46
-85	-72	-88
-204	-159	-100
-296	-177	-63
-329	-116	-16
-297	-4	-30
-206	101	0
-63	148	-9
107	121	-16
271	44	-19
366	-35	-18
342	-86	3
198	-97	-12
-11	-95	-9
-170	-101	7
-180	-124	16
0	-149	-15
288	-145	-36
525	-108	-38
549	-51	-22
300	-16	-21
-136	-26	-34
-571	-82	-26
-798	-150	-18
-726	-190	16
-408	-186	30
-19	-151	29
244	-127	8
282	-137	-25
135	-163	-15
-64	-150	8
-185	-45	-26
-164	163	-53
-46	429	-71
74	652	-117
119	735	-137
80	635	-96
4	379	-48
-40	51	-92
-23	-243	-87
36	-424	-30
99	-460	18
139	-370	106
161	-191	155
186	13	137
216	187	93
230	275	58
175	258	-4
40	138	-112
-147	-32	-215
-304	-187	-211
-355	-263	-118
-273	-237	-50
-109	-142	-35
44	-43	24
113	2	69
78	-26	71
-11	-92	81
-82	-140	-15
-91	-118	-66
-58	-27	-88
-37	92	-129
-68	182	-92
-140	205	-97
-190	166	-93
-152	100	-58
-5	50	-27
191	34	12
333	42	66
336	41	82
192	12	61
-26	-41	15
-202	-90	-68
-248	-104	-46
-149	-69	-18
39	-2	-13
221	66	-13
330	113	-66
346	127	-56
302	119	2
232	104	16
136	84	17
6	58	11
-161	20	23
-324	-24	21
-409	-53	-26
-330	-45	-2
-75	3	0
280	68	-77
583	103	-112
667	59	-115
439	-75	-80
-40	-272	-40
-595	-466	-19
-997	-585	-5
-1071	-583	11
-787	-460	31
-248	-256	29
373	-27	9
864	168	-14
1119	283	-19
1105	313	-40
892	259	-55
562	155	-79
189	45	-76
-191	-27	-21
-558	-28	-27
-879	43	-25
-1101	158	-18
-1179	256	-40
-1075	286	-39
-810	226	-25
-442	95	-11
-64	-47	-21
234	-142	-14
389	-152	3
403	-89	31
324	2	54
216	65	48
143	75	28
120	40	-10
133	-2	-56
163	-15	-87
192	9	-80
226	53	-63
278	79	-25
354	61	22
431	6	64
463	-53	96
418	-72	76
286	-34	15
112	43	-72
-32	116	-138
-95	125	-139
-78	52	-160
-36	-84	-125
-48	-227	-2
-162	-320	4
-357	-326	-44
-555	-263	-75
-652	-170	-50
-589	-93	48
-393	-56	104
-157	-50	52
25	-40	-36
99	2	-52
77	81	-64
27	174	-114
19	250	-135
81	273	-114
188	244	-43
285	178	25
332	109	31
316	54	37
268	17	33
222	-14	28
201	-54	25
195	-105	-17
178	-153	-56
124	-175	-104
30	-162	-100
-97	-114	-71
-236	-49	-19
-358	15	68
-442	62	72
-454	93	38
-378	116	42
-213	143	68
9	179	54
224	218	9
350	244	-26
330	233	-33
161	162	-25
-98	41	-105
-339	-114	-198
-473	-262	-108
-455	-354	-50
-313	-361	-92
-133	-281	-65
3	-162	-63
44	-57	-33
11	-23	-17
-32	-64	0
-1	-147	7
144	-210	-18
388	-202	12
648	-122	22
822	-6	32
831	85	21
648	113	30
322	82	65
-54	36	74
-377	27	49
-580	75	6
-647	154	-38
-611	209	-74
-518	196	-108
-410	114	-126
-299	0	-97
-180	-84	-62
-46	-103	-13
88	-61	22
187	-5	39
209	17	66
132	-24	65
-22	-105	79
-186	-175	99
-280	-182	46
-236	-95	-55
-48	64	-130
225	244	-204
484	389	-211
628	445	-162
606	408	-125
438	298	-70
202	162	-16
-5	42	-23
-115	-30	-28
-121	-53	-15
-67	-49	-51
-18	-47	-21
-21	-70	38
-81	-123	55
-167	-187	37
-234	-239	3
-259	-249	-8
-245	-216	-25
-215	-153	-60
-186	-83	-70
-150	-34	-42
-79	-19	0
52	-33	7
231	-67	1
411	-105	7
519	-130	-14
488	-131	-27
310	-99	0
34	-26	36
-236	80	60
-383	197	72
-352	298	45
-161	350	-20
99	341	-61
301	279	-91
346	185	-101
206	84	-83
-64	-6	-67
-354	-89	-40
-547	-169	-33
-581	-249	-26
-473	-312	-26
-291	-330	-34
-126	-282	-20
-30	-175	-23
-4	-38	-27
-4	84	-16
26	152	-11
106	163	-1
208	131	18
273	90	2
258	54	-31
156	17	-42
12	-39	-28
-98	-123	-1
-116	-214	11
-35	-258	5
103	-214	-9
228	-71	-38
287	122	-56
269	282	-49
194	322	-32
99	207	-15
4	-22	-23
-102	-273	-20
-241	-436	-21
-415	-456	-21
-581	-341	-23
-668	-166	-20
-595	-14	5
-336	65	18
56	81	36
466	88	58
753	137	84
825	243	97
689	362	49
419	427	-59
133	381	-169
-64	225	-231
-151	16	-240
-160	-166	-187
-162	-254	-71
-209	-241	-52
-304	-167	-66
-392	-92	5
-412	-62	-52
-311	-79	-89
-101	-106	-21
149	-101	-12
354	-45	56
439	45	102
396	139	68
249	204	100
78	229	103
-41	222	52
-59	199	-41
13	168	-102
128	123	-80
219	62	-88
238	-10	-128
175	-67	-126
64	-87	-100
-43	-53	-75
-102	17	-25
-109	88	18
-85	125	41
-71	114	35
-92	66	45
-136	12	70
-170	-22	47
-156	-35	3
-80	-47	-10
32	-77	11
130	-129	-19
163	-187	-109
109	-215	-103
-12	-190	4
-156	-109	31
-261	4	38
-290	120	21
-239	213	-26
-130	274	-24
-11	290	-22
78	257	15
107	158	-27
68	-11	-100
-20	-230	-87
-125	-451	-91
-207	-603	-89
-240	-640	-40
-215	-554	-2
-162	-391	-8
-116	-223	-18
-118	-99	-25
-172	-28	-34
-240	20	-21
-250	86	-12
-141	188	-12
107	294	-16
446	354	-14
768	336	-3
934	244	-6
869	135	-6
553	58	-3
77	39	12
-410	43	18
-764	10	12
-904	-100	-1
-830	-263	-22
-614	-401	-28
-332	-412	-51
-59	-242	-76
172	68	-61
366	400	-16
517	617	15
608	627	-9
623	450	-12
547	174	-23
408	-63	-42
257	-179	-51
143	-158	-72
86	-59	-43
46	24	-2
-30	33	37
-180	-44	48
-385	-161	0
-565	-251	-62
-627	-269	-128
-513	-196	-178
-255	-64	-154
42	84	-65
255	201	-18
306	257	-2
211	244	11
48	174	57
-76	72	86
-99	-33	60
-34	-119	20
52	-176	-24
95	-201	-41
65	-206	-41
-9	-194	-7
-71	-166	31
-82	-115	63
-39	-40	60
15	47	22
37	127	-44
5	170	-114
-58	163	-167
-106	115	-178
-96	51	-122
-14	-2	-78
116	-31	-43
242	-40	-19
321	-48	-26
328	-67	-38
268	-88	43
166	-87	77
51	-41	65
-49	50	99
-110	164	32
-125	252	-57
-101	274	-84
-62	219	-37
-39	105	-60
-56	-22	-46
-116	-122	2
-190	-174	-1
-237	-186	25
-215	-181	9
-118	-175	-13
25	-165	-23
156	-126	-52
224	-38	-79
204	103	-19
115	259	-44
5	366	-84
-87	366	-92
-135	233	-83
-152	-4	-31
-153	-260	-21
-148	-430	1
-123	-449	-16
-58	-313	-12
56	-92	3
201	109	20
328	196	30
394	137	40
374	-24	35
291	-196	18
172	-297	12
44	-275	-21
-90	-157	-42
-248	1	-55
-432	135	-36
-611	215	-16
-720	261	-16
-684	291	-35
-487	323	-66
-183	332	-51
110	278	-31
275	131	-30
253	-88	-13
94	-313	59
-88	-452	127
-174	-437	125
-114	-273	95
52	-30	31
230	190	-109
328	300	-268
322	269	-284
258	126	-164
216	-64	-66
237	-241	-31
289	-356	-19
296	-393	-15
175	-351	-18
-85	-235	-36
-415	-81	-51
-684	64	-43
-786	133	-27
-670	87	-3
-383	-69	34
-21	-260	78
309	-372	77
534	-318	39
632	-87	15
625	235	-20
544	505	-44
414	612	-38
258	533	-36
101	349	-25
-26	191	-10
-99	158	-17
-107	249	-36
-78	372	-18
-50	408	-3
-60	300	-42
-108	76	-64
-159	-159	-78
-161	-292	-58
-76	-282	-24
86	-171	26
269	-50	48
401	2	44
417	-27	44
306	-91	28
99	-118	56
-140	-81	56
-347	5	-32
-470	77	-127
-496	83	-142
-431	16	-111
-311	-88	-76
-172	-171	-101
-55	-205	-123
4	-190	36
-1	-160	62
-60	-142	-36
-133	-134	-42
-176	-116	-119
-158	-59	-153
-72	30	-92
51	123	19
176	174	22
265	157	-9
291	86	-46
257	5	-69
175	-36	4
63	-13	-2
-61	59	-7
-179	140	43
-270	183	82
-311	171	81
-288	101	65
-210	-5	29
-97	-131	38
20	-262	68
125	-384	27
225	-464	-30
334	-469	-43
462	-365	-35
581	-159	-66
626	101	-74
537	326	-56
280	431	-52
-95	373	-50
-475	190	-54
-726	-47	-81
-759	-243	-75
-582	-345	-69
-300	-348	-116
-51	-292	-120
65	-226	-71
52	-154	-34
-6	-63	-14
-8	71	-1
94	248	-9
254	416	-4
351	505	13
291	471	30
64	318	24
-222	106	5
-415	-70	4
-401	-157	0
-190	-142	-11
98	-83	-17
299	-36	-30
309	-34	-40
154	-64	-35
-39	-81	-30
-129	-53	-9
-59	23	21
116	112	54
268	171	68
280	192	49
138	187	25
-60	188	34
-182	199	20
-145	194	-35
17	127	-44
182	-25	-37
216	-230	-57
67	-411	-50
-197	-482	-3
-432	-416	8
-503	-244	-44
-382	-69	-124
-145	10	-204
68	-34	-235
158	-161	-199
107	-264	-97
-5	-265	-1
-70	-137	19
-42	66	31
50	249	45
121	335	49
101	309	54
-8	215	42
-125	134	52
-135	116	65
18	166	32
297	244	-21
580	310	-112
732	327	-118
696	301	-58
502	250	-65
273	190	-4
132	120	71
137	25	96
237	-94	70
310	-225	22
245	-330	30
-8	-378	-50
-391	-351	-117
-794	-268	-179
-1071	-170	-138
-1135	-91	36
-973	-49	69
-644	-36	88
-239	-34	30
147	-29	-49
425	-29	-127
544	-52	-234
486	-112	-206
289	-201	-130
32	-282	-68
-186	-315	-19
-288	-273	-8
-255	-168	-24
-133	-44	22
-18	49	19
3	80	3
-101	57	20
-270	18	34
-397	8	28
-378	47	-16
-183	125	-25
118	204	-3
398	244	26
512	228	31
406	160	30
116	70	6
-223	-15	-16
-465	-79	-21
-507	-118	-27
-351	-139	-12
-76	-137	-10
196	-109	-7
351	-49	-5
354	36	-4
242	126	-5
110	197	-16
51	227	-43
115	215	-71
288	183	-59
496	161	-32
648	171	-24
676	218	-51
575	278	-52
406	305	-4
244	261	28
145	132	34
107	-57	22
78	-254	-6
-26	-390	-19
-244	-420	-20
-540	-339	-8
-822	-190	14
-976	-44	-2
-927	32	-55
-686	15	-110
-348	-78	-142
-28	-184	-168
174	-243	-129
242	-218	-39
216	-119	14
184	12	39
194	127	42
242	189	21
280	195	-25
250	164	-68
123	119	-69
-70	81	-41
-256	52	-6
-356	32	62
-321	17	113
-162	16	118
70	30	86
302	52	8
457	60	-99
496	27	-206
421	-60	-143
260	-183	-34
58	-294	-26
-139	-344	-2
-303	-297	11
-410	-175	0
-452	-36	-43
-432	45	-39
-357	20	-35
-247	-99	-78
-128	-249	-92
-43	-337	-6
-18	-304	51
-53	-141	-9
-108	92	-15
-109	305	-69
6	430	-71
249	438	-50
545	380	-44
766	305	3
780	267	2
541	273	24
116	287	26
-317	273	17
-562	198	-10
-516	81	-10
-224	-45	61
147	-141	70
393	-192	10
388	-213	-52
144	-229	-114
-195	-256	-200
-453	-282	-271
-518	-283	-176
-392	-242	-19
-178	-159	16
8	-66	74
107	-1	65
131	15	-23
144	-6	-42
191	-33	-23
265	-28	12
302	18	44
251	89	48
86	159	16
-139	201	-14
-332	213	-27
-415	198	-20
-366	164	-16
-235	104	-3
-101	6	27
-24	-126	46
-21	-268	38
-58	-364	21
-95	-372	-20
-101	-276	-47
-81	-116	-55
-58	33	-64
-49	104	-34
-47	70	-10
-25	-27	4
33	-117	-23
125	-129	-59
219	-40	-48
275	113	-48
275	260	-51
234	329	-52
194	299	-23
184	186	38
214	48	46
245	-62	-12
245	-116	-62
189	-107	-94
101	-57	-97
26	13	-70
10	85	-74
49	144	-62
96	178	-35
84	174	-20
-20	138	-6
-184	80	15
-321	28	28
-346	8	13
-227	23	-3
-26	56	-8
135	68	0
143	34	14
-31	-59	22
-308	-177	6
-529	-275	24
-555	-313	32
-346	-280	19
14	-201	-3
358	-116	-61
532	-58	-120
466	-37	-99
210	-33	-28
-108	-22	-13
-348	10	-28
-443	48	-30
-401	70	-17
-296	53	-30
-197	8	-47
-140	-44	-66
-110	-72	-89
-68	-61	-119
11	-26	-123
124	5	-77
239	1	-36
314	-37	-19
331	-89	-7
285	-112	28
205	-84	43
123	-3	-34
68	101	-101
50	190	-25
59	240	8
74	244	16
62	219	66
7	178	100
-89	122	168
-188	51	155
-232	-36	78
-169	-122	-33
14	-181	-144
273	-185	-215
515	-128	-227
633	-36	-118
553	51	-12
276	100	-9
-118	98	-12
-497	64	12
-733	33	20
-756	25	9
-577	33	-3
-295	36	-6
-26	7	-25
135	-54	-16
149	-126	-13
57	-173	5
-61	-167	41
-122	-118	-1
-94	-48	-33
-3	9	-88
82	45	-147
90	74	-95
-5	111	-32
-162	161	24
-285	197	53
-281	181	26
-103	89	16
210	-52	13
551	-179	-16
783	-215	-15
809	-114	-12
614	88	-36
295	295	-23
-16	391	3
-194	305	11
-185	55	-42
-32	-257	-163
148	-497	-189
229	-557	-114
126	-429	-58
-152	-183	9
-516	54	61
-837	174	79
-997	136	72
-934	-15	17
-654	-188	-18
-237	-282	-44
211	-254	-60
575	-122	-28
774	40	-28
768	154	-53
583	168	-81
283	90	-132
-30	-18	-104
-274	-87	-40
-380	-66	-21
-339	38	14
-197	177	26
-28	278	37
94	288	42
131	206	-2
85	71	-14
-8	-46	18
-101	-105	19
-151	-97	45
-151	-61	72
-113	-51	-1
-58	-95	-78
-7	-182	-101
37	-259	-138
75	-269	-145
111	-186	-56
148	-28	12
181	150	11
209	287	-16
223	350	-11
216	338	23
188	283	20
131	215	8
58	158	-25
-6	101	-41
-44	40	-42
-43	-30	-62
-20	-95	-36
-10	-134	-12
-55	-136	-4
-173	-109	12
-330	-75	15
-459	-57	24
-496	-65	9
-407	-88	-22
-234	-97	-38
-58	-77	-50
42	-24	-53
41	37	-41
-18	84	-6
-48	100	31
18	89	48
183	76	49
371	81	41
476	114	-21
431	157	-82
244	174	-66
3	138	-66
-175	39	-128
-215	-98	-211
-122	-228	-171
39	-292	-18
195	-270	-4
306	-165	-24
386	-20	3
462	105	-9
541	162	-2
565	131	-3
458	30	-16
162	-105	-4
-285	-230	-1
