File Name: not saved
Channel 2: 'Channel 2', 30610 values, raw ADC, no filters.
Channel 3: 'Channel 3', 30610 values, raw ADC, no filters.
Channel 4: 'Channel 4', 30610 values, raw ADC, no filters.

33	78	-24
46	103	-22
51	112	-20
50	106	-19
42	88	-16
28	56	-18
9	14	-17
-11	-28	-21
-31	-69	-26
-45	-102	-25
-54	-120	-28
-56	-121	-26
-50	-105	-22
-36	-76	-27
-19	-35	-26
2	7	-25
22	49	-25
37	84	-21
48	105	-21
51	113	-20
46	104	-15
34	81	-15
18	43	-24
-1	1	-20
-20	-43	-18
-37	-83	-20
-49	-109	-21
-56	-121	-27
-54	-115	-24
-45	-94	-29
-30	-58	-30
-11	-15	-29
10	27	-25
27	66	-25
41	94	-25
49	109	-20
48	109	-24
41	95	-20
28	65	-18
11	27	-16
-8	-16	-15
-27	-58	-17
-42	-93	-18
-53	-116	-19
-57	-121	-23
-54	-110	-30
-41	-85	-27
-24	-45	-26
-3	-4	-22
17	38	-19
33	76	-19
45	101	-20
50	114	-20
48	110	-19
40	93	-19
26	58	-18
8	17	-19
-14	-29	-21
-32	-70	-20
-47	-104	-20
-56	-121	-24
-57	-120	-26
-51	-105	-26
-37	-75	-24
-20	-34	-27
0	8	-31
18	50	-26
35	84	-22
44	106	-22
48	113	-21
44	104	-21
34	80	-17
20	41	-19
0	0	-19
-18	-44	-22
-35	-81	-19
-46	-108	-23
-52	-120	-25
-51	-115	-21
-42	-95	-30
-28	-60	-34
-10	-20	-34
10	24	-28
28	62	-22
42	93	-19
49	109	-19
50	110	-16
44	97	-10
33	68	-12
16	31	-21
-3	-11	-25
-23	-54	-18
-40	-90	-24
-53	-115	-25
-56	-123	-25
-52	-115	-26
-40	-90	-27
-21	-51	-25
-2	-7	-24
19	37	-24
34	76	-19
46	103	-21
52	115	-23
50	109	-21
41	90	-18
27	56	-21
10	15	-19
-12	-30	-21
-30	-69	-22
-45	-102	-22
-54	-121	-24
-55	-122	-20
-50	-107	-24
-37	-76	-25
-19	-36	-19
1	8	-20
20	50	-23
38	84	-28
46	106	-33
51	112	-23
46	105	-20
35	83	-20
18	45	-16
-2	3	-15
-21	-42	-13
-39	-82	-20
-51	-110	-29
-56	-122	-27
-54	-117	-24
-44	-96	-26
-30	-62	-21
-12	-23	-26
8	21	-26
24	61	-24
38	95	-24
47	112	-22
50	114	-21
46	100	-16
35	69	-15
17	30	-17
-4	-16	-21
-24	-57	-23
-41	-92	-27
-52	-114	-27
-55	-120	-28
-52	-112	-25
-42	-89	-20
-26	-54	-24
-7	-11	-23
13	33	-27
30	72	-23
44	102	-16
52	114	-23
50	112	-28
41	93	-21
27	61	-21
9	20	-20
-13	-27	-17
-31	-66	-21
-47	-101	-18
-55	-120	-21
-56	-121	-25
-50	-106	-28
-36	-75	-29
-18	-36	-27
3	7	-25
20	47	-22
36	82	-21
46	103	-23
52	111	-23
48	105	-20
38	82	-20
22	47	-16
2	4	-15
-19	-40	-16
-37	-80	-19
-50	-109	-20
-57	-122	-24
-55	-119	-28
-47	-97	-27
-32	-64	-31
-13	-24	-33
6	20	-31
24	58	-27
38	90	-21
48	107	-17
50	112	-15
46	100	-14
34	76	-20
18	38	-19
0	-6	-19
-21	-49	-21
-37	-88	-21
-49	-112	-24
-54	-121	-27
-51	-113	-26
-42	-90	-27
-26	-54	-24
-7	-12	-22
14	31	-20
32	68	-30
44	98	-27
51	112	-23
50	112	-23
41	93	-17
27	62	-20
8	21	-20
-12	-23	-20
-31	-65	-20
-46	-100	-21
-55	-117	-20
-58	-120	-21
-51	-106	-27
-39	-78	-28
-22	-39	-24
-1	5	-23
18	46	-21
36	82	-23
46	105	-23
51	114	-20
46	106	-24
36	83	-23
21	48	-18
2	6	-18
-16	-37	-16
-35	-78	-19
-48	-106	-22
-56	-121	-22
-55	-121	-24
-48	-101	-24
-34	-71	-25
-13	-28	-25
7	16	-25
27	57	-25
41	89	-25
49	107	-27
50	112	-24
45	100	-19
33	76	-18
17	36	-17
-3	-7	-15
-23	-51	-18
-42	-90	-21
-54	-115	-26
-58	-125	-26
-55	-115	-28
-44	-91	-30
-28	-53	-28
-8	-11	-24
12	32	-19
30	71	-23
44	99	-23
52	115	-21
52	114	-25
44	98	-22
30	65	-21
11	22	-19
-10	-23	-19
-29	-66	-20
-44	-99	-21
-52	-119	-25
-54	-122	-27
-48	-109	-27
-36	-81	-24
-20	-42	-25
2	1	-27
20	43	-26
36	80	-24
48	104	-22
52	113	-18
50	105	-15
41	83	-18
24	48	-24
6	8	-17
-14	-35	-18
-32	-76	-20
-46	-104	-19
-56	-120	-20
-55	-119	-20
-49	-101	-27
-34	-69	-30
-16	-27	-27
6	17	-25
25	58	-25
40	90	-22
49	109	-20
49	112	-21
44	100	-17
32	75	-13
16	38	-14
-2	-4	-19
-22	-47	-25
-38	-85	-23
-50	-112	-24
-55	-124	-26
-54	-117	-24
-44	-96	-24
-29	-59	-25
-10	-16	-25
12	28	-24
29	68	-23
42	96	-22
49	111	-24
50	109	-22
42	94	-17
30	64	-14
12	26	-20
-7	-17	-24
-25	-60	-14
-41	-96	-21
-51	-117	-27
-55	-122	-32
-51	-109	-32
-39	-81	-23
-23	-43	-24
-3	1	-25
17	43	-28
36	78	-24
46	102	-21
51	112	-20
48	106	-19
39	86	-19
24	52	-20
6	12	-18
-14	-32	-15
-31	-74	-20
-44	-104	-26
-53	-121	-23
-54	-120	-20
-49	-105	-22
-35	-72	-21
-17	-32	-23
3	11	-24
22	53	-25
37	88	-23
48	110	-23
50	116	-19
44	106	-18
33	80	-23
17	40	-18
-3	-4	-15
-22	-48	-16
-38	-85	-19
-52	-110	-26
-57	-120	-24
-56	-113	-24
-47	-92	-24
-32	-56	-25
-12	-16	-27
10	27	-23
27	65	-21
42	96	-28
49	112	-28
51	112	-18
44	97	-19
32	66	-17
14	26	-16
-6	-19	-19
-26	-61	-23
-43	-96	-26
-52	-118	-23
-56	-121	-25
-51	-110	-26
-40	-84	-29
-23	-47	-27
-4	-4	-28
16	38	-26
32	74	-21
44	100	-22
49	112	-20
46	108	-24
38	89	-19
23	53	-10
5	12	-16
-14	-33	-23
-32	-74	-19
-45	-105	-25
-53	-121	-27
-53	-120	-30
-48	-104	-32
-35	-74	-25
-18	-34	-23
3	10	-26
23	51	-27
39	85	-21
50	106	-20
53	113	-21
48	106	-22
36	80	-20
20	43	-17
0	0	-18
-21	-45	-21
-38	-84	-26
-52	-110	-24
-58	-120	-25
-56	-116	-25
-46	-93	-26
-30	-59	-24
-10	-19	-25
11	24	-25
31	64	-25
44	96	-23
51	112	-19
52	113	-21
44	98	-23
32	66	-17
13	27	-16
-7	-19	-15
-26	-60	-19
-42	-94	-21
-52	-116	-21
-56	-120	-25
-52	-110	-26
-41	-83	-27
-25	-46	-26
-6	-3	-26
14	39	-25
32	76	-24
45	103	-20
52	113	-18
49	109	-18
40	89	-19
24	57	-19
6	15	-18
-15	-28	-18
-33	-68	-22
-46	-101	-23
-54	-117	-27
-55	-119	-30
-49	-103	-25
-35	-74	-27
-19	-35	-27
1	8	-26
21	49	-25
38	84	-23
49	105	-22
52	111	-18
48	104	-17
36	79	-18
20	43	-20
0	1	-24
-20	-41	-27
-36	-82	-17
-48	-109	-20
-55	-122	-32
-55	-119	-30
-46	-98	-25
-33	-65	-26
-14	-23	-24
8	21	-24
27	61	-22
44	93	-19
51	110	-21
54	113	-20
45	99	-20
32	71	-17
14	33	-22
-6	-13	-22
-26	-56	-19
-41	-94	-22
-52	-117	-25
-56	-124	-25
-52	-113	-24
-42	-87	-23
-23	-50	-27
-3	-6	-31
17	37	-27
35	75	-25
47	101	-24
51	114	-20
49	110	-19
40	91	-16
26	58	-20
8	16	-21
-12	-27	-21
-29	-66	-21
-44	-100	-23
-53	-118	-23
-55	-121	-16
-49	-105	-19
-36	-78	-31
-17	-38	-30
4	7	-27
23	49	-26
37	85	-20
46	106	-19
47	114	-17
42	104	-18
32	80	-19
18	44	-12
0	2	-13
-19	-40	-18
-37	-80	-18
-50	-107	-22
-57	-121	-23
-58	-117	-25
-47	-97	-27
-32	-62	-24
-12	-20	-23
8	23	-24
27	63	-25
42	93	-24
49	110	-21
50	112	-19
44	98	-18
34	71	-20
16	32	-19
-3	-12	-16
-22	-56	-19
-39	-94	-19
-50	-117	-22
-54	-123	-27
-51	-112	-31
-40	-87	-28
-25	-50	-30
-6	-8	-28
14	33	-25
31	70	-28
44	97	-22
51	110	-20
49	108	-20
41	91	-20
28	59	-22
10	18	-23
-10	-25	-21
-28	-66	-19
-43	-100	-23
-52	-119	-25
-56	-121	-23
-52	-106	-20
-39	-79	-24
-22	-38	-25
0	6	-24
20	49	-26
37	85	-24
48	108	-22
52	116	-20
48	106	-20
36	84	-19
20	48	-21
1	6	-18
-19	-37	-18
-37	-78	-23
-50	-106	-23
-55	-120	-28
-55	-116	-30
-47	-98	-26
-33	-65	-23
-15	-25	-25
4	18	-28
24	57	-19
40	88	-25
48	106	-25
52	110	-17
44	98	-16
33	72	-12
15	34	-14
-4	-8	-14
-24	-53	-21
-40	-89	-20
-51	-113	-25
-55	-122	-28
-51	-113	-22
-41	-90	-25
-23	-53	-28
-5	-11	-28
16	32	-27
33	71	-24
46	99	-24
52	113	-21
50	110	-16
42	93	-18
28	61	-19
10	21	-18
-11	-23	-19
-29	-66	-21
-44	-99	-22
-54	-120	-23
-55	-122	-24
-50	-109	-24
-38	-79	-25
-20	-40	-22
1	3	-24
20	45	-34
37	80	-30
49	104	-27
52	113	-24
48	106	-18
35	84	-20
19	48	-14
1	6	-13
-18	-38	-17
-34	-77	-25
-46	-104	-24
-53	-119	-28
-54	-117	-33
-48	-99	-26
-35	-67	-24
-17	-29	-23
4	15	-27
24	56	-23
41	90	-21
51	111	-20
53	116	-17
46	103	-18
34	74	-16
17	37	-17
-1	-6	-16
-21	-51	-22
-38	-86	-21
-51	-110	-22
-57	-120	-27
-55	-113	-27
-46	-92	-28
-29	-56	-26
-8	-14	-26
14	31	-24
31	70	-24
44	100	-21
52	114	-20
49	112	-18
41	93	-18
27	61	-20
10	23	-17
-10	-22	-20
-28	-63	-25
-44	-98	-28
-53	-119	-27
-55	-122	-26
-50	-110	-20
-37	-81	-15
-20	-43	-23
1	1	-28
19	43	-26
36	80	-24
46	106	-21
50	114	-19
47	108	-18
36	85	-20
22	49	-22
2	7	-18
-17	-38	-19
-35	-77	-18
-48	-106	-20
-54	-120	-24
-55	-118	-30
-47	-102	-32
-34	-69	-28
-15	-31	-28
5	14	-24
25	54	-25
40	88	-25
50	108	-21
52	110	-23
48	100	-20
36	74	-14
19	37	-10
0	-5	-21
-22	-48	-26
-39	-85	-22
-52	-111	-30
-59	-122	-27
-57	-117	-25
-48	-95	-23
-30	-58	-21
-11	-16	-25
10	29	-23
29	68	-22
44	99	-22
51	113	-19
49	113	-16
42	95	-13
28	65	-16
11	27	-19
-8	-18	-18
-27	-59	-19
-43	-95	-21
-54	-117	-24
-56	-122	-23
-52	-111	-28
-41	-84	-26
-23	-46	-26
-1	-2	-31
19	41	-28
36	79	-29
46	103	-25
52	112	-17
48	106	-11
38	85	-14
24	52	-21
5	11	-18
-13	-31	-21
-31	-70	-18
-45	-102	-19
-52	-118	-30
-55	-118	-30
-49	-101	-30
-37	-70	-28
-18	-31	-26
2	12	-27
21	51	-27
36	85	-30
46	106	-24
49	112	-21
44	102	-20
33	77	-21
17	40	-19
-2	-4	-16
-22	-47	-20
-40	-86	-21
-51	-111	-24
-56	-120	-26
-53	-114	-25
-44	-91	-28
-28	-57	-27
-8	-15	-27
12	29	-26
31	67	-23
43	97	-22
50	111	-20
50	112	-18
43	96	-16
29	66	-16
11	26	-17
-7	-19	-22
-26	-60	-22
-42	-97	-20
-52	-118	-25
-56	-124	-32
-52	-111	-27
-40	-84	-25
-25	-46	-27
-4	-2	-25
14	39	-26
31	77	-21
42	102	-19
48	112	-18
48	108	-18
40	85	-18
26	51	-16
8	11	-14
-12	-32	-16
-32	-71	-24
-48	-103	-24
-58	-119	-23
-58	-120	-23
-51	-103	-23
-37	-72	-26
-20	-32	-30
1	12	-30
20	53	-22
36	89	-21
48	109	-18
52	116	-18
49	106	-18
39	81	-20
22	45	-20
3	1	-13
-17	-41	-12
-34	-82	-14
-46	-108	-21
-52	-120	-27
-49	-114	-28
-41	-92	-32
-27	-58	-30
-8	-17	-27
11	24	-25
29	62	-25
42	90	-24
49	107	-22
49	109	-21
42	94	-18
29	65	-20
13	27	-19
-6	-17	-18
-25	-61	-22
-42	-96	-20
-52	-118	-25
-55	-125	-26
-51	-113	-28
-40	-86	-30
-23	-48	-27
-3	-4	-27
16	38	-24
33	76	-24
44	100	-26
51	112	-24
49	106	-17
39	88	-14
25	55	-16
6	13	-17
-14	-31	-17
-32	-71	-19
-47	-103	-21
-54	-120	-21
-55	-120	-21
-48	-103	-22
-36	-74	-27
-19	-33	-30
0	11	-24
20	51	-23
36	85	-25
46	106	-19
50	114	-20
46	103	-23
36	80	-21
18	42	-17
-1	1	-20
-21	-43	-20
-38	-82	-22
-51	-108	-25
-56	-121	-24
-54	-116	-16
-46	-95	-19
-31	-60	-32
-14	-17	-30
7	26	-31
26	66	-26
40	95	-22
49	111	-24
49	110	-20
44	97	-21
30	68	-18
13	30	-18
-6	-13	-18
-23	-56	-18
-39	-92	-21
-49	-115	-23
-53	-121	-25
-50	-110	-28
-40	-86	-27
-24	-48	-24
-4	-6	-19
17	38	-23
35	74	-30
47	100	-26
52	112	-24
50	106	-21
39	85	-18
25	51	-18
7	13	-17
-12	-31	-18
-29	-69	-20
-42	-99	-24
-51	-117	-25
-53	-118	-24
-48	-105	-25
-37	-76	-25
-20	-36	-26
-1	7	-26
18	49	-22
35	84	-21
46	106	-19
49	113	-20
44	104	-18
34	81	-16
19	45	-18
0	4	-20
-20	-40	-21
-36	-79	-21
-50	-108	-21
-55	-121	-25
-55	-117	-26
-47	-98	-29
-32	-63	-30
-14	-22	-29
7	22	-27
26	60	-23
40	92	-21
49	110	-21
50	112	-19
45	100	-20
32	71	-23
16	34	-21
-4	-9	-18
-24	-53	-18
-41	-90	-24
-52	-113	-26
-56	-120	-28
-51	-112	-30
-39	-87	-25
-22	-50	-30
-2	-8	-28
17	34	-25
33	71	-22
45	100	-21
51	112	-20
50	109	-17
42	91	-18
28	57	-18
10	17	-20
-11	-27	-17
-31	-66	-19
-46	-100	-21
-53	-116	-25
-55	-117	-26
-47	-104	-23
-35	-75	-24
-18	-36	-19
2	7	-20
21	48	-27
36	83	-28
47	106	-23
50	112	-20
46	104	-21
36	79	-18
19	43	-18
0	1	-20
-20	-43	-22
-35	-80	-21
-48	-106	-18
-55	-118	-26
-55	-115	-27
-46	-96	-25
-32	-63	-28
-14	-24	-26
8	19	-25
27	59	-22
41	91	-20
50	109	-20
50	112	-22
44	98	-22
33	68	-19
17	32	-18
-3	-13	-18
-22	-54	-19
-39	-92	-23
-50	-114	-26
-56	-122	-29
-52	-115	-27
-43	-90	-25
-28	-54	-25
-8	-12	-22
11	32	-24
30	68	-24
43	99	-22
50	113	-18
49	112	-18
41	94	-17
28	62	-16
7	20	-17
-12	-25	-17
-31	-67	-20
-45	-100	-22
-54	-118	-23
-55	-120	-26
-49	-105	-27
-36	-77	-24
-19	-38	-28
1	4	-28
21	46	-24
37	82	-22
49	106	-22
52	115	-20
50	108	-17
39	84	-17
22	48	-20
3	4	-20
-18	-38	-19
-38	-77	-20
-52	-105	-22
-59	-119	-25
-58	-117	-27
-49	-99	-26
-34	-66	-27
-16	-26	-26
6	18	-23
22	57	-23
37	90	-15
46	106	-11
48	111	-15
42	99	-23
33	72	-23
16	36	-19
-2	-7	-20
-22	-50	-17
-40	-89	-23
-51	-114	-33
-57	-124	-31
-54	-117	-30
-43	-93	-30
-28	-55	-26
-7	-13	-32
13	30	-28
32	68	-20
44	96	-16
51	110	-18
50	110	-20
43	93	-18
31	63	-19
13	23	-22
-7	-22	-23
-28	-63	-19
-43	-99	-25
-54	-119	-24
-56	-124	-25
-51	-109	-30
-40	-82	-28
-22	-42	-27
-1	2	-23
19	44	-22
36	81	-21
49	104	-23
54	113	-21
52	105	-19
41	83	-18
25	48	-18
7	6	-18
-15	-36	-19
-32	-76	-19
-46	-104	-20
-52	-119	-25
-52	-117	-28
-44	-99	-30
-31	-65	-31
-14	-25	-30
7	18	-27
25	59	-23
40	90	-22
48	108	-20
50	112	-20
44	101	-18
32	76	-18
16	40	-16
-3	-2	-16
-23	-46	-23
-41	-86	-22
-54	-111	-23
-60	-122	-25
-59	-114	-23
-49	-91	-24
-32	-54	-26
-11	-11	-27
10	31	-24
29	70	-21
44	98	-22
51	113	-21
50	112	-21
44	94	-20
30	62	-19
11	21	-19
-8	-23	-14
-29	-65	-20
-44	-99	-20
-53	-119	-23
-56	-123	-27
-51	-110	-26
-38	-82	-26
-20	-43	-26
-1	1	-29
19	44	-26
36	83	-22
46	106	-21
51	115	-20
48	106	-17
37	85	-15
22	50	-18
4	8	-21
-16	-35	-20
-34	-77	-21
-48	-105	-22
-56	-123	-27
-57	-120	-26
-51	-103	-25
-37	-70	-31
-18	-29	-24
3	14	-24
22	56	-24
38	89	-19
48	107	-19
50	112	-21
44	102	-24
34	76	-13
18	38	-14
-1	-4	-22
-20	-49	-22
-37	-86	-21
-50	-112	-26
-56	-123	-27
-54	-115	-28
-46	-93	-26
-30	-56	-23
-10	-14	-27
11	30	-25
30	69	-25
44	98	-24
52	112	-21
51	112	-18
43	96	-16
30	64	-15
12	25	-16
-7	-19	-15
-27	-61	-17
-42	-96	-22
-53	-117	-25
-55	-121	-27
-49	-109	-26
-38	-82	-25
-22	-44	-30
-2	-2	-29
17	40	-25
33	77	-24
45	103	-23
51	113	-20
49	106	-17
39	86	-17
25	51	-19
7	10	-17
-13	-33	-20
-31	-71	-20
-45	-102	-21
-53	-119	-26
-53	-119	-28
-47	-103	-26
-34	-71	-25
-16	-31	-27
5	13	-25
23	54	-24
39	88	-22
48	108	-21
50	112	-19
45	102	-18
35	77	-19
18	40	-21
1	-1	-19
-20	-46	-17
-36	-82	-17
-50	-109	-20
-55	-120	-27
-54	-115	-31
-44	-94	-30
-30	-59	-32
-11	-18	-25
9	25	-19
27	64	-20
40	94	-16
47	112	-16
47	112	-18
41	97	-17
28	66	-22
11	27	-21
-10	-19	-19
-28	-62	-18
-43	-97	-20
-54	-119	-29
-56	-124	-24
-51	-111	-25
-40	-84	-26
-23	-45	-23
-4	-2	-27
16	40	-27
32	76	-23
44	101	-21
49	112	-20
49	108	-19
40	88	-14
26	54	-18
8	15	-21
-13	-29	-20
-32	-68	-25
-47	-101	-24
-56	-117	-24
-58	-118	-23
-50	-102	-19
-36	-71	-24
-16	-33	-30
6	10	-28
25	51	-24
41	85	-21
50	106	-21
51	110	-22
46	101	-24
34	76	-24
18	41	-21
-1	0	-20
-19	-42	-20
-36	-81	-21
-48	-109	-24
-54	-121	-27
-53	-119	-27
-45	-96	-30
-29	-60	-27
-10	-18	-27
10	28	-25
30	65	-24
42	95	-25
50	110	-23
51	110	-22
44	96	-19
31	68	-15
15	31	-13
-4	-13	-19
-25	-55	-27
-40	-92	-26
-52	-114	-24
-55	-120	-25
-52	-111	-26
-41	-85	-26
-25	-49	-25
-6	-7	-25
14	35	-24
32	71	-23
46	99	-23
52	112	-25
50	109	-26
40	89	-20
24	56	-13
6	13	-13
-14	-30	-14
-31	-69	-17
-45	-101	-21
-53	-118	-23
-54	-120	-26
-49	-103	-27
-37	-72	-28
-19	-33	-28
2	11	-27
20	51	-25
36	85	-23
45	104	-21
48	111	-19
44	103	-18
36	80	-16
21	45	-19
3	3	-18
-17	-40	-18
-37	-80	-20
-50	-108	-21
-58	-121	-24
-55	-117	-22
-44	-97	-25
-29	-63	-27
-11	-21	-26
8	21	-27
26	61	-27
39	92	-23
48	106	-21
49	110	-21
44	96	-16
33	67	-16
17	28	-15
-2	-15	-19
-22	-56	-19
-39	-92	-23
-51	-113	-24
-54	-121	-18
-53	-110	-23
-42	-85	-30
-26	-49	-25
-6	-5	-27
16	36	-31
32	77	-21
44	103	-23
49	115	-20
48	110	-20
38	89	-20
25	56	-17
7	14	-18
-11	-28	-18
-29	-69	-21
-44	-101	-21
-54	-118	-26
-57	-121	-25
-51	-106	-24
-38	-78	-27
-20	-37	-28
3	6	-28
21	48	-25
38	84	-22
48	105	-17
50	112	-18
46	103	-21
36	79	-15
21	41	-18
2	0	-22
-17	-42	-22
-35	-81	-25
-48	-108	-20
-55	-122	-21
-54	-118	-28
-46	-97	-29
-32	-63	-26
-13	-21	-27
7	22	-23
27	64	-20
41	96	-24
50	113	-21
51	114	-20
44	99	-17
33	69	-20
15	32	-16
-5	-11	-20
-24	-53	-23
-40	-88	-19
-51	-110	-24
-55	-120	-23
-52	-112	-27
-41	-90	-30
-26	-54	-28
-6	-13	-27
13	31	-25
30	69	-25
44	98	-20
51	112	-23
50	110	-21
42	93	-20
29	62	-21
10	22	-20
-10	-22	-21
-28	-63	-21
-45	-97	-22
-52	-117	-22
-55	-120	-27
-50	-106	-26
-39	-78	-22
-21	-37	-25
-1	6	-30
18	48	-24
36	82	-20
46	104	-24
50	112	-21
45	103	-18
35	81	-18
19	45	-19
1	4	-17
-18	-40	-17
-35	-81	-21
-46	-109	-20
-54	-125	-20
-54	-120	-22
-47	-100	-23
-33	-66	-27
-14	-25	-32
7	19	-27
27	59	-27
41	90	-24
50	109	-21
50	109	-21
44	98	-20
32	70	-20
16	32	-19
-4	-9	-19
-22	-51	-20
-38	-86	-22
-50	-111	-25
-55	-120	-23
-53	-112	-24
-43	-89	-30
-28	-52	-29
-8	-9	-27
13	34	-22
30	71	-20
44	100	-20
48	112	-18
49	108	-17
40	92	-16
28	62	-20
10	23	-19
-8	-21	-19
-27	-63	-20
-42	-97	-23
-52	-119	-25
-55	-123	-27
-49	-110	-27
-37	-80	-24
-20	-39	-26
0	6	-25
20	49	-22
36	84	-23
46	106	-24
50	113	-22
48	106	-19
38	85	-18
23	48	-19
3	6	-18
-17	-41	-18
-35	-81	-20
-48	-110	-20
-54	-123	-24
-52	-120	-26
-44	-101	-23
-29	-67	-21
-12	-26	-29
8	18	-33
25	57	-28
39	89	-23
47	108	-21
49	111	-19
42	99	-16
32	71	-19
15	33	-19
-5	-11	-18
-23	-53	-15
-41	-89	-20
-53	-113	-25
-58	-121	-31
-56	-114	-31
-45	-90	-24
-28	-53	-22
-8	-11	-30
12	34	-33
30	71	-21
42	101	-23
47	114	-20
47	112	-18
41	95	-20
28	62	-17
11	22	-17
-8	-22	-19
-28	-62	-27
-43	-96	-24
-53	-114	-21
-56	-118	-19
-50	-105	-24
-38	-78	-24
-20	-39	-21
0	4	-25
19	46	-24
36	82	-23
46	106	-20
51	114	-17
46	106	-17
37	83	-17
22	49	-20
4	8	-19
-17	-36	-17
-34	-72	-19
-48	-103	-23
-57	-117	-27
-56	-117	-30
-49	-100	-27
-34	-69	-28
-14	-30	-28
6	15	-25
26	56	-24
40	90	-25
50	108	-20
51	113	-19
47	101	-19
35	75	-19
19	37	-21
-1	-6	-21
-22	-49	-20
-39	-87	-22
-52	-113	-25
-57	-123	-27
-54	-116	-30
-43	-93	-26
-28	-56	-24
-8	-13	-27
11	30	-25
29	67	-24
42	96	-24
50	109	-18
50	109	-19
42	91	-17
30	62	-14
12	23	-18
-8	-21	-18
-28	-62	-21
-43	-98	-23
-53	-117	-24
-56	-122	-24
-50	-108	-25
-38	-81	-28
-21	-43	-26
-1	1	-27
18	41	-23
35	77	-22
45	101	-21
50	110	-18
47	106	-20
38	85	-21
23	53	-21
4	12	-20
-18	-32	-20
-36	-74	-21
-49	-105	-21
-56	-122	-23
-54	-120	-24
-47	-102	-28
-32	-69	-28
-13	-27	-30
6	17	-22
25	56	-15
39	88	-21
48	108	-26
49	115	-21
44	104	-22
32	80	-22
16	41	-21
-5	-4	-21
-24	-49	-23
-40	-89	-23
-51	-114	-21
-55	-122	-26
-52	-113	-27
-42	-89	-24
-28	-55	-26
-10	-14	-26
10	28	-26
28	66	-23
43	95	-21
52	112	-20
54	114	-20
46	98	-17
32	66	-17
13	24	-18
-8	-20	-12
-28	-63	-18
-43	-98	-21
-52	-119	-22
-56	-124	-25
-52	-112	-24
-41	-86	-26
-24	-47	-28
-4	-3	-27
16	40	-26
34	77	-24
45	103	-21
51	114	-18
48	108	-17
38	88	-20
24	55	-20
6	13	-18
-13	-29	-15
-32	-70	-18
-45	-102	-17
-54	-119	-21
-55	-119	-32
-49	-102	-28
-36	-71	-26
-17	-32	-30
4	11	-27
23	51	-28
38	85	-24
48	106	-20
51	112	-18
48	102	-18
37	78	-21
21	41	-20
1	-1	-16
-20	-44	-15
-38	-85	-19
-51	-111	-23
-55	-122	-20
-54	-117	-20
-43	-96	-23
-27	-61	-31
-8	-18	-33
11	26	-30
28	65	-24
42	95	-21
49	110	-21
50	110	-16
44	96	-16
32	67	-24
15	29	-22
-4	-13	-17
-24	-54	-21
-41	-89	-21
-52	-114	-22
-57	-122	-23
-53	-112	-26
-42	-86	-26
-24	-47	-26
-4	-2	-28
18	43	-27
35	79	-24
46	102	-20
52	111	-16
49	105	-13
41	87	-15
26	55	-17
9	16	-19
-11	-27	-19
-30	-68	-24
-47	-102	-28
-56	-121	-24
-59	-122	-26
-54	-107	-25
-41	-77	-25
-23	-36	-30
-1	8	-28
19	48	-25
36	83	-24
46	104	-21
48	110	-21
45	104	-20
34	81	-17
19	43	-17
1	2	-20
-19	-42	-23
-37	-80	-24
-50	-108	-24
-57	-121	-27
-56	-117	-28
-46	-96	-30
-30	-61	-24
-10	-20	-24
12	25	-27
30	66	-26
43	95	-20
50	112	-19
50	112	-16
42	96	-14
30	66	-18
12	27	-14
-6	-16	-17
-24	-57	-18
-39	-92	-20
-50	-114	-21
-54	-120	-24
-51	-111	-25
-42	-86	-24
-25	-49	-28
-5	-7	-28
16	36	-26
33	74	-24
45	100	-24
51	112	-23
49	109	-17
42	89	-19
27	56	-20
10	15	-17
-10	-29	-18
-29	-69	-21
-44	-100	-22
-53	-119	-23
-54	-119	-27
-48	-105	-25
-34	-74	-27
-16	-34	-27
4	10	-29
23	51	-26
39	85	-24
49	109	-26
51	115	-24
48	106	-19
37	81	-11
21	43	-11
1	3	-9
-19	-43	-19
-37	-81	-21
-50	-109	-26
-55	-122	-35
-55	-119	-29
-47	-100	-29
-33	-67	-27
-15	-28	-24
5	16	-22
24	57	-18
40	89	-22
48	109	-20
50	112	-18
42	100	-17
31	70	-18
13	32	-15
-6	-13	-15
-26	-55	-18
-41	-90	-20
-52	-113	-23
-58	-119	-24
-54	-110	-26
-44	-85	-25
-28	-48	-26
-7	-6	-27
13	37	-25
31	74	-26
44	101	-26
50	112	-22
48	110	-23
40	89	-21
24	57	-19
7	15	-20
-14	-29	-21
-33	-68	-21
-47	-101	-21
-55	-118	-28
-56	-120	-30
-50	-105	-30
-38	-77	-26
-21	-39	-25
-1	5	-24
17	45	-21
34	82	-19
45	105	-20
51	113	-18
49	106	-13
39	83	-15
23	49	-19
4	7	-21
-16	-38	-21
-36	-78	-25
-49	-108	-26
-55	-121	-25
-54	-119	-30
-44	-98	-26
-30	-64	-28
-11	-23	-30
8	20	-25
28	60	-24
42	93	-20
50	110	-18
52	113	-20
46	100	-20
35	71	-20
18	33	-19
-2	-11	-18
-22	-53	-18
-39	-90	-17
-51	-114	-18
-55	-122	-21
-52	-114	-24
-41	-90	-25
-23	-54	-22
-4	-10	-23
16	32	-27
33	71	-26
45	99	-27
51	110	-24
49	106	-21
42	90	-20
27	59	-19
10	19	-16
-10	-22	-16
-28	-62	-21
-43	-97	-24
-52	-116	-24
-55	-119	-23
-49	-106	-18
-37	-77	-27
-20	-38	-27
0	5	-26
20	45	-29
36	81	-25
46	103	-25
49	110	-20
44	104	-19
34	81	-18
19	45	-17
0	2	-16
-18	-41	-20
-36	-80	-21
-49	-106	-22
-55	-119	-25
-56	-117	-25
-48	-98	-26
-34	-67	-23
-15	-27	-24
6	17	-24
26	58	-21
41	92	-21
50	112	-19
52	116	-21
46	102	-25
34	75	-20
17	35	-12
-1	-8	-16
-22	-51	-24
-38	-88	-26
-50	-112	-29
-56	-121	-26
-54	-114	-25
-44	-90	-25
-28	-54	-27
-8	-11	-27
12	30	-24
30	68	-26
43	97	-24
50	110	-21
51	110	-19
44	93	-18
29	61	-20
11	21	-19
-9	-24	-19
-27	-66	-21
-43	-99	-22
-51	-118	-25
-55	-120	-30
-50	-107	-30
-38	-80	-20
-22	-40	-21
-1	1	-25
19	42	-27
36	80	-28
46	104	-23
51	114	-21
48	108	-18
38	86	-17
23	49	-16
5	8	-16
-16	-36	-17
-34	-76	-20
-47	-104	-22
-54	-119	-23
-54	-117	-24
-45	-98	-26
-32	-67	-27
-13	-26	-26
7	16	-25
24	58	-23
39	90	-24
49	109	-22
52	113	-19
46	102	-20
35	77	-21
18	38	-24
-3	-6	-22
-24	-51	-20
-42	-89	-23
-54	-114	-20
-58	-123	-21
-55	-115	-31
-44	-92	-29
-29	-54	-25
-10	-13	-28
11	30	-24
29	68	-21
42	96	-23
49	110	-21
50	110	-16
43	95	-17
29	64	-15
12	24	-13
-10	-19	-21
-29	-61	-23
-45	-95	-20
-54	-116	-22
-57	-118	-24
-52	-105	-27
-40	-79	-24
-24	-41	-21
-3	1	-24
16	44	-23
34	80	-24
46	104	-25
51	116	-23
49	109	-19
39	88	-17
22	51	-18
3	10	-17
-17	-36	-19
-35	-76	-19
-48	-104	-24
-55	-120	-22
-54	-118	-24
-47	-101	-28
-35	-68	-26
-17	-29	-24
2	15	-25
22	56	-26
37	89	-25
48	109	-24
50	112	-23
46	102	-20
35	76	-17
18	37	-16
0	-5	-18
-20	-49	-20
-36	-86	-24
-49	-113	-22
-53	-123	-21
-52	-117	-23
-43	-96	-24
-27	-58	-27
-10	-17	-26
11	28	-26
30	67	-23
43	97	-23
51	113	-23
51	110	-22
44	95	-20
29	63	-18
12	23	-22
-7	-21	-19
-26	-62	-23
-42	-95	-23
-51	-116	-25
-55	-120	-30
-51	-109	-29
-39	-84	-31
-23	-46	-27
-3	-4	-27
16	38	-27
35	76	-24
46	102	-20
51	110	-17
48	106	-17
38	85	-20
23	50	-21
4	10	-16
-16	-35	-20
-35	-75	-20
-48	-105	-22
-55	-121	-24
-55	-119	-25
-48	-103	-26
-33	-71	-25
-16	-31	-25
4	14	-25
24	54	-24
40	88	-21
49	108	-21
51	114	-21
47	105	-13
36	80	-10
20	43	-18
1	0	-20
-20	-45	-18
-35	-85	-25
-48	-113	-30
-55	-124	-23
-53	-119	-27
-44	-96	-28
-28	-59	-26
-10	-18	-27
10	27	-27
28	65	-30
41	96	-26
49	110	-17
49	112	-18
42	97	-19
29	67	-19
13	29	-18
-8	-15	-14
-28	-56	-21
-43	-91	-27
-53	-112	-30
-57	-119	-27
-53	-110	-25
-42	-86	-29
-27	-49	-27
-7	-5	-25
13	37	-25
31	75	-24
44	102	-22
52	112	-20
50	108	-18
40	85	-17
24	53	-15
4	13	-15
-16	-31	-17
-33	-69	-19
-46	-100	-22
-52	-117	-23
-53	-119	-22
-47	-105	-23
-36	-75	-25
-17	-35	-25
3	9	-25
23	51	-20
39	88	-25
49	109	-26
52	116	-20
48	106	-19
36	80	-19
20	43	-18
1	0	-17
-20	-42	-19
-36	-81	-22
-48	-108	-24
-55	-119	-26
-53	-116	-25
-44	-95	-27
-28	-61	-25
-10	-19	-28
10	25	-27
28	65	-25
41	96	-24
48	110	-19
49	112	-20
44	96	-21
32	67	-19
15	29	-17
-6	-15	-18
-27	-56	-19
-43	-94	-21
-54	-116	-25
-57	-122	-23
-52	-112	-28
-40	-86	-33
-24	-49	-27
-5	-6	-24
14	35	-24
30	72	-26
42	99	-24
49	112	-21
46	109	-19
39	89	-17
24	57	-16
6	15	-17
-13	-29	-18
-31	-71	-19
-46	-103	-20
-55	-119	-23
-57	-119	-24
-50	-102	-23
-37	-72	-23
-18	-32	-26
2	10	-25
23	49	-26
39	84	-25
48	105	-21
51	112	-21
47	103	-21
37	80	-19
23	43	-19
4	1	-15
-16	-42	-16
-35	-82	-17
-49	-108	-23
-55	-121	-32
-54	-116	-31
-44	-96	-28
-28	-64	-30
-10	-22	-18
11	20	-15
27	60	-27
42	91	-24
50	110	-20
52	112	-20
45	99	-20
33	71	-21
16	31	-19
-5	-13	-19
-25	-56	-17
-41	-92	-20
-51	-114	-25
-55	-120	-30
-51	-109	-31
-40	-86	-26
-25	-50	-27
-5	-7	-29
14	34	-26
31	71	-24
44	100	-21
50	114	-19
49	110	-18
41	91	-16
26	58	-20
8	15	-21
-13	-28	-19
-32	-68	-19
-46	-100	-19
-54	-118	-24
-55	-119	-24
-49	-104	-26
-35	-76	-25
-16	-36	-24
4	7	-25
23	49	-23
37	84	-23
48	106	-21
50	114	-19
47	104	-18
37	82	-18
23	45	-19
3	3	-19
-18	-41	-19
-35	-81	-24
-50	-108	-24
-56	-122	-24
-55	-117	-26
-46	-98	-26
-31	-63	-26
-13	-22	-25
8	22	-28
26	62	-26
40	93	-21
48	112	-19
50	114	-18
44	100	-17
32	71	-16
14	32	-18
-7	-12	-16
-26	-54	-21
-42	-89	-23
-52	-111	-24
-56	-118	-29
-53	-110	-30
-43	-87	-27
-28	-52	-28
-10	-12	-28
9	31	-26
29	70	-28
41	98	-24
49	112	-23
49	109	-18
41	90	-9
26	56	-8
7	16	-13
-12	-26	-19
-30	-66	-20
-43	-97	-24
-53	-116	-24
-54	-119	-24
-50	-107	-27
-38	-80	-24
-22	-41	-23
-1	2	-26
20	45	-24
36	81	-21
48	105	-22
52	112	-20
49	103	-21
37	80	-21
22	43	-19
4	4	-17
-16	-39	-20
-34	-76	-23
-47	-105	-24
-54	-118	-22
-54	-116	-23
-47	-98	-30
-32	-64	-28
-14	-23	-30
8	22	-38
26	62	-30
40	93	-25
47	110	-23
48	110	-17
42	98	-14
30	69	-14
14	34	-16
-4	-8	-18
-22	-49	-23
-39	-86	-24
-50	-112	-25
-56	-121	-25
-54	-116	-25
-46	-93	-30
-30	-56	-25
-11	-15	-25
11	31	-24
30	70	-21
44	98	-23
52	112	-20
51	109	-18
44	92	-17
28	61	-20
10	22	-19
-10	-22	-18
-29	-63	-19
-43	-97	-20
-53	-118	-24
-56	-121	-25
-51	-108	-28
-39	-79	-28
-21	-39	-26
0	5	-26
20	47	-25
36	81	-23
46	104	-20
51	112	-23
48	106	-23
38	84	-19
23	50	-17
5	8	-16
-15	-36	-17
-33	-77	-25
-48	-107	-28
-56	-121	-26
-56	-119	-20
-48	-102	-17
-34	-69	-23
-15	-29	-28
6	14	-25
22	54	-25
39	88	-26
48	109	-25
50	113	-20
46	101	-16
34	72	-17
17	35	-15
-3	-8	-16
-24	-50	-17
-40	-85	-18
-51	-109	-19
-56	-117	-24
-52	-111	-26
-42	-88	-24
-28	-54	-27
-9	-12	-28
12	32	-26
30	70	-22
42	98	-21
52	110	-18
51	109	-19
44	92	-20
32	61	-17
13	22	-17
-7	-22	-19
-28	-62	-24
-43	-97	-23
-54	-117	-22
-56	-120	-20
-50	-107	-23
-39	-78	-27
-21	-39	-27
-1	4	-27
18	45	-22
34	81	-23
46	103	-21
50	112	-21
48	105	-24
39	84	-19
24	50	-17
5	10	-16
-16	-33	-19
-34	-72	-25
-49	-105	-23
-56	-120	-26
-56	-120	-24
-48	-102	-25
-36	-70	-28
-17	-29	-30
3	14	-28
22	55	-27
38	89	-24
48	108	-23
52	113	-23
46	101	-19
35	75	-19
18	37	-18
-1	-7	-18
-20	-49	-19
-36	-86	-21
-48	-111	-23
-55	-121	-25
-52	-115	-22
-44	-93	-25
-30	-59	-26
-11	-17	-27
11	26	-25
30	66	-21
44	96	-22
51	110	-20
50	110	-18
44	94	-17
30	64	-21
13	26	-24
-5	-17	-21
-26	-58	-17
-42	-94	-17
-54	-115	-21
-56	-121	-24
-52	-109	-27
-39	-83	-27
-21	-43	-25
1	1	-27
21	43	-30
37	81	-25
47	103	-25
50	112	-23
46	105	-19
36	84	-19
21	51	-18
3	10	-16
-16	-33	-20
-32	-74	-21
-46	-103	-26
-54	-118	-30
-56	-118	-27
-49	-101	-26
-36	-70	-24
-18	-30	-28
3	12	-27
23	52	-22
39	86	-21
49	106	-19
52	113	-17
48	102	-18
36	77	-22
19	39	-19
0	-5	-18
-20	-49	-18
-37	-88	-21
-50	-113	-27
-55	-123	-26
-52	-115	-28
-44	-93	-30
-29	-56	-29
-10	-15	-25
10	27	-21
30	66	-20
42	96	-21
50	112	-21
50	112	-18
42	97	-17
27	67	-12
11	26	-9
-10	-18	-24
-28	-60	-35
-42	-95	-22
-52	-116	-25
-56	-122	-28
-53	-110	-24
-42	-85	-28
-26	-48	-23
-6	-6	-24
16	39	-20
33	77	-20
46	103	-22
51	114	-20
49	106	-19
38	86	-18
23	51	-17
6	11	-16
-12	-32	-17
-30	-72	-20
-45	-103	-26
-52	-121	-27
-54	-121	-26
-47	-105	-23
-34	-75	-23
-15	-32	-31
6	13	-32
25	55	-30
39	88	-25
48	109	-23
50	112	-21
45	101	-20
34	76	-21
19	40	-18
0	0	-18
-20	-44	-18
-37	-82	-19
-50	-108	-20
-55	-120	-27
-53	-115	-30
-44	-94	-27
-28	-58	-26
-10	-18	-27
10	25	-24
29	64	-23
42	92	-24
50	110	-19
51	110	-23
45	98	-19
32	70	-18
15	32	-19
-7	-11	-17
-26	-56	-18
-42	-92	-21
-54	-116	-23
-57	-121	-25
-54	-111	-25
-44	-86	-25
-28	-47	-26
-7	-5	-25
14	37	-25
32	72	-21
46	98	-18
52	110	-18
49	106	-23
40	89	-23
25	56	-23
5	16	-21
-15	-28	-21
-33	-69	-24
-48	-102	-25
-54	-120	-25
-56	-121	-26
-48	-106	-23
-35	-74	-23
-17	-35	-29
3	10	-20
21	50	-21
36	83	-27
45	105	-17
50	111	-13
45	103	-18
35	80	-19
18	43	-20
-1	1	-13
-21	-43	-18
-38	-81	-25
-50	-110	-22
-55	-121	-25
-53	-117	-24
-46	-97	-27
-31	-62	-26
-13	-21	-24
7	23	-25
26	62	-22
41	95	-24
50	113	-25
51	115	-26
46	101	-18
32	70	-13
15	32	-15
-5	-12	-16
-25	-53	-20
-41	-88	-22
-52	-112	-24
-55	-117	-26
-52	-109	-28
-40	-85	-27
-24	-48	-23
-4	-6	-25
15	38	-26
34	74	-24
47	101	-22
52	112	-20
52	108	-20
42	89	-19
28	55	-16
8	16	-17
-12	-28	-21
-31	-68	-25
-45	-101	-23
-54	-119	-26
-56	-121	-24
-51	-109	-24
-39	-78	-27
-21	-39	-25
0	6	-24
20	47	-21
37	84	-22
48	105	-24
52	110	-25
47	103	-21
37	78	-19
21	41	-16
2	-1	-18
-18	-43	-21
-36	-82	-23
-50	-109	-22
-57	-120	-23
-56	-116	-23
-48	-96	-20
-32	-60	-26
-12	-21	-25
9	23	-23
27	61	-22
42	93	-24
50	110	-25
52	114	-19
45	100	-17
32	71	-17
15	32	-19
-6	-15	-19
-26	-57	-19
-42	-94	-20
-53	-116	-23
-56	-122	-25
-52	-113	-25
-41	-87	-27
-26	-52	-27
-6	-9	-26
12	32	-25
29	70	-25
44	98	-22
49	112	-25
50	110	-22
42	93	-18
28	62	-23
9	20	-24
-11	-24	-24
-31	-65	-24
-47	-100	-25
-55	-119	-25
-57	-122	-26
-51	-109	-25
-37	-79	-25
-18	-39	-21
3	6	-21
23	48	-28
38	84	-20
48	106	-22
52	114	-24
46	105	-18
38	81	-16
22	45	-10
4	3	-12
-17	-39	-20
-34	-78	-24
-48	-106	-25
-55	-118	-22
-55	-117	-19
-47	-99	-22
-31	-67	-28
-12	-27	-25
9	17	-25
28	59	-30
41	93	-22
49	111	-22
49	113	-26
42	99	-21
30	71	-21
13	32	-17
-5	-11	-20
-23	-51	-23
-39	-88	-24
-49	-110	-23
-55	-120	-26
-52	-112	-28
-43	-89	-26
-28	-53	-25
-7	-11	-25
14	34	-28
32	72	-24
45	101	-23
52	115	-20
50	112	-17
42	93	-18
28	61	-20
9	19	-20
-10	-26	-19
-30	-67	-21
-44	-101	-21
-54	-119	-22
-56	-122	-25
-51	-107	-26
-38	-79	-25
-20	-40	-27
-1	2	-26
18	43	-24
33	81	-20
44	105	-20
49	114	-21
46	106	-18
37	85	-19
22	48	-19
3	6	-17
-17	-37	-20
-36	-78	-19
-50	-106	-20
-58	-121	-25
-57	-117	-27
-49	-99	-28
-34	-68	-26
-14	-28	-25
8	15	-21
26	54	-20
41	88	-22
50	106	-24
51	110	-24
46	100	-19
34	75	-13
17	36	-11
-2	-6	-12
-22	-51	-15
-40	-89	-20
-51	-113	-21
-54	-122	-26
-51	-113	-27
-39	-89	-25
-24	-51	-27
-4	-10	-26
14	32	-27
30	70	-26
42	97	-23
48	112	-18
49	110	-12
42	95	-16
29	64	-17
11	23	-20
-9	-20	-20
-29	-63	-21
-44	-97	-23
-54	-117	-23
-56	-120	-24
-52	-108	-25
-40	-82	-28
-23	-43	-26
-2	-1	-24
19	42	-24
36	80	-24
47	105	-26
52	114	-19
50	106	-21
40	84	-23
24	48	-20
5	7	-18
-16	-37	-12
-35	-77	-16
-48	-105	-29
-56	-120	-27
-57	-118	-26
-50	-100	-30
-35	-68	-26
-17	-28	-27
4	15	-24
22	55	-25
37	87	-28
48	106	-21
50	111	-16
46	100	-22
35	74	-22
18	36	-18
-1	-6	-20
-22	-50	-19
-40	-87	-20
-51	-111	-20
-55	-121	-25
-53	-113	-27
-42	-91	-24
-26	-54	-24
-7	-14	-26
14	30	-28
32	67	-27
45	96	-24
52	110	-22
52	109	-21
43	94	-20
30	63	-21
11	23	-19
-8	-21	-20
-27	-61	-21
-43	-95	-23
-53	-117	-25
-56	-120	-27
-52	-110	-30
-40	-83	-28
-22	-44	-28
-3	-2	-31
18	41	-26
34	77	-23
44	103	-24
50	113	-19
48	106	-20
39	86	-22
23	51	-21
5	11	-16
-15	-32	-16
-33	-70	-21
-47	-102	-24
-55	-118	-22
-56	-118	-24
-50	-102	-27
-37	-71	-24
-19	-31	-25
2	13	-23
22	55	-20
40	89	-21
50	110	-22
52	114	-20
46	103	-19
34	76	-19
17	39	-18
-4	-5	-18
-22	-48	-20
-39	-86	-23
-51	-113	-25
-57	-122	-25
-55	-116	-26
-45	-93	-25
-30	-56	-26
-9	-15	-28
12	30	-25
30	68	-25
44	99	-24
50	114	-24
50	113	-22
42	96	-20
30	64	-17
13	26	-17
-5	-18	-19
-25	-58	-18
-41	-94	-19
-51	-116	-19
-53	-121	-23
-49	-111	-26
-38	-84	-26
-20	-47	-25
-1	-3	-24
18	40	-25
35	75	-24
45	102	-17
51	110	-18
49	106	-16
40	85	-20
24	51	-21
6	10	-15
-15	-33	-16
-32	-71	-20
-47	-102	-18
-53	-117	-19
-54	-117	-33
-50	-100	-28
-37	-69	-28
-21	-33	-29
-2	9	-25
17	48	-22
34	83	-19
46	104	-22
50	109	-15
46	100	-16
35	76	-19
19	40	-20
-2	-3	-19
-20	-45	-17
-38	-84	-23
-50	-110	-25
-55	-121	-26
-52	-116	-25
-42	-93	-25
-28	-58	-26
-10	-17	-26
9	28	-27
27	65	-27
40	95	-23
49	110	-23
50	113	-22
44	98	-24
32	68	-23
14	30	-19
-6	-16	-13
-26	-58	-15
-42	-95	-19
-51	-117	-22
-54	-121	-26
-49	-109	-26
-39	-83	-28
-21	-45	-30
-3	-2	-31
17	39	-31
33	76	-27
44	100	-25
48	110	-21
46	106	-16
36	85	-14
22	53	-15
5	13	-19
-14	-29	-21
-32	-68	-20
-46	-99	-21
-55	-117	-21
-57	-120	-24
-51	-105	-25
-37	-76	-24
-19	-35	-26
3	11	-26
23	51	-21
38	86	-21
49	106	-22
52	114	-22
46	103	-20
36	80	-18
20	43	-20
1	1	-19
-18	-42	-19
-36	-82	-21
-50	-110	-23
-56	-123	-25
-54	-118	-27
-44	-98	-26
-30	-63	-28
-10	-21	-27
11	23	-24
29	63	-24
42	93	-27
49	110	-23
49	110	-16
42	96	-16
31	67	-16
13	28	-12
-6	-14	-17
-26	-56	-19
-42	-92	-23
-53	-114	-27
-56	-121	-27
-52	-110	-24
-41	-86	-21
-24	-48	-24
-5	-4	-26
14	37	-31
30	76	-32
42	101	-26
49	113	-25
48	108	-22
41	88	-24
25	55	-20
8	13	-8
-14	-30	-9
-31	-71	-27
-46	-100	-21
-54	-117	-23
-54	-117	-28
-47	-102	-26
-35	-76	-31
-19	-36	-25
2	5	-27
21	48	-24
37	85	-24
50	106	-21
54	116	-17
51	106	-18
38	81	-17
20	43	-18
-1	0	-16
-22	-44	-18
-40	-82	-18
-51	-108	-20
-56	-120	-21
-54	-116	-24
-45	-96	-27
-30	-62	-25
-10	-21	-25
9	23	-26
28	63	-25
42	93	-24
50	111	-23
52	113	-20
44	99	-19
33	71	-16
16	31	-15
-2	-11	-16
-23	-55	-19
-39	-90	-24
-51	-113	-25
-55	-122	-25
-52	-111	-26
-42	-88	-27
-25	-50	-26
-5	-7	-27
14	35	-27
32	72	-24
43	99	-25
50	112	-25
48	108	-22
41	91	-19
27	57	-20
8	18	-19
-12	-26	-19
-30	-68	-21
-47	-100	-21
-56	-121	-21
-58	-122	-23
-52	-109	-25
-38	-80	-24
-20	-38	-26
1	5	-28
20	48	-26
38	83	-26
49	105	-23
51	112	-20
48	103	-19
38	81	-18
22	45	-17
2	4	-20
-17	-40	-20
-35	-80	-20
-48	-107	-21
-54	-121	-22
-53	-116	-25
-44	-97	-29
-30	-63	-26
-12	-23	-26
7	20	-26
25	59	-25
37	89	-24
46	109	-22
48	111	-20
42	100	-18
31	72	-19
15	35	-18
-4	-8	-18
-23	-53	-19
-40	-89	-21
-51	-114	-23
-55	-122	-25
-53	-113	-27
-42	-89	-26
-26	-51	-25
-6	-9	-23
13	34	-24
30	70	-20
42	98	-20
48	112	-19
48	109	-19
40	93	-19
26	61	-18
9	21	-18
-12	-24	-19
-31	-65	-21
-46	-99	-20
-55	-120	-24
-57	-121	-25
-50	-106	-26
-37	-77	-26
-20	-37	-29
1	5	-27
20	46	-25
36	80	-27
46	103	-21
50	110	-19
48	104	-18
38	82	-18
23	47	-17
5	6	-8
-13	-39	-9
-30	-78	-21
-44	-106	-25
-52	-119	-25
-54	-116	-32
-48	-99	-32
-35	-67	-28
-16	-27	-29
4	17	-32
24	58	-27
39	91	-21
48	111	-20
50	114	-23
42	103	-25
32	75	-18
14	37	-21
-5	-7	-17
-24	-49	-15
-40	-86	-19
-52	-112	-21
-55	-120	-29
-52	-113	-27
-41	-88	-26
-24	-51	-26
-5	-10	-25
15	31	-25
31	66	-22
44	95	-20
49	109	-19
49	109	-17
41	94	-17
28	64	-19
11	24	-20
-12	-21	-17
-31	-63	-19
-47	-99	-28
-56	-118	-30
-59	-121	-25
-52	-108	-27
-40	-81	-25
-23	-43	-27
-3	1	-28
17	42	-27
34	80	-26
46	103	-25
51	112	-22
48	105	-15
37	82	-14
21	47	-15
2	4	-14
-17	-39	-18
-33	-78	-17
-46	-107	-24
-54	-120	-24
-54	-118	-24
-47	-100	-28
-32	-69	-26
-14	-29	-24
5	13	-25
25	53	-25
40	86	-25
50	106	-22
51	112	-21
48	102	-21
36	77	-16
18	39	-15
0	-5	-21
-22	-47	-16
-39	-86	-21
-50	-110	-30
-54	-120	-20
-52	-114	-17
-42	-92	-18
-25	-57	-28
-6	-14	-33
13	30	-33
30	69	-32
43	98	-24
49	110	-22
49	108	-18
42	89	-18
29	58	-19
12	20	-18
-6	-21	-18
-24	-60	-18
-38	-93	-20
-49	-112	-21
-54	-119	-23
-50	-107	-23
-39	-81	-24
-22	-41	-30
0	3	-30
20	46	-30
36	83	-25
46	105	-23
50	114	-23
46	106	-21
36	84	-18
23	51	-19
5	9	-20
-13	-34	-23
-33	-76	-25
-47	-106	-21
-57	-121	-18
-57	-121	-22
-49	-102	-26
-34	-70	-25
-14	-28	-27
6	16	-25
24	57	-25
39	91	-25
48	110	-21
50	115	-20
46	103	-19
34	77	-18
17	38	-16
-2	-5	-15
-23	-48	-15
-38	-86	-14
-51	-110	-19
-55	-121	-21
-53	-114	-22
-44	-92	-26
-30	-56	-24
-11	-15	-26
10	28	-26
27	67	-25
41	96	-21
48	112	-15
47	112	-19
39	95	-16
26	65	-18
9	23	-18
-10	-19	-19
-28	-61	-22
-42	-95	-21
-53	-116	-24
-56	-121	-24
-51	-110	-28
-41	-84	-27
-23	-45	-26
-3	-2	-28
18	40	-26
36	77	-25
47	103	-25
52	113	-24
50	108	-17
41	88	-12
27	55	-24
8	12	-25
-11	-32	-18
-30	-72	-24
-45	-102	-20
-53	-120	-23
-54	-119	-22
-48	-101	-20
-34	-69	-32
-17	-27	-38
2	15	-35
20	55	-30
34	86	-26
44	105	-23
46	109	-20
42	98	-19
34	75	-22
19	39	-19
2	0	-19
-20	-45	-19
-37	-83	-22
-53	-109	-22
-58	-123	-20
-57	-117	-23
-46	-96	-24
-29	-60	-24
-8	-18	-30
13	24	-28
30	63	-19
42	91	-18
47	106	-17
46	106	-17
40	93	-19
28	65	-19
12	27	-19
-6	-15	-19
-25	-58	-20
-40	-93	-24
-51	-116	-27
-54	-120	-27
-50	-109	-26
-39	-84	-26
-22	-45	-25
-2	-3	-24
17	39	-22
35	76	-21
46	101	-23
52	112	-21
50	106	-21
41	89	-19
26	56	-19
7	16	-18
-12	-28	-18
-30	-68	-21
-45	-101	-20
-54	-119	-24
-55	-119	-27
-50	-103	-29
-37	-71	-27
-18	-32	-25
1	10	-26
20	51	-25
35	85	-25
46	105	-22
49	112	-19
46	103	-17
36	79	-18
21	40	-15
2	-2	-17
-18	-46	-21
-37	-84	-22
-49	-110	-23
-55	-121	-24
-54	-115	-27
-45	-95	-25
-30	-60	-25
-12	-20	-25
8	25	-25
27	64	-26
40	94	-25
48	110	-23
50	112	-21
42	96	-22
30	66	-19
12	28	-18
-7	-16	-19
-26	-58	-18
-43	-93	-22
-53	-117	-24
-57	-123	-26
-52	-113	-24
-41	-87	-24
-25	-49	-28
-5	-7	-26
16	37	-25
34	74	-25
46	101	-22
52	113	-22
50	109	-21
41	92	-18
26	57	-16
9	17	-19
-11	-29	-20
-32	-69	-22
-46	-102	-22
-56	-119	-22
-57	-119	-23
-51	-105	-23
-36	-74	-20
-18	-34	-22
3	9	-32
23	50	-31
39	85	-25
50	106	-21
52	112	-10
49	103	-15
37	77	-24
21	41	-23
1	0	-24
-19	-43	-24
-37	-81	-22
-50	-109	-21
-55	-121	-21
-55	-118	-27
-45	-96	-26
-30	-62	-23
-10	-21	-26
11	23	-29
29	62	-26
42	93	-22
49	111	-19
49	113	-21
44	98	-23
33	70	-20
16	33	-17
-3	-11	-18
-23	-54	-17
-41	-92	-15
-52	-116	-21
-57	-123	-21
-52	-114	-24
-42	-88	-26
-24	-49	-25
-4	-5	-27
16	38	-24
33	76	-26
45	101	-26
52	112	-23
50	110	-20
42	92	-19
26	59	-20
7	19	-22
-14	-26	-21
-32	-67	-22
-46	-101	-22
-53	-119	-25
-54	-122	-26
-48	-106	-25
-35	-75	-25
-18	-36	-24
2	8	-25
23	50	-23
37	85	-23
49	106	-22
51	114	-20
46	106	-20
36	81	-17
20	46	-13
1	4	-15
-18	-39	-17
-35	-79	-18
-48	-106	-21
-54	-119	-21
-55	-116	-24
-45	-96	-26
-31	-64	-27
-12	-24	-27
8	20	-27
27	58	-26
42	90	-23
49	106	-23
50	109	-21
44	97	-20
33	70	-21
15	33	-18
-4	-12	-17
-23	-53	-20
-40	-90	-22
-52	-115	-22
-57	-123	-24
-53	-114	-24
-42	-89	-26
-25	-53	-25
-4	-11	-24
15	33	-25
31	71	-24
42	100	-21
48	113	-19
46	110	-16
40	92	-12
26	59	-21
10	18	-24
-10	-25	-21
-30	-67	-25
-45	-100	-23
-56	-119	-23
-59	-124	-21
-53	-109	-26
-41	-81	-30
-22	-39	-28
0	4	-26
19	48	-15
36	84	-16
47	106	-28
50	114	-27
46	105	-21
36	84	-20
20	49	-18
1	8	-22
-19	-36	-21
-37	-77	-23
-52	-105	-24
-57	-121	-21
-57	-118	-23
-46	-98	-21
-29	-63	-25
-10	-21	-26
11	21	-26
29	60	-21
42	91	-20
50	106	-22
52	110	-19
46	97	-18
36	72	-19
18	35	-19
-1	-8	-18
-20	-49	-18
-38	-88	-20
-50	-113	-21
-56	-122	-25
-54	-113	-26
-44	-89	-27
-26	-53	-27
-6	-11	-29
15	30	-26
33	67	-26
44	93	-24
50	108	-21
48	106	-21
39	92	-20
25	62	-21
7	22	-22
-12	-22	-21
-30	-66	-23
-44	-100	-23
-53	-120	-27
-55	-122	-31
-49	-107	-27
-37	-79	-28
-20	-39	-29
0	4	-26
18	43	-23
33	80	-23
44	103	-22
49	112	-16
46	106	-16
37	85	-19
22	51	-17
2	10	-16
-19	-35	-16
-35	-77	-19
-48	-105	-23
-54	-120	-25
-53	-117	-25
-44	-99	-26
-31	-66	-25
-13	-25	-27
6	16	-28
24	56	-24
40	88	-24
49	106	-23
51	112	-20
46	101	-21
34	76	-23
16	36	-22
-5	-5	-20
-23	-50	-18
-39	-88	-19
-50	-113	-22
-55	-121	-23
-53	-113	-19
-44	-90	-25
-28	-53	-32
-10	-12	-27
10	31	-28
29	68	-27
42	96	-23
51	110	-22
50	108	-17
42	93	-10
29	62	-19
12	23	-32
-8	-21	-20
-27	-63	-16
-43	-98	-25
-54	-119	-27
-56	-122	-27
-52	-111	-25
-39	-83	-26
-22	-43	-30
0	-1	-32
20	41	-30
36	77	-25
47	101	-24
49	110	-21
46	105	-18
35	85	-18
20	51	-17
2	13	-18
-16	-31	-17
-34	-70	-20
-46	-102	-20
-54	-118	-22
-55	-117	-23
-48	-100	-21
-34	-67	-22
-16	-25	-23
6	18	-22
24	58	-21
40	89	-20
49	106	-22
52	110	-22
46	101	-20
36	76	-16
20	39	-18
2	-3	-17
-20	-47	-19
-37	-85	-23
-50	-113	-22
-57	-121	-23
-54	-116	-24
-44	-92	-24
-28	-56	-25
-8	-15	-26
12	29	-24
29	67	-23
42	96	-22
50	110	-22
50	110	-21
44	96	-18
31	64	-16
13	26	-17
-7	-19	-18
-26	-61	-17
-41	-97	-23
-52	-119	-24
-54	-123	-25
-49	-111	-25
-38	-85	-24
-22	-46	-28
-2	-3	-26
17	41	-25
34	77	-23
46	103	-20
50	113	-20
48	109	-20
38	88	-18
22	54	-14
4	13	-14
-16	-32	-18
-34	-71	-22
-48	-104	-23
-56	-119	-25
-56	-119	-24
-50	-102	-27
-35	-69	-28
-18	-31	-28
3	12	-23
23	51	-27
38	85	-32
49	106	-23
52	112	-22
48	103	-18
37	77	-20
19	40	-18
-1	-3	-18
-22	-47	-15
-40	-86	-18
-50	-112	-28
-56	-120	-21
-53	-113	-24
-45	-92	-22
-30	-57	-21
-12	-17	-26
9	27	-26
28	64	-25
42	95	-22
52	110	-23
52	112	-24
44	96	-28
30	66	-25
12	26	-18
-8	-19	-17
-27	-61	-16
-42	-96	-18
-52	-117	-19
-54	-122	-21
-52	-111	-23
-40	-84	-26
-23	-46	-30
-3	-2	-28
17	40	-27
33	77	-25
46	101	-20
50	111	-20
48	106	-24
38	85	-19
24	53	-18
5	12	-20
-16	-31	-19
-35	-71	-21
-51	-103	-24
-58	-120	-25
-59	-121	-27
-50	-105	-27
-36	-77	-22
-17	-36	-24
4	7	-25
22	49	-20
38	84	-24
48	105	-25
53	114	-23
49	103	-23
39	80	-21
22	43	-20
2	1	-18
-20	-41	-21
-38	-81	-23
-50	-106	-25
-56	-119	-26
-53	-113	-21
-44	-93	-22
-30	-59	-30
-12	-19	-25
9	26	-24
28	65	-24
42	96	-20
51	110	-23
51	112	-19
44	97	-16
30	69	-15
14	30	-17
-6	-13	-16
-24	-55	-17
-39	-93	-21
-49	-115	-21
-53	-123	-24
-51	-112	-25
-41	-87	-24
-24	-49	-23
-4	-6	-25
15	35	-24
32	72	-24
44	98	-22
50	110	-21
50	106	-20
40	88	-20
25	55	-21
7	14	-18
-13	-29	-16
-32	-70	-16
-46	-102	-23
-55	-118	-27
-55	-119	-23
-50	-103	-25
-37	-74	-22
-18	-34	-26
0	8	-25
19	48	-25
36	85	-25
48	106	-22
52	114	-21
48	106	-18
38	83	-21
23	45	-21
4	2	-21
-17	-42	-17
-34	-82	-9
-47	-108	-22
-52	-121	-42
-51	-116	-33
-43	-96	-28
-30	-62	-26
-13	-23	-21
6	18	-24
25	58	-22
41	91	-24
50	110	-19
53	115	-20
48	102	-19
34	74	-19
15	32	-24
-6	-13	-23
-26	-57	-23
-43	-94	-23
-52	-116	-24
-55	-122	-26
-52	-111	-29
-42	-86	-27
-28	-48	-25
-10	-7	-27
9	35	-27
27	74	-26
41	101	-27
49	115	-25
49	112	-21
40	93	-17
24	59	-13
5	17	-11
-15	-28	-15
-34	-69	-19
-47	-101	-22
-54	-119	-23
-56	-120	-22
-49	-104	-25
-36	-77	-25
-20	-37	-23
1	5	-25
20	47	-25
36	83	-23
46	106	-20
50	114	-19
46	105	-20
36	80	-18
20	41	-16
2	-1	-16
-17	-45	-19
-35	-83	-20
-48	-108	-23
-55	-121	-26
-54	-117	-27
-46	-99	-27
-30	-65	-26
-11	-24	-30
9	19	-28
27	59	-25
41	90	-25
49	110	-25
50	110	-21
46	98	-21
33	70	-21
18	31	-23
-2	-11	-21
-22	-54	-21
-39	-88	-25
-50	-111	-26
-54	-119	-28
-51	-110	-26
-40	-87	-26
-24	-51	-24
-5	-9	-22
15	34	-23
32	71	-20
44	100	-21
51	114	-21
49	110	-21
41	92	-20
27	59	-19
8	19	-19
-12	-26	-19
-31	-68	-20
-46	-99	-21
-56	-119	-24
-58	-120	-24
-52	-106	-26
-40	-76	-21
-20	-37	-21
0	6	-31
20	47	-26
36	81	-24
46	104	-23
49	112	-22
46	105	-22
36	84	-15
20	48	-18
3	7	-19
-17	-38	-10
-34	-79	-20
-47	-107	-35
-54	-120	-26
-54	-117	-18
-47	-99	-20
-33	-67	-25
-16	-28	-32
3	15	-26
22	54	-26
38	88	-21
48	109	-16
52	114	-19
47	103	-17
35	75	-18
18	35	-16
-3	-9	-15
-23	-51	-15
-40	-89	-22
-52	-113	-25
-55	-121	-26
-53	-114	-28
-41	-90	-28
-24	-55	-29
-6	-12	-27
13	31	-25
31	70	-25
44	99	-25
50	112	-22
50	110	-19
42	92	-18
29	61	-21
11	23	-19
-8	-19	-18
-28	-60	-19
-43	-94	-21
-52	-116	-24
-54	-120	-23
-48	-109	-25
-36	-81	-26
-19	-42	-24
1	3	-25
20	44	-24
36	81	-25
47	103	-23
51	111	-22
48	105	-20
39	83	-19
23	48	-18
3	7	-15
-18	-37	-14
-35	-76	-17
-48	-106	-22
-55	-120	-23
-55	-118	-24
-48	-99	-25
-35	-66	-24
-16	-28	-27
4	17	-27
23	55	-24
39	88	-21
48	106	-20
50	112	-19
45	102	-19
33	74	-18
16	37	-19
-3	-7	-20
-23	-50	-20
-38	-89	-23
-51	-112	-25
-56	-121	-24
-53	-114	-25
-43	-90	-24
-28	-55	-23
-7	-14	-23
11	28	-24
29	66	-22
41	95	-20
49	109	-16
49	109	-20
43	93	-27
31	65	-20
13	26	-20
-8	-19	-20
-28	-60	-22
-45	-95	-22
-56	-116	-23
-58	-120	-27
-53	-107	-27
-40	-80	-30
-22	-42	-24
-2	1	-20
18	41	-19
34	79	-19
46	103	-19
50	112	-18
47	106	-22
40	85	-19
24	51	-16
6	9	-16
-14	-34	-17
-32	-76	-18
-47	-105	-21
-55	-120	-27
-56	-120	-28
-49	-101	-30
-34	-70	-28
-16	-30	-27
4	13	-26
24	53	-24
40	86	-24
49	106	-23
52	112	-22
48	101	-21
36	78	-22
20	40	-20
0	-4	-18
-20	-47	-22
-38	-85	-22
-51	-110	-20
-56	-120	-22
-54	-113	-34
-44	-89	-31
-29	-55	-25
-10	-14	-30
10	28	-27
28	66	-25
41	94	-22
49	109	-20
49	109	-18
41	93	-19
31	64	-21
13	25	-19
-6	-18	-18
-26	-60	-19
-43	-95	-22
-54	-117	-24
-59	-124	-23
-52	-112	-23
-40	-86	-24
-21	-46	-24
-1	-2	-24
20	40	-21
36	77	-23
46	102	-22
50	113	-21
48	108	-22
40	89	-21
25	56	-21
8	15	-19
-13	-29	-19
-32	-71	-16
-47	-102	-20
-55	-119	-24
-56	-119	-25
-49	-100	-28
-35	-69	-26
-16	-29	-25
2	13	-27
21	53	-24
36	86	-24
46	106	-23
49	113	-23
46	103	-22
35	79	-18
19	41	-19
0	-1	-18
-22	-45	-21
-39	-85	-22
-52	-110	-24
-56	-122	-25
-54	-115	-26
-44	-94	-27
-30	-57	-25
-10	-16	-27
10	27	-27
29	67	-25
42	96	-22
50	110	-23
49	110	-18
42	95	-12
29	65	-19
12	26	-24
-8	-15	-20
-27	-57	-21
-43	-93	-23
-53	-116	-24
-56	-123	-28
-53	-113	-28
-42	-88	-27
-24	-49	-28
-3	-6	-27
18	37	-24
34	74	-23
46	99	-23
50	110	-22
49	106	-19
38	86	-18
24	54	-17
6	13	-17
-13	-29	-18
-30	-70	-20
-45	-100	-24
-54	-118	-25
-55	-119	-27
-48	-103	-28
-35	-72	-22
-17	-34	-25
4	8	-24
23	49	-20
39	84	-23
49	106	-23
52	111	-20
48	103	-15
36	79	-14
20	41	-12
0	-1	-17
-21	-44	-17
-39	-82	-19
-51	-108	-22
-56	-118	-23
-53	-113	-26
-44	-94	-25
-28	-60	-25
-10	-19	-24
9	25	-27
28	65	-27
42	96	-22
51	113	-21
52	115	-20
45	100	-16
32	70	-10
14	32	-13
-5	-12	-30
-24	-54	-28
-39	-89	-20
-50	-112	-30
-55	-119	-29
-53	-112	-27
-44	-87	-17
-28	-50	-18
-8	-9	-25
13	36	-25
32	74	-24
46	102	-18
53	113	-20
51	108	-18
42	89	-20
27	54	-20
8	15	-18
-12	-30	-20
-30	-69	-17
-46	-102	-19
-54	-120	-31
-56	-121	-30
-50	-105	-23
-37	-75	-27
-20	-36	-24
0	8	-26
17	51	-26
33	84	-26
42	106	-20
48	113	-18
44	103	-20
36	79	-16
21	42	-18
0	-1	-18
-20	-46	-19
-37	-83	-19
-50	-111	-23
-55	-121	-27
-54	-116	-26
-45	-96	-27
-30	-62	-27
-13	-22	-29
7	22	-27
26	62	-25
41	96	-23
50	113	-18
51	115	-20
44	102	-19
32	70	-18
13	32	-17
-6	-13	-16
-24	-54	-20
-40	-90	-23
-50	-114	-23
-54	-121	-24
-51	-114	-25
-42	-89	-26
-26	-52	-27
-6	-9	-27
15	34	-23
33	71	-24
48	99	-24
52	110	-17
52	108	-19
43	89	-18
30	58	-19
12	18	-19
-10	-26	-19
-29	-66	-24
-44	-100	-23
-53	-119	-30
-55	-122	-27
-50	-106	-23
-38	-77	-20
-21	-38	-24
-1	5	-26
18	47	-22
36	82	-17
46	106	-22
50	113	-32
49	106	-28
38	81	-23
21	45	-20
0	2	-18
-22	-42	-20
-40	-82	-23
-52	-110	-25
-58	-122	-27
-56	-117	-26
-48	-96	-22
-33	-62	-22
-14	-22	-18
6	21	-21
26	60	-31
40	91	-23
49	109	-21
51	113	-20
44	99	-14
31	71	-21
14	33	-18
-5	-12	-19
-24	-53	-20
-38	-89	-23
-50	-111	-25
-53	-119	-24
-50	-110	-27
-41	-86	-24
-26	-51	-22
-7	-9	-23
13	33	-24
29	69	-24
42	98	-23
48	110	-19
48	109	-17
40	90	-18
27	59	-17
10	19	-23
-10	-24	-24
-28	-64	-23
-43	-99	-24
-52	-117	-28
-54	-121	-27
-48	-107	-17
-36	-80	-23
-20	-39	-24
0	5	-25
18	45	-27
36	83	-26
48	106	-30
53	116	-21
51	108	-21
41	85	-22
24	48	-19
2	4	-19
-19	-39	-19
-38	-79	-22
-50	-106	-22
-56	-118	-26
-54	-116	-24
-46	-97	-24
-33	-66	-25
-16	-27	-22
4	15	-25
24	57	-23
40	91	-23
50	110	-19
51	115	-18
45	103	-18
31	74	-17
15	34	-17
-4	-9	-16
-23	-51	-20
-38	-90	-20
-50	-113	-22
-55	-122	-24
-52	-114	-25
-43	-92	-27
-27	-56	-27
-6	-13	-27
15	29	-30
32	68	-34
46	96	-21
51	110	-20
50	109	-23
42	92	-20
28	61	-19
11	20	-16
-10	-24	-20
-27	-65	-20
-42	-97	-23
-52	-116	-24
-54	-120	-23
-50	-105	-27
-38	-79	-24
-21	-40	-21
0	2	-23
18	43	-25
35	80	-26
46	103	-22
50	112	-20
46	105	-18
37	83	-16
21	47	-18
4	6	-18
-15	-37	-20
-32	-76	-19
-45	-104	-20
-54	-119	-20
-55	-117	-24
-48	-100	-32
-35	-68	-31
-16	-27	-30
5	16	-28
24	57	-23
38	88	-23
46	108	-21
46	112	-19
42	100	-16
32	75	-15
16	38	-19
-1	-4	-19
-21	-48	-14
-38	-86	-17
-51	-111	-20
-56	-122	-22
-54	-114	-23
-43	-89	-27
-27	-52	-33
-6	-11	-31
15	33	-26
32	70	-23
43	97	-18
49	110	-22
48	109	-24
42	93	-19
29	62	-19
12	22	-18
-8	-22	-20
-28	-65	-21
-45	-99	-22
-55	-120	-24
-59	-123	-25
-53	-110	-25
-40	-82	-26
-22	-43	-28
0	1	-27
18	43	-23
34	80	-20
44	104	-18
49	114	-16
47	106	-19
39	87	-18
24	51	-13
7	10	-15
-14	-35	-17
-33	-76	-19
-48	-106	-24
-55	-122	-27
-54	-120	-27
-47	-103	-25
-31	-70	-21
-14	-30	-25
8	14	-32
27	55	-24
40	88	-23
50	109	-24
51	113	-20
46	104	-19
34	77	-16
19	40	-24
-1	-2	-25
-21	-46	-25
-38	-84	-25
-49	-109	-26
-55	-119	-28
-52	-113	-26
-44	-94	-25
-29	-60	-31
-10	-19	-32
10	24	-28
28	64	-26
42	94	-27
49	110	-20
50	109	-13
42	93	-13
29	62	-14
13	25	-18
-7	-19	-20
-25	-57	-19
-42	-92	-19
-53	-114	-19
-58	-119	-23
-55	-110	-22
-43	-84	-25
-25	-44	-30
-5	-1	-29
16	43	-22
33	79	-20
44	103	-20
49	111	-21
46	105	-21
38	85	-16
24	52	-18
8	13	-19
-12	-30	-17
-29	-69	-21
-44	-102	-23
-54	-119	-25
-55	-118	-30
-49	-103	-29
-35	-71	-27
-17	-32	-28
4	11	-26
23	51	-25
36	85	-23
46	106	-19
49	112	-15
44	104	-17
33	80	-26
18	44	-23
-2	0	-19
-20	-45	-20
-38	-84	-17
-51	-112	-23
-57	-122	-23
-56	-116	-27
-45	-93	-27
-30	-57	-26
-9	-17	-28
11	26	-24
28	64	-23
42	93	-22
48	109	-23
48	110	-20
40	96	-19
28	66	-20
11	27	-20
-7	-17	-18
-26	-57	-20
-42	-94	-24
-52	-115	-24
-57	-121	-25
-53	-111	-25
-42	-85	-24
-24	-48	-24
-3	-4	-25
17	38	-23
34	76	-23
46	101	-21
52	112	-19
48	108	-23
40	88	-17
26	56	-20
8	15	-27
-12	-29	-22
-30	-68	-24
-44	-102	-24
-54	-120	-25
-54	-121	-30
-49	-105	-27
-35	-74	-30
-19	-34	-30
2	11	-24
22	51	-21
36	85	-19
47	106	-20
49	113	-20
46	104	-18
35	80	-15
21	45	-16
1	2	-14
-18	-41	-18
-35	-81	-20
-49	-109	-24
-56	-121	-26
-55	-118	-25
-47	-98	-26
-32	-64	-26
-12	-23	-25
8	21	-24
26	61	-23
41	92	-20
48	109	-18
50	112	-17
44	96	-16
33	68	-21
16	29	-17
-5	-15	-18
-24	-56	-24
-42	-92	-22
-54	-114	-21
-57	-122	-27
-53	-113	-33
-41	-88	-31
-24	-53	-30
-5	-10	-28
15	33	-24
33	72	-22
44	99	-20
51	111	-22
50	108	-17
42	89	-17
27	58	-18
9	18	-17
-11	-25	-17
-29	-65	-20
-42	-98	-24
-52	-116	-22
-52	-119	-23
-47	-103	-24
-34	-74	-22
-17	-33	-25
2	10	-23
22	49	-24
37	84	-23
48	104	-20
49	111	-21
45	103	-21
35	81	-19
20	47	-22
2	5	-22
-17	-39	-19
-34	-79	-24
-48	-108	-28
-56	-122	-24
-57	-118	-30
-49	-98	-28
-34	-65	-27
-13	-23	-28
8	19	-24
28	60	-21
42	91	-18
49	109	-20
49	112	-20
42	99	-18
31	71	-16
14	31	-15
-5	-13	-16
-24	-56	-20
-40	-92	-27
-51	-114	-27
-54	-122	-21
-50	-113	-23
-39	-89	-28
-23	-51	-23
-3	-8	-24
16	35	-26
32	75	-23
44	101	-24
52	113	-20
51	109	-19
42	91	-18
28	58	-16
11	17	-17
-11	-27	-16
-30	-69	-20
-44	-101	-21
-54	-119	-25
-56	-120	-27
-50	-105	-23
-37	-78	-21
-20	-37	-27
1	5	-30
20	46	-28
37	81	-26
48	103	-24
51	111	-23
48	102	-21
36	80	-19
21	45	-19
1	5	-19
-18	-39	-19
-35	-78	-20
-49	-106	-23
-55	-119	-23
-55	-116	-26
-46	-96	-30
-31	-62	-28
-12	-21	-27
7	24	-26
25	63	-25
40	95	-20
48	112	-21
50	115	-18
44	102	-16
34	75	-21
17	35	-21
-2	-8	-11
-22	-53	-18
-40	-89	-26
-52	-114	-21
-59	-123	-25
-55	-113	-25
-44	-90	-29
-28	-53	-31
-7	-11	-28
13	32	-26
31	68	-24
44	95	-27
50	109	-27
49	106	-22
41	89	-19
27	59	-20
10	20	-18
-10	-24	-17
-28	-64	-19
-42	-97	-22
-52	-117	-24
-54	-119	-27
-49	-108	-27
-38	-81	-27
-21	-40	-30
-1	2	-22
19	43	-18
35	80	-21
48	104	-21
51	113	-21
48	106	-18
36	87	-20
21	51	-22
1	10	-17
-18	-36	-16
-36	-77	-20
-50	-107	-25
-55	-121	-22
-55	-118	-25
-47	-99	-20
-35	-66	-21
-16	-25	-31
4	17	-24
24	57	-23
40	89	-24
49	106	-22
50	110	-21
43	98	-21
31	70	-22
13	34	-17
-4	-8	-20
-22	-49	-20
-38	-86	-21
-49	-111	-24
-54	-118	-25
-53	-113	-28
-44	-90	-27
-27	-54	-24
-7	-13	-24
14	30	-23
32	69	-21
46	98	-19
52	112	-20
49	110	-18
41	93	-17
28	61	-16
12	23	-14
-8	-21	-17
-27	-61	-21
-43	-95	-21
-54	-115	-20
-56	-119	-23
-50	-108	-34
-37	-80	-34
-19	-42	-30
0	1	-28
18	42	-25
34	77	-24
44	102	-24
50	109	-24
49	104	-20
42	83	-20
27	51	-23
6	10	-21
-15	-33	-22
-35	-75	-18
-50	-105	-18
-56	-121	-21
-56	-119	-24
-47	-100	-24
-33	-66	-24
-14	-26	-25
4	18	-26
23	58	-25
39	91	-21
49	109	-18
52	113	-18
46	103	-22
34	76	-17
18	39	-17
-2	-6	-20
-21	-49	-21
-38	-88	-21
-50	-113	-20
-55	-122	-27
-53	-116	-29
-46	-92	-30
-29	-57	-30
-11	-15	-26
10	28	-23
28	65	-25
42	93	-25
50	108	-21
48	108	-27
43	92	-21
31	62	-16
14	23	-19
-6	-21	-16
-26	-62	-21
-43	-97	-20
-53	-116	-21
-56	-120	-24
-50	-106	-27
-37	-79	-28
-20	-41	-26
0	2	-25
17	41	-21
33	79	-20
44	103	-22
50	113	-20
49	108	-18
40	87	-17
25	53	-17
5	9	-19
-16	-34	-20
-35	-75	-21
-48	-106	-23
-55	-120	-23
-55	-120	-25
-47	-102	-27
-36	-72	-27
-18	-32	-24
2	11	-24
21	51	-23
37	85	-20
48	106	-20
51	112	-19
45	101	-19
34	77	-19
18	40	-22
-1	-3	-22
-20	-45	-20
-37	-84	-25
-51	-108	-30
-57	-121	-27
-54	-116	-25
-46	-93	-19
-30	-59	-21
-10	-16	-29
11	27	-25
30	67	-23
42	97	-23
49	112	-20
49	112	-17
42	95	-17
30	64	-19
14	25	-18
-5	-17	-16
-24	-58	-20
-40	-94	-21
-51	-115	-25
-55	-122	-25
-52	-111	-27
-41	-86	-26
-24	-47	-25
-3	-4	-26
16	37	-21
33	76	-21
44	101	-19
50	113	-15
48	108	-19
40	89	-22
27	56	-20
7	13	-16
-13	-32	-19
-33	-74	-24
-48	-103	-24
-56	-120	-27
-57	-118	-30
-49	-101	-32
-35	-70	-28
-16	-31	-24
3	11	-26
22	51	-26
37	85	-22
48	106	-22
52	113	-19
48	104	-16
38	80	-17
19	43	-17
-1	1	-13
-22	-43	-14
-40	-83	-22
-52	-110	-25
-58	-122	-25
-55	-117	-25
-46	-98	-27
-30	-62	-27
-12	-20	-28
9	24	-24
28	64	-24
42	96	-23
50	114	-23
51	114	-18
44	101	-18
32	72	-21
15	34	-19
-5	-10	-19
-24	-53	-20
-42	-90	-25
-54	-113	-25
-58	-121	-24
-55	-111	-26
-44	-87	-24
-27	-48	-19
-5	-5	-17
16	38	-30
33	77	-33
44	103	-25
50	114	-23
49	108	-17
39	88	-22
24	53	-22
6	11	-16
-13	-33	-21
-32	-75	-17
-47	-105	-23
-55	-121	-28
-55	-120	-31
-48	-105	-26
-35	-74	-18
-18	-35	-21
2	8	-21
22	50	-23
37	85	-24
49	108	-24
54	115	-21
49	106	-19
39	82	-20
21	43	-18
2	1	-18
-18	-43	-21
-35	-81	-23
-47	-107	-27
-53	-119	-29
-51	-114	-30
-44	-95	-27
-30	-62	-27
-13	-23	-28
7	20	-26
27	60	-24
42	90	-24
51	106	-22
52	108	-21
46	96	-17
32	66	-17
15	28	-18
-6	-15	-17
-24	-57	-16
-39	-92	-17
-50	-115	-24
-55	-121	-22
-52	-112	-25
-42	-87	-27
-25	-49	-26
-6	-9	-26
15	34	-24
33	71	-22
44	98	-19
50	110	-24
50	106	-22
41	91	-19
28	59	-19
9	20	-19
-10	-23	-19
-31	-65	-19
-47	-99	-21
-56	-117	-22
-58	-119	-21
-50	-104	-25
-36	-72	-32
-18	-34	-27
2	10	-26
20	50	-27
34	84	-21
44	105	-18
48	110	-14
46	104	-16
37	82	-21
22	46	-21
3	6	-23
-18	-40	-23
-35	-81	-22
-48	-110	-23
-55	-122	-23
-55	-120	-28
-47	-100	-27
-31	-65	-24
-12	-25	-27
10	18	-27
29	58	-23
42	90	-18
50	108	-18
50	109	-15
44	98	-16
31	70	-20
15	33	-19
-4	-9	-19
-22	-51	-19
-39	-88	-21
-52	-113	-23
-56	-121	-25
-53	-113	-27
-42	-89	-28
-26	-52	-28
-5	-9	-24
14	34	-27
31	70	-28
43	98	-21
50	110	-23
50	109	-18
42	92	-16
30	60	-21
10	20	-19
-10	-24	-20
-31	-64	-21
-47	-99	-22
-56	-117	-23
-57	-119	-27
-50	-106	-27
-37	-78	-27
-18	-39	-30
1	4	-25
21	45	-23
36	81	-22
46	105	-16
50	113	-16
46	106	-20
36	82	-20
21	47	-21
2	4	-20
-19	-38	-18
-37	-78	-19
-50	-107	-19
-58	-121	-26
-58	-119	-27
-50	-100	-28
-34	-68	-26
-16	-27	-25
5	19	-25
24	58	-24
39	90	-23
48	109	-21
50	113	-22
46	99	-18
35	72	-18
18	36	-18
-1	-6	-17
-21	-47	-20
-39	-86	-22
-51	-109	-27
-56	-120	-28
-54	-113	-24
-43	-89	-25
-27	-52	-30
-6	-9	-31
14	33	-27
32	70	-26
44	97	-19
51	110	-19
51	106	-23
42	90	-18
30	59	-19
12	20	-17
-7	-23	-18
-28	-63	-30
-43	-97	-25
-53	-117	-24
-56	-121	-21
-51	-108	-18
-39	-82	-18
-22	-43	-21
-1	1	-27
19	42	-25
34	79	-26
45	102	-26
47	112	-21
44	105	-15
34	81	-19
19	47	-18
2	4	-21
-17	-38	-24
-33	-77	-22
-46	-104	-20
-55	-118	-23
-55	-116	-27
-49	-99	-28
-36	-69	-27
-17	-28	-26
6	15	-28
25	57	-25
41	90	-23
50	110	-18
51	113	-16
44	100	-18
32	74	-18
17	35	-21
-1	-6	-21
-20	-48	-21
-36	-85	-21
-48	-110	-23
-54	-121	-24
-52	-114	-25
-43	-92	-27
-28	-57	-25
-8	-16	-29
12	27	-26
29	67	-22
42	96	-24
48	112	-23
49	110	-18
42	95	-17
30	63	-17
12	23	-18
-8	-21	-18
-29	-63	-19
-45	-96	-18
-55	-115	-23
-56	-119	-26
-51	-106	-30
-39	-80	-32
-21	-41	-27
-3	1	-28
17	41	-25
33	77	-25
46	100	-21
52	111	-15
50	106	-18
41	86	-20
26	52	-18
5	12	-16
-14	-32	-21
-33	-75	-21
-48	-105	-22
-56	-121	-24
-56	-120	-25
-48	-102	-25
-34	-69	-25
-14	-28	-27
8	16	-27
27	56	-25
41	89	-19
49	109	-17
50	114	-15
45	102	-16
35	77	-18
20	41	-18
2	-1	-18
-17	-45	-23
-36	-83	-27
-50	-108	-26
-55	-121	-24
-53	-114	-26
-44	-94	-27
-28	-59	-24
-8	-19	-25
10	25	-25
27	63	-25
39	92	-21
47	109	-16
47	107	-24
42	94	-22
30	63	-16
13	24	-15
-7	-18	-15
-27	-61	-20
-43	-94	-24
-53	-116	-27
-56	-121	-27
-52	-108	-32
-41	-84	-25
-24	-45	-21
-4	-2	-30
16	39	-28
33	75	-24
46	101	-23
53	112	-19
51	106	-17
40	88	-17
24	52	-16
5	12	-16
-17	-33	-16
-34	-72	-19
-48	-102	-22
-54	-117	-24
-56	-116	-23
-49	-99	-24
-36	-69	-30
-19	-31	-27
3	11	-25
23	53	-22
39	86	-23
49	107	-24
52	113	-20
48	103	-19
36	78	-17
20	40	-15
1	-2	-15
-18	-45	-18
-37	-82	-23
-50	-109	-21
-57	-120	-24
-55	-116	-25
-46	-95	-24
-30	-59	-25
-10	-18	-25
10	26	-24
28	66	-24
41	97	-24
48	110	-20
47	111	-19
41	96	-19
29	66	-19
12	28	-22
-6	-17	-23
-26	-59	-23
-42	-94	-22
-53	-117	-21
-57	-122	-17
-52	-113	-21
-42	-86	-23
-24	-48	-24
-6	-5	-23
16	38	-27
33	76	-28
45	101	-25
51	110	-24
49	106	-21
39	88	-22
24	54	-22
7	14	-19
-14	-29	-21
-31	-68	-23
-46	-101	-22
-53	-119	-23
-55	-119	-27
-48	-104	-27
-34	-74	-26
-16	-34	-27
5	10	-26
24	50	-23
40	85	-23
46	105	-21
50	110	-19
45	102	-14
34	77	-12
19	42	-26
0	2	-25
-19	-41	-18
-37	-80	-23
-50	-108	-20
-58	-120	-24
-56	-117	-26
-48	-96	-25
-31	-60	-19
-11	-20	-19
10	25	-30
31	64	-23
44	96	-23
51	110	-21
51	111	-20
44	97	-17
31	66	-21
16	28	-26
-3	-16	-20
-24	-57	-25
-40	-94	-25
-53	-116	-26
-58	-122	-30
-54	-113	-30
-42	-88	-29
-23	-50	-24
-3	-6	-27
18	37	-27
35	74	-26
48	101	-24
51	112	-21
48	110	-19
40	91	-18
26	59	-17
10	17	-16
-10	-28	-19
-28	-68	-21
-44	-101	-23
-52	-118	-27
-55	-121	-33
-49	-104	-28
-37	-75	-22
-20	-36	-22
1	7	-24
20	47	-25
36	84	-25
46	105	-22
51	113	-19
46	104	-19
36	80	-17
19	43	-16
0	1	-18
-20	-41	-18
-37	-80	-21
-50	-107	-21
-56	-119	-22
-55	-114	-24
-48	-94	-24
-32	-62	-25
-14	-21	-25
6	20	-23
26	60	-20
40	92	-18
49	109	-18
51	112	-21
44	98	-19
33	70	-17
16	31	-18
-2	-12	-19
-23	-53	-20
-40	-89	-21
-52	-111	-22
-57	-120	-22
-53	-112	-24
-42	-87	-27
-26	-53	-30
-6	-11	-30
15	32	-26
31	69	-24
44	97	-24
48	111	-19
48	109	-18
40	89	-20
26	59	-20
8	18	-21
-12	-24	-19
-30	-66	-20
-46	-99	-20
-54	-117	-21
-57	-121	-25
-51	-106	-25
-38	-77	-26
-20	-37	-28
1	6	-25
19	47	-25
35	82	-27
46	105	-21
50	114	-19
46	106	-20
37	83	-16
21	48	-19
2	5	-21
-18	-38	-22
-35	-79	-23
-48	-106	-23
-56	-119	-21
-56	-115	-19
-48	-95	-22
-32	-63	-23
-12	-23	-26
10	19	-25
29	59	-21
43	90	-20
51	108	-26
50	112	-26
44	97	-23
29	68	-23
12	30	-9
-5	-12	-12
-24	-55	-19
-39	-90	-19
-51	-113	-23
-54	-122	-23
-52	-112	-30
-42	-90	-28
-26	-51	-29
-6	-8	-29
16	32	-26
32	70	-25
44	97	-21
50	109	-21
49	106	-18
41	90	-20
27	59	-20
10	19	-17
-10	-23	-19
-28	-65	-19
-43	-98	-21
-53	-118	-23
-55	-119	-26
-49	-104	-27
-36	-77	-25
-20	-37	-25
1	6	-25
20	46	-28
37	81	-29
48	104	-25
52	113	-23
49	106	-20
39	84	-21
23	47	-19
4	5	-20
-15	-39	-19
-33	-78	-22
-47	-106	-23
-54	-119	-21
-53	-116	-23
-46	-98	-24
-32	-66	-28
-13	-25	-25
7	15	-25
25	57	-24
38	88	-21
46	108	-23
47	112	-21
42	100	-18
31	75	-19
15	37	-20
-4	-5	-16
-23	-48	-16
-40	-85	-18
-53	-111	-18
-57	-121	-27
-55	-112	-30
-46	-92	-31
-30	-55	-30
-11	-15	-28
11	28	-25
29	66	-19
43	94	-20
51	109	-21
51	108	-21
44	94	-20
29	63	-19
10	26	-19
-10	-18	-19
-29	-60	-21
-44	-95	-24
-53	-117	-26
-55	-120	-25
-50	-108	-25
-38	-80	-26
-21	-40	-24
-3	2	-25
17	43	-21
33	79	-23
44	102	-23
50	110	-15
48	105	-16
39	84	-22
24	49	-21
5	9	-16
-16	-35	-18
-36	-74	-19
-50	-105	-21
-57	-120	-23
-56	-119	-27
-48	-103	-28
-32	-69	-24
-14	-30	-23
7	15	-20
27	56	-19
41	89	-21
50	110	-24
52	114	-23
46	104	-19
35	77	-18
18	39	-21
-2	-4	-27
-22	-51	-20
-38	-89	-24
-51	-115	-24
-55	-123	-26
-52	-116	-29
-43	-93	-24
-26	-57	-30
-7	-16	-25
13	27	-22
30	64	-23
45	94	-22
51	110	-21
51	110	-18
42	95	-19
30	63	-18
12	24	-16
-7	-20	-20
-25	-61	-26
-42	-96	-30
-53	-117	-28
-56	-121	-25
-51	-109	-26
-40	-82	-26
-23	-44	-29
-3	0	-30
18	43	-27
34	78	-23
44	103	-20
49	112	-20
46	106	-17
38	85	-18
24	52	-16
6	13	-17
-14	-30	-18
-32	-69	-17
-46	-101	-19
-55	-118	-21
-55	-119	-24
-49	-102	-26
-36	-70	-25
-19	-32	-28
3	12	-27
22	51	-24
37	84	-23
48	104	-23
49	110	-23
46	101	-20
35	77	-20
19	41	-14
1	-1	-14
-19	-44	-19
-36	-81	-25
-48	-109	-32
-54	-120	-27
-53	-116	-26
-44	-95	-27
-28	-61	-24
-9	-21	-23
10	24	-18
27	63	-15
40	95	-22
47	110	-25
48	113	-16
42	97	-21
29	67	-25
12	27	-17
-8	-18	-18
-29	-60	-19
-45	-96	-19
-55	-116	-20
-57	-121	-26
-52	-109	-28
-39	-82	-28
-22	-45	-27
-3	-2	-28
16	39	-28
31	76	-23
42	100	-24
50	110	-18
49	106	-19
41	88	-20
27	56	-20
8	14	-23
-13	-29	-19
-32	-71	-23
-48	-103	-25
-56	-120	-23
-56	-121	-25
-49	-102	-25
-35	-72	-24
-18	-31	-24
2	12	-25
21	51	-26
36	87	-23
46	107	-21
48	114	-22
44	103	-16
34	78	-18
18	41	-19
0	-1	-18
-20	-44	-20
-36	-83	-20
-49	-108	-23
-55	-120	-27
-54	-115	-28
-45	-95	-30
-30	-61	-25
-11	-20	-25
11	24	-26
29	64	-24
44	97	-20
51	113	-18
52	113	-18
44	98	-26
32	68	-25
13	30	-19
-6	-14	-18
-27	-56	-19
-43	-94	-21
-54	-116	-21
-56	-124	-23
-51	-113	-23
-40	-87	-22
-23	-48	-23
-3	-4	-24
16	38	-26
34	76	-23
44	101	-21
52	114	-19
49	110	-20
42	91	-19
27	58	-20
9	17	-22
-12	-28	-19
-30	-69	-23
-44	-102	-21
-53	-120	-21
-54	-121	-24
-48	-105	-24
-35	-76	-26
-17	-36	-28
4	6	-27
23	47	-26
38	83	-22
49	105	-15
52	114	-12
50	105	-11
40	84	-17
24	47	-19
4	5	-26
-16	-38	-24
-34	-78	-21
-49	-106	-26
-56	-121	-23
-56	-117	-27
-47	-99	-25
-32	-64	-25
-12	-23	-27
9	21	-25
28	62	-25
42	92	-25
50	109	-24
49	109	-19
42	94	-19
30	66	-19
13	27	-19
-6	-15	-20
-25	-56	-22
-42	-92	-23
-53	-114	-23
-58	-122	-25
-54	-111	-27
-43	-87	-30
-27	-48	-30
-6	-6	-27
13	35	-22
30	70	-25
41	95	-23
46	108	-22
45	105	-21
39	89	-20
26	56	-21
9	18	-19
-12	-27	-19
-31	-69	-21
-45	-102	-23
-56	-120	-23
-58	-120	-27
-52	-105	-28
-38	-77	-26
-20	-37	-27
1	6	-23
19	47	-21
35	82	-22
46	105	-21
50	114	-19
47	106	-17
38	83	-16
23	47	-13
3	6	-16
-16	-37	-20
-35	-75	-18
-48	-102	-18
-54	-116	-26
-53	-114	-35
-44	-96	-32
-31	-62	-30
-11	-23	-26
8	20	-24
25	60	-24
41	91	-23
48	109	-24
51	112	-21
45	100	-19
33	74	-18
16	36	-20
-3	-7	-21
-23	-50	-20
-38	-88	-23
-50	-114	-23
-55	-121	-25
-51	-114	-25
-42	-89	-27
-26	-52	-29
-7	-11	-30
13	32	-30
31	68	-21
44	97	-20
51	110	-19
50	107	-19
42	90	-15
28	59	-16
10	20	-19
-10	-24	-20
-28	-64	-27
-43	-97	-26
-53	-119	-22
-55	-123	-19
-52	-113	-16
-39	-85	-20
-22	-45	-24
-1	1	-23
20	45	-17
38	82	-26
50	106	-31
52	115	-24
49	106	-22
36	82	-16
21	45	-16
2	4	-18
-16	-40	-18
-34	-80	-22
-46	-108	-23
-54	-121	-21
-55	-118	-24
-48	-98	-24
-34	-64	-22
-16	-24	-24
5	19	-24
25	59	-21
40	92	-20
49	110	-21
52	113	-22
45	102	-22
34	75	-23
16	35	-21
-3	-9	-17
-23	-52	-19
-40	-89	-23
-50	-114	-25
-55	-120	-25
-52	-112	-28
-42	-88	-28
-28	-53	-30
-8	-11	-30
13	31	-22
30	68	-24
44	97	-22
50	110	-20
49	108	-19
40	92	-17
26	60	-15
9	22	-14
-11	-21	-15
-28	-61	-19
-42	-96	-21
-53	-115	-23
-54	-120	-26
-49	-108	-23
-37	-81	-24
-21	-42	-27
0	1	-27
20	43	-26
36	80	-27
48	105	-25
52	114	-21
49	108	-19
38	86	-19
23	51	-20
3	7	-19
-16	-36	-20
-33	-76	-20
-48	-106	-20
-55	-121	-22
-55	-118	-25
-47	-99	-26
-34	-68	-24
-15	-29	-28
4	15	-28
23	54	-24
37	88	-23
46	106	-24
48	109	-20
42	97	-17
30	69	-19
14	33	-18
-4	-9	-18
-22	-49	-21
-39	-86	-21
-50	-109	-22
-55	-119	-25
-52	-114	-28
-44	-92	-26
-28	-57	-27
-8	-15	-28
13	29	-25
30	67	-25
44	97	-21
51	110	-21
51	110	-20
45	95	-21
30	66	-23
14	26	-19
-8	-17	-19
-27	-59	-20
-43	-96	-22
-53	-116	-21
-55	-121	-24
-51	-107	-26
-38	-80	-25
-20	-42	-27
1	0	-24
20	41	-24
36	76	-24
46	101	-23
51	110	-18
48	106	-17
39	86	-17
24	53	-18
5	10	-17
-14	-33	-17
-33	-74	-20
-48	-104	-24
-55	-118	-25
-56	-118	-27
-49	-100	-30
-35	-69	-27
-16	-31	-30
4	12	-33
24	53	-21
39	88	-10
48	108	-16
51	113	-23
44	102	-18
33	77	-18
16	39	-16
-3	-3	-13
-23	-45	-17
-42	-85	-19
-54	-110	-23
-59	-121	-24
-55	-113	-27
-44	-91	-27
-27	-56	-24
-8	-14	-29
11	28	-32
28	66	-32
40	93	-30
47	108	-23
46	108	-21
41	92	-19
29	64	-18
13	25	-17
-7	-17	-20
-26	-60	-23
-42	-94	-20
-51	-116	-23
-53	-122	-25
-49	-111	-26
-38	-86	-27
-21	-45	-27
0	-2	-27
18	41	-26
35	79	-24
46	104	-22
52	114	-14
49	106	-11
39	88	-21
25	53	-29
8	13	-24
-13	-30	-18
-32	-72	-20
-48	-104	-24
-57	-124	-26
-58	-123	-30
-51	-107	-34
-36	-75	-31
-18	-33	-24
4	11	-19
23	51	-17
38	85	-22
48	105	-23
52	112	-20
48	103	-15
38	81	-17
22	43	-18
2	2	-18
-19	-43	-18
-37	-82	-22
-50	-109	-23
-56	-121	-25
-54	-115	-27
-44	-94	-25
-29	-57	-25
-12	-17	-24
8	25	-23
24	64	-22
40	94	-19
48	110	-19
49	111	-20
44	97	-18
29	66	-16
11	27	-18
-8	-16	-18
-26	-58	-19
-42	-92	-20
-51	-113	-22
-55	-119	-26
-51	-108	-25
-40	-84	-27
-26	-46	-24
-5	-4	-21
14	39	-25
33	76	-21
44	101	-22
51	112	-21
50	106	-20
41	87	-20
26	53	-20
8	13	-19
-13	-30	-19
-32	-70	-23
-48	-101	-22
-56	-120	-24
-58	-119	-27
-49	-104	-25
-36	-72	-22
-17	-32	-19
3	11	-30
22	52	-27
38	85	-24
46	106	-27
50	113	-25
45	103	-24
35	78	-20
18	41	-21
-1	-2	-21
-22	-47	-22
-39	-83	-21
-50	-109	-20
-55	-118	-24
-53	-113	-26
-46	-94	-26
-31	-61	-26
-12	-22	-26
8	21	-25
26	60	-24
42	92	-21
49	110	-19
51	112	-19
44	98	-18
31	68	-20
14	30	-20
-6	-14	-19
-23	-55	-21
-40	-90	-21
-51	-113	-22
-56	-119	-24
-53	-111	-27
-43	-86	-28
-26	-48	-27
-4	-5	-30
17	39	-30
35	75	-27
46	103	-25
52	113	-22
50	110	-17
41	90	-18
27	57	-21
9	17	-17
-11	-27	-20
-31	-67	-20
-46	-101	-20
-56	-119	-21
-57	-121	-20
-49	-107	-25
-34	-78	-24
-15	-38	-22
5	6	-22
23	48	-23
37	83	-24
46	105	-23
49	110	-20
46	102	-13
37	77	-14
22	41	-19
4	1	-21
-16	-42	-21
-34	-79	-22
-48	-108	-25
-54	-120	-26
-54	-118	-26
-46	-98	-28
-32	-64	-26
-14	-23	-27
7	21	-28
26	61	-28
40	94	-25
48	110	-23
49	114	-21
44	101	-19
31	72	-18
14	35	-18
-5	-10	-17
-24	-52	-19
-41	-90	-22
-52	-114	-24
-58	-122	-25
-55	-114	-25
-45	-89	-24
-28	-52	-25
-8	-9	-27
13	33	-28
30	71	-22
42	99	-21
49	112	-20
48	110	-18
40	91	-19
27	59	-18
9	20	-16
-12	-25	-16
-30	-64	-21
-45	-98	-23
-54	-117	-27
-54	-120	-30
-47	-106	-28
-34	-78	-28
-18	-39	-27
2	4	-26
20	45	-26
36	81	-24
47	104	-23
52	111	-20
49	104	-19
38	81	-18
21	45	-18
2	3	-17
-18	-40	-17
-34	-80	-19
-47	-107	-20
-53	-119	-22
-53	-117	-21
-45	-97	-19
-31	-65	-18
-14	-24	-30
7	19	-36
25	60	-25
40	93	-30
48	111	-23
50	113	-18
44	98	-15
32	69	-17
16	32	-22
-3	-11	-17
-21	-51	-17
-38	-86	-14
-48	-110	-19
-54	-120	-24
-51	-114	-25
-42	-92	-22
-28	-56	-25
-9	-12	-26
11	33	-24
30	72	-24
42	99	-23
50	112	-25
49	108	-22
41	89	-19
28	59	-19
10	21	-23
-8	-21	-21
-28	-61	-21
-44	-96	-22
-54	-117	-21
-58	-122	-24
-52	-108	-25
-39	-80	-26
-21	-38	-28
0	6	-30
19	46	-26
35	82	-23
46	103	-23
49	110	-21
46	104	-18
36	83	-17
22	50	-18
4	9	-18
-16	-35	-19
-34	-76	-21
-48	-105	-24
-56	-120	-25
-56	-118	-27
-47	-99	-27
-32	-67	-25
-14	-26	-26
5	16	-26
23	56	-24
37	88	-23
46	106	-22
49	111	-20
44	99	-20
33	72	-19
18	35	-17
-2	-6	-17
-21	-50	-17
-38	-87	-20
-50	-112	-24
-55	-122	-24
-53	-115	-26
-44	-92	-28
-29	-54	-27
-8	-13	-28
12	29	-27
30	67	-22
44	96	-23
50	110	-21
50	108	-19
42	93	-20
29	64	-20
12	24	-20
-7	-19	-19
-28	-60	-21
-43	-94	-19
-54	-115	-20
-56	-119	-24
-51	-107	-23
-39	-81	-23
-21	-43	-24
0	0	-30
19	42	-26
36	78	-17
46	102	-20
51	112	-16
49	105	-16
41	84	-20
26	47	-20
7	7	-18
-15	-36	-20
-34	-77	-23
-48	-106	-19
-55	-122	-22
-55	-119	-23
-48	-103	-25
-34	-70	-25
-18	-30	-24
2	13	-26
21	53	-26
38	87	-22
48	109	-22
52	113	-20
48	104	-17
35	80	-21
18	41	-23
-3	0	-25
-22	-45	-24
-38	-84	-21
-49	-111	-23
-55	-121	-23
-52	-116	-24
-43	-96	-27
-28	-60	-25
-9	-19	-26
11	25	-23
29	64	-20
43	95	-23
50	112	-25
50	111	-20
42	95	-14
30	64	-21
12	24	-25
-6	-18	-19
-25	-60	-22
-42	-93	-22
-53	-115	-19
-58	-120	-27
-53	-110	-33
-42	-82	-32
-24	-43	-30
-4	-1	-26
14	41	-27
31	77	-26
42	101	-22
48	110	-20
46	106	-19
39	88	-19
25	55	-19
8	15	-17
-12	-29	-19
-30	-70	-19
-45	-104	-18
-54	-121	-20
-56	-120	-21
-47	-103	-23
-33	-70	-25
-16	-31	-26
5	13	-26
23	53	-27
38	85	-28
48	106	-24
50	113	-20
45	104	-19
34	78	-17
18	40	-19
-2	-3	-17
-21	-47	-17
-38	-85	-21
-51	-110	-24
-56	-119	-24
-55	-116	-24
-46	-94	-24
-31	-61	-24
-12	-21	-26
9	23	-25
28	62	-25
42	93	-24
50	110	-21
52	110	-20
46	97	-20
34	66	-22
17	28	-23
-3	-15	-16
-24	-56	-11
-40	-93	-16
-52	-115	-24
-55	-121	-30
-52	-111	-29
-41	-84	-27
-24	-46	-25
-6	-3	-25
13	39	-23
30	75	-23
42	101	-24
49	110	-24
48	106	-22
40	89	-18
26	57	-19
7	17	-19
-14	-28	-19
-32	-69	-22
-46	-103	-20
-54	-119	-21
-53	-119	-23
-46	-103	-24
-32	-71	-24
-14	-33	-32
6	10	-31
23	50	-30
39	84	-27
47	106	-23
49	112	-24
44	103	-20
34	78	-16
19	41	-18
0	-1	-16
-19	-43	-18
-36	-82	-21
-49	-108	-24
-56	-119	-26
-55	-117	-26
-45	-96	-26
-30	-64	-26
-10	-21	-25
10	24	-22
29	64	-24
42	95	-23
50	110	-21
49	112	-19
43	97	-15
30	68	-14
13	31	-22
-6	-13	-23
-25	-53	-18
-41	-91	-23
-52	-113	-23
-56	-121	-26
-52	-111	-25
-43	-86	-26
-26	-48	-26
-6	-5	-24
15	36	-25
33	74	-23
46	99	-27
52	112	-22
49	109	-17
38	90	-18
24	57	-17
6	15	-19
-14	-30	-21
-32	-71	-20
-46	-104	-22
-53	-121	-32
-56	-121	-38
-49	-105	-30
-36	-76	-17
-20	-37	-18
1	6	-19
20	47	-20
35	83	-21
45	106	-17
50	115	-19
46	106	-20
36	84	-20
22	47	-18
3	2	-15
-18	-43	-17
-37	-84	-21
-50	-111	-25
-56	-123	-25
-54	-118	-27
-44	-96	-26
-30	-63	-28
-12	-22	-25
7	20	-25
27	61	-23
42	92	-23
52	110	-25
53	113	-22
46	99	-21
33	72	-14
13	33	-15
-6	-11	-19
-26	-53	-17
-40	-90	-24
-51	-113	-25
-54	-121	-25
-52	-111	-28
-43	-86	-26
-26	-48	-26
-7	-6	-22
14	36	-22
33	74	-24
45	101	-23
51	113	-25
50	110	-22
40	92	-22
25	60	-22
7	17	-19
-13	-27	-18
-31	-68	-19
-46	-100	-22
-56	-118	-23
-57	-120	-24
-49	-104	-26
-36	-77	-26
-20	-38	-25
1	4	-28
18	44	-26
35	80	-21
45	104	-19
50	113	-17
48	105	-18
37	84	-21
22	46	-22
2	3	-20
-18	-40	-15
-36	-81	-21
-48	-108	-31
-54	-121	-26
-53	-117	-26
-46	-98	-27
-33	-65	-24
-16	-25	-25
3	17	-21
22	58	-19
36	89	-21
48	110	-21
51	113	-21
46	101	-19
34	75	-19
16	35	-19
-4	-9	-19
-23	-53	-22
-39	-89	-21
-50	-112	-23
-54	-121	-25
-52	-110	-25
-42	-88	-28
-28	-51	-30
-8	-11	-27
13	31	-22
31	67	-19
46	94	-19
52	106	-19
52	105	-18
42	90	-18
29	60	-20
11	23	-18
-9	-19	-18
-27	-61	-21
-43	-94	-23
-53	-116	-24
-55	-119	-25
-52	-106	-25
-40	-78	-30
-22	-39	-32
-1	1	-31
18	43	-24
36	77	-21
46	101	-21
51	110	-16
48	105	-16
37	84	-17
22	49	-18
4	8	-18
-17	-36	-19
-35	-75	-20
-48	-104	-25
-55	-119	-25
-55	-117	-26
-48	-100	-28
-34	-67	-27
-15	-27	-30
5	16	-27
25	57	-25
40	89	-25
50	108	-22
54	111	-20
49	100	-14
36	72	-19
20	35	-26
1	-6	-19
-21	-48	-21
-38	-85	-25
-52	-111	-21
-56	-121	-27
-55	-115	-25
-46	-92	-23
-30	-55	-25
-10	-13	-26
12	31	-27
29	68	-23
42	98	-22
49	112	-20
48	109	-16
41	92	-13
29	61	-20
12	22	-22
-7	-22	-14
-26	-63	-20
-43	-98	-25
-54	-119	-27
-57	-124	-27
-52	-113	-28
-40	-85	-30
-22	-46	-29
0	-2	-28
20	41	-25
37	79	-21
48	104	-20
51	113	-19
48	106	-15
37	85	-19
21	51	-20
2	11	-15
-16	-34	-21
-36	-72	-20
-50	-104	-16
-56	-118	-22
-56	-117	-24
-49	-98	-27
-34	-65	-27
-15	-26	-26
5	18	-26
24	57	-25
38	91	-26
48	110	-21
50	115	-18
46	104	-21
35	77	-20
18	41	-18
0	-4	-18
-20	-48	-18
-35	-86	-23
-48	-112	-23
-53	-122	-25
-51	-116	-26
-42	-92	-25
-27	-57	-25
-8	-15	-27
13	29	-28
29	65	-26
42	96	-27
49	110	-22
49	110	-17
41	95	-18
29	64	-19
11	26	-17
-7	-19	-18
-26	-60	-18
-42	-95	-20
-52	-115	-25
-56	-120	-27
-51	-109	-27
-39	-83	-28
-23	-45	-28
-3	-2	-28
16	39	-27
33	75	-23
43	101	-20
49	110	-19
48	106	-21
41	85	-24
25	52	-21
6	11	-18
-15	-33	-18
-34	-74	-19
-47	-104	-20
-56	-119	-21
-55	-118	-25
-48	-101	-24
-34	-68	-25
-16	-29	-23
4	14	-23
23	54	-22
37	86	-21
48	105	-20
50	110	-16
46	100	-18
35	76	-18
18	40	-16
-2	-3	-17
-20	-46	-18
-37	-85	-20
-52	-112	-25
-57	-123	-25
-56	-117	-26
-45	-95	-25
-30	-59	-23
-10	-17	-27
10	25	-24
28	64	-23
42	94	-22
49	109	-24
49	110	-20
42	96	-20
32	67	-20
14	28	-18
-5	-15	-21
-24	-57	-22
-41	-94	-24
-52	-115	-23
-55	-121	-25
-51	-110	-25
-40	-84	-24
-24	-47	-26
-4	-3	-25
16	38	-24
34	76	-22
46	102	-19
52	114	-21
50	110	-18
41	89	-18
26	56	-19
7	13	-20
-14	-30	-21
-32	-72	-23
-46	-103	-23
-55	-119	-24
-56	-120	-27
-49	-104	-30
-35	-75	-28
-18	-35	-29
4	8	-21
24	49	-21
40	84	-30
49	106	-17
52	113	-17
48	103	-20
37	81	-19
21	44	-17
2	3	-15
-19	-40	-24
-36	-80	-26
-50	-107	-28
-56	-121	-25
-54	-116	-27
-46	-96	-24
-31	-62	-25
-12	-21	-26
9	23	-22
27	64	-23
42	93	-21
48	110	-21
50	112	-18
44	97	-17
30	68	-16
12	29	-18
-8	-14	-19
-28	-56	-20
-44	-92	-24
-53	-112	-23
-56	-119	-25
-52	-108	-25
-41	-84	-26
-24	-46	-26
-4	-5	-28
16	35	-27
33	72	-24
46	99	-23
52	110	-20
49	106	-17
40	88	-18
24	55	-18
6	15	-17
-14	-27	-22
-30	-66	-22
-44	-98	-23
-53	-117	-25
-54	-118	-24
-49	-105	-26
-36	-77	-30
-19	-36	-30
2	6	-26
22	49	-32
36	83	-31
48	105	-25
49	110	-21
45	101	-20
34	78	-19
20	42	-17
3	2	-19
-16	-41	-18
-33	-79	-18
-46	-106	-20
-53	-119	-22
-53	-114	-28
-45	-95	-26
-30	-61	-22
-12	-21	-23
8	23	-24
27	61	-25
42	91	-20
49	110	-13
50	112	-17
44	99	-22
33	71	-16
16	33	-23
-4	-11	-28
-24	-54	-15
-41	-91	-20
-52	-117	-21
-57	-123	-24
-54	-114	-28
-44	-90	-28
-26	-51	-30
-5	-9	-26
15	34	-25
33	70	-25
46	97	-24
52	110	-19
50	106	-15
41	90	-14
26	59	-16
8	21	-17
-12	-24	-16
-30	-62	-19
-44	-97	-20
-54	-117	-23
-56	-119	-27
-51	-106	-28
-37	-77	-29
-19	-38	-30
1	3	-28
20	45	-23
36	79	-22
46	103	-23
50	110	-25
46	104	-22
36	83	-21
22	47	-22
3	4	-16
-17	-40	-17
-36	-80	-21
-50	-108	-27
-56	-121	-28
-56	-116	-27
-46	-97	-29
-31	-63	-29
-12	-24	-29
7	17	-28
26	56	-27
40	88	-21
48	106	-20
51	109	-19
45	97	-16
35	70	-17
17	34	-16
-2	-9	-17
-22	-51	-19
-38	-87	-20
-50	-111	-20
-54	-119	-24
-52	-112	-27
-43	-87	-25
-26	-51	-24
-8	-10	-26
13	33	-25
31	68	-23
44	98	-20
51	110	-19
50	109	-19
42	93	-17
28	62	-18
10	23	-18
-10	-21	-16
-28	-61	-22
-44	-97	-23
-55	-116	-23
-57	-120	-26
-53	-107	-26
-40	-78	-27
-22	-40	-27
-1	3	-28
18	45	-28
35	80	-24
46	103	-20
49	110	-24
46	104	-25
36	81	-24
22	47	-22
4	4	-17
-16	-39	-19
-34	-78	-22
-47	-107	-23
-52	-120	-25
-54	-118	-27
-46	-98	-26
-32	-66	-28
-14	-26	-27
6	16	-25
24	55	-25
39	87	-21
48	106	-18
51	113	-18
46	103	-17
34	77	-16
17	39	-15
-2	-6	-19
-23	-49	-19
-40	-88	-21
-52	-112	-21
-57	-121	-23
-55	-114	-28
-44	-90	-25
-29	-56	-26
-8	-12	-28
13	30	-23
31	68	-21
44	98	-23
52	112	-21
50	110	-22
42	94	-22
26	63	-18
8	25	-17
-12	-19	-14
-28	-60	-19
-44	-94	-27
-53	-115	-25
-55	-119	-27
-52	-107	-32
-40	-81	-23
-24	-44	-23
-4	-1	-22
15	38	-24
32	75	-25
43	99	-20
49	110	-19
48	106	-14
38	85	-14
24	52	-16
5	9	-15
-14	-33	-18
-32	-75	-19
-46	-103	-20
-52	-117	-20
-52	-116	-28
-44	-98	-31
-31	-68	-26
-14	-29	-30
4	12	-25
22	51	-22
36	85	-22
46	105	-20
49	110	-21
44	100	-19
35	76	-19
18	38	-17
0	-6	-19
-22	-48	-18
-38	-87	-20
-51	-110	-23
-57	-121	-24
-54	-114	-24
-44	-90	-24
-28	-56	-27
-9	-13	-27
11	28	-26
31	67	-24
44	96	-23
51	112	-21
51	111	-19
45	94	-17
31	64	-18
15	25	-20
-5	-17	-19
-23	-58	-18
-40	-92	-22
-50	-113	-22
-53	-120	-26
-50	-108	-34
-39	-84	-37
-23	-45	-33
-4	-2	-26
15	39	-20
33	75	-22
45	99	-22
51	109	-19
50	104	-21
40	86	-20
25	55	-20
6	15	-17
-15	-28	-22
-33	-69	-22
-48	-101	-22
-56	-119	-27
-56	-118	-26
-48	-101	-28
-35	-71	-27
-16	-31	-26
3	11	-27
22	51	-28
38	84	-26
48	105	-22
50	112	-19
44	103	-19
34	79	-21
17	39	-19
-2	-4	-20
-23	-49	-19
-39	-87	-21
-52	-112	-23
-56	-122	-22
-53	-115	-24
-44	-94	-23
-29	-58	-24
-10	-18	-25
10	25	-25
29	65	-24
44	95	-23
52	112	-19
52	113	-18
46	98	-26
31	68	-21
13	29	-17
-7	-14	-15
-26	-57	-15
-42	-92	-20
-52	-114	-21
-56	-121	-24
-52	-110	-25
-42	-84	-24
-26	-46	-27
-5	-4	-25
15	39	-21
32	76	-23
44	102	-19
49	114	-19
49	108	-19
38	90	-19
25	56	-19
6	17	-19
-12	-29	-22
-31	-69	-22
-46	-101	-23
-54	-120	-25
-55	-120	-26
-50	-105	-23
-37	-75	-23
-20	-34	-25
1	7	-28
21	49	-27
38	82	-25
49	104	-23
52	110	-23
48	101	-24
37	77	-18
20	39	-16
1	-2	-21
-20	-44	-21
-37	-81	-20
-50	-108	-24
-55	-118	-29
-54	-114	-28
-46	-95	-27
-31	-61	-20
-12	-21	-19
8	23	-23
27	62	-24
42	95	-23
50	112	-18
52	113	-25
46	99	-23
32	68	-25
15	29	-23
-6	-15	-19
-26	-57	-21
-43	-93	-18
-52	-116	-21
-56	-120	-23
-51	-111	-24
-39	-85	-23
-24	-48	-24
-3	-7	-24
16	35	-23
33	71	-24
44	97	-20
52	110	-19
49	106	-17
41	89	-18
28	57	-19
9	19	-18
-10	-24	-18
-28	-64	-17
-43	-96	-19
-52	-115	-24
-54	-118	-33
-48	-105	-29
-36	-77	-27
-20	-39	-28
1	5	-23
21	45	-26
36	80	-25
46	103	-22
50	109	-21
48	103	-18
39	80	-19
23	45	-19
4	4	-19
-18	-40	-20
-35	-80	-20
-49	-109	-25
-56	-120	-26
-56	-117	-27
-47	-97	-28
-32	-63	-26
-14	-24	-27
7	20	-25
24	58	-21
39	90	-23
46	107	-20
48	110	-21
42	99	-19
29	70	-19
13	34	-17
-6	-11	-17
-24	-53	-22
-41	-90	-23
-50	-113	-22
-56	-121	-22
-54	-112	-26
-44	-88	-28
-29	-51	-26
-8	-8	-26
12	34	-25
31	71	-24
44	100	-23
50	110	-18
48	109	-18
40	90	-19
26	60	-22
8	21	-15
-11	-23	-15
-30	-63	-19
-44	-98	-21
-54	-116	-26
-56	-120	-25
-50	-106	-25
-38	-76	-27
-20	-36	-27
3	9	-27
23	50	-24
39	84	-22
51	105	-23
54	110	-27
50	103	-24
39	80	-21
22	44	-21
3	2	-19
-18	-41	-20
-36	-81	-20
-49	-109	-21
-55	-121	-24
-54	-118	-23
-46	-98	-24
-31	-66	-24
-15	-26	-25
6	17	-26
24	57	-24
39	90	-22
48	110	-18
49	115	-17
44	101	-17
33	74	-21
16	35	-19
-4	-10	-17
-23	-51	-19
-39	-88	-17
-49	-110	-20
-53	-119	-25
-50	-111	-30
-40	-88	-28
-26	-54	-25
-6	-11	-25
14	30	-24
32	68	-21
45	96	-18
51	109	-19
50	109	-17
42	91	-17
27	62	-19
9	23	-11
-10	-19	-14
-29	-60	-27
-44	-94	-23
-55	-114	-21
-56	-118	-27
-52	-105	-28
-39	-79	-24
-22	-40	-25
-3	3	-28
18	42	-26
34	79	-26
44	103	-22
48	112	-20
46	106	-21
37	85	-19
23	49	-21
5	6	-17
-16	-38	-18
-32	-78	-21
-46	-106	-24
-53	-119	-26
-53	-116	-30
-47	-98	-28
-32	-67	-18
-16	-28	-17
5	16	-27
23	58	-28
38	91	-25
46	110	-25
49	115	-17
43	101	-16
32	74	-16
16	34	-19
-3	-7	-20
-22	-48	-20
-38	-85	-25
-50	-109	-25
-55	-120	-28
-53	-114	-28
-45	-93	-28
-29	-58	-28
-10	-15	-27
11	29	-24
30	67	-24
42	96	-22
51	110	-21
52	109	-22
44	93	-20
32	62	-20
13	22	-19
-7	-21	-21
-28	-61	-21
-44	-95	-21
-54	-116	-23
-56	-119	-25
-51	-106	-23
-38	-80	-21
-21	-40	-29
-1	0	-30
17	41	-26
33	77	-18
44	101	-19
49	112	-24
47	106	-23
37	86	-20
22	53	-17
4	12	-17
-17	-31	-18
-34	-74	-18
-48	-104	-19
-55	-120	-24
-54	-119	-28
-46	-102	-30
-32	-69	-29
-13	-30	-27
6	12	-24
24	51	-23
39	83	-23
47	104	-21
51	110	-21
46	101	-19
36	78	-21
20	40	-18
0	-1	-18
-20	-47	-17
-38	-85	-19
-51	-110	-22
-55	-119	-24
-52	-112	-26
-42	-90	-27
-27	-56	-27
-8	-16	-27
12	25	-26
29	63	-23
42	92	-22
50	109	-21
50	110	-23
42	97	-24
30	66	-16
11	28	-14
-8	-17	-23
-28	-60	-24
-43	-96	-21
-53	-118	-21
-56	-122	-22
-53	-110	-26
-42	-84	-21
-26	-45	-25
-6	-3	-27
15	40	-25
33	76	-22
45	101	-21
50	110	-23
48	106	-19
38	85	-23
24	51	-22
6	11	-17
-15	-32	-16
-32	-70	-18
-46	-101	-21
-55	-117	-24
-55	-117	-28
-47	-101	-30
-34	-70	-29
-16	-30	-28
5	14	-30
23	53	-27
37	85	-22
46	105	-19
48	110	-23
44	101	-24
35	77	-21
21	41	-20
1	1	-17
-19	-44	-20
-37	-82	-19
-51	-110	-18
-57	-121	-22
-55	-116	-25
-46	-94	-28
-30	-57	-24
-10	-16	-24
9	27	-22
28	64	-20
41	94	-19
50	110	-20
52	112	-19
46	98	-18
33	67	-19
15	29	-18
-5	-16	-17
-26	-58	-17
-42	-93	-21
-53	-115	-22
-56	-119	-24
-52	-109	-30
-41	-83	-29
-24	-47	-27
-4	-5	-28
15	37	-25
32	72	-25
44	100	-25
49	110	-23
48	106	-21
40	87	-18
25	54	-20
8	14	-18
-12	-30	-16
-29	-69	-19
-44	-101	-20
-53	-117	-23
-55	-119	-32
-48	-103	-28
-36	-74	-18
-18	-35	-30
1	8	-45
19	47	-30
35	81	-26
42	102	-28
46	108	-16
42	100	-13
34	77	-17
19	41	-20
1	0	-22
-18	-42	-20
-35	-79	-18
-48	-106	-18
-54	-117	-26
-52	-114	-28
-44	-93	-25
-29	-62	-27
-11	-22	-28
8	21	-24
28	60	-21
42	92	-21
52	110	-20
54	113	-20
47	98	-19
34	68	-18
16	30	-18
-3	-13	-17
-23	-54	-20
-38	-89	-19
-50	-110	-20
-53	-117	-25
-50	-110	-24
-40	-86	-26
-25	-50	-23
-5	-7	-26
16	35	-25
33	74	-21
46	102	-20
51	113	-17
49	110	-17
41	90	-16
26	59	-16
9	18	-16
-12	-25	-19
-32	-64	-20
-47	-98	-21
-56	-117	-19
-57	-120	-23
-52	-106	-27
-39	-78	-25
-21	-39	-25
0	4	-24
19	43	-24
35	80	-21
46	103	-19
50	112	-21
46	104	-18
36	81	-21
21	46	-20
2	3	-18
-18	-41	-19
-36	-83	-21
-50	-109	-22
-56	-121	-26
-55	-118	-30
-47	-97	-32
-31	-64	-26
-12	-23	-26
9	19	-29
27	58	-24
41	90	-22
49	106	-23
50	112	-21
44	99	-20
32	72	-23
16	34	-22
-3	-11	-19
-23	-53	-18
-39	-90	-19
-52	-113	-20
-56	-122	-19
-53	-113	-22
-43	-89	-22
-28	-52	-25
-8	-8	-30
14	34	-25
30	72	-25
44	100	-24
50	113	-20
49	110	-23
40	92	-22
26	60	-20
8	21	-21
-12	-21	-21
-31	-62	-23
-46	-96	-23
-54	-115	-22
-55	-118	-24
-50	-104	-24
-37	-77	-25
-20	-37	-25
0	4	-23
20	46	-25
36	82	-25
46	103	-22
52	112	-23
48	104	-18
38	84	-22
22	49	-20
4	6	-16
-15	-38	-19
-33	-78	-21
-46	-108	-24
-54	-123	-26
-54	-120	-31
-47	-100	-29
-33	-68	-22
-15	-27	-27
7	17	-25
24	58	-23
39	89	-23
47	106	-22
48	110	-21
42	97	-16
31	70	-19
15	32	-18
-3	-9	-15
-22	-51	-15
-38	-87	-19
-51	-112	-23
-56	-121	-22
-54	-114	-23
-45	-92	-23
-28	-54	-23
-8	-11	-25
13	34	-33
32	72	-28
44	100	-21
50	113	-21
49	109	-18
40	90	-20
27	60	-18
10	20	-18
-8	-21	-17
-26	-62	-19
-42	-96	-21
-51	-115	-24
-55	-119	-27
-50	-107	-26
-39	-80	-31
-21	-42	-27
-1	0	-25
18	41	-27
36	76	-27
46	101	-22
52	110	-21
49	103	-20
39	83	-17
24	47	-21
4	7	-19
-16	-37	-22
-35	-75	-24
-48	-104	-24
-55	-119	-24
-54	-116	-23
-47	-100	-30
-33	-67	-28
-16	-29	-27
4	15	-31
23	56	-25
36	88	-18
46	109	-17
48	112	-17
44	101	-19
32	76	-19
16	39	-17
-3	-2	-16
-21	-45	-20
-38	-82	-20
-50	-109	-22
-55	-120	-26
-52	-114	-25
-43	-92	-28
-28	-56	-25
-8	-15	-24
13	30	-26
31	67	-25
44	95	-26
50	106	-23
50	105	-19
42	91	-20
28	60	-21
12	24	-18
-8	-20	-20
-27	-62	-20
-43	-98	-21
-52	-120	-23
-56	-123	-24
-50	-111	-25
-39	-82	-27
-22	-42	-30
-2	2	-23
17	43	-22
35	78	-22
45	103	-18
50	112	-18
48	109	-17
39	87	-18
24	55	-18
6	14	-13
-12	-30	-15
-30	-69	-18
-44	-101	-27
-53	-116	-30
-54	-115	-25
-48	-99	-30
-35	-68	-23
-18	-31	-29
2	11	-27
21	50	-22
37	84	-25
48	105	-21
51	110	-24
48	103	-20
37	77	-21
21	41	-20
2	-2	-16
-18	-46	-16
-36	-84	-18
-50	-110	-22
-55	-119	-25
-54	-114	-25
-45	-93	-23
-30	-58	-27
-13	-18	-29
8	24	-25
26	62	-20
41	93	-20
48	109	-18
49	110	-13
42	95	-18
30	64	-18
12	27	-20
-7	-16	-22
-26	-56	-22
-43	-92	-24
-53	-114	-24
-59	-120	-27
-53	-110	-32
-42	-84	-26
-24	-47	-27
-3	-3	-32
17	39	-27
35	76	-23
44	101	-17
50	110	-16
48	106	-15
39	86	-17
25	55	-18
8	15	-15
-12	-28	-18
-31	-68	-19
-46	-101	-21
-55	-118	-25
-57	-118	-25
-50	-100	-25
-37	-69	-25
-18	-29	-27
2	12	-26
21	51	-25
37	85	-22
48	105	-23
50	112	-22
46	104	-20
35	81	-19
20	44	-18
1	1	-19
-19	-42	-20
-36	-82	-23
-50	-109	-22
-55	-120	-27
-54	-116	-31
-45	-96	-30
-29	-63	-30
-11	-22	-23
10	20	-22
28	60	-22
42	92	-21
49	109	-23
50	112	-21
44	97	-20
32	68	-21
15	29	-20
-3	-14	-19
-23	-56	-21
-40	-94	-24
-51	-116	-24
-56	-122	-25
-52	-110	-25
-41	-83	-25
-24	-45	-22
-5	-2	-23
14	39	-26
32	75	-23
44	100	-19
50	112	-13
49	109	-19
40	90	-27
26	59	-25
7	16	-24
-14	-28	-20
-32	-69	-21
-47	-103	-20
-56	-121	-23
-56	-123	-28
-50	-106	-26
-36	-77	-27
-18	-34	-27
4	9	-28
23	51	-25
39	85	-19
49	106	-17
52	112	-16
46	101	-18
36	79	-21
19	43	-24
-1	1	-19
-20	-43	-19
-38	-82	-16
-51	-109	-19
-56	-121	-23
-54	-117	-24
-45	-95	-25
-30	-62	-23
-11	-20	-27
9	23	-24
28	62	-23
42	92	-24
50	109	-20
51	110	-18
44	97	-17
32	70	-17
14	31	-16
-6	-11	-17
-26	-53	-19
-43	-89	-18
-52	-113	-24
-57	-122	-27
-54	-112	-26
-43	-89	-25
-28	-52	-26
-7	-9	-30
13	33	-26
32	71	-23
44	98	-22
52	110	-21
50	108	-18
42	91	-16
28	59	-23
10	20	-23
-10	-23	-19
-28	-65	-21
-44	-98	-21
-54	-118	-25
-56	-120	-29
-51	-106	-27
-37	-77	-30
-18	-36	-28
4	7	-26
24	48	-24
39	82	-22
49	104	-23
51	111	-23
46	103	-19
36	81	-19
22	45	-21
3	4	-19
-16	-41	-20
-35	-80	-21
-49	-109	-20
-56	-122	-24
-56	-118	-27
-47	-98	-26
-32	-64	-23
-14	-24	-22
6	18	-20
24	57	-19
39	88	-19
48	106	-18
51	110	-17
44	100	-20
33	72	-22
16	35	-17
-4	-8	-13
-23	-52	-22
-40	-89	-26
-50	-113	-23
-55	-122	-25
-51	-113	-22
-41	-90	-25
-25	-53	-26
-7	-12	-27
13	33	-28
31	70	-24
44	100	-25
51	113	-22
48	110	-20
40	93	-16
25	60	-17
7	22	-18
-14	-21	-17
-30	-61	-21
-45	-93	-22
-53	-114	-24
-54	-118	-25
-50	-107	-24
-38	-80	-24
-21	-41	-26
0	2	-28
18	44	-31
36	80	-27
48	105	-23
50	113	-19
48	106	-18
37	83	-18
23	47	-19
5	5	-20
-15	-39	-18
-33	-77	-21
-46	-106	-21
-53	-119	-22
-54	-117	-28
-46	-99	-28
-33	-66	-27
-14	-26	-26
6	17	-23
24	56	-21
39	88	-20
48	106	-23
50	110	-24
44	101	-18
35	75	-17
17	38	-21
-4	-7	-22
-24	-50	-24
-41	-88	-22
-53	-113	-25
-59	-120	-26
-55	-112	-29
-46	-87	-29
-29	-52	-30
-9	-11	-27
13	31	-22
32	66	-23
44	95	-21
52	110	-19
50	110	-18
42	95	-18
28	62	-17
11	23	-15
-10	-24	-13
-28	-65	-17
-44	-98	-21
-53	-117	-28
-56	-118	-28
-52	-105	-27
-41	-79	-32
-24	-43	-30
-3	-1	-32
15	39	-28
33	76	-21
44	101	-23
49	111	-18
48	106	-20
39	85	-20
24	51	-16
5	9	-12
-15	-34	-13
-34	-74	-12
-49	-104	-16
-56	-118	-26
-56	-118	-31
-47	-101	-27
-33	-68	-28
-14	-30	-26
7	14	-26
23	51	-24
39	84	-20
49	104	-19
52	109	-22
49	100	-20
39	76	-19
21	40	-18
2	-2	-14
-19	-46	-17
-36	-85	-20
-50	-111	-21
-56	-121	-25
-53	-114	-29
-44	-90	-28
-28	-53	-24
-10	-11	-24
12	30	-24
30	67	-21
44	96	-20
52	110	-19
51	110	-18
44	96	-17
30	66	-19
12	26	-20
-7	-17	-22
-26	-59	-21
-42	-94	-21
-51	-113	-22
-53	-119	-24
-50	-107	-25
-38	-81	-25
-22	-43	-31
-4	-1	-30
16	40	-27
32	77	-25
44	101	-23
49	110	-19
47	105	-20
36	83	-23
22	51	-19
4	9	-18
-16	-32	-20
-34	-72	-20
-48	-104	-22
-55	-120	-24
-56	-121	-24
-49	-104	-20
-35	-71	-24
-18	-31	-26
4	13	-26
23	53	-25
36	88	-23
46	106	-21
49	113	-19
44	103	-18
35	78	-21
20	41	-21
2	-1	-18
-16	-45	-17
-33	-84	-19
-47	-110	-23
-52	-121	-25
-51	-114	-30
-43	-93	-32
-27	-57	-32
-8	-16	-34
12	26	-30
29	65	-17
41	93	-17
48	108	-18
47	109	-18
41	95	-24
29	67	-24
14	29	-21
-6	-13	-19
-24	-55	-19
-41	-92	-21
-52	-115	-22
-57	-124	-23
-53	-113	-23
-42	-87	-24
-24	-47	-23
-3	-2	-21
17	39	-20
33	77	-20
44	100	-24
49	110	-19
48	105	-18
41	85	-23
28	54	-20
10	14	-19
-10	-27	-25
-30	-69	-24
-46	-101	-21
-57	-120	-24
-59	-121	-23
-52	-105	-26
-39	-76	-25
-20	-33	-25
2	9	-25
22	51	-26
38	83	-25
49	104	-22
52	111	-20
48	101	-17
36	78	-19
19	41	-19
0	0	-18
-20	-43	-21
-37	-82	-24
-51	-107	-27
-56	-119	-26
-55	-114	-28
-46	-94	-26
-31	-59	-26
-11	-18	-28
10	25	-25
29	65	-23
42	95	-21
49	112	-20
49	112	-19
42	98	-19
30	68	-21
13	29	-18
-6	-15	-15
-24	-57	-17
-41	-92	-19
-52	-114	-21
-56	-121	-24
-52	-110	-24
-41	-86	-25
-24	-48	-25
-4	-7	-24
16	35	-23
33	72	-23
44	98	-22
52	110	-19
51	106	-20
43	89	-24
29	56	-22
8	15	-20
-11	-29	-18
-31	-70	-19
-47	-102	-21
-56	-121	-24
-57	-121	-23
-50	-105	-23
-37	-75	-25
-20	-35	-27
0	8	-28
20	49	-23
36	83	-25
47	105	-24
51	113	-21
47	106	-20
38	83	-17
21	47	-17
1	6	-15
-19	-38	-16
-36	-77	-19
-49	-106	-21
-56	-119	-24
-54	-116	-25
-46	-97	-24
-31	-63	-26
-13	-24	-30
8	19	-32
25	58	-30
39	89	-21
46	106	-13
47	109	-14
42	97	-18
29	69	-19
14	33	-18
-4	-7	-15
-23	-50	-24
-39	-86	-27
-50	-110	-21
-56	-119	-24
-53	-113	-25
-44	-89	-26
-28	-52	-26
-7	-11	-29
12	33	-28
32	70	-24
42	98	-23
48	110	-21
46	109	-19
40	92	-18
27	59	-20
11	21	-19
-8	-23	-17
-27	-62	-19
-43	-95	-22
-52	-114	-24
-54	-118	-23
-49	-106	-22
-36	-77	-23
-20	-38	-25
0	5	-26
20	47	-24
36	83	-25
48	106	-23
52	113	-23
49	106	-20
40	84	-21
23	50	-21
4	8	-20
-18	-36	-22
-35	-76	-23
-49	-105	-24
-54	-119	-24
-53	-118	-27
-46	-99	-26
-32	-66	-30
-15	-27	-30
7	16	-24
26	56	-29
40	88	-27
50	106	-25
51	110	-25
46	97	-19
32	70	-20
15	33	-20
-4	-11	-16
-23	-54	-14
-38	-90	-19
-48	-114	-26
-53	-121	-23
-50	-114	-26
-40	-90	-30
-26	-54	-28
-6	-12	-28
12	30	-18
29	68	-17
41	96	-23
49	110	-17
48	108	-16
41	92	-19
29	62	-18
12	24	-15
-7	-20	-17
-27	-60	-21
-42	-96	-24
-54	-114	-24
-56	-119	-25
-51	-106	-22
-40	-78	-22
-22	-40	-23
-2	3	-23
18	43	-24
35	80	-22
46	102	-21
51	111	-20
48	105	-19
40	82	-21
23	48	-20
5	7	-18
-16	-36	-21
-34	-77	-22
-49	-105	-23
-55	-120	-26
-56	-118	-26
-48	-100	-26
-33	-68	-26
-15	-29	-30
7	13	-27
25	52	-26
40	86	-22
48	106	-21
50	110	-21
44	100	-19
33	74	-18
17	37	-18
-2	-6	-18
-20	-48	-19
-37	-85	-23
-49	-108	-23
-55	-118	-25
-53	-111	-27
-44	-88	-30
-31	-55	-27
-11	-13	-27
9	29	-26
28	68	-22
42	97	-21
49	110	-19
49	110	-15
42	92	-16
29	62	-20
10	21	-16
-9	-22	-17
-29	-62	-22
-44	-96	-22
-54	-116	-21
-57	-121	-20
-51	-108	-22
-39	-81	-28
-22	-42	-25
-2	1	-23
19	41	-24
36	78	-24
46	102	-26
51	112	-19
49	106	-15
41	87	-17
25	53	-20
8	13	-22
-12	-30	-20
-29	-70	-20
-43	-100	-20
-52	-118	-21
-54	-118	-25
-48	-100	-30
-34	-69	-30
-16	-29	-25
5	14	-24
24	56	-27
37	88	-28
46	106	-27
48	112	-17
41	100	-14
31	76	-18
17	38	-19
-1	-3	-22
-21	-46	-19
-39	-85	-21
-53	-110	-21
-59	-121	-22
-57	-115	-25
-47	-94	-26
-31	-57	-25
-10	-16	-23
11	26	-24
30	65	-24
42	92	-21
50	109	-20
50	110	-17
45	95	-16
33	66	-18
15	26	-22
-6	-17	-23
-26	-60	-22
-43	-95	-23
-52	-117	-22
-54	-122	-25
-50	-110	-31
-38	-85	-26
-22	-45	-25
-4	-2	-24
14	40	-22
30	77	-27
42	101	-26
48	112	-23
48	106	-20
39	85	-22
23	51	-22
6	11	-19
-14	-32	-20
-32	-72	-20
-47	-103	-23
-54	-120	-24
-55	-119	-27
-48	-103	-29
-35	-72	-26
-19	-32	-24
2	10	-24
21	50	-25
37	84	-25
48	105	-21
51	112	-21
46	103	-19
36	81	-17
20	43	-17
0	2	-16
-20	-43	-20
-37	-82	-23
-49	-109	-21
-55	-120	-24
-53	-114	-26
-44	-94	-27
-29	-58	-25
-8	-18	-24
10	27	-24
29	67	-28
42	96	-25
49	112	-16
49	112	-18
42	97	-24
31	67	-21
13	28	-19
-6	-16	-17
-27	-58	-19
-44	-94	-24
-56	-117	-23
-59	-123	-24
-54	-112	-27
-42	-86	-30
-24	-48	-26
-3	-6	-25
16	37	-26
33	72	-21
45	98	-24
51	110	-25
50	106	-23
42	88	-19
29	55	-13
10	16	-12
-11	-29	-13
-30	-69	-17
-47	-100	-20
-55	-118	-23
-57	-119	-27
-50	-104	-26
-36	-72	-26
-18	-34	-24
4	8	-25
22	50	-21
39	84	-19
48	106	-17
52	113	-21
48	105	-27
35	81	-25
20	43	-21
0	1	-18
-20	-45	-20
-38	-83	-22
-49	-112	-23
-53	-123	-27
-52	-119	-28
-43	-97	-25
-28	-61	-23
-10	-21	-26
10	23	-26
28	61	-23
41	91	-22
51	109	-21
52	110	-22
46	99	-18
35	72	-16
16	36	-18
-4	-8	-19
-24	-49	-19
-42	-87	-21
-54	-113	-23
-59	-120	-27
-55	-110	-27
-44	-86	-24
-27	-48	-25
-7	-5	-25
13	36	-20
31	71	-23
42	100	-23
49	112	-19
48	110	-20
40	92	-19
26	59	-18
9	19	-17
-11	-27	-19
-29	-68	-21
-45	-101	-20
-53	-119	-25
-55	-120	-27
-50	-104	-28
-36	-76	-27
-19	-37	-23
2	5	-23
21	45	-23
37	80	-22
46	103	-19
50	109	-19
46	103	-17
36	79	-18
21	45	-19
1	4	-20
-18	-38	-21
-36	-76	-20
-49	-105	-30
-56	-118	-34
-55	-116	-29
-47	-98	-29
-33	-66	-24
-14	-27	-25
6	16	-25
25	55	-28
39	88	-27
48	106	-21
50	110	-25
46	99	-17
34	71	-12
17	33	-13
-2	-12	-17
-22	-53	-21
-39	-90	-25
-50	-112	-26
-53	-119	-27
-52	-111	-27
-42	-87	-26
-26	-52	-27
-8	-11	-29
11	32	-27
29	70	-26
42	100	-25
49	114	-24
49	112	-21
42	94	-19
28	62	-19
11	20	-17
-11	-23	-16
-28	-64	-20
-44	-97	-23
-52	-116	-23
-55	-119	-26
-50	-106	-30
-37	-79	-30
-20	-39	-32
1	4	-28
20	45	-25
37	81	-19
47	101	-16
52	110	-17
48	102	-17
38	81	-18
23	47	-15
4	7	-17
-15	-35	-20
-33	-76	-21
-46	-105	-24
-54	-121	-21
-53	-120	-21
-45	-102	-24
-32	-69	-19
-13	-27	-22
6	16	-23
25	56	-27
41	89	-24
50	108	-19
51	112	-20
45	99	-20
33	74	-22
16	35	-17
-4	-8	-16
-23	-50	-18
-39	-88	-19
-51	-111	-23
-55	-120	-24
-52	-112	-26
-44	-89	-28
-28	-54	-28
-10	-12	-26
12	29	-24
29	68	-22
42	97	-24
49	112	-20
49	110	-19
41	92	-18
28	62	-19
11	21	-19
-9	-21	-17
-26	-62	-19
-43	-96	-22
-52	-116	-26
-57	-121	-25
-52	-107	-27
-41	-80	-27
-23	-39	-27
-4	3	-31
16	45	-27
33	81	-26
44	103	-20
49	112	-21
46	105	-21
38	85	-15
22	50	-18
4	10	-15
-16	-34	-16
-34	-76	-19
-48	-104	-21
-55	-120	-27
-55	-119	-24
-47	-102	-24
-33	-70	-31
-16	-30	-28
2	12	-23
22	53	-20
36	85	-22
46	106	-23
50	113	-21
47	103	-17
36	77	-16
20	39	-18
1	-4	-18
-21	-49	-19
-40	-85	-19
-52	-111	-21
-56	-120	-24
-53	-113	-26
-43	-92	-27
-28	-57	-28
-10	-16	-28
11	28	-27
28	67	-25
42	96	-21
50	112	-24
51	110	-20
44	96	-20
30	65	-19
13	26	-19
-8	-18	-20
-27	-60	-22
-43	-94	-25
-52	-117	-23
-56	-121	-25
-51	-109	-26
-40	-82	-24
-23	-43	-23
-2	-1	-23
18	41	-25
36	77	-25
48	103	-27
52	111	-24
49	106	-22
39	85	-22
24	51	-23
5	11	-18
-14	-33	-14
-33	-74	-15
-46	-102	-18
-54	-118	-25
-54	-116	-25
-48	-100	-25
-33	-69	-26
-15	-32	-25
5	10	-25
24	50	-22
39	83	-22
48	105	-24
50	112	-18
46	103	-17
35	78	-18
20	40	-18
1	-3	-19
-19	-47	-19
-36	-85	-23
-49	-110	-24
-55	-120	-26
-53	-114	-25
-44	-94	-25
-30	-60	-26
-10	-18	-25
11	25	-24
29	63	-21
43	94	-22
50	110	-25
50	110	-25
44	97	-17
32	68	-15
13	31	-15
-7	-14	-16
-27	-55	-23
-43	-90	-24
-53	-112	-24
-57	-117	-27
-54	-108	-30
-41	-83	-28
-24	-47	-26
-5	-7	-25
14	34	-23
31	67	-25
42	96	-23
48	106	-23
48	105	-23
40	88	-23
26	55	-22
8	16	-18
-12	-29	-18
-32	-69	-26
-47	-101	-29
-56	-118	-24
-56	-118	-24
-50	-105	-23
-35	-75	-29
-18	-36	-23
1	9	-18
21	50	-25
36	85	-27
46	106	-23
49	113	-17
44	104	-15
35	78	-12
19	41	-14
1	0	-16
-19	-42	-21
-36	-80	-20
-49	-109	-24
-55	-121	-21
-55	-118	-21
-47	-99	-26
-32	-64	-25
-12	-22	-30
10	22	-23
29	63	-25
44	95	-28
50	110	-19
50	110	-20
42	97	-18
30	66	-20
13	28	-18
-5	-14	-13
-25	-54	-17
-41	-91	-20
-52	-112	-26
-57	-118	-28
-52	-109	-26
-41	-85	-28
-23	-48	-30
-4	-5	-32
16	37	-30
32	74	-25
44	100	-22
49	110	-18
49	109	-20
41	90	-19
26	59	-20
9	20	-19
-12	-23	-20
-31	-65	-19
-46	-99	-23
-55	-118	-27
-55	-120	-27
-49	-106	-30
-36	-78	-27
-18	-40	-20
2	4	-20
22	43	-20
36	80	-19
48	103	-19
50	110	-19
46	104	-19
36	81	-17
22	46	-18
3	3	-16
-17	-40	-18
-33	-80	-19
-49	-108	-22
-56	-120	-22
-56	-117	-23
-47	-97	-27
-32	-64	-26
-13	-23	-26
8	19	-21
27	58	-22
41	91	-26
49	108	-20
51	112	-20
44	98	-19
33	70	-20
16	32	-19
-3	-11	-14
-24	-53	-18
-40	-90	-21
-52	-113	-21
-56	-121	-23
-53	-112	-23
-42	-88	-21
-26	-52	-25
-6	-9	-26
13	33	-24
31	71	-24
43	97	-21
50	110	-21
49	109	-22
41	91	-23
25	61	-20
7	20	-20
-12	-22	-21
-30	-63	-24
-44	-95	-23
-53	-114	-27
-55	-117	-31
-49	-103	-28
-37	-76	-27
-20	-37	-25
1	5	-23
21	45	-19
37	81	-35
49	103	-35
52	112	-18
49	105	-21
37	82	-17
20	46	-18
0	4	-17
-19	-40	-18
-35	-81	-21
-48	-107	-22
-52	-120	-24
-51	-115	-25
-42	-96	-25
-30	-64	-21
-13	-25	-21
7	17	-23
25	57	-27
41	90	-26
50	110	-20
52	114	-23
46	102	-21
33	72	-20
14	32	-22
-6	-11	-18
-26	-52	-17
-42	-87	-22
-52	-109	-24
-57	-118	-25
-53	-110	-20
-44	-89	-19
-29	-55	-22
-10	-14	-23
10	29	-22
29	68	-24
42	97	-24
51	112	-21
50	109	-21
42	92	-22
28	61	-19
11	21	-17
-10	-22	-18
-28	-62	-22
-44	-95	-25
-55	-116	-25
-58	-120	-28
-52	-108	-29
-40	-82	-27
-22	-43	-28
-3	-1	-25
17	41	-23
35	79	-23
46	103	-21
51	112	-21
48	106	-20
38	85	-20
24	50	-21
4	9	-19
-15	-36	-18
-32	-77	-21
-46	-105	-25
-53	-120	-24
-53	-118	-24
-46	-101	-25
-34	-68	-25
-15	-28	-25
5	15	-25
23	55	-24
40	86	-21
48	106	-19
50	110	-19
45	100	-19
34	76	-21
17	39	-21
-1	-3	-19
-21	-47	-20
-38	-84	-23
-49	-111	-22
-56	-120	-24
-53	-114	-26
-43	-91	-29
-27	-55	-25
-8	-13	-19
12	30	-28
31	68	-40
44	96	-28
52	110	-25
49	109	-22
42	94	-16
28	62	-17
9	22	-16
-12	-21	-19
-31	-61	-20
-43	-95	-21
-52	-115	-24
-53	-117	-29
-48	-105	-30
-37	-78	-26
-21	-41	-26
-2	0	-25
16	41	-25
34	77	-24
47	102	-20
52	112	-18
50	106	-20
40	86	-18
24	50	-19
5	8	-15
-14	-35	-16
-31	-75	-23
-45	-105	-24
-53	-120	-25
-55	-118	-26
-49	-102	-29
-36	-70	-26
-18	-32	-28
3	12	-27
23	52	-21
39	85	-23
49	106	-21
52	110	-16
46	101	-15
36	77	-17
21	41	-17
1	0	-18
-19	-43	-16
-36	-81	-19
-50	-109	-21
-56	-120	-22
-54	-114	-25
-45	-92	-28
-28	-58	-26
-7	-18	-27
12	25	-25
29	62	-22
42	93	-21
49	106	-22
49	109	-22
44	95	-19
31	64	-19
14	25	-17
-6	-19	-18
-26	-60	-21
-42	-95	-22
-52	-115	-23
-55	-119	-24
-51	-108	-26
-40	-83	-26
-25	-46	-25
-6	-2	-25
13	38	-25
31	77	-24
44	103	-21
49	113	-16
49	108	-17
39	86	-18
24	53	-17
4	12	-18
-16	-31	-19
-35	-69	-19
-48	-100	-21
-55	-117	-24
-56	-119	-25
-50	-105	-28
-37	-74	-26
-19	-35	-28
2	10	-28
22	50	-23
37	85	-21
48	105	-24
52	110	-25
47	102	-22
36	77	-18
20	41	-12
2	0	-13
-18	-42	-16
-35	-81	-18
-48	-107	-20
-54	-119	-25
-52	-114	-24
-43	-94	-23
-28	-59	-25
-10	-19	-30
11	23	-30
27	62	-26
40	93	-21
48	110	-16
49	112	-26
44	98	-25
33	68	-18
16	30	-18
-4	-15	-19
-26	-56	-19
-44	-93	-18
-56	-115	-21
-60	-121	-25
-55	-111	-27
-43	-86	-27
-26	-49	-27
-4	-6	-30
15	36	-27
32	74	-23
44	99	-18
49	110	-16
49	106	-17
40	88	-23
27	56	-26
8	15	-25
-12	-28	-20
-31	-69	-17
-46	-102	-20
-55	-120	-22
-57	-124	-25
-51	-107	-26
-37	-77	-25
-19	-34	-25
2	10	-27
21	51	-26
37	85	-23
46	105	-21
50	112	-20
46	102	-17
36	80	-16
20	47	-16
3	4	-20
-17	-39	-22
-35	-79	-18
-48	-108	-21
-55	-121	-24
-55	-117	-26
-47	-96	-25
-33	-62	-25
-14	-22	-28
6	20	-25
25	58	-21
41	89	-20
49	106	-19
50	110	-19
44	97	-22
32	70	-23
16	32	-22
-4	-10	-19
-24	-53	-19
-41	-90	-23
-52	-113	-25
-56	-121	-27
-53	-112	-30
-40	-87	-27
-24	-50	-27
-5	-7	-30
14	35	-26
32	72	-23
43	99	-16
50	110	-14
50	106	-19
41	89	-24
29	60	-26
11	19	-20
-10	-23	-20
-30	-64	-18
-47	-97	-20
-57	-117	-22
-59	-121	-22
-51	-106	-26
-38	-77	-24
-18	-37	-26
2	6	-27
21	48	-23
36	83	-22
46	105	-21
50	112	-21
48	104	-21
40	82	-19
25	46	-21
7	6	-20
-14	-38	-21
-32	-78	-22
-48	-106	-22
-55	-121	-25
-54	-118	-26
-46	-98	-25
-31	-64	-27
-13	-24	-28
8	19	-29
25	60	-26
40	90	-22
48	109	-19
50	111	-17
46	100	-14
35	74	-17
18	36	-21
-1	-6	-17
-22	-50	-20
-39	-87	-23
-52	-113	-21
-57	-122	-25
-54	-114	-24
-44	-91	-26
-28	-53	-28
-8	-12	-28
13	32	-26
31	68	-25
44	98	-23
52	110	-21
51	106	-23
42	90	-17
28	59	-17
10	20	-20
-10	-24	-24
-28	-64	-23
-44	-97	-19
-55	-117	-25
-58	-120	-27
-53	-108	-26
-41	-79	-23
-23	-40	-24
-2	2	-26
18	44	-24
32	80	-23
42	104	-23
46	113	-16
44	106	-15
36	84	-15
22	48	-17
3	7	-22
-16	-36	-20
-35	-75	-22
-49	-105	-23
-55	-120	-23
-54	-119	-26
-46	-102	-24
-32	-69	-25
-14	-29	-30
6	15	-28
25	56	-25
41	87	-18
49	106	-20
52	109	-27
46	97	-20
34	70	-17
17	35	-20
-3	-6	-17
-23	-50	-18
-40	-87	-21
-50	-113	-23
-56	-121	-24
-53	-114	-26
-42	-90	-26
-27	-54	-27
-7	-13	-28
12	30	-28
31	67	-30
44	97	-25
51	112	-24
50	112	-21
44	96	-20
31	65	-18
13	26	-19
-8	-19	-17
-28	-60	-16
-44	-95	-21
-54	-115	-22
-56	-118	-23
-50	-106	-23
-40	-79	-25
-23	-41	-24
-4	1	-25
16	43	-24
33	79	-25
44	103	-23
51	112	-18
49	106	-19
39	85	-20
23	51	-24
3	11	-19
-18	-33	-12
-36	-72	-19
-50	-104	-27
-56	-119	-23
-56	-120	-24
-48	-102	-29
-35	-70	-25
-16	-32	-27
4	13	-24
23	53	-24
41	88	-23
50	106	-21
53	112	-18
49	102	-16
37	76	-16
20	38	-15
-1	-5	-16
-21	-47	-20
-37	-86	-22
-49	-112	-23
-55	-120	-25
-53	-115	-26
-44	-92	-30
-30	-57	-28
-10	-15	-28
9	29	-26
27	66	-22
40	96	-19
47	110	-16
47	112	-17
41	97	-21
29	67	-26
12	28	-24
-7	-18	-22
-26	-60	-21
-42	-97	-20
-53	-119	-19
-56	-125	-22
-51	-113	-26
-40	-85	-28
-22	-45	-27
-2	0	-26
18	41	-24
35	79	-24
47	102	-22
53	113	-18
51	106	-18
42	85	-18
27	53	-19
8	12	-17
-15	-30	-17
-34	-70	-22
-48	-102	-23
-56	-118	-26
-58	-119	-25
-51	-103	-21
-37	-72	-21
-21	-33	-27
0	10	-33
19	50	-26
37	84	-23
49	106	-22
53	113	-19
49	104	-18
36	80	-21
19	42	-19
0	-2	-16
-20	-45	-22
-36	-83	-19
-47	-108	-19
-54	-121	-24
-53	-116	-24
-45	-95	-24
-31	-63	-24
-12	-21	-27
9	21	-26
29	62	-23
42	95	-24
51	110	-17
51	112	-17
43	95	-21
31	66	-21
13	27	-19
-6	-16	-19
-27	-56	-21
-43	-91	-23
-55	-114	-24
-58	-121	-19
-53	-111	-23
-40	-86	-30
-22	-46	-25
-1	-1	-25
18	41	-26
33	79	-23
44	102	-23
49	112	-21
48	106	-19
40	89	-19
26	58	-23
8	18	-18
-12	-25	-17
-31	-67	-21
-47	-100	-22
-55	-119	-23
-57	-121	-23
-51	-105	-28
-37	-75	-27
-19	-35	-26
3	7	-28
22	49	-26
39	81	-26
49	103	-25
51	110	-23
46	103	-19
35	80	-16
19	42	-15
0	1	-16
-19	-42	-18
-36	-81	-21
-49	-107	-23
-56	-119	-22
-54	-114	-28
-46	-95	-28
-31	-62	-27
-12	-21	-28
9	20	-24
28	61	-24
41	92	-27
50	109	-26
50	110	-24
44	96	-23
31	68	-18
13	29	-15
-6	-14	-17
-26	-56	-17
-42	-90	-19
-52	-113	-21
-54	-119	-30
-50	-109	-30
-40	-85	-27
-24	-48	-28
-6	-6	-24
13	34	-23
29	70	-20
42	97	-17
49	110	-19
48	108	-18
41	91	-17
28	60	-19
10	19	-15
-12	-24	-16
-30	-66	-19
-46	-100	-21
-53	-120	-24
-55	-122	-26
-49	-108	-29
-36	-79	-28
-18	-39	-25
1	4	-23
20	45	-21
36	80	-24
46	103	-24
51	112	-19
48	104	-17
38	82	-19
22	45	-21
4	5	-17
-16	-39	-21
-35	-78	-23
-47	-108	-23
-55	-120	-28
-54	-117	-20
-47	-98	-23
-32	-64	-27
-13	-24	-27
7	19	-27
27	59	-25
42	90	-23
50	110	-22
50	112	-19
44	100	-19
32	74	-21
15	37	-21
-4	-5	-19
-24	-49	-20
-41	-86	-19
-52	-111	-19
-57	-119	-26
-54	-111	-32
-43	-86	-33
-27	-50	-35
-7	-9	-24
13	34	-19
29	70	-24
40	96	-19
46	108	-17
46	106	-18
41	89	-16
28	59	-17
11	20	-19
-10	-23	-23
-29	-64	-23
-45	-99	-20
-54	-120	-22
-56	-122	-23
-49	-110	-25
-35	-80	-27
-19	-41	-26
1	2	-25
18	45	-23
34	79	-19
45	104	-19
50	111	-19
48	105	-18
39	84	-18
24	49	-18
4	9	-19
-16	-36	-21
-35	-76	-23
-48	-105	-23
-56	-118	-21
-55	-116	-23
-48	-98	-24
-34	-65	-23
-16	-26	-26
4	18	-26
24	58	-24
40	91	-27
50	111	-30
52	115	-26
48	103	-19
36	75	-19
18	37	-24
-2	-8	-22
-23	-51	-23
-40	-88	-21
-52	-112	-22
-57	-122	-26
-53	-115	-26
-43	-92	-27
-25	-57	-26
-5	-14	-25
15	30	-27
32	67	-25
46	97	-22
52	110	-18
52	110	-18
44	92	-16
30	61	-17
12	23	-18
-10	-21	-19
-28	-60	-22
-44	-96	-20
-54	-114	-23
-57	-119	-25
-50	-107	-25
-39	-81	-25
-22	-44	-24
0	0	-25
19	41	-26
37	78	-26
48	101	-22
52	110	-20
48	105	-19
38	83	-18
23	49	-19
5	9	-18
-14	-34	-22
-32	-72	-24
-45	-103	-26
-54	-119	-25
-55	-119	-19
-48	-103	-18
-34	-72	-20
-15	-31	-25
5	13	-31
24	54	-32
40	89	-26
48	109	-18
49	113	-21
44	101	-23
31	74	-16
14	36	-18
-4	-8	-16
-25	-49	-18
-41	-86	-21
-53	-109	-23
-58	-120	-23
-55	-112	-25
-45	-91	-26
-30	-56	-26
-10	-15	-28
11	28	-24
29	68	-27
42	98	-25
50	113	-25
50	112	-21
42	96	-16
29	66	-17
12	27	-17
-7	-16	-17
-25	-58	-18
-41	-94	-21
-51	-116	-21
-53	-123	-22
-49	-110	-26
-38	-84	-26
-23	-45	-25
-1	-1	-24
17	40	-23
35	77	-23
46	100	-23
51	112	-21
49	106	-18
39	88	-24
23	55	-27
4	12	-24
-15	-32	-24
-35	-74	-21
-49	-105	-20
-57	-122	-19
-56	-121	-19
-49	-103	-24
-36	-72	-26
-17	-32	-26
2	11	-27
22	52	-24
37	86	-20
46	105	-22
49	110	-19
44	101	-18
34	77	-19
17	39	-20
-1	-1	-19
-20	-42	-18
-37	-80	-23
-48	-105	-28
-53	-118	-29
-52	-112	-28
-45	-92	-31
-30	-58	-27
-11	-17	-24
11	26	-21
30	64	-22
44	93	-21
52	109	-23
52	110	-22
45	96	-21
32	68	-22
14	29	-20
-4	-15	-19
-22	-57	-21
-38	-94	-24
-49	-116	-24
-53	-121	-25
-50	-109	-24
-39	-84	-23
-22	-44	-24
-2	-2	-25
16	39	-24
34	77	-22
44	101	-23
50	113	-18
48	108	-20
39	89	-19
24	55	-18
8	13	-19
-13	-31	-20
-33	-71	-22
-47	-101	-19
-55	-118	-21
-56	-118	-24
-50	-102	-27
-35	-72	-26
-18	-33	-25
4	8	-26
24	49	-22
38	83	-24
49	105	-21
51	110	-20
46	103	-20
36	80	-19
20	43	-19
0	3	-20
-20	-41	-23
-37	-80	-22
-50	-108	-23
-56	-122	-25
-56	-117	-26
-46	-98	-23
-32	-64	-24
-12	-24	-25
10	21	-25
28	60	-26
42	90	-22
49	108	-23
50	110	-22
43	96	-19
31	68	-16
14	30	-15
-4	-13	-23
-23	-55	-23
-40	-90	-18
-51	-113	-26
-55	-119	-22
-52	-109	-24
-42	-86	-24
-26	-48	-23
-6	-7	-22
14	36	-25
32	72	-24
44	100	-20
50	112	-22
48	108	-21
41	88	-15
26	55	-17
7	15	-19
-13	-29	-22
-32	-68	-23
-46	-99	-18
-56	-118	-25
-57	-119	-27
-50	-106	-23
-37	-77	-22
-18	-38	-24
2	6	-20
22	49	-22
36	83	-30
46	106	-27
50	113	-22
46	105	-20
36	82	-18
21	46	-20
3	4	-19
-18	-39	-18
-36	-77	-21
-50	-106	-21
-58	-119	-28
-57	-116	-25
-48	-98	-25
-33	-65	-30
-14	-24	-26
7	19	-24
24	58	-24
39	91	-22
47	109	-21
50	113	-17
44	101	-18
33	74	-19
17	35	-17
-3	-8	-23
-22	-52	-23
-40	-89	-24
-51	-114	-24
-56	-121	-26
-52	-114	-30
-41	-90	-27
-24	-54	-28
-6	-11	-27
15	34	-28
33	71	-26
44	100	-23
52	112	-20
51	110	-19
42	92	-18
28	60	-18
10	20	-19
-10	-25	-19
-28	-65	-19
-43	-99	-20
-53	-118	-20
-54	-121	-21
-50	-108	-27
-39	-79	-26
-22	-40	-26
-1	3	-26
18	43	-24
33	78	-23
46	101	-22
49	109	-20
46	103	-18
36	82	-19
20	49	-16
2	9	-17
-18	-34	-17
-35	-72	-21
-48	-105	-24
-55	-119	-28
-54	-118	-25
-46	-98	-27
-32	-65	-24
-13	-25	-23
7	18	-32
26	56	-27
41	89	-24
49	106	-25
52	109	-19
46	97	-21
34	70	-22
16	33	-21
-4	-10	-21
-23	-51	-21
-40	-87	-22
-51	-110	-24
-55	-118	-27
-52	-111	-22
-42	-89	-19
-27	-55	-24
-7	-13	-24
12	31	-26
30	68	-31
42	99	-26
49	112	-25
48	109	-19
41	89	-17
28	58	-17
12	19	-14
-7	-23	-15
-26	-61	-15
-42	-95	-20
-53	-114	-23
-56	-118	-24
-52	-106	-25
-39	-79	-25
-22	-40	-26
-1	2	-25
19	43	-22
35	79	-24
46	103	-20
51	113	-18
49	106	-17
39	85	-18
25	51	-20
5	9	-18
-15	-34	-20
-33	-75	-20
-48	-104	-22
-54	-120	-24
-55	-118	-24
-47	-101	-25
-34	-69	-26
-16	-29	-26
4	13	-25
22	53	-26
38	86	-25
47	106	-24
50	110	-23
44	99	-20
33	74	-17
16	36	-15
-2	-5	-19
-22	-47	-25
-38	-86	-25
-50	-110	-25
-56	-122	-27
-55	-116	-30
-47	-96	-26
-30	-60	-24
-11	-18	-24
12	26	-24
31	66	-23
46	95	-22
53	110	-21
50	109	-23
42	92	-21
28	62	-18
11	23	-16
-8	-17	-16
-27	-58	-20
-42	-92	-22
-53	-112	-22
-56	-119	-23
-53	-107	-22
-40	-81	-25
-23	-43	-25
-3	0	-28
18	42	-23
35	80	-22
46	102	-21
50	112	-21
48	106	-21
37	88	-19
23	54	-20
5	14	-18
-14	-29	-19
-33	-71	-19
-48	-103	-23
-55	-121	-23
-56	-120	-28
-49	-102	-28
-35	-70	-23
-16	-29	-28
4	13	-28
24	54	-26
39	85	-24
48	105	-18
49	110	-15
44	100	-17
33	76	-14
18	40	-13
0	-1	-24
-20	-44	-23
-35	-81	-21
-47	-107	-25
-53	-120	-23
-52	-115	-27
-44	-95	-23
-29	-60	-23
-10	-19	-21
12	25	-22
30	65	-24
44	95	-22
50	111	-21
50	110	-17
44	96	-22
30	66	-26
13	28	-25
-7	-14	-21
-26	-56	-21
-43	-92	-22
-54	-116	-23
-57	-122	-26
-54	-113	-29
-42	-86	-28
-24	-47	-23
-2	-4	-23
18	39	-20
36	76	-21
48	100	-23
52	110	-20
50	105	-22
41	87	-17
27	53	-18
8	14	-20
-12	-31	-23
-32	-71	-21
-47	-103	-18
-55	-119	-19
-56	-118	-30
-50	-102	-36
-36	-70	-25
-18	-32	-24
1	9	-25
20	48	-23
34	80	-23
44	103	-22
50	110	-19
46	104	-15
36	81	-21
21	45	-19
2	2	-16
-19	-43	-18
-37	-81	-18
-51	-111	-22
-58	-121	-23
-57	-116	-25
-47	-96	-27
-31	-61	-25
-12	-20	-26
9	24	-27
27	64	-25
41	94	-26
49	110	-23
50	110	-19
44	97	-18
31	67	-21
14	30	-24
-6	-13	-20
-26	-54	-21
-42	-89	-24
-52	-113	-25
-55	-120	-27
-52	-111	-25
-41	-87	-24
-25	-50	-24
-6	-5	-25
14	37	-25
32	72	-24
44	100	-22
50	110	-22
48	108	-20
39	89	-16
24	57	-13
7	16	-14
-12	-27	-16
-30	-66	-19
-44	-98	-24
-52	-114	-26
-54	-115	-28
-48	-101	-27
-36	-71	-21
-18	-35	-24
2	7	-33
21	47	-25
38	83	-24
49	105	-23
52	111	-20
47	104	-20
35	79	-18
18	43	-19
-1	1	-20
-21	-42	-20
-37	-80	-21
-49	-107	-23
-54	-118	-25
-54	-116	-26
-47	-97	-25
-31	-66	-24
-13	-25	-26
9	19	-25
29	58	-24
44	91	-20
52	110	-18
52	113	-16
46	100	-16
33	71	-21
16	34	-24
-4	-11	-21
-23	-55	-20
-40	-92	-21
-51	-116	-21
-55	-123	-24
-53	-115	-29
-42	-88	-27
-26	-51	-26
-7	-7	-28
14	35	-25
32	72	-23
44	100	-20
51	111	-19
50	108	-18
42	89	-19
28	58	-20
10	17	-20
-10	-27	-20
-30	-66	-20
-44	-100	-21
-53	-118	-18
-55	-121	-23
-49	-105	-25
-36	-76	-25
-19	-37	-26
2	6	-27
21	46	-24
37	82	-20
46	102	-21
49	110	-19
44	103	-17
34	81	-17
18	48	-16
0	7	-14
-20	-36	-16
-37	-75	-23
-50	-103	-24
-56	-118	-24
-54	-117	-27
-47	-98	-27
-32	-67	-27
-14	-27	-28
6	15	-26
24	56	-24
38	89	-24
48	108	-23
49	112	-21
45	100	-20
34	75	-25
17	36	-20
-3	-7	-15
-23	-51	-20
-40	-89	-18
-52	-112	-22
-56	-122	-25
-54	-114	-26
-45	-92	-28
-29	-56	-27
-10	-13	-26
10	29	-24
28	68	-24
40	96	-21
48	110	-19
48	110	-14
40	92	-12
28	61	-17
10	19	-19
-10	-24	-21
-29	-65	-20
-44	-98	-23
-54	-117	-25
-56	-121	-24
-51	-107	-27
-38	-80	-25
-20	-40	-25
1	3	-31
21	45	-32
37	83	-28
50	106	-23
54	116	-19
50	106	-20
40	85	-22
24	48	-19
5	7	-19
-15	-37	-21
-32	-78	-21
-46	-105	-20
-54	-121	-23
-53	-118	-24
-46	-99	-23
-32	-67	-26
-14	-27	-25
7	17	-25
26	58	-31
40	90	-30
49	110	-24
49	114	-17
44	101	-17
33	75	-20
16	37	-18
-3	-5	-17
-22	-49	-16
-39	-85	-20
-50	-108	-24
-55	-118	-24
-53	-111	-27
-43	-89	-30
-28	-54	-32
-8	-14	-29
11	28	-26
29	66	-25
42	95	-18
50	110	-22
50	109	-26
41	96	-16
29	64	-18
12	23	-14
-8	-21	-18
-28	-64	-20
-43	-99	-20
-53	-121	-25
-56	-123	-27
-50	-111	-30
-39	-85	-25
-22	-46	-22
-2	-4	-21
17	39	-19
34	75	-21
46	101	-22
52	113	-19
49	109	-20
41	89	-20
27	55	-19
8	14	-18
-14	-31	-16
-32	-70	-20
-48	-102	-24
-54	-118	-25
-54	-117	-25
-47	-101	-30
-32	-69	-30
-15	-30	-30
4	13	-30
22	53	-24
36	86	-22
46	106	-19
50	112	-19
45	102	-19
35	77	-18
20	40	-19
0	-2	-22
-21	-47	-22
-39	-85	-21
-52	-112	-24
-59	-121	-23
-57	-115	-25
-47	-94	-27
-31	-59	-28
-12	-19	-28
9	24	-25
27	61	-24
41	92	-23
48	109	-19
48	109	-17
41	96	-18
28	66	-16
11	28	-15
-8	-17	-16
-27	-58	-20
-43	-93	-21
-53	-114	-23
-57	-120	-24
-51	-110	-25
-40	-83	-26
-23	-46	-24
-4	-4	-25
17	38	-22
33	74	-21
45	101	-21
50	112	-20
48	108	-19
39	88	-18
24	55	-19
6	14	-18
-14	-31	-18
-30	-71	-16
-45	-103	-17
-53	-120	-30
-54	-120	-31
-48	-104	-26
-34	-72	-34
-16	-33	-26
5	10	-23
23	51	-23
40	84	-21
49	105	-24
52	110	-20
48	103	-21
37	80	-21
21	45	-21
1	3	-23
-18	-41	-24
-36	-81	-21
-48	-109	-20
-54	-121	-24
-54	-117	-24
-45	-95	-26
-30	-60	-26
-12	-19	-31
8	25	-32
27	62	-23
41	92	-21
48	106	-20
48	109	-19
42	94	-20
30	65	-21
13	28	-21
-5	-15	-20
-24	-56	-23
-39	-92	-23
-50	-114	-20
-54	-121	-20
-50	-112	-25
-40	-86	-24
-24	-48	-24
-4	-4	-25
16	38	-22
34	76	-19
46	103	-21
52	112	-22
50	110	-20
41	89	-21
26	56	-18
7	15	-13
-12	-28	-16
-31	-68	-19
-46	-101	-20
-55	-118	-25
-56	-119	-27
-50	-104	-24
-36	-74	-23
-18	-35	-24
2	7	-26
23	47	-25
39	83	-21
48	104	-21
51	113	-21
48	105	-18
37	82	-17
23	45	-17
3	2	-17
-17	-42	-22
-35	-82	-24
-49	-108	-24
-56	-118	-25
-56	-114	-25
-48	-93	-27
-34	-61	-27
-14	-21	-26
6	20	-27
25	59	-24
39	90	-22
48	106	-24
49	110	-24
44	96	-18
31	68	-16
15	30	-16
-4	-13	-16
-24	-54	-19
-40	-90	-21
-52	-111	-23
-56	-118	-28
-53	-108	-27
-42	-84	-28
-25	-48	-28
-6	-6	-27
15	35	-27
32	74	-26
46	100	-25
51	114	-21
49	111	-17
42	92	-19
27	60	-25
9	19	-19
-11	-25	-23
-30	-67	-24
-46	-99	-24
-54	-118	-28
-58	-121	-24
-51	-106	-28
-39	-78	-26
-21	-38	-26
0	4	-26
18	45	-23
35	81	-24
44	103	-22
49	112	-20
45	103	-17
36	82	-18
22	45	-17
4	4	-18
-16	-37	-19
-35	-77	-20
-48	-105	-22
-56	-121	-24
-55	-117	-25
-46	-98	-26
-31	-64	-28
-12	-22	-28
7	22	-24
25	62	-18
40	93	-19
48	110	-23
51	112	-21
46	99	-18
35	72	-26
18	35	-23
-3	-8	-21
-25	-52	-24
-43	-90	-24
-57	-116	-28
-61	-127	-25
-56	-118	-23
-44	-95	-22
-26	-56	-23
-5	-12	-23
16	31	-22
32	70	-20
43	96	-21
49	110	-20
49	108	-16
42	93	-16
29	62	-16
12	22	-15
-10	-21	-14
-28	-63	-15
-44	-97	-20
-53	-117	-22
-56	-119	-25
-50	-104	-28
-37	-78	-26
-20	-38	-26
-1	2	-28
16	43	-26
33	79	-23
44	102	-23
49	110	-21
46	104	-19
38	84	-18
24	48	-15
5	7	-17
-15	-38	-26
-34	-77	-23
-47	-106	-23
-55	-121	-24
-55	-117	-25
-49	-100	-30
-35	-67	-24
-17	-27	-25
4	16	-24
24	57	-26
40	89	-25
49	109	-24
51	112	-21
46	100	-18
34	76	-21
16	38	-20
-1	-4	-19
-22	-48	-19
-38	-84	-21
-49	-110	-20
-54	-119	-25
-53	-112	-27
-44	-91	-27
-27	-55	-25
-8	-14	-25
12	30	-25
31	68	-16
44	98	-19
52	113	-28
52	110	-19
44	95	-18
32	63	-17
13	23	-15
-8	-21	-19
-28	-62	-20
-44	-96	-22
-54	-117	-24
-56	-120	-26
-51	-108	-28
-39	-80	-28
-22	-41	-30
-2	0	-27
16	42	-22
33	77	-20
44	101	-17
50	111	-19
48	106	-22
39	86	-20
25	53	-23
6	12	-22
-13	-32	-23
-32	-71	-22
-46	-104	-20
-54	-120	-23
-55	-119	-25
-48	-102	-27
-34	-69	-26
-16	-31	-27
4	13	-26
24	52	-27
39	85	-28
48	105	-25
51	109	-23
46	99	-21
35	72	-17
18	36	-18
-1	-7	-19
-23	-50	-19
-40	-86	-20
-53	-112	-22
-57	-121	-24
-55	-114	-25
-45	-93	-24
-28	-57	-24
-10	-17	-28
11	28	-25
29	66	-23
43	97	-23
51	112	-19
52	112	-19
44	96	-21
31	65	-22
12	27	-15
-9	-17	-11
-28	-58	-18
-43	-94	-21
-52	-114	-22
-55	-121	-21
-51	-110	-22
-41	-84	-30
-24	-46	-30
-5	-2	-24
15	40	-27
31	76	-26
42	100	-22
48	108	-21
44	104	-20
35	85	-20
21	54	-17
5	16	-19
-12	-28	-19
-28	-69	-22
-42	-102	-25
-53	-120	-24
-54	-121	-23
-49	-103	-23
-35	-69	-24
-15	-30	-24
5	14	-24
26	52	-22
41	85	-23
50	105	-24
52	112	-20
48	103	-23
36	79	-22
22	43	-24
2	-2	-18
-18	-45	-19
-37	-85	-23
-51	-111	-23
-58	-121	-23
-56	-115	-24
-46	-94	-26
-30	-61	-24
-12	-21	-28
9	22	-25
27	60	-25
41	92	-19
49	109	-16
49	110	-17
42	94	-11
31	66	-20
14	28	-19
-5	-15	-20
-23	-54	-24
-40	-90	-24
-51	-112	-21
-55	-119	-23
-52	-110	-28
-42	-85	-25
-26	-48	-24
-6	-4	-24
13	38	-28
31	76	-25
42	101	-21
48	112	-24
46	106	-22
36	87	-20
23	55	-21
5	14	-18
-15	-29	-17
-32	-70	-22
-46	-100	-22
-55	-118	-22
-55	-119	-27
-50	-103	-26
-37	-74	-26
-18	-33	-27
3	10	-27
24	51	-26
39	85	-22
49	106	-22
52	112	-20
48	102	-19
36	78	-23
20	42	-21
2	1	-21
-18	-41	-24
-34	-80	-23
-48	-107	-23
-55	-121	-23
-53	-117	-24
-45	-97	-24
-30	-63	-24
-10	-21	-25
10	23	-25
28	63	-24
41	94	-23
49	110	-19
51	112	-14
44	98	-20
32	70	-21
16	32	-17
-5	-11	-22
-24	-53	-30
-43	-90	-26
-54	-114	-23
-59	-123	-27
-55	-113	-24
-44	-90	-28
-27	-51	-25
-5	-8	-25
15	37	-24
34	76	-25
46	101	-20
52	114	-18
50	109	-19
41	90	-16
26	56	-21
8	16	-22
-11	-27	-24
-29	-68	-22
-43	-100	-20
-54	-119	-16
-56	-122	-17
-50	-108	-21
-37	-80	-25
-20	-39	-31
1	6	-25
22	50	-18
37	85	-23
48	108	-23
51	115	-18
46	104	-19
35	81	-16
21	43	-19
2	3	-18
-17	-40	-19
-34	-79	-23
-48	-105	-23
-55	-119	-27
-53	-115	-26
-45	-96	-25
-30	-62	-25
-12	-21	-28
9	20	-27
26	60	-26
40	90	-26
48	108	-24
50	110	-22
44	99	-22
31	72	-21
14	33	-21
-6	-10	-21
-25	-54	-20
-41	-92	-22
-52	-115	-24
-56	-122	-26
-52	-112	-26
-42	-89	-26
-26	-51	-24
-7	-11	-23
14	32	-24
31	68	-25
42	96	-22
50	110	-19
48	106	-18
41	93	-18
27	61	-18
10	22	-18
-8	-21	-19
-28	-62	-18
-44	-96	-25
-54	-116	-32
-57	-118	-27
-53	-105	-24
-40	-78	-26
-22	-40	-24
0	1	-25
20	41	-24
36	76	-22
48	101	-20
52	110	-19
48	106	-18
38	85	-17
23	48	-17
4	6	-17
-17	-39	-19
-34	-78	-18
-47	-107	-19
