File Name: not saved
Channel 2: 'EMG 2', 13440 values, raw ADC, no filters, extrapolated from 1000 to 5000 samples per second.
Channel 3: 'EMG 3', 13440 values, raw ADC, no filters, extrapolated from 1000 to 5000 samples per second.
Channel 4: 'EMG 4', 67200 values, raw ADC, no filters.
Digitals combined (event=16, d=8, c=4, b=2, a=1): 13440 values, , extrapolated from 1000 to 5000 samples per second.

-679	64	-600	31
-692	64	-685	31
-705	65	-761	31
-719	65	-811	31
-732	66	-871	31
-747	66	-880	31
-754	66	-902	31
-762	65	-901	31
-769	64	-880	31
-777	63	-840	31
-786	61	-799	31
-786	61	-733	31
-787	60	-658	31
-787	58	-576	31
-788	57	-465	31
-790	55	-388	31
-785	54	-294	31
-780	52	-196	31
-775	49	-101	31
-770	47	4	31
-765	44	69	31
-754	44	148	31
-742	43	214	31
-731	43	267	31
-719	42	322	31
-708	40	347	31
-692	40	360	31
-677	40	366	31
-661	41	357	31
-646	41	324	31
-630	41	295	31
-612	42	243	31
-594	43	182	31
-575	44	114	31
-557	45	25	31
-539	46	-40	31
-521	47	-114	31
-503	47	-195	31
-484	48	-267	31
-466	48	-346	31
-448	49	-393	31
-433	49	-443	31
-418	49	-483	31
-403	49	-514	31
-388	49	-531	31
-373	49	-536	31
-363	49	-528	31
-353	49	-502	31
-343	50	-465	31
-333	50	-402	31
-323	50	-350	31
-319	50	-272	31
-315	50	-187	31
-310	50	-89	31
-306	49	29	31
-302	48	119	31
-304	48	225	31
-307	48	336	31
-311	48	431	31
-314	48	545	31
-318	48	615	31
-327	49	690	31
-336	50	750	31
-346	50	805	31
-355	51	847	31
-366	52	868	31
-380	53	877	31
-394	54	870	31
-409	56	848	31
-423	57	801	31
-439	58	757	31
-455	59	689	31
-472	60	613	31
-490	60	519	31
-507	61	402	31
-525	62	315	31
-542	62	198	31
-560	62	81	31
-578	62	-28	31
-596	62	-161	31
-615	61	-244	31
-629	61	-339	31
-644	60	-424	31
-659	60	-506	31
-674	59	-585	31
-690	57	-625	31
-700	57	-674	31
-711	55	-701	31
-722	54	-713	31
-733	52	-708	31
-745	50	-685	31
-749	49	-658	31
-755	48	-612	31
-760	46	-548	31
-766	45	-465	31
-772	42	-400	31
-772	42	-305	31
-772	41	-209	31
-772	41	-118	31
-772	40	-1	31
-772	38	74	31
-765	38	159	31
-759	38	237	31
-752	38	314	31
-746	38	387	31
-739	37	426	31
-728	38	467	31
-716	38	491	31
-705	39	504	31
-693	39	502	31
-682	40	487	31
-668	41	456	31
-653	42	414	31
-639	44	357	31
-624	45	274	31
-610	46	211	31
-594	48	121	31
-578	50	30	31
-563	51	-55	31
-547	53	-166	31
-531	55	-236	31
-516	57	-311	31
-500	58	-388	31
-485	60	-452	31
-469	61	-515	31
-454	63	-548	31
-440	64	-576	31
-427	65	-595	31
-413	65	-596	31
-400	66	-576	31
-386	67	-554	31
-377	67	-513	31
-367	67	-452	31
-358	67	-383	31
-348	67	-280	31
-339	66	-205	31
-335	66	-97	31
-330	64	9	31
-326	63	126	31
-321	61	262	31
-317	59	359	31
-318	58	464	31
-321	55	573	31
-323	53	666	31
-326	50	761	31
-329	47	824	31
-337	46	885	31
-346	43	930	31
-355	41	954	31
-364	38	977	31
-374	35	978	31
-388	35	954	31
-403	34	928	31
-419	32	878	31
-434	31	803	31
-450	29	737	31
-468	29	647	31
-487	30	551	31
-507	30	440	31
-526	31	308	31
-546	31	212	31
-565	33	92	31
-584	35	-28	31
-604	37	-134	31
-623	39	-262	31
-644	41	-339	31
-660	44	-428	31
-677	47	-502	31
-693	51	-572	31
-710	54	-634	31
-728	57	-666	31
-738	60	-689	31
-750	62	-704	31
-761	65	-701	31
-773	67	-674	31
-785	70	-642	31
-788	72	-594	31
-792	74	-534	31
-795	77	-457	31
-799	79	-363	31
-804	81	-294	31
-800	81	-200	31
-797	82	-108	31
-793	82	-25	31
-790	83	80	31
-786	83	145	31
-776	83	214	31
-766	82	279	31
-756	82	333	31
-746	81	380	31
-736	79	402	31
-721	78	420	31
-706	76	422	31
-690	74	410	31
-675	72	376	31
-660	69	344	31
-642	68	293	31
-624	66	229	31
-606	65	152	31
-588	63	53	31
-570	60	-15	31
-552	59	-108	31
-534	57	-196	31
-517	54	-276	31
-499	52	-373	31
-481	49	-430	31
-465	49	-490	31
-449	48	-546	31
-432	46	-588	31
-416	45	-621	31
-400	43	-632	31
-388	43	-633	31
-376	42	-619	31
-364	42	-589	31
-352	41	-535	31
-340	39	-483	31
-333	39	-415	31
-326	38	-328	31
-320	37	-229	31
-313	36	-99	31
-306	34	-8	31
-306	34	114	31
-306	32	233	31
-306	31	355	31
-306	29	495	31
-306	27	591	31
-312	27	690	31
-319	26	789	31
-325	26	870	31
-332	25	953	31
-340	23	995	31
-351	23	1035	31
-364	23	1056	31
-376	23	1063	31
-389	23	1047	31
-402	23	1029	31
-418	24	988	31
-435	25	931	31
-452	27	860	31
-469	28	751	31
-487	29	671	31
-504	31	561	31
-523	33	448	31
-541	34	321	31
-560	36	172	31
-579	38	70	31
-596	41	-55	31
-614	43	-179	31
-633	46	-290	31
-651	48	-418	31
-670	51	-499	31
-684	53	-590	31
-698	54	-662	31
-713	56	-732	31
-727	57	-790	31
-743	59	-811	31
-751	60	-839	31
-760	60	-848	31
-768	61	-831	31
-777	61	-799	31
-787	62	-764	31
-788	62	-711	31
-790	62	-645	31
-793	62	-566	31
-795	62	-467	31
-798	61	-399	31
-793	61	-302	31
-788	60	-213	31
-782	60	-129	31
-777	59	-27	31
-772	57	38	31
-761	57	105	31
-750	57	166	31
-740	57	220	31
-729	56	263	31
-718	55	283	31
-702	55	297	31
-685	56	299	31
-669	56	283	31
-652	57	249	31
-636	57	214	31
-618	58	163	31
-599	59	97	31
-581	61	23	31
-562	62	-68	31
-544	63	-132	31
-525	63	-216	31
-507	64	-293	31
-488	64	-362	31
-470	65	-443	31
-451	65	-494	31
-436	65	-545	31
-421	65	-586	31
-405	64	-612	31
-390	64	-635	31
-375	62	-635	31
-365	62	-625	31
-355	61	-600	31
-344	59	-560	31
-334	58	-495	31
-324	56	-442	31
-320	55	-365	31
-316	53	-272	31
-312	52	-171	31
-308	50	-45	31
-304	47	42	31
-307	47	157	31
-311	46	262	31
-314	46	365	31
-318	45	483	31
-323	43	559	31
-331	43	634	31
-340	44	706	31
-348	44	759	31
-357	45	807	31
-367	45	824	31
-381	47	838	31
-395	49	828	31
-410	52	809	31
-424	54	759	31
-440	56	719	31
-456	58	654	31
-473	59	570	31
-491	61	478	31
-508	62	352	31
-526	64	263	31
-543	65	141	31
-561	65	27	31
-580	66	-99	31
-598	66	-236	31
-617	67	-334	31
-632	67	-438	31
-648	67	-545	31
-665	66	-633	31
-681	66	-732	31
-698	64	-788	31
-709	64	-840	31
-721	62	-876	31
-733	61	-909	31
-745	59	-921	31
-758	57	-917	31
-764	56	-896	31
-771	55	-863	31
-777	53	-811	31
-784	52	-732	31
-792	49	-668	31
-792	49	-576	31
-791	48	-483	31
-791	46	-379	31
-790	45	-260	31
-790	43	-176	31
-783	44	-69	31
-776	44	28	31
-768	45	115	31
-761	45	219	31
-754	46	282	31
-741	46	347	31
-727	46	399	31
-714	47	442	31
-700	47	474	31
-687	47	485	31
-670	47	483	31
-653	47	467	31
-635	48	438	31
-618	48	385	31
-601	48	336	31
-583	48	273	31
-564	47	198	31
-546	47	116	31
-527	46	23	31
-509	44	-39	31
-492	44	-120	31
-475	43	-193	31
-458	42	-257	31
-441	41	-330	31
-424	39	-370	31
-411	39	-409	31
-398	39	-436	31
-384	39	-453	31
-371	39	-453	31
-358	38	-443	31
-350	38	-417	31
-342	38	-375	31
-334	39	-323	31
-326	39	-242	31
-318	39	-176	31
-316	40	-91	31
-315	41	12	31
-313	41	119	31
-312	42	245	31
-310	43	328	31
-314	44	431	31
-318	46	528	31
-323	47	621	31
-327	49	716	31
-333	50	778	31
-342	51	835	31
-352	52	886	31
-362	53	924	31
-372	54	946	31
-383	55	946	31
-397	55	938	31
-412	56	909	31
-428	56	869	31
-443	57	801	31
-459	57	737	31
-476	57	658	31
-494	57	561	31
-513	57	456	31
-531	56	324	31
-550	55	235	31
-567	55	117	31
-585	55	12	31
-604	55	-100	31
-622	55	-218	31
-641	55	-299	31
-656	55	-388	31
-672	55	-469	31
-687	55	-533	31
-703	55	-597	31
-720	55	-631	31
-730	55	-658	31
-741	55	-668	31
-753	55	-665	31
-764	55	-642	31
-776	55	-612	31
-779	55	-566	31
-782	55	-502	31
-786	56	-434	31
-789	56	-335	31
-794	56	-264	31
-791	56	-176	31
-788	55	-88	31
-784	55	5	31
-781	54	105	31
-778	52	166	31
-769	52	246	31
-759	52	310	31
-750	52	360	31
-740	51	413	31
-731	50	438	31
-716	50	456	31
-702	49	457	31
-687	47	451	31
-673	46	421	31
-658	44	391	31
-641	44	341	31
-623	44	277	31
-606	44	208	31
-588	43	105	31
-571	42	32	31
-553	42	-53	31
-536	42	-143	31
-518	41	-233	31
-501	41	-327	31
-483	39	-380	31
-467	39	-449	31
-451	40	-505	31
-436	40	-548	31
-420	41	-588	31
-404	41	-602	31
-392	42	-605	31
-380	43	-596	31
-367	43	-571	31
-355	44	-520	31
-343	45	-477	31
-337	46	-405	31
-330	46	-326	31
-324	47	-236	31
-317	47	-108	31
-311	48	-14	31
-311	48	97	31
-311	49	222	31
-310	49	347	31
-310	50	485	31
-310	50	569	31
-316	50	675	31
-322	50	761	31
-329	51	844	31
-335	51	929	31
-343	51	972	31
-355	52	1011	31
-368	53	1037	31
-381	53	1047	31
-394	54	1035	31
-408	55	1011	31
-424	55	978	31
-441	56	921	31
-459	56	854	31
-476	57	751	31
-494	57	671	31
-512	57	568	31
-531	58	447	31
-549	58	324	31
-568	59	180	31
-588	59	84	31
-605	59	-38	31
-622	60	-146	31
-640	60	-258	31
-657	61	-373	31
-676	61	-453	31
-689	61	-534	31
-703	61	-609	31
-716	61	-665	31
-730	61	-716	31
-745	60	-739	31
-752	60	-746	31
-761	59	-746	31
-769	59	-730	31
-778	58	-685	31
-787	56	-650	31
-787	56	-593	31
-788	55	-516	31
-790	53	-438	31
-791	52	-335	31
-793	50	-262	31
-788	50	-174	31
-782	50	-89	31
-777	50	0	31
-771	50	91	31
-766	49	147	31
-755	49	214	31
-744	49	270	31
-732	48	310	31
-721	48	344	31
-710	46	358	31
-695	46	360	31
-679	46	350	31
-664	46	326	31
-648	46	279	31
-633	46	237	31
-615	46	172	31
-597	46	97	31
-579	46	21	31
-561	46	-87	31
-543	46	-159	31
-526	46	-242	31
-508	46	-325	31
-491	46	-407	31
-473	46	-490	31
-456	45	-535	31
-441	45	-593	31
-426	46	-635	31
-411	46	-662	31
-396	47	-681	31
-381	47	-681	31
-370	47	-669	31
-359	47	-644	31
-349	47	-600	31
-338	47	-531	31
-327	47	-477	31
-323	47	-391	31
-319	48	-296	31
-314	48	-198	31
-310	49	-61	31
-306	49	36	31
-307	49	147	31
-309	50	267	31
-312	50	383	31
-314	51	506	31
-317	51	580	31
-325	52	671	31
-334	53	742	31
-342	53	801	31
-351	54	857	31
-361	55	885	31
-374	56	900	31
-387	57	901	31
-401	57	885	31
-414	58	843	31
-429	59	804	31
-446	59	741	31
-463	60	666	31
-481	60	577	31
-498	61	455	31
-517	61	360	31
-534	61	247	31
-553	61	118	31
-571	61	-7	31
-590	61	-151	31
-609	61	-242	31
-625	61	-353	31
-642	61	-456	31
-659	60	-556	31
-676	60	-660	31
-694	58	-724	31
-706	58	-788	31
-719	58	-839	31
-732	58	-873	31
-745	57	-896	31
-759	56	-901	31
-765	56	-889	31
-772	55	-864	31
-778	55	-815	31
-785	54	-748	31
-793	52	-696	31
-793	52	-612	31
-793	51	-523	31
-792	51	-429	31
-792	50	-313	31
-792	48	-234	31
-784	48	-139	31
-777	48	-51	31
-769	48	41	31
-762	48	134	31
-754	48	192	31
-741	48	256	31
-728	48	308	31
-715	48	347	31
-702	48	376	31
-689	47	387	31
-672	47	383	31
-655	47	366	31
-638	47	336	31
-621	47	283	31
-604	46	239	31
-586	46	172	31
-568	46	97	31
-550	46	24	31
-532	46	-72	31
-514	45	-135	31
-497	45	-207	31
-480	45	-277	31
-462	46	-345	31
-445	46	-410	31
-428	46	-447	31
-414	46	-483	31
-401	46	-510	31
-387	47	-522	31
-374	47	-521	31
-360	47	-506	31
-352	47	-480	31
-344	47	-435	31
-335	48	-377	31
-327	48	-294	31
-319	48	-231	31
-316	49	-133	31
-314	49	-32	31
-311	50	65	31
-309	50	198	31
-306	51	288	31
-309	51	387	31
-314	51	490	31
-318	51	585	31
-323	51	679	31
-328	51	736	31
-338	52	801	31
-348	53	850	31
-359	53	881	31
-369	54	905	31
-381	55	909	31
-395	55	889	31
-410	55	869	31
-426	55	824	31
-441	55	758	31
-457	55	695	31
-474	56	615	31
-493	56	522	31
-511	57	421	31
-530	57	291	31
-549	58	195	31
-566	58	89	31
-584	58	-29	31
-603	59	-139	31
-621	59	-258	31
-640	59	-331	31
-655	59	-418	31
-671	59	-490	31
-687	59	-556	31
-703	59	-612	31
-720	59	-646	31
-730	59	-669	31
-741	59	-677	31
-751	58	-669	31
-762	58	-642	31
-774	56	-609	31
-777	56	-559	31
-782	55	-495	31
-786	54	-418	31
-791	53	-323	31
-796	51	-246	31
-793	51	-151	31
-790	51	-53	31
-786	50	37	31
-783	50	143	31
-780	48	210	31
-771	48	283	31
-762	48	347	31
-753	47	406	31
-744	47	456	31
-735	45	483	31
-721	45	503	31
-706	45	510	31
-692	45	496	31
-677	44	470	31
-663	43	440	31
-646	43	389	31
-628	44	329	31
-611	44	251	31
-593	45	152	31
-576	45	81	31
-558	45	-15	31
-540	45	-111	31
-523	46	-196	31
-505	46	-296	31
-487	46	-360	31
-471	47	-428	31
-455	47	-483	31
-438	48	-540	31
-422	48	-580	31
-406	49	-599	31
-394	49	-610	31
-382	49	-609	31
-369	49	-587	31
-357	49	-545	31
-345	49	-502	31
-338	49	-441	31
-331	50	-363	31
-325	50	-272	31
-318	51	-154	31
-311	51	-68	31
-311	51	51	31
-311	51	170	31
-310	51	281	31
-310	51	421	31
-310	51	511	31
-315	51	607	31
-322	51	699	31
-328	51	788	31
-335	51	866	31
-342	51	909	31
-353	52	954	31
-366	53	981	31
-378	53	991	31
-391	54	982	31
-404	55	964	31
-420	56	931	31
-437	56	876	31
-453	57	805	31
-470	57	708	31
-488	58	634	31
-506	59	523	31
-524	59	415	31
-543	60	304	31
-561	60	163	31
-581	61	62	31
-598	61	-44	31
-615	61	-161	31
-633	61	-266	31
-650	61	-377	31
-669	61	-447	31
-682	61	-528	31
-697	61	-587	31
-711	61	-639	31
-726	60	-681	31
-741	59	-701	31
-749	59	-708	31
-758	57	-701	31
-766	56	-674	31
-775	54	-625	31
-785	52	-585	31
-786	52	-519	31
-788	51	-448	31
-791	50	-363	31
-793	49	-262	31
-796	47	-188	31
-791	47	-97	31
-786	47	-7	31
-781	46	74	31
-776	46	166	31
-771	44	221	31
-760	44	282	31
-749	44	328	31
-737	44	366	31
-726	43	395	31
-715	42	405	31
-699	42	402	31
-683	42	386	31
-667	43	356	31
-651	43	299	31
-635	43	255	31
-617	43	188	31
-599	43	114	31
-581	43	25	31
-563	43	-78	31
-545	43	-149	31
-527	43	-241	31
-509	43	-328	31
-492	44	-401	31
-474	44	-488	31
-456	44	-534	31
-441	44	-582	31
-426	44	-619	31
-411	44	-646	31
-396	44	-658	31
-381	43	-653	31
-371	43	-636	31
-360	43	-601	31
-350	44	-553	31
-339	44	-474	31
-329	44	-409	31
-324	45	-323	31
-320	45	-223	31
-315	46	-109	31
-311	46	28	31
-306	47	122	31
-308	48	253	31
-310	48	376	31
-313	49	489	31
-315	49	626	31
-319	50	711	31
-326	51	796	31
-334	52	877	31
-342	53	946	31
-350	54	1006	31
-359	55	1034	31
-372	55	1056	31
-386	56	1060	31
-401	56	1045	31
-415	57	1009	31
-430	57	971	31
-446	57	913	31
-463	58	836	31
-481	58	745	31
-498	59	622	31
-516	59	536	31
-534	59	412	31
-552	59	286	31
-571	59	166	31
-589	59	13	31
-609	59	-92	31
-625	59	-203	31
-642	59	-323	31
-659	59	-430	31
-676	59	-548	31
-694	58	-612	31
-706	58	-695	31
-719	58	-749	31
-731	58	-804	31
-744	58	-840	31
-758	57	-858	31
-764	57	-861	31
-771	56	-848	31
-778	55	-815	31
-785	54	-765	31
-793	52	-717	31
-792	52	-650	31
-792	52	-575	31
-791	52	-488	31
-791	52	-386	31
-790	52	-311	31
-783	52	-220	31
-776	52	-128	31
-769	52	-47	31
-762	51	46	31
-755	50	102	31
-742	50	163	31
-728	50	210	31
-715	49	251	31
-701	49	278	31
-688	47	289	31
-672	47	288	31
-656	47	273	31
-639	47	244	31
-623	47	190	31
-607	47	146	31
-589	47	82	31
-571	47	16	31
-552	47	-66	31
-534	47	-158	31
-516	46	-218	31
-499	46	-298	31
-482	46	-372	31
-464	46	-434	31
-447	46	-505	31
-430	46	-545	31
-416	46	-580	31
-402	46	-604	31
-389	47	-621	31
-375	47	-619	31
-361	47	-609	31
-352	48	-580	31
-343	49	-538	31
-335	49	-483	31
-326	50	-400	31
-317	51	-331	31
-314	51	-242	31
-312	51	-144	31
-309	51	-32	31
-307	51	96	31
-304	51	180	31
-307	51	293	31
-311	51	399	31
-315	52	490	31
-319	52	597	31
-324	52	659	31
-334	52	719	31
-344	52	775	31
-355	52	814	31
-365	52	843	31
-377	52	847	31
-392	53	838	31
-407	53	814	31
-423	54	778	31
-438	54	710	31
-455	55	652	31
-472	55	573	31
-491	55	479	31
-509	56	373	31
-528	56	239	31
-547	56	149	31
-565	56	25	31
-584	56	-91	31
-602	57	-198	31
-621	57	-334	31
-641	57	-416	31
-656	58	-502	31
-672	58	-593	31
-688	59	-668	31
-704	59	-739	31
-721	60	-771	31
-731	60	-808	31
-743	59	-825	31
-754	59	-826	31
-766	58	-808	31
-778	56	-788	31
-781	56	-745	31
-785	55	-681	31
-790	54	-610	31
-794	53	-510	31
-799	51	-436	31
-796	51	-337	31
-794	51	-240	31
-791	50	-138	31
-789	50	-22	31
-786	48	58	31
-777	48	146	31
-767	48	235	31
-758	47	308	31
-748	47	385	31
-739	45	426	31
-725	45	467	31
-710	45	491	31
-696	45	506	31
-681	45	503	31
-667	44	490	31
-650	44	456	31
-633	44	413	31
-616	44	357	31
-599	44	272	31
-582	43	209	31
-564	43	125	31
-546	43	44	31
-528	44	-44	31
-510	44	-141	31
-492	44	-205	31
-476	44	-282	31
-460	44	-351	31
-443	44	-407	31
-427	44	-464	31
-411	44	-491	31
-399	44	-513	31
-386	44	-521	31
-374	44	-517	31
-361	44	-494	31
-349	43	-466	31
-343	44	-416	31
-336	45	-352	31
-330	45	-280	31
-323	46	-174	31
-317	47	-92	31
-316	47	11	31
-315	47	117	31
-314	48	233	31
-313	48	360	31
-312	48	442	31
-317	49	550	31
-323	50	642	31
-329	50	719	31
-335	51	811	31
-342	52	860	31
-353	53	905	31
-365	54	939	31
-377	54	954	31
-389	55	954	31
-402	56	946	31
-417	57	915	31
-434	58	870	31
-450	59	812	31
-467	60	719	31
-484	61	650	31
-501	61	557	31
-520	62	452	31
-538	62	336	31
-557	63	202	31
-576	63	113	31
-593	63	-4	31
-610	63	-111	31
-628	63	-207	31
-645	63	-324	31
-664	63	-399	31
-678	63	-467	31
-692	63	-535	31
-707	63	-588	31
-721	62	-633	31
-737	61	-650	31
-745	61	-660	31
-753	60	-653	31
-762	59	-633	31
-770	58	-591	31
-780	56	-545	31
-782	56	-488	31
-785	55	-412	31
-788	55	-329	31
-791	54	-225	31
-795	52	-156	31
-790	52	-64	31
-786	51	20	31
-781	50	102	31
-777	49	192	31
-772	47	252	31
-761	47	310	31
-749	47	360	31
-738	47	402	31
-726	47	430	31
-715	46	441	31
-700	46	441	31
-684	46	426	31
-669	46	397	31
-653	45	347	31
-638	44	299	31
-620	44	237	31
-602	44	158	31
-584	44	73	31
-566	44	-35	31
-548	43	-105	31
-530	43	-196	31
-512	43	-274	31
-495	43	-355	31
-477	43	-436	31
-459	43	-483	31
-444	44	-540	31
-429	44	-582	31
-413	45	-609	31
-398	45	-624	31
-383	46	-623	31
-373	46	-606	31
-363	47	-576	31
-353	47	-529	31
-343	48	-457	31
-333	48	-399	31
-328	49	-309	31
-322	49	-209	31
-317	50	-105	31
-311	50	36	31
-306	51	134	31
-307	51	255	31
-309	51	366	31
-312	52	491	31
-314	52	621	31
-317	52	695	31
-324	53	795	31
-332	53	874	31
-341	54	937	31
-349	54	998	31
-358	55	1019	31
-370	55	1047	31
-384	55	1051	31
-397	55	1037	31
-411	55	1006	31
-425	55	971	31
-441	55	909	31
-459	56	828	31
-476	56	749	31
-494	57	625	31
-512	57	533	31
-529	57	420	31
-548	57	296	31
-566	58	168	31
-585	58	24	31
-604	58	-67	31
-620	58	-190	31
-637	59	-297	31
-655	59	-393	31
-672	60	-509	31
-690	60	-576	31
-702	60	-642	31
-715	60	-699	31
-728	59	-745	31
-741	59	-776	31
-755	57	-783	31
-761	57	-782	31
-767	57	-761	31
-774	56	-728	31
-780	56	-669	31
-788	54	-612	31
-788	54	-548	31
-788	53	-464	31
-788	53	-375	31
-789	52	-270	31
-790	50	-199	31
-783	50	-107	31
-776	49	-27	31
-769	49	51	31
-762	48	137	31
-755	46	190	31
-743	46	242	31
-731	46	286	31
-718	45	318	31
-706	45	334	31
-694	43	338	31
-677	43	326	31
-660	43	302	31
-644	42	263	31
-627	42	203	31
-610	40	148	31
-592	40	78	31
-574	41	-6	31
-557	41	-91	31
-539	42	-195	31
-521	42	-262	31
-504	42	-344	31
-487	42	-415	31
-469	42	-488	31
-452	42	-554	31
-435	42	-598	31
-421	43	-638	31
-406	43	-666	31
-392	44	-678	31
-377	44	-678	31
-363	45	-666	31
-355	45	-637	31
-346	45	-594	31
-338	46	-535	31
-329	46	-450	31
-321	46	-381	31
-318	47	-286	31
-315	47	-180	31
-312	48	-72	31
-309	48	67	31
-306	49	162	31
-309	49	272	31
-313	50	374	31
-316	50	483	31
-320	51	588	31
-325	51	652	31
-334	51	724	31
-344	51	779	31
-355	52	820	31
-365	52	853	31
-376	52	860	31
-391	53	854	31
-407	54	828	31
-422	56	792	31
-438	57	727	31
-455	58	675	31
-472	59	591	31
-490	59	496	31
-508	60	398	31
-526	60	257	31
-545	61	158	31
-562	61	39	31
-580	61	-82	31
-599	62	-207	31
-617	62	-339	31
-636	62	-423	31
-651	62	-529	31
-667	62	-624	31
-682	62	-701	31
-698	62	-790	31
-715	61	-836	31
-725	61	-876	31
-737	60	-907	31
-748	60	-918	31
-760	59	-917	31
-772	57	-902	31
-776	57	-869	31
-781	56	-815	31
-785	56	-754	31
-790	55	-666	31
-796	53	-594	31
-794	53	-506	31
-792	52	-405	31
-789	52	-302	31
-787	51	-187	31
-785	49	-110	31
-776	49	-15	31
-767	49	69	31
-758	49	149	31
-749	49	233	31
-740	49	283	31
-726	49	331	31
-712	49	366	31
-698	49	394	31
-684	48	402	31
-670	47	397	31
-653	47	376	31
-636	47	344	31
-619	48	297	31
-602	48	231	31
-585	48	172	31
-567	48	101	31
-549	48	21	31
-530	48	-57	31
-512	48	-148	31
-494	47	-207	31
-478	47	-276	31
-461	47	-335	31
-445	47	-391	31
-428	47	-439	31
-412	46	-469	31
-400	47	-488	31
-387	47	-494	31
-375	48	-493	31
-362	48	-466	31
-350	49	-436	31
-343	49	-391	31
-337	49	-334	31
-330	49	-256	31
-324	49	-157	31
-317	48	-78	31
-316	49	25	31
-315	49	135	31
-314	50	242	31
-313	50	371	31
-312	51	454	31
-317	51	551	31
-323	52	635	31
-328	52	719	31
-334	53	801	31
-341	53	844	31
-352	53	889	31
-364	54	924	31
-376	54	940	31
-388	55	939	31
-401	55	924	31
-417	55	889	31
-433	56	850	31
-450	56	784	31
-466	57	695	31
-484	57	626	31
-501	57	528	31
-520	57	422	31
-538	58	319	31
-557	58	178	31
-576	58	86	31
-593	58	-21	31
-611	58	-123	31
-629	59	-225	31
-647	59	-334	31
-666	59	-396	31
-680	59	-473	31
-694	59	-531	31
-709	58	-576	31
-723	58	-619	31
-739	56	-633	31
-747	56	-635	31
-757	56	-624	31
-766	56	-594	31
-776	55	-548	31
-786	54	-502	31
-787	54	-429	31
-789	53	-355	31
-792	53	-275	31
-794	52	-165	31
-797	50	-87	31
-792	50	0	31
-788	50	93	31
-783	50	180	31
-779	49	272	31
-774	48	324	31
-763	48	387	31
-752	48	437	31
-740	48	475	31
-729	48	505	31
-718	47	515	31
-702	47	511	31
-686	47	495	31
-671	47	464	31
-655	47	412	31
-639	46	362	31
-622	46	293	31
-604	47	217	31
-587	47	129	31
-569	48	20	31
-552	48	-60	31
-534	48	-147	31
-516	48	-240	31
-498	48	-324	31
-480	47	-412	31
-462	46	-465	31
-447	46	-522	31
-433	46	-564	31
-418	47	-600	31
-404	47	-621	31
-389	47	-624	31
-378	47	-612	31
-367	48	-586	31
-357	48	-545	31
-346	49	-478	31
-335	49	-418	31
-330	49	-337	31
-325	50	-248	31
-320	50	-140	31
-315	51	-11	31
-310	51	89	31
-310	52	206	31
-312	52	331	31
-313	53	442	31
-315	53	573	31
-317	54	653	31
-324	55	742	31
-332	55	814	31
-339	56	886	31
-347	56	946	31
-356	57	976	31
-368	57	998	31
-382	58	1008	31
-395	58	996	31
-409	59	956	31
-423	59	924	31
-439	59	870	31
-456	59	801	31
-473	59	712	31
-490	59	597	31
-508	59	511	31
-526	59	395	31
-545	59	273	31
-564	60	161	31
-583	60	15	31
-603	60	-77	31
-619	60	-183	31
-636	60	-285	31
-653	59	-385	31
-670	59	-482	31
-688	57	-539	31
-700	57	-604	31
-713	57	-658	31
-726	56	-685	31
-739	56	-713	31
-753	54	-713	31
-759	54	-702	31
-766	54	-674	31
-773	53	-631	31
-780	53	-564	31
-788	51	-512	31
-788	51	-429	31
-788	50	-347	31
-788	50	-267	31
-788	49	-158	31
-788	47	-81	31
-781	47	-1	31
-774	47	85	31
-767	47	162	31
-760	47	237	31
-753	47	283	31
-740	47	332	31
-728	47	366	31
-715	46	387	31
-703	46	395	31
-690	44	391	31
-674	44	368	31
-658	44	336	31
-642	44	289	31
-626	44	216	31
-610	43	162	31
-592	43	78	31
-575	44	-6	31
-557	44	-97	31
-540	45	-204	31
-522	45	-278	31
-505	45	-355	31
-489	45	-439	31
-472	44	-509	31
-456	44	-578	31
-439	42	-612	31
-425	42	-653	31
-412	42	-677	31
-398	43	-685	31
-385	43	-680	31
-371	43	-662	31
-362	43	-625	31
-353	44	-576	31
-344	44	-510	31
-335	45	-416	31
-326	45	-343	31
-324	46	-242	31
-322	47	-136	31
-319	47	-14	31
-317	48	126	31
-315	49	231	31
-317	49	350	31
-320	50	473	31
-324	50	581	31
-327	51	699	31
-331	51	770	31
-340	52	844	31
-350	53	905	31
-360	53	954	31
-370	54	992	31
-381	55	1009	31
-395	56	1009	31
-410	56	992	31
-424	57	954	31
-439	57	900	31
-455	58	847	31
-472	58	770	31
-490	59	682	31
-507	59	573	31
-525	60	442	31
-544	60	347	31
-561	60	214	31
-579	60	85	31
-597	61	-34	31
-615	61	-184	31
-634	61	-278	31
-649	61	-385	31
-664	61	-483	31
-680	61	-586	31
-695	60	-681	31
-712	59	-733	31
-722	59	-799	31
-733	59	-841	31
-744	59	-869	31
-755	58	-880	31
-767	57	-880	31
-770	57	-864	31
-774	56	-830	31
-779	55	-780	31
-783	54	-705	31
-788	52	-647	31
-786	52	-560	31
-784	51	-473	31
-782	51	-389	31
-780	50	-275	31
-778	48	-197	31
-769	48	-113	31
-760	48	-27	31
-751	48	53	31
-742	48	134	31
-733	47	180	31
-719	47	231	31
-705	47	267	31
-692	47	291	31
-678	46	304	31
-664	45	299	31
-647	45	283	31
-630	45	253	31
-612	45	206	31
-595	45	140	31
-578	45	89	31
-560	45	14	31
-543	45	-59	31
-525	45	-136	31
-508	45	-228	31
-490	45	-290	31
-474	45	-355	31
-459	45	-424	31
-443	46	-480	31
-428	46	-533	31
-412	46	-560	31
-400	46	-585	31
-387	46	-594	31
-375	47	-593	31
-362	47	-573	31
-350	47	-546	31
-344	47	-502	31
-337	47	-442	31
-331	47	-371	31
-324	47	-269	31
-318	47	-193	31
-318	48	-91	31
-318	48	10	31
-317	49	124	31
-317	49	247	31
-317	50	338	31
-321	50	438	31
-326	50	536	31
-332	51	621	31
-337	51	708	31
-343	51	757	31
-354	52	805	31
-365	53	838	31
-377	53	861	31
-388	54	866	31
-401	55	857	31
-416	55	824	31
-432	55	789	31
-447	56	730	31
-463	56	646	31
-480	56	577	31
-497	57	486	31
-515	57	387	31
-534	58	270	31
-552	58	138	31
-571	59	46	31
-588	59	-69	31
-605	59	-183	31
-623	59	-282	31
-640	59	-399	31
-659	59	-469	31
-673	59	-545	31
-688	59	-609	31
-703	59	-665	31
-718	58	-708	31
-734	57	-728	31
-742	57	-740	31
-751	57	-733	31
-761	57	-713	31
-770	57	-669	31
-780	56	-625	31
-782	56	-566	31
-785	55	-490	31
-789	54	-401	31
-792	53	-293	31
-796	51	-217	31
-792	51	-116	31
-788	51	-20	31
-783	51	67	31
-779	50	174	31
-775	49	242	31
-764	49	310	31
-753	49	376	31
-742	49	429	31
-731	48	475	31
-720	47	495	31
-705	47	507	31
-690	47	507	31
-674	47	491	31
-659	46	454	31
-644	45	417	31
-626	45	362	31
-608	45	291	31
-591	45	210	31
-573	45	109	31
-555	44	39	31
-538	44	-53	31
-521	44	-140	31
-503	44	-220	31
-486	44	-313	31
-469	43	-371	31
-453	43	-429	31
-438	43	-483	31
-422	44	-528	31
-407	44	-557	31
-391	44	-568	31
-381	44	-567	31
-370	44	-548	31
-360	44	-521	31
-349	44	-467	31
-339	44	-416	31
-334	45	-347	31
-328	45	-259	31
-323	46	-163	31
-317	46	-36	31
-312	47	51	31
-313	47	168	31
-314	47	275	31
-316	48	389	31
-317	48	511	31
-320	48	596	31
-326	49	684	31
-334	49	770	31
-341	50	838	31
-349	50	904	31
-357	51	937	31
-369	52	964	31
-383	53	972	31
-396	53	971	31
-410	54	946	31
-424	55	915	31
-440	55	861	31
-457	55	795	31
-473	56	716	31
-490	56	604	31
-508	56	522	31
-525	57	413	31
-543	57	305	31
-562	58	184	31
-580	58	51	31
-599	59	-36	31
-615	59	-147	31
-631	59	-250	31
-648	59	-339	31
-664	59	-442	31
-682	59	-499	31
-694	59	-559	31
-707	59	-604	31
-720	59	-642	31
-733	59	-661	31
-747	59	-662	31
-753	59	-652	31
-761	58	-625	31
-768	57	-585	31
-776	56	-518	31
-784	54	-464	31
-784	54	-391	31
-784	54	-308	31
-784	53	-217	31
-785	53	-113	31
-786	51	-44	31
-779	51	45	31
-773	51	125	31
-766	51	194	31
-760	50	275	31
-753	49	321	31
-741	49	360	31
-730	49	397	31
-718	48	418	31
-707	48	426	31
-695	46	420	31
-678	46	398	31
-662	46	362	31
-645	46	319	31
-629	46	245	31
-612	46	185	31
-594	46	109	31
-576	46	18	31
-559	46	-75	31
-541	46	-182	31
-523	46	-249	31
-506	46	-336	31
-489	46	-412	31
-473	47	-474	31
-456	47	-545	31
-439	47	-584	31
-425	47	-612	31
-411	47	-641	31
-397	47	-647	31
-383	47	-637	31
-369	47	-620	31
-360	47	-580	31
-351	48	-529	31
-341	48	-464	31
-332	49	-371	31
-323	49	-292	31
-320	49	-193	31
-316	50	-77	31
-313	50	43	31
-309	51	190	31
-306	51	287	31
-309	51	412	31
-313	51	522	31
-317	52	632	31
-321	52	745	31
-326	52	820	31
-335	53	889	31
-344	53	954	31
-354	54	1009	31
-363	54	1046	31
-374	55	1056	31
-388	55	1056	31
-403	55	1037	31
-417	55	1006	31
-432	55	946	31
-448	55	889	31
-465	56	816	31
-482	56	719	31
-500	57	618	31
-517	57	478	31
-536	58	380	31
-554	58	255	31
-572	58	138	31
-591	59	8	31
-609	59	-131	31
-629	59	-223	31
-644	59	-337	31
-660	59	-441	31
-675	59	-530	31
-691	58	-632	31
-708	57	-681	31
-718	57	-740	31
-729	57	-779	31
-741	57	-808	31
-752	57	-815	31
-764	56	-811	31
-769	56	-792	31
-775	56	-749	31
-780	55	-708	31
-786	55	-629	31
-793	53	-569	31
-791	53	-489	31
-789	53	-405	31
-787	53	-311	31
-785	52	-206	31
-783	51	-136	31
-775	51	-47	31
-766	51	32	31
-758	51	102	31
-749	50	180	31
-741	49	222	31
-727	49	263	31
-713	49	295	31
-699	49	313	31
-685	48	315	31
-671	47	304	31
-654	47	280	31
-638	47	243	31
-621	47	194	31
-605	46	114	31
-588	45	55	31
-570	45	-17	31
-552	45	-103	31
-535	45	-190	31
-517	44	-285	31
-499	43	-346	31
-483	43	-423	31
-467	43	-488	31
-450	44	-542	31
-434	44	-600	31
-418	44	-629	31
-406	44	-650	31
-393	44	-662	31
-381	44	-661	31
-368	44	-638	31
-356	44	-612	31
-349	44	-566	31
-342	45	-506	31
-335	45	-435	31
-328	46	-331	31
-321	46	-250	31
-320	46	-151	31
-319	46	-36	31
-319	47	78	31
-318	47	211	31
-317	47	297	31
-321	48	405	31
-326	48	496	31
-331	49	585	31
-336	49	673	31
-342	50	726	31
-352	51	775	31
-364	52	813	31
-375	53	836	31
-387	54	839	31
-399	55	824	31
-414	56	801	31
-429	56	758	31
-445	57	695	31
-460	57	617	31
-477	58	545	31
-494	59	447	31
-512	59	336	31
-530	60	222	31
-548	60	78	31
-567	61	-21	31
-584	61	-144	31
-601	61	-254	31
-619	61	-371	31
-636	61	-491	31
-655	61	-571	31
-669	61	-662	31
-684	61	-744	31
-698	61	-808	31
-713	61	-871	31
-729	61	-896	31
-738	61	-918	31
-747	60	-926	31
-757	59	-918	31
-766	58	-880	31
-777	56	-857	31
-778	56	-799	31
-781	55	-729	31
-783	55	-650	31
-786	54	-538	31
-789	52	-459	31
-785	52	-360	31
-781	52	-260	31
-778	51	-155	31
-774	51	-40	31
-770	49	31	31
-759	49	125	31
-748	49	206	31
-737	49	272	31
-726	48	344	31
-715	47	385	31
-700	47	417	31
-686	47	438	31
-671	47	444	31
-657	47	431	31
-642	46	415	31
-625	46	376	31
-608	46	330	31
-590	46	272	31
-573	45	184	31
-556	44	121	31
-538	44	47	31
-521	44	-32	31
-503	44	-113	31
-486	44	-199	31
-468	44	-253	31
-453	44	-318	31
-438	44	-371	31
-423	44	-412	31
-408	44	-452	31
-393	43	-470	31
-382	43	-474	31
-371	43	-469	31
-361	44	-448	31
-350	44	-405	31
-339	44	-363	31
-334	45	-300	31
-329	45	-228	31
-325	46	-144	31
-320	46	-29	31
-315	47	58	31
-315	47	160	31
-315	48	273	31
-316	48	380	31
-316	49	502	31
-318	49	577	31
-324	50	668	31
-332	50	745	31
-339	51	812	31
-347	51	877	31
-355	52	915	31
-367	53	940	31
-380	53	954	31
-393	54	954	31
-406	54	932	31
-420	55	906	31
-436	56	857	31
-453	56	796	31
-470	57	719	31
-487	57	617	31
-505	58	534	31
-523	58	430	31
-541	58	315	31
-560	58	203	31
-578	58	67	31
-598	57	-19	31
-614	57	-125	31
-631	57	-217	31
-647	58	-313	31
-664	58	-407	31
-682	58	-467	31
-694	58	-528	31
-708	58	-576	31
-721	58	-609	31
-735	58	-629	31
-749	57	-631	31
-755	57	-619	31
-762	56	-594	31
-770	55	-548	31
-777	54	-483	31
-785	52	-430	31
-785	52	-353	31
-785	52	-269	31
-785	52	-183	31
-786	52	-72	31
-787	51	-1	31
-781	51	85	31
-774	51	163	31
-768	50	244	31
-761	50	319	31
-755	48	360	31
-743	48	413	31
-731	48	447	31
-719	48	469	31
-707	48	479	31
-695	47	474	31
-679	47	454	31
-664	47	421	31
-648	47	372	31
-633	47	299	31
-617	46	247	31
-599	46	163	31
-581	46	72	31
-563	46	-12	31
-545	46	-127	31
-527	46	-200	31
-510	46	-282	31
-493	46	-361	31
-477	46	-434	31
-460	46	-506	31
-443	46	-545	31
-429	46	-587	31
-415	47	-612	31
-401	47	-625	31
-387	48	-621	31
-373	48	-606	31
-364	48	-576	31
-355	49	-528	31
-347	49	-465	31
-338	50	-374	31
-329	50	-304	31
-326	50	-204	31
-323	50	-96	31
-321	50	15	31
-318	50	161	31
-315	50	262	31
-317	50	373	31
-320	50	491	31
-324	51	602	31
-327	51	718	31
-331	51	784	31
-340	52	863	31
-349	52	924	31
-359	53	972	31
-368	53	1009	31
-379	54	1019	31
-392	54	1019	31
-406	54	1011	31
-419	55	981	31
-433	55	921	31
-448	55	870	31
-465	56	793	31
-483	57	706	31
-501	57	604	31
-519	58	475	31
-538	59	374	31
-555	59	259	31
-572	59	130	31
-590	59	12	31
-607	59	-126	31
-626	59	-213	31
-641	59	-319	31
-656	59	-409	31
-672	60	-494	31
-687	60	-580	31
-704	60	-635	31
-714	60	-681	31
-725	59	-717	31
-737	59	-739	31
-748	58	-740	31
-760	56	-728	31
-764	56	-699	31
-770	55	-660	31
-775	54	-601	31
-781	53	-522	31
-787	51	-460	31
-786	51	-373	31
-784	50	-283	31
-783	50	-198	31
-781	49	-89	31
-780	47	-19	31
-772	47	59	31
-764	46	130	31
-755	46	202	31
-747	45	267	31
-739	43	299	31
-726	43	338	31
-712	43	360	31
-699	44	366	31
-685	44	358	31
-672	44	340	31
-655	44	306	31
-638	44	260	31
-622	44	196	31
-605	44	113	31
-588	43	50	31
-570	44	-40	31
-552	44	-132	31
-535	45	-214	31
-517	45	-323	31
-499	46	-391	31
-483	46	-464	31
-467	46	-530	31
-451	47	-593	31
-435	47	-645	31
-419	47	-670	31
-406	47	-695	31
-394	47	-702	31
-381	48	-698	31
-369	48	-671	31
-356	48	-641	31
-349	48	-593	31
-342	48	-526	31
-335	49	-443	31
-328	49	-337	31
-321	49	-258	31
-320	49	-143	31
-319	49	-29	31
-319	49	86	31
-318	49	231	31
-317	49	329	31
-321	49	431	31
-326	50	543	31
-331	50	640	31
-336	51	737	31
-342	51	789	31
-352	52	850	31
-363	52	889	31
-375	53	915	31
-386	53	931	31
-398	54	924	31
-413	55	901	31
-429	55	861	31
-444	56	809	31
-460	56	726	31
-477	57	661	31
-494	57	561	31
-512	58	459	31
-530	58	344	31
-548	59	204	31
-567	59	98	31
-584	59	-21	31
-601	59	-148	31
-619	60	-264	31
-636	60	-399	31
-655	60	-480	31
-669	60	-576	31
-684	60	-658	31
-699	60	-732	31
-714	60	-804	31
-730	59	-840	31
-739	59	-873	31
-748	58	-889	31
-758	58	-892	31
-767	57	-873	31
-778	55	-848	31
-780	55	-804	31
-783	54	-745	31
-787	54	-668	31
-790	53	-573	31
-794	51	-501	31
-790	51	-405	31
-786	50	-304	31
-782	50	-213	31
-778	49	-99	31
-774	47	-26	31
-764	47	56	31
-754	47	129	31
-744	47	202	31
-734	47	267	31
-724	46	302	31
-709	46	338	31
-694	45	359	31
-680	43	362	31
-665	42	352	31
-650	40	333	31
-633	40	297	31
-615	40	249	31
-598	40	187	31
-580	40	105	31
-563	39	46	31
-546	39	-35	31
-529	39	-116	31
-511	39	-189	31
-494	39	-280	31
-477	39	-338	31
-462	39	-399	31
-446	40	-450	31
-431	40	-494	31
-415	41	-535	31
-400	41	-548	31
-389	42	-558	31
-378	43	-553	31
-366	43	-531	31
-355	44	-489	31
-344	45	-448	31
-339	45	-388	31
-333	46	-311	31
-328	46	-223	31
-322	47	-109	31
-317	47	-27	31
-317	48	85	31
-317	49	193	31
-317	50	295	31
-318	51	423	31
-319	52	506	31
-325	53	591	31
-332	53	675	31
-340	54	750	31
-347	54	816	31
-355	55	853	31
-367	55	886	31
-380	56	901	31
-392	56	902	31
-405	57	881	31
-419	57	857	31
-435	57	812	31
-452	58	750	31
-468	58	674	31
-485	59	572	31
-503	59	495	31
-520	59	389	31
-538	59	282	31
-556	60	168	31
-574	60	36	31
-593	60	-56	31
-609	60	-159	31
-627	60	-264	31
-644	61	-353	31
-662	61	-453	31
-680	61	-510	31
-692	61	-572	31
-706	60	-618	31
-719	60	-653	31
-733	59	-674	31
-747	57	-676	31
-754	57	-665	31
-762	57	-638	31
-771	57	-596	31
-779	56	-531	31
-788	55	-474	31
-788	55	-399	31
-788	54	-316	31
-788	54	-219	31
-789	53	-111	31
-790	51	-34	31
-784	51	59	31
-778	51	149	31
-773	50	227	31
-767	50	316	31
-761	48	366	31
-749	48	420	31
-737	48	460	31
-725	48	491	31
-713	48	507	31
-701	47	507	31
-685	47	495	31
-669	47	470	31
-652	46	429	31
-636	46	362	31
-620	44	308	31
-602	44	231	31
-584	44	149	31
-566	44	54	31
-548	44	-52	31
-530	43	-121	31
-512	43	-214	31
-495	43	-296	31
-477	43	-365	31
-460	43	-448	31
-442	42	-494	31
-428	42	-540	31
-414	42	-573	31
-401	43	-594	31
-387	43	-599	31
-373	43	-590	31
-363	43	-564	31
-354	44	-525	31
-344	44	-474	31
-335	45	-391	31
-325	45	-323	31
-322	45	-234	31
-318	46	-131	31
-315	46	-17	31
-311	47	118	31
-308	47	210	31
-310	48	332	31
-313	48	442	31
-317	49	543	31
-320	49	661	31
-324	50	736	31
-332	51	805	31
-341	52	874	31
-350	52	928	31
-359	53	964	31
-369	54	982	31
-383	55	989	31
-397	56	978	31
-412	56	951	31
-426	57	893	31
-442	58	850	31
-458	58	778	31
-476	59	690	31
-493	59	591	31
-511	60	464	31
-529	60	376	31
-547	60	257	31
-565	60	143	31
-584	60	29	31
-602	60	-101	31
-622	60	-191	31
-637	60	-286	31
-653	60	-383	31
-668	61	-466	31
-684	61	-548	31
-701	61	-593	31
-712	61	-637	31
-724	61	-666	31
-735	60	-681	31
-747	60	-681	31
-760	58	-665	31
-765	58	-635	31
-770	58	-589	31
-776	58	-531	31
-781	57	-447	31
-788	56	-385	31
-786	56	-299	31
-785	55	-217	31
-783	54	-124	31
-782	53	-23	31
-780	51	46	31
-772	51	125	31
-764	51	200	31
-757	51	263	31
-749	50	326	31
-741	49	359	31
-727	49	389	31
-713	48	405	31
-700	48	410	31
-686	47	395	31
-672	45	376	31
-656	45	338	31
-640	44	285	31
-623	44	223	31
-607	43	132	31
-591	41	64	31
-573	41	-22	31
-556	41	-110	31
-538	41	-204	31
-521	41	-304	31
-503	40	-363	31
-487	40	-443	31
-471	40	-512	31
-455	40	-560	31
-439	40	-612	31
-423	40	-641	31
-410	41	-658	31
-398	42	-662	31
-385	42	-650	31
-373	43	-619	31
-360	44	-585	31
-353	45	-526	31
-345	45	-453	31
-338	46	-375	31
-330	46	-260	31
-323	47	-171	31
-322	48	-61	31
-321	50	61	31
-319	51	189	31
-318	53	334	31
-317	54	426	31
-321	54	549	31
-325	55	654	31
-330	55	745	31
-334	56	853	31
-340	56	913	31
-350	56	969	31
-361	57	1011	31
-372	57	1045	31
-383	58	1058	31
-395	58	1051	31
-409	58	1029	31
-425	59	995	31
-440	59	944	31
-456	60	861	31
-472	60	792	31
-489	60	695	31
-507	60	589	31
-525	61	471	31
-543	61	324	31
-562	61	225	31
-579	61	93	31
-597	62	-27	31
-614	62	-147	31
-632	63	-283	31
-651	63	-375	31
-665	63	-474	31
-680	63	-572	31
-694	63	-653	31
-709	63	-733	31
-725	63	-776	31
-734	63	-815	31
-744	63	-840	31
-755	63	-853	31
-765	63	-844	31
-776	62	-825	31
-778	62	-790	31
-781	61	-739	31
-783	61	-674	31
-786	60	-583	31
-790	58	-515	31
-786	58	-428	31
-783	57	-343	31
-779	57	-248	31
-776	56	-145	31
-772	54	-75	31
-762	54	6	31
-752	54	81	31
-742	53	144	31
-732	53	210	31
-722	51	245	31
-707	51	275	31
-693	51	291	31
-678	50	297	31
-664	50	283	31
-649	48	263	31
-632	48	226	31
-615	48	174	31
-598	48	115	31
-581	48	29	31
-564	47	-32	31
-546	47	-111	31
-529	47	-189	31
-511	46	-272	31
-494	46	-360	31
-476	44	-413	31
-461	44	-480	31
-446	45	-535	31
-430	45	-576	31
-415	46	-612	31
-400	46	-633	31
-389	46	-640	31
-377	46	-635	31
-366	46	-612	31
-354	46	-572	31
-343	46	-533	31
-338	46	-470	31
-333	46	-393	31
-327	47	-311	31
-322	47	-192	31
-317	47	-104	31
-317	47	-1	31
-317	48	113	31
-317	48	227	31
-317	49	352	31
-317	49	429	31
-323	49	528	31
-330	50	612	31
-336	50	679	31
-343	51	750	31
-351	51	789	31
-363	52	816	31
-375	53	836	31
-388	54	838	31
-400	55	816	31
-414	56	789	31
-430	56	742	31
-447	56	681	31
-463	57	609	31
-480	57	502	31
-498	57	418	31
-515	57	316	31
-534	57	195	31
-552	58	72	31
-571	58	-69	31
-590	58	-164	31
-606	58	-282	31
-623	58	-389	31
-641	58	-483	31
-658	57	-593	31
-676	56	-665	31
-689	56	-732	31
-702	55	-793	31
-716	54	-840	31
-729	53	-873	31
-744	51	-876	31
-751	51	-880	31
-759	51	-864	31
-766	50	-831	31
-774	50	-776	31
-783	48	-724	31
-783	48	-650	31
-785	48	-559	31
-786	47	-465	31
-788	47	-344	31
-790	45	-262	31
-784	45	-157	31
-778	45	-62	31
-773	46	39	31
-767	46	143	31
-761	46	214	31
-750	46	290	31
-738	46	359	31
-727	46	413	31
-715	46	456	31
-704	45	480	31
-688	45	491	31
-672	45	491	31
-656	46	478	31
-640	46	440	31
-624	46	405	31
-606	46	347	31
-588	46	275	31
-569	47	202	31
-551	47	101	31
-533	47	34	31
-516	47	-46	31
-499	47	-124	31
-482	47	-206	31
-465	46	-286	31
-448	45	-337	31
-433	45	-396	31
-419	45	-441	31
-404	46	-473	31
-390	46	-494	31
-375	46	-494	31
-365	46	-490	31
-355	46	-469	31
-346	46	-429	31
-336	46	-365	31
-326	46	-319	31
-323	46	-236	31
-319	46	-147	31
-316	47	-54	31
-312	47	77	31
-309	47	166	31
-311	47	271	31
-314	48	378	31
-317	48	487	31
-320	49	601	31
-324	49	670	31
-332	50	751	31
-341	50	821	31
-350	51	876	31
-359	51	931	31
-369	52	953	31
-382	53	964	31
-396	54	956	31
-411	55	946	31
-425	56	902	31
-440	57	862	31
-457	58	797	31
-474	58	719	31
-492	59	638	31
-509	59	515	31
-528	60	426	31
-545	60	324	31
-563	61	204	31
-582	61	89	31
-600	62	-41	31
-619	62	-123	31
-634	62	-225	31
-651	62	-318	31
-667	62	-399	31
-684	62	-483	31
-701	61	-533	31
-712	61	-576	31
-724	61	-612	31
-735	61	-634	31
-747	61	-637	31
-760	60	-625	31
-765	60	-599	31
-770	59	-560	31
-776	59	-506	31
-781	58	-429	31
-788	56	-365	31
-787	56	-285	31
-786	55	-196	31
-786	55	-107	31
-785	54	-3	31
-784	52	65	31
-776	52	146	31
-768	52	214	31
-759	52	282	31
-751	51	344	31
-743	50	383	31
-730	50	418	31
-717	50	438	31
-703	49	446	31
-690	49	437	31
-677	47	420	31
-660	47	386	31
-643	47	341	31
-626	47	279	31
-609	47	197	31
-592	47	130	31
-574	47	42	31
-557	47	-49	31
-539	47	-136	31
-522	46	-242	31
-504	45	-308	31
-488	45	-383	31
-472	45	-443	31
-455	46	-505	31
-439	46	-560	31
-423	46	-586	31
-410	46	-610	31
-397	46	-619	31
-384	46	-610	31
-371	46	-584	31
-358	46	-553	31
-351	46	-499	31
-343	47	-435	31
-336	47	-353	31
-328	48	-248	31
-321	48	-168	31
-320	48	-51	31
-319	49	67	31
-317	49	181	31
-316	50	331	31
-315	50	426	31
-319	50	538	31
-324	51	642	31
-328	51	742	31
-333	52	839	31
-339	52	889	31
-349	53	954	31
-359	53	1005	31
-370	54	1029	31
-380	54	1047	31
-392	55	1044	31
-407	55	1019	31
-423	55	989	31
-438	55	939	31
-454	55	857	31
-471	55	792	31
-488	56	695	31
-505	57	590	31
-523	57	485	31
-540	58	334	31
-559	59	233	31
-576	59	118	31
-594	59	-7	31
-613	59	-127	31
-631	59	-258	31
-650	58	-339	31
-664	58	-438	31
-679	58	-524	31
-693	58	-596	31
-708	58	-669	31
-724	57	-708	31
-733	57	-740	31
-743	57	-761	31
-754	57	-764	31
-764	56	-746	31
-775	55	-724	31
-777	55	-681	31
-781	55	-625	31
-784	54	-560	31
-788	54	-467	31
-792	52	-399	31
-788	52	-311	31
-785	52	-217	31
-781	52	-127	31
-778	51	-24	31
-774	50	39	31
-764	50	115	31
-754	49	180	31
-744	49	239	31
-734	48	291	31
-724	46	324	31
-709	46	344	31
-695	46	352	31
-680	46	349	31
-666	46	323	31
-651	45	293	31
-634	45	247	31
-617	45	190	31
-600	45	118	31
-583	44	27	31
-566	43	-42	31
-548	43	-131	31
-531	43	-223	31
-513	43	-305	31
-496	43	-404	31
-478	43	-464	31
-462	43	-529	31
-447	44	-580	31
-431	44	-629	31
-416	45	-669	31
-400	45	-685	31
-389	45	-695	31
-378	45	-685	31
-366	45	-669	31
-355	45	-624	31
-344	44	-580	31
-339	44	-516	31
-333	45	-442	31
-328	45	-347	31
-322	46	-232	31
-317	46	-146	31
-317	46	-27	31
-317	46	92	31
-317	46	202	31
-317	46	340	31
-318	46	426	31
-324	46	523	31
-330	47	609	31
-337	47	692	31
-343	48	761	31
-351	48	805	31
-363	49	844	31
-376	49	869	31
-389	50	871	31
-402	50	857	31
-416	51	828	31
-431	52	789	31
-448	52	734	31
-464	53	659	31
-481	53	557	31
-498	54	479	31
-515	55	366	31
-534	56	251	31
-552	57	137	31
-571	58	-17	31
-590	59	-117	31
-606	59	-229	31
-624	59	-344	31
-641	59	-455	31
-659	59	-570	31
-677	59	-642	31
-689	59	-724	31
-703	59	-790	31
-716	59	-839	31
-730	59	-880	31
-744	59	-907	31
-751	59	-910	31
-759	58	-908	31
-768	57	-880	31
-776	56	-839	31
-785	54	-793	31
-785	54	-724	31
-785	54	-650	31
-786	53	-564	31
-786	53	-450	31
-788	51	-365	31
-783	51	-274	31
-778	51	-171	31
-773	51	-77	31
-768	50	31	31
-763	49	97	31
-751	49	174	31
-739	49	237	31
-728	48	293	31
-716	48	344	31
-704	46	366	31
-688	46	387	31
-673	46	389	31
-657	46	378	31
-642	46	347	31
-626	46	314	31
-609	46	263	31
-591	46	203	31
-574	46	130	31
-556	46	43	31
-539	46	-21	31
-521	46	-100	31
-504	46	-181	31
-486	47	-250	31
-469	47	-331	31
-451	47	-375	31
-437	47	-428	31
-423	47	-465	31
-409	47	-494	31
-395	47	-510	31
-381	47	-515	31
-371	47	-502	31
-360	48	-480	31
-350	48	-441	31
-339	49	-375	31
-329	49	-320	31
-325	49	-242	31
-321	50	-159	31
-318	50	-53	31
-314	51	67	31
-310	51	154	31
-312	52	267	31
-314	53	376	31
-317	54	473	31
-319	55	590	31
-323	56	659	31
-330	57	737	31
-339	58	801	31
-347	58	860	31
-356	59	902	31
-365	60	921	31
-378	60	937	31
-392	60	932	31
-406	60	909	31
-420	60	866	31
-435	60	821	31
-451	60	758	31
-469	61	681	31
-486	61	588	31
-504	62	471	31
-522	62	387	31
-540	62	270	31
-559	62	156	31
-578	61	52	31
-597	61	-82	31
-617	59	-167	31
-632	59	-260	31
-648	59	-350	31
-665	59	-429	31
-681	58	-509	31
-698	57	-553	31
-709	57	-596	31
-721	57	-625	31
-734	57	-637	31
-746	56	-635	31
-759	55	-619	31
-764	55	-589	31
-770	54	-542	31
-775	53	-482	31
-781	52	-399	31
-788	50	-334	31
-787	50	-242	31
-786	50	-155	31
-786	50	-64	31
-785	49	44	31
-784	48	119	31
-776	48	197	31
-768	48	277	31
-761	47	344	31
-753	47	412	31
-745	45	447	31
-732	45	483	31
-719	45	502	31
-705	45	507	31
-692	45	496	31
-679	45	480	31
-663	45	447	31
-646	45	397	31
-630	44	336	31
-613	44	246	31
-597	42	179	31
-579	42	88	31
-562	42	0	31
-544	42	-95	31
-527	42	-198	31
-509	41	-272	31
-493	41	-350	31
-476	41	-425	31
-460	42	-483	31
-443	42	-548	31
-427	42	-580	31
-414	42	-609	31
-400	42	-619	31
-387	43	-619	31
-373	43	-596	31
-360	43	-570	31
-352	44	-523	31
-344	45	-464	31
-337	45	-389	31
-329	46	-282	31
-321	47	-201	31
-319	47	-96	31
-317	48	12	31
-315	48	137	31
-313	49	274	31
-311	49	366	31
-315	50	483	31
-319	51	590	31
-324	52	682	31
-328	53	784	31
-334	54	844	31
-344	54	902	31
-355	54	946	31
-366	55	981	31
-377	55	997	31
-389	55	997	31
-403	55	980	31
-419	55	946	31
-434	55	900	31
-450	55	821	31
-466	55	756	31
-483	55	666	31
-502	56	569	31
-520	56	454	31
-539	57	320	31
-558	57	228	31
-575	57	103	31
-593	57	-12	31
-610	57	-116	31
-628	57	-248	31
-647	56	-328	31
-661	56	-415	31
-677	56	-494	31
-692	56	-566	31
-708	56	-625	31
-724	56	-660	31
-733	56	-685	31
-743	55	-699	31
-754	55	-695	31
-764	54	-669	31
-775	52	-642	31
-777	52	-594	31
-781	52	-531	31
-784	52	-457	31
-788	51	-363	31
-792	50	-293	31
-789	50	-201	31
-786	50	-115	31
-782	49	-29	31
-779	49	70	31
-776	47	137	31
-766	47	203	31
-756	47	267	31
-746	47	322	31
-736	46	366	31
-726	45	389	31
-712	45	405	31
-698	45	405	31
-683	46	389	31
-669	46	358	31
-655	46	324	31
-638	46	272	31
-621	46	202	31
-604	46	126	31
-587	46	24	31
-570	46	-47	31
-553	46	-140	31
-536	46	-223	31
-518	47	-313	31
-501	47	-405	31
-484	47	-469	31
-468	47	-531	31
-453	47	-588	31
-437	47	-629	31
-422	47	-663	31
-406	47	-677	31
-395	47	-678	31
-383	47	-665	31
-372	47	-637	31
-360	47	-586	31
-349	47	-535	31
-343	47	-465	31
-338	48	-375	31
-332	48	-283	31
-327	49	-152	31
-321	49	-59	31
-321	49	62	31
-321	49	179	31
-321	49	308	31
-321	49	446	31
-321	49	541	31
-327	49	648	31
-334	50	745	31
-340	50	824	31
-347	51	912	31
-355	51	954	31
-366	52	998	31
-378	52	1019	31
-389	53	1035	31
-401	53	1019	31
-414	54	1004	31
-429	55	956	31
-446	56	908	31
-462	57	838	31
-479	58	734	31
-496	59	654	31
-513	59	548	31
-531	60	431	31
-548	60	303	31
-566	61	155	31
-585	61	57	31
-601	61	-74	31
-618	61	-197	31
-636	61	-303	31
-653	61	-438	31
-671	61	-521	31
-684	61	-609	31
-698	61	-685	31
-713	61	-759	31
-727	61	-815	31
-742	60	-847	31
-749	60	-873	31
-758	59	-876	31
-766	59	-871	31
-775	58	-839	31
-784	56	-806	31
-785	56	-748	31
-786	55	-685	31
-788	55	-609	31
-789	54	-509	31
-792	52	-436	31
-786	52	-344	31
-780	52	-254	31
-775	52	-166	31
-769	51	-62	31
-763	50	5	31
-752	50	75	31
-741	50	144	31
-729	50	200	31
-718	50	252	31
-707	49	275	31
-692	49	293	31
-676	49	297	31
-661	48	290	31
-645	48	261	31
-630	46	229	31
-612	46	182	31
-594	46	119	31
-577	46	49	31
-559	46	-41	31
-541	46	-102	31
-524	46	-184	31
-507	46	-257	31
-489	46	-331	31
-472	46	-409	31
-455	46	-464	31
-440	46	-510	31
-425	46	-557	31
-411	46	-588	31
-396	46	-610	31
-381	46	-612	31
-371	46	-609	31
-361	47	-586	31
-351	47	-548	31
-341	48	-489	31
-331	48	-436	31
-327	48	-361	31
-323	48	-270	31
-318	48	-175	31
-314	48	-48	31
-310	47	40	31
-312	48	150	31
-314	49	253	31
-317	49	362	31
-319	50	478	31
-323	51	551	31
-330	51	636	31
-338	51	708	31
-347	51	759	31
-355	51	816	31
-364	51	843	31
-377	52	857	31
-391	52	857	31
-406	53	839	31
-420	53	803	31
-435	54	759	31
-451	55	695	31
-468	55	622	31
-486	56	540	31
-503	56	418	31
-521	57	330	31
-538	57	219	31
-557	58	105	31
-575	58	-17	31
-594	59	-149	31
-613	59	-232	31
-629	59	-341	31
-646	59	-436	31
-662	60	-515	31
-679	60	-610	31
-697	60	-662	31
-708	60	-712	31
-720	60	-746	31
-731	59	-771	31
-743	59	-779	31
-756	57	-770	31
-761	57	-745	31
-768	57	-706	31
-774	57	-658	31
-781	56	-575	31
-788	55	-505	31
-787	55	-424	31
-787	54	-326	31
-786	52	-225	31
-786	51	-109	31
-785	49	-33	31
-777	49	63	31
-770	49	149	31
-762	48	228	31
-755	48	316	31
-747	46	366	31
-734	46	417	31
-721	46	456	31
-708	46	486	31
-695	46	496	31
-682	45	494	31
-665	45	479	31
-648	45	447	31
-632	45	405	31
-615	45	334	31
-598	44	275	31
-580	44	201	31
-563	44	111	31
-545	44	22	31
-528	44	-82	31
-510	44	-148	31
-494	44	-232	31
-477	45	-302	31
-461	45	-371	31
-444	46	-439	31
-428	46	-482	31
-415	46	-518	31
-402	47	-545	31
-389	47	-555	31
-376	48	-548	31
-363	48	-531	31
-355	48	-498	31
-346	48	-453	31
-338	48	-389	31
-329	48	-303	31
-321	48	-232	31
-319	48	-133	31
-317	48	-23	31
-314	48	88	31
-312	48	224	31
-310	48	313	31
-313	48	422	31
-317	49	519	31
-322	49	622	31
-326	50	719	31
-331	50	783	31
-340	50	850	31
-351	50	905	31
-361	50	940	31
-372	50	969	31
-383	50	972	31
-397	51	956	31
-413	52	939	31
-428	52	893	31
-444	53	828	31
-460	54	775	31
-477	54	690	31
-495	54	591	31
-514	55	491	31
-532	55	359	31
-551	55	266	31
-568	55	154	31
-586	56	43	31
-605	56	-71	31
-623	57	-192	31
-642	57	-267	31
-656	57	-363	31
-672	57	-443	31
-687	57	-506	31
-703	57	-576	31
-719	57	-611	31
-729	57	-640	31
-739	57	-653	31
-750	57	-653	31
-760	56	-632	31
-772	55	-605	31
-775	55	-558	31
-778	55	-498	31
-782	54	-435	31
-785	54	-339	31
-790	52	-269	31
-787	52	-185	31
-784	51	-93	31
-782	51	-4	31
-779	50	94	31
-776	48	155	31
-767	48	228	31
-757	48	290	31
-748	48	340	31
-738	48	389	31
-729	47	413	31
-715	47	426	31
-700	46	431	31
-686	46	421	31
-671	45	389	31
-657	43	357	31
-640	43	303	31
-623	43	242	31
-607	43	170	31
-590	43	71	31
-573	42	-5	31
-555	42	-90	31
-538	42	-184	31
-520	43	-270	31
-503	43	-365	31
-485	43	-423	31
-470	43	-488	31
-454	43	-539	31
-439	43	-582	31
-423	43	-618	31
-408	42	-631	31
-396	43	-634	31
-384	44	-622	31
-373	44	-594	31
-361	45	-541	31
-349	46	-494	31
-343	46	-418	31
-336	47	-344	31
-330	47	-246	31
-323	48	-121	31
-317	48	-26	31
-317	49	92	31
-317	50	219	31
-317	50	341	31
-317	51	483	31
-317	52	573	31
-322	53	679	31
-328	54	761	31
-334	54	854	31
-340	55	932	31
-347	56	979	31
-358	57	1017	31
-370	57	1047	31
-382	58	1056	31
-394	58	1045	31
-407	59	1019	31
-422	59	984	31
-438	60	932	31
-455	60	861	31
-471	61	759	31
-488	61	682	31
-505	61	573	31
-523	61	452	31
-542	62	334	31
-560	62	182	31
-579	62	81	31
-595	62	-38	31
-613	62	-152	31
-630	63	-270	31
-648	63	-392	31
-666	63	-465	31
-679	63	-558	31
-693	63	-633	31
-708	62	-685	31
-722	62	-746	31
-737	60	-771	31
-745	60	-792	31
-753	60	-795	31
-762	60	-782	31
-770	59	-744	31
-780	58	-708	31
-781	58	-650	31
-782	57	-580	31
-784	55	-506	31
-785	54	-401	31
-788	52	-326	31
-783	52	-240	31
-778	52	-146	31
-773	52	-56	31
-768	51	38	31
-763	50	99	31
-752	50	170	31
-741	50	227	31
-729	50	273	31
-718	50	316	31
-707	49	334	31
-692	49	342	31
-677	49	339	31
-661	48	320	31
-646	48	278	31
-631	46	242	31
-613	46	181	31
-596	46	112	31
-578	46	37	31
-561	46	-62	31
-543	46	-135	31
-526	46	-216	31
-508	46	-305	31
-491	46	-385	31
-473	46	-470	31
-456	46	-521	31
-441	46	-576	31
-427	46	-622	31
-412	47	-658	31
-398	47	-678	31
-383	47	-681	31
-373	47	-677	31
-363	47	-653	31
-353	47	-618	31
-343	47	-556	31
-333	47	-502	31
-329	47	-418	31
-324	48	-336	31
-320	48	-234	31
-315	49	-112	31
-311	49	-15	31
-312	49	97	31
-315	49	214	31
-317	50	324	31
-320	50	447	31
-323	50	523	31
-331	50	609	31
-339	50	679	31
-348	50	742	31
-356	50	795	31
-366	50	821	31
-379	50	838	31
-393	51	840	31
-406	51	824	31
-420	52	783	31
-435	52	744	31
-451	52	682	31
-469	53	609	31
-486	53	518	31
-504	54	402	31
-522	54	314	31
-540	54	193	31
-558	55	66	31
-577	55	-52	31
-595	56	-199	31
-615	56	-292	31
-630	56	-401	31
-646	56	-501	31
-663	56	-601	31
-679	56	-702	31
-696	56	-760	31
-707	56	-825	31
-720	56	-874	31
-732	56	-909	31
-745	56	-929	31
-758	55	-929	31
-763	55	-918	31
-770	55	-892	31
-776	55	-847	31
-783	55	-778	31
-790	54	-723	31
-790	54	-635	31
-789	54	-545	31
-789	54	-450	31
-788	53	-327	31
-788	52	-244	31
-781	52	-150	31
-773	52	-52	31
-766	52	42	31
-758	51	140	31
-751	50	198	31
-738	50	267	31
-726	50	322	31
-713	49	360	31
-701	49	399	31
-688	47	412	31
-672	47	412	31
-656	47	398	31
-639	47	368	31
-623	47	321	31
-607	46	277	31
-589	46	213	31
-572	46	141	31
-554	46	69	31
-537	46	-24	31
-519	46	-91	31
-502	46	-161	31
-485	46	-236	31
-468	47	-300	31
-451	47	-370	31
-434	47	-408	31
-420	47	-447	31
-406	48	-474	31
-393	48	-488	31
-379	49	-488	31
-365	49	-477	31
-357	49	-450	31
-349	50	-408	31
-340	50	-352	31
-332	51	-270	31
-324	51	-206	31
-322	52	-112	31
-319	53	-17	31
-317	53	89	31
-314	54	213	31
-312	55	305	31
-315	55	409	31
-319	56	512	31
-324	56	607	31
-328	57	708	31
-333	57	761	31
-343	57	828	31
-354	57	881	31
-364	58	921	31
-375	58	946	31
-387	58	954	31
-401	58	946	31
-416	58	921	31
-431	59	881	31
-446	59	816	31
-462	59	759	31
-479	59	681	31
-497	59	593	31
-514	60	490	31
-532	60	365	31
-551	60	274	31
-568	60	159	31
-585	60	45	31
-603	61	-58	31
-620	61	-183	31
-639	61	-259	31
-653	61	-347	31
-668	61	-418	31
-684	61	-489	31
-699	60	-548	31
-715	59	-580	31
-725	59	-609	31
-736	59	-621	31
-747	59	-612	31
-758	58	-593	31
-770	57	-564	31
-773	57	-515	31
-778	56	-457	31
-782	55	-383	31
-787	54	-290	31
-792	52	-221	31
-789	52	-127	31
-786	51	-35	31
-784	51	47	31
-781	50	152	31
-778	48	217	31
-769	48	285	31
-760	48	349	31
-751	48	404	31
-742	47	450	31
-733	46	474	31
-719	46	491	31
-705	46	491	31
-690	45	480	31
-676	45	447	31
-662	43	415	31
-644	43	362	31
-626	43	297	31
-609	43	220	31
-591	43	119	31
-573	43	48	31
-555	43	-47	31
-537	43	-139	31
-519	43	-222	31
-501	42	-326	31
-483	41	-388	31
-467	41	-450	31
-451	42	-513	31
-434	42	-560	31
-418	43	-601	31
-402	43	-618	31
-390	43	-625	31
-379	43	-618	31
-367	43	-596	31
-356	43	-548	31
-344	43	-502	31
-338	43	-441	31
-332	44	-358	31
-327	44	-264	31
-321	45	-142	31
-315	45	-53	31
-315	45	65	31
-315	46	181	31
-315	46	299	31
-316	47	437	31
-317	47	531	31
-323	48	631	31
-330	48	729	31
-336	49	811	31
-343	49	889	31
-351	50	939	31
-362	51	981	31
-374	52	1008	31
-386	53	1015	31
-398	54	1009	31
-411	55	992	31
-426	55	954	31
-442	56	901	31
-457	56	828	31
-473	57	729	31
-490	57	654	31
-506	58	550	31
-524	59	442	31
-541	59	320	31
-559	60	181	31
-577	61	84	31
-593	61	-35	31
-610	61	-150	31
-628	61	-254	31
-645	61	-373	31
-663	60	-443	31
-676	60	-525	31
-689	60	-588	31
-703	60	-646	31
-716	59	-685	31
-731	58	-708	31
-739	58	-724	31
-748	58	-717	31
-756	58	-695	31
-765	57	-652	31
-775	56	-609	31
-777	56	-548	31
-779	55	-477	31
-782	53	-392	31
-784	52	-291	31
-788	50	-221	31
-783	50	-126	31
-778	50	-38	31
-773	50	41	31
-768	49	136	31
-763	48	194	31
-753	48	253	31
-743	47	306	31
-732	47	347	31
-722	46	376	31
-712	44	387	31
-696	44	387	31
-681	44	373	31
-665	44	344	31
-650	44	293	31
-634	43	247	31
-617	43	184	31
-600	43	106	31
-582	43	18	31
-565	43	-88	31
-548	42	-158	31
-530	42	-253	31
-513	42	-337	31
-495	42	-415	31
-478	42	-502	31
-460	42	-556	31
-445	42	-606	31
-430	43	-650	31
-416	43	-681	31
-401	44	-699	31
-386	44	-701	31
-376	44	-685	31
-365	44	-660	31
-355	45	-618	31
-344	45	-548	31
-334	45	-483	31
-329	46	-405	31
-324	46	-306	31
-320	47	-199	31
-315	47	-61	31
-310	48	33	31
-311	49	157	31
-313	49	273	31
-316	50	389	31
-318	50	519	31
-321	51	607	31
-328	52	695	31
-336	53	778	31
-344	53	844	31
-352	54	908	31
-361	55	937	31
-374	55	954	31
-388	55	956	31
-403	55	953	31
-417	55	915	31
-432	55	881	31
-448	56	824	31
-465	56	749	31
-482	57	662	31
-499	57	542	31
-517	58	451	31
-534	59	333	31
-552	59	218	31
-571	60	86	31
-589	60	-55	31
-608	61	-156	31
-624	62	-273	31
-641	62	-391	31
-658	63	-490	31
-675	63	-604	31
-693	64	-671	31
-704	64	-744	31
-716	65	-799	31
-729	65	-848	31
-741	66	-876	31
-754	66	-889	31
-759	66	-890	31
-765	66	-873	31
-772	66	-840	31
-778	66	-780	31
-785	66	-729	31
-785	66	-658	31
-784	66	-576	31
-784	65	-483	31
-783	65	-375	31
-783	63	-300	31
-776	63	-204	31
-769	62	-111	31
-762	61	-29	31
-755	60	70	31
-748	58	131	31
-736	56	193	31
-723	54	246	31
-711	51	290	31
-698	49	322	31
-686	45	334	31
-670	43	334	31
-654	41	322	31
-638	38	295	31
-622	36	246	31
-606	32	201	31
-589	31	141	31
-571	28	67	31
-554	26	-10	31
-536	23	-104	31
-519	20	-165	31
-502	20	-246	31
-486	19	-317	31
-469	18	-380	31
-453	17	-453	31
-436	15	-494	31
-423	16	-533	31
-409	17	-560	31
-396	17	-580	31
-382	18	-582	31
-369	19	-572	31
-360	21	-548	31
-351	24	-509	31
-343	26	-457	31
-334	29	-377	31
-325	31	-311	31
-322	35	-223	31
-320	38	-120	31
-317	42	-16	31
-315	45	114	31
-312	49	201	31
-315	52	312	31
-318	55	410	31
-322	57	507	31
-325	60	609	31
-330	63	675	31
-339	65	737	31
-349	66	797	31
-360	68	838	31
-370	69	870	31
-381	71	877	31
-395	71	874	31
-410	70	853	31
-424	70	816	31
-439	69	758	31
-455	67	695	31
-472	67	624	31
-490	66	531	31
-508	65	431	31
-526	64	302	31
-545	62	212	31
-562	61	96	31
-580	59	-11	31
-599	57	-125	31
-617	55	-245	31
-636	52	-326	31
-650	52	-416	31
-666	52	-498	31
-681	52	-567	31
-697	51	-635	31
-713	50	-669	31
-723	50	-699	31
-735	50	-713	31
-746	51	-713	31
-758	51	-694	31
-770	51	-668	31
-773	52	-623	31
-778	53	-560	31
-782	55	-493	31
-787	56	-392	31
-792	57	-317	31
-789	57	-223	31
-786	58	-130	31
-784	58	-30	31
-781	59	77	31
-778	59	146	31
-769	59	231	31
-761	59	306	31
-752	59	366	31
-744	58	431	31
-735	57	467	31
-721	57	494	31
-707	55	507	31
-694	54	510	31
-680	52	491	31
-666	50	471	31
-649	49	426	31
-632	48	374	31
-616	46	310	31
-599	45	213	31
-582	42	141	31
-564	42	57	31
-547	41	-36	31
-529	41	-129	31
-512	40	-225	31
-494	38	-289	31
-478	39	-365	31
-462	40	-429	31
-447	40	-482	31
-431	41	-538	31
-415	42	-560	31
-403	43	-576	31
-390	44	-582	31
-378	45	-570	31
-365	46	-538	31
-353	47	-504	31
-346	48	-447	31
-339	50	-377	31
-333	51	-300	31
-326	53	-188	31
-319	54	-99	31
-319	54	4	31
-318	54	125	31
-318	55	244	31
-317	55	376	31
-317	55	463	31
-321	55	569	31
-326	56	659	31
-332	56	745	31
-337	57	824	31
-343	57	881	31
-354	57	924	31
-367	56	954	31
-379	55	980	31
-392	54	979	31
-405	52	964	31
-420	53	932	31
-436	53	889	31
-452	54	824	31
-468	54	737	31
-485	55	662	31
-503	56	566	31
-521	57	453	31
-540	58	343	31
-558	59	202	31
-578	60	110	31
-594	61	-4	31
-612	62	-106	31
-629	63	-214	31
-647	64	-326	31
-665	65	-399	31
-678	66	-477	31
-693	66	-545	31
-707	67	-596	31
-722	67	-645	31
-737	68	-662	31
-745	68	-674	31
-753	67	-666	31
-762	67	-645	31
-770	66	-602	31
-780	64	-560	31
-781	64	-498	31
-783	62	-424	31
-785	61	-347	31
-787	59	-242	31
-790	57	-168	31
-785	56	-82	31
-780	55	3	31
-776	53	90	31
-771	52	179	31
-766	49	233	31
-755	49	297	31
-744	48	348	31
-732	46	385	31
-721	45	418	31
-710	43	426	31
-694	43	425	31
-678	43	412	31
-663	43	382	31
-647	43	331	31
-631	42	288	31
-613	42	219	31
-595	42	143	31
-576	43	63	31
-558	43	-47	31
-540	43	-122	31
-522	43	-206	31
-504	44	-293	31
-487	44	-375	31
-469	45	-457	31
-451	45	-502	31
-436	45	-559	31
-421	45	-598	31
-405	46	-624	31
-390	46	-642	31
-375	46	-641	31
-365	46	-625	31
-356	46	-593	31
-346	46	-546	31
-337	46	-473	31
-327	46	-413	31
-324	46	-323	31
-321	46	-229	31
-318	46	-123	31
-315	46	16	31
-312	46	119	31
-315	47	235	31
-319	48	362	31
-322	48	485	31
-326	49	617	31
-331	50	695	31
-340	51	792	31
-349	53	869	31
-359	54	937	31
-368	56	996	31
-379	57	1029	31
-392	58	1047	31
-406	59	1058	31
-421	61	1045	31
-435	62	1009	31
-450	63	977	31
-465	64	915	31
-482	64	844	31
-498	65	758	31
-515	65	640	31
-532	66	548	31
-548	66	430	31
-564	65	299	31
-581	64	172	31
-597	63	23	31
-615	61	-72	31
-628	60	-193	31
-643	58	-296	31
-657	57	-408	31
-672	55	-519	31
-687	52	-593	31
-697	51	-665	31
-709	49	-729	31
-720	46	-776	31
-732	44	-811	31
-744	41	-827	31
-749	40	-830	31
-756	39	-811	31
-762	37	-788	31
-769	36	-732	31
-776	33	-681	31
-776	34	-612	31
-777	34	-531	31
-777	35	-449	31
-778	35	-339	31
-780	36	-264	31
-775	38	-176	31
-770	40	-91	31
-765	41	-3	31
-760	43	86	31
-755	45	139	31
-745	48	203	31
-734	51	253	31
-724	54	288	31
-713	57	318	31
-703	60	324	31
-687	62	322	31
-672	64	304	31
-656	65	273	31
-641	67	219	31
-625	69	174	31
-607	69	103	31
-588	69	27	31
-570	70	-47	31
-551	70	-152	31
-533	70	-220	31
-515	69	-296	31
-497	68	-375	31
-479	66	-447	31
-461	65	-519	31
-443	62	-560	31
-428	60	-604	31
-413	57	-635	31
-397	53	-653	31
-382	50	-660	31
-367	46	-650	31
-357	45	-625	31
-348	43	-588	31
-338	40	-534	31
-329	38	-453	31
-319	35	-393	31
-315	35	-296	31
-312	34	-201	31
-308	32	-97	31
-305	31	37	31
-301	29	130	31
-304	30	236	31
-309	31	348	31
-313	33	450	31
-318	34	557	31
-323	35	622	31
-332	38	695	31
-342	40	746	31
-351	43	789	31
-361	45	823	31
-372	48	835	31
-386	51	824	31
-401	53	811	31
-417	56	774	31
-432	58	711	31
-448	61	654	31
-464	63	575	31
-481	65	489	31
-499	67	386	31
-516	69	255	31
-534	71	154	31
-551	71	35	31
-569	70	-93	31
-588	70	-215	31
-606	69	-353	31
-625	67	-436	31
-640	67	-545	31
-656	65	-629	31
-672	64	-717	31
-688	62	-804	31
-705	60	-853	31
-716	59	-896	31
-727	57	-929	31
-739	54	-941	31
-750	52	-941	31
-763	49	-929	31
-767	49	-898	31
-773	48	-856	31
-778	46	-791	31
-784	45	-704	31
-790	43	-635	31
-789	43	-539	31
-788	43	-435	31
-786	43	-339	31
-785	43	-214	31
-784	42	-132	31
-776	43	-39	31
-768	44	50	31
-760	45	139	31
-752	46	227	31
-744	47	277	31
-730	48	336	31
-716	49	376	31
-702	50	406	31
-688	51	425	31
-674	52	425	31
-656	52	410	31
-639	52	383	31
-621	52	341	31
-604	52	277	31
-586	52	227	31
-568	52	152	31
-551	52	75	31
-533	51	4	31
-516	51	-91	31
-498	49	-151	31
-481	49	-217	31
-465	48	-283	31
-448	46	-341	31
-432	45	-396	31
-415	43	-424	31
-403	43	-449	31
-390	43	-464	31
-378	43	-459	31
-365	43	-441	31
-353	43	-416	31
-346	43	-374	31
-339	43	-319	31
-331	44	-247	31
-324	44	-150	31
-317	44	-79	31
-316	45	26	31
-314	46	131	31
-313	47	233	31
-311	48	362	31
-310	49	451	31
-314	51	545	31
-319	52	642	31
-324	54	726	31
-329	55	811	31
-335	57	857	31
-345	57	909	31
-356	58	944	31
-366	58	956	31
-377	59	969	31
-389	59	954	31
-404	59	932	31
-420	59	889	31
-436	60	828	31
-452	60	745	31
-469	60	679	31
-486	60	582	31
-505	60	485	31
-523	59	374	31
-542	59	243	31
-561	57	145	31
-579	57	38	31
-597	57	-75	31
-616	57	-178	31
-634	56	-291	31
-654	55	-360	31
-668	55	-438	31
-684	55	-499	31
-699	55	-554	31
-715	54	-599	31
-731	53	-621	31
-740	53	-629	31
-750	53	-625	31
-759	53	-604	31
-769	52	-560	31
-780	51	-520	31
-782	51	-457	31
-785	51	-392	31
-789	52	-306	31
-792	52	-204	31
-796	52	-131	31
-792	52	-37	31
-788	52	54	31
-784	51	137	31
-780	51	233	31
-776	49	291	31
-765	49	352	31
-755	49	404	31
-744	49	447	31
-734	48	480	31
-723	47	491	31
-708	47	495	31
-693	47	483	31
-679	46	456	31
-664	46	409	31
-649	44	362	31
-632	44	302	31
-615	44	226	31
-597	44	138	31
-580	43	31	31
-563	42	-39	31
-545	42	-136	31
-527	42	-225	31
-510	43	-305	31
-492	43	-399	31
-474	43	-453	31
-459	44	-509	31
-444	44	-555	31
-428	45	-593	31
-413	45	-612	31
-398	46	-619	31
-386	47	-609	31
-374	48	-587	31
-363	49	-548	31
-351	50	-483	31
-339	51	-427	31
-333	52	-351	31
-327	53	-256	31
-320	54	-150	31
-314	55	-19	31
-308	56	72	31
-308	57	198	31
-308	59	319	31
-308	60	426	31
-309	62	561	31
-310	63	651	31
-316	64	737	31
-323	65	824	31
-331	66	889	31
-338	67	954	31
-346	68	992	31
-358	68	1017	31
-371	69	1029	31
-385	69	1019	31
-398	70	995	31
-412	70	954	31
-428	70	909	31
-446	70	838	31
-463	70	751	31
-481	70	637	31
-499	69	553	31
-517	68	431	31
-535	67	316	31
-554	65	198	31
-572	64	54	31
-592	61	-46	31
-608	59	-158	31
-625	56	-271	31
-643	53	-373	31
-660	50	-483	31
-678	46	-548	31
-691	44	-621	31
-704	40	-674	31
-718	37	-723	31
-731	33	-748	31
-746	29	-764	31
-753	28	-761	31
-761	25	-745	31
-768	23	-712	31
-776	20	-653	31
-785	17	-604	31
-785	17	-529	31
-786	17	-456	31
-787	16	-363	31
-788	16	-261	31
-790	14	-187	31
-785	16	-96	31
-779	18	-9	31
-774	21	70	31
-768	23	159	31
-763	25	211	31
-751	29	266	31
-740	32	306	31
-728	36	341	31
-717	39	360	31
-705	43	362	31
-690	46	355	31
-674	49	331	31
-659	53	293	31
-643	56	231	31
-628	59	181	31
-610	61	108	31
-592	63	29	31
-575	65	-61	31
-557	67	-165	31
-539	69	-232	31
-521	69	-323	31
-503	68	-404	31
-486	68	-473	31
-468	67	-553	31
-450	65	-594	31
-435	64	-636	31
-420	62	-668	31
-406	61	-685	31
-391	59	-685	31
-376	56	-679	31
-366	55	-658	31
-356	53	-612	31
-346	51	-560	31
-336	49	-476	31
-326	46	-405	31
-323	46	-319	31
-319	46	-214	31
-316	46	-97	31
-312	45	38	31
-309	44	130	31
-311	45	254	31
-314	46	366	31
-316	48	470	31
-319	49	593	31
-323	50	666	31
-332	52	737	31
-341	54	805	31
-351	56	858	31
-360	58	900	31
-371	60	914	31
-384	61	920	31
-398	63	906	31
-413	64	877	31
-427	66	820	31
-442	67	770	31
-459	67	699	31
-477	67	609	31
-494	67	507	31
-512	67	376	31
-531	67	285	31
-548	67	158	31
-567	66	36	31
-585	65	-84	31
-604	64	-223	31
-623	62	-321	31
-638	61	-424	31
-654	60	-531	31
-671	58	-625	31
-687	57	-717	31
-704	54	-771	31
-715	54	-829	31
-727	53	-869	31
-740	52	-893	31
-752	51	-907	31
-765	49	-901	31
-770	49	-876	31
-776	49	-843	31
-782	49	-791	31
-788	49	-712	31
-795	49	-650	31
-794	49	-564	31
-792	49	-478	31
-791	50	-377	31
-789	50	-269	31
-788	50	-191	31
-780	50	-98	31
-772	51	-7	31
-765	51	72	31
-757	52	162	31
-749	52	211	31
-735	52	263	31
-722	51	299	31
-708	51	333	31
-695	50	349	31
-681	48	348	31
-664	48	334	31
-647	47	306	31
-629	46	266	31
-612	45	200	31
-595	43	148	31
-577	43	79	31
-558	42	8	31
-540	41	-72	31
-521	40	-164	31
-503	38	-220	31
-487	38	-294	31
-471	38	-360	31
-454	38	-415	31
-438	38	-473	31
-422	38	-501	31
-409	39	-525	31
-396	40	-538	31
-382	41	-538	31
-369	42	-520	31
-356	43	-495	31
-348	44	-453	31
-341	46	-399	31
-333	47	-334	31
-326	49	-232	31
-318	50	-154	31
-316	51	-57	31
-314	53	46	31
-313	54	160	31
-311	56	286	31
-309	57	366	31
-313	57	474	31
-318	57	567	31
-324	58	647	31
-329	58	737	31
-335	58	792	31
-345	58	838	31
-356	58	877	31
-367	59	901	31
-378	59	908	31
-390	59	893	31
-405	59	874	31
-420	59	828	31
-436	60	782	31
-451	60	695	31
-468	60	626	31
-485	60	540	31
-504	60	431	31
-522	60	324	31
-541	60	188	31
-560	60	100	31
-577	60	-16	31
-595	61	-123	31
-614	61	-222	31
-632	62	-337	31
-651	62	-409	31
-666	62	-482	31
-681	62	-553	31
-697	62	-609	31
-712	62	-653	31
-729	62	-671	31
-738	62	-681	31
-748	62	-678	31
-757	62	-658	31
-767	62	-612	31
-778	61	-574	31
-781	61	-512	31
-784	59	-435	31
-788	58	-352	31
-791	56	-242	31
-796	54	-166	31
-792	54	-68	31
-788	52	20	31
-785	51	113	31
-781	49	212	31
-777	47	277	31
-767	47	348	31
-757	46	410	31
-746	46	456	31
-736	45	502	31
-726	43	519	31
-711	43	528	31
-696	43	523	31
-682	43	503	31
-667	43	464	31
-652	42	426	31
-634	42	366	31
-616	43	291	31
-599	43	212	31
-581	44	103	31
-563	44	28	31
-545	44	-64	31
-528	44	-147	31
-510	45	-239	31
-493	45	-330	31
-475	45	-387	31
-459	45	-453	31
-443	45	-509	31
-428	46	-548	31
-412	46	-580	31
-396	46	-593	31
-385	46	-593	31
-373	46	-576	31
-362	46	-545	31
-350	46	-491	31
-339	46	-442	31
-333	46	-365	31
-327	46	-280	31
-321	46	-189	31
-315	46	-58	31
-309	46	34	31
-309	47	148	31
-309	47	263	31
-309	48	383	31
-310	48	510	31
-311	49	589	31
-317	50	686	31
-324	51	770	31
-332	51	838	31
-339	52	909	31
-347	53	946	31
-359	54	972	31
-371	55	988	31
-384	57	984	31
-396	58	964	31
-410	59	935	31
-426	59	881	31
-443	60	820	31
-461	60	744	31
-478	61	631	31
-496	61	545	31
-513	61	439	31
-532	62	323	31
-550	62	202	31
-569	63	62	31
-588	63	-25	31
-605	63	-140	31
-623	63	-244	31
-640	62	-337	31
-658	62	-443	31
-677	60	-510	31
-690	60	-572	31
-703	59	-625	31
-717	58	-668	31
-730	57	-695	31
-745	55	-702	31
-752	55	-695	31
-761	54	-677	31
-769	54	-641	31
-778	53	-580	31
-787	51	-528	31
-787	51	-456	31
-788	51	-370	31
-790	50	-283	31
-791	50	-176	31
-793	48	-103	31
-787	48	-14	31
-781	49	65	31
-775	49	145	31
-769	50	227	31
-763	50	280	31
-752	50	330	31
-741	50	371	31
-729	50	399	31
-718	50	414	31
-707	49	413	31
-691	49	402	31
-675	49	374	31
-659	49	333	31
-643	49	269	31
-627	48	214	31
-609	48	138	31
-591	48	51	31
-572	47	-36	31
-554	47	-145	31
-536	45	-214	31
-519	45	-300	31
-502	45	-373	31
-484	45	-448	31
-467	44	-518	31
-450	43	-559	31
-435	43	-600	31
-420	43	-629	31
-405	43	-644	31
-390	43	-642	31
-375	43	-625	31
-365	44	-594	31
-356	45	-548	31
-346	45	-488	31
-337	46	-400	31
-327	47	-331	31
-323	48	-229	31
-319	49	-117	31
-314	49	-8	31
-310	50	142	31
-306	51	243	31
-308	52	360	31
-311	53	477	31
-315	53	593	31
-318	54	714	31
-322	55	783	31
-330	56	870	31
-338	57	938	31
-347	57	984	31
-355	58	1034	31
-365	59	1047	31
-379	59	1056	31
-394	59	1044	31
-408	59	1011	31
-423	58	956	31
-439	57	915	31
-456	57	838	31
-473	57	750	31
-491	57	654	31
-508	57	517	31
-527	57	415	31
-545	57	296	31
-564	57	166	31
-582	57	35	31
-601	57	-109	31
-621	56	-201	31
-636	56	-321	31
-652	56	-428	31
-669	56	-521	31
-685	56	-631	31
-702	55	-695	31
-713	55	-748	31
-725	55	-808	31
-736	55	-847	31
-748	55	-871	31
-761	55	-872	31
-766	55	-861	31
-772	54	-831	31
-777	53	-792	31
-783	52	-724	31
-790	50	-668	31
-789	50	-596	31
-788	50	-506	31
-786	50	-416	31
-785	49	-309	31
-784	48	-239	31
-776	48	-146	31
-768	48	-66	31
-760	47	13	31
-752	47	95	31
-744	45	147	31
-731	45	197	31
-718	44	239	31
-704	44	267	31
-691	43	283	31
-678	41	282	31
-661	41	270	31
-645	41	244	31
-628	41	202	31
-612	41	141	31
-595	41	89	31
-577	41	20	31
-559	41	-60	31
-542	41	-137	31
-524	41	-233	31
-506	41	-292	31
-489	42	-363	31
-472	43	-425	31
-456	43	-483	31
-439	44	-543	31
-422	45	-572	31
-409	45	-599	31
-395	46	-618	31
-382	46	-619	31
-368	47	-602	31
-355	47	-576	31
-347	47	-540	31
-340	48	-489	31
-332	48	-417	31
-325	49	-324	31
-317	49	-249	31
-315	49	-147	31
-313	50	-39	31
-310	50	66	31
-308	51	202	31
-306	51	290	31
-310	52	391	31
-315	52	485	31
-320	53	577	31
-325	53	666	31
-331	54	715	31
-341	55	773	31
-353	55	812	31
-364	56	835	31
-376	56	844	31
-388	57	838	31
-403	57	813	31
-419	57	775	31
-434	58	719	31
-450	58	638	31
-467	58	575	31
-485	59	478	31
-503	59	374	31
-522	60	267	31
-540	60	121	31
-560	61	22	31
-577	61	-92	31
-595	61	-209	31
-613	61	-323	31
-631	61	-443	31
-650	60	-518	31
-664	60	-609	31
-679	60	-681	31
-694	59	-745	31
-709	59	-810	31
-725	57	-838	31
-734	57	-857	31
-744	56	-864	31
-755	55	-855	31
-765	54	-815	31
-776	52	-791	31
-779	52	-732	31
-783	52	-665	31
-786	51	-586	31
-790	51	-477	31
-795	49	-392	31
-791	49	-296	31
-788	49	-190	31
-784	48	-85	31
-781	48	30	31
-777	46	103	31
-767	46	192	31
-758	46	267	31
-748	46	338	31
-739	46	405	31
-729	45	442	31
-714	45	473	31
-699	45	491	31
-684	45	496	31
-669	45	483	31
-654	45	462	31
-637	45	422	31
-620	45	372	31
-604	45	306	31
-587	45	222	31
-570	44	152	31
-552	44	71	31
-534	44	-16	31
-517	44	-99	31
-499	44	-193	31
-481	43	-250	31
-465	43	-319	31
-449	43	-373	31
-433	44	-424	31
-417	44	-466	31
-401	44	-483	31
-389	44	-495	31
-377	44	-494	31
-366	44	-480	31
-354	44	-438	31
-342	44	-400	31
-336	45	-341	31
-330	45	-273	31
-324	46	-185	31
-318	46	-74	31
-312	47	10	31
-312	47	121	31
-312	48	236	31
-313	48	340	31
-313	49	470	31
-315	49	551	31
-321	50	642	31
-328	50	719	31
-334	51	801	31
-341	51	869	31
-349	52	906	31
-361	53	945	31
-373	53	964	31
-386	54	964	31
-398	54	953	31
-412	55	924	31
-428	55	885	31
-444	55	824	31
-461	56	751	31
-477	56	653	31
-495	56	575	31
-513	56	467	31
-532	56	356	31
-550	57	247	31
-569	57	105	31
-589	57	14	31
-605	57	-91	31
-623	57	-195	31
-640	57	-294	31
-658	57	-399	31
-676	57	-456	31
-689	57	-528	31
-703	57	-580	31
-717	57	-619	31
-731	57	-650	31
-746	57	-658	31
-753	57	-658	31
-762	56	-636	31
-770	55	-600	31
-779	54	-545	31
-788	52	-494	31
-789	52	-418	31
-790	52	-341	31
-792	52	-258	31
-793	52	-150	31
-796	52	-72	31
-791	52	9	31
-785	52	97	31
-780	51	179	31
-774	51	263	31
-769	49	310	31
-757	49	362	31
-745	49	405	31
-734	49	431	31
-722	49	451	31
-710	48	454	31
-694	48	441	31
-678	48	415	31
-662	48	376	31
-646	48	313	31
-630	47	262	31
-612	47	184	31
-594	47	105	31
-575	47	15	31
-557	46	-90	31
-539	45	-166	31
-521	45	-248	31
-504	45	-334	31
-486	45	-405	31
-469	45	-481	31
-451	45	-522	31
-436	45	-564	31
-421	45	-593	31
-407	46	-612	31
-392	46	-612	31
-377	46	-604	31
-367	47	-576	31
-357	47	-531	31
-346	48	-474	31
-336	48	-389	31
-326	49	-321	31
-322	49	-223	31
-318	49	-125	31
-314	50	-7	31
-310	50	129	31
-306	50	231	31
-308	50	352	31
-310	51	474	31
-313	51	581	31
-315	52	706	31
-319	52	778	31
-327	53	857	31
-337	54	921	31
-346	55	980	31
-356	56	1019	31
-366	57	1037	31
-379	57	1047	31
-394	57	1037	31
-408	58	1011	31
-423	58	954	31
-438	58	914	31
-455	59	842	31
-472	59	758	31
-490	60	654	31
-507	60	524	31
-526	61	436	31
-544	61	306	31
-563	61	182	31
-581	61	63	31
-600	60	-86	31
-620	59	-181	31
-636	59	-286	31
-652	59	-391	31
-669	59	-489	31
-685	58	-586	31
-703	57	-642	31
-714	57	-704	31
-726	56	-748	31
-738	56	-780	31
-750	55	-799	31
-763	53	-796	31
-768	53	-783	31
-774	52	-746	31
-780	52	-702	31
-786	51	-632	31
-793	49	-575	31
-792	49	-493	31
-791	49	-409	31
-790	49	-323	31
-789	49	-214	31
-788	48	-139	31
-780	48	-56	31
-773	48	29	31
-765	48	103	31
-758	48	182	31
-750	47	226	31
-737	47	274	31
-724	47	306	31
-711	47	326	31
-698	47	334	31
-685	47	329	31
-668	47	308	31
-651	47	272	31
-635	47	224	31
-618	46	149	31
-601	45	96	31
-583	45	16	31
-565	45	-64	31
-548	45	-149	31
-530	45	-247	31
-512	44	-319	31
-495	44	-393	31
-477	44	-466	31
-460	44	-528	31
-442	44	-591	31
-425	44	-621	31
-411	44	-652	31
-397	45	-665	31
-383	45	-669	31
-369	46	-658	31
-355	46	-633	31
-347	46	-593	31
-339	47	-536	31
-331	47	-470	31
-323	48	-365	31
-315	48	-293	31
-312	49	-192	31
-309	49	-89	31
-307	50	31	31
-304	50	163	31
-301	51	256	31
-305	52	366	31
-310	53	474	31
-314	55	561	31
-319	56	666	31
-325	57	719	31
-335	57	778	31
-346	58	820	31
-356	58	853	31
-367	59	866	31
-379	59	866	31
-394	59	844	31
-410	59	809	31
-425	60	758	31
-441	60	681	31
-458	60	616	31
-476	60	523	31
-495	61	426	31
-513	61	310	31
-532	62	171	31
-552	62	75	31
-569	62	-53	31
-587	62	-177	31
-606	62	-286	31
-624	61	-423	31
-643	60	-506	31
-658	60	-599	31
-674	60	-681	31
-690	60	-761	31
-706	59	-831	31
-723	58	-869	31
-732	58	-902	31
-743	58	-918	31
-753	57	-921	31
-764	57	-905	31
-775	55	-876	31
-778	55	-836	31
-782	55	-776	31
-787	54	-702	31
-791	54	-604	31
-796	52	-531	31
-792	52	-430	31
-789	51	-336	31
-785	51	-242	31
-782	50	-125	31
-778	48	-47	31
-769	48	35	31
-759	48	121	31
-750	48	195	31
-740	47	267	31
-731	46	305	31
-716	46	347	31
-702	45	368	31
-687	45	383	31
-673	44	378	31
-658	42	362	31
-641	42	334	31
-623	42	289	31
-606	42	235	31
-588	42	156	31
-571	41	100	31
-553	41	22	31
-536	42	-51	31
-518	42	-125	31
-501	43	-209	31
-483	43	-269	31
-467	43	-326	31
-451	43	-383	31
-436	43	-428	31
-420	43	-466	31
-404	43	-483	31
-392	44	-491	31
-380	45	-488	31
-369	45	-469	31
-357	46	-429	31
-345	47	-391	31
-339	47	-334	31
-333	47	-258	31
-327	48	-174	31
-321	48	-60	31
-315	48	23	31
-315	48	128	31
-315	49	229	31
-315	49	340	31
-315	50	456	31
-315	50	538	31
-320	50	626	31
-326	50	712	31
-332	51	778	31
-338	51	847	31
-345	51	881	31
-357	51	914	31
-369	52	929	31
-382	52	931	31
-394	53	909	31
-408	53	881	31
-424	54	836	31
-441	55	777	31
-458	55	699	31
-475	56	593	31
-493	57	518	31
-511	57	415	31
-529	58	308	31
-548	58	190	31
-566	59	59	31
-586	59	-27	31
-603	59	-137	31
-621	60	-240	31
-639	60	-328	31
-657	61	-428	31
-676	61	-483	31
-689	61	-545	31
-703	61	-593	31
-718	60	-625	31
-732	60	-649	31
-747	58	-650	31
-755	58	-640	31
-763	57	-612	31
-772	55	-572	31
-780	54	-506	31
-790	52	-448	31
-790	52	-375	31
-791	51	-286	31
-793	51	-192	31
-794	50	-81	31
-796	48	-9	31
-791	48	88	31
-785	47	172	31
-780	47	251	31
-774	46	338	31
-769	44	391	31
-758	44	441	31
-746	44	485	31
-735	44	515	31
-723	44	528	31
-712	44	528	31
-696	44	515	31
-680	44	487	31
-665	44	447	31
-649	44	380	31
-633	43	324	31
-615	43	249	31
-597	44	158	31
-579	44	62	31
-561	45	-48	31
-543	45	-120	31
-525	45	-214	31
-507	45	-296	31
-489	45	-370	31
-471	45	-450	31
-453	45	-502	31
-438	45	-546	31
-423	46	-585	31
-409	46	-606	31
-394	47	-612	31
-379	47	-605	31
-368	47	-583	31
-358	47	-546	31
-347	47	-494	31
-337	47	-416	31
-326	47	-347	31
-321	47	-258	31
-317	47	-150	31
-312	48	-41	31
-308	48	99	31
-303	48	194	31
-305	48	314	31
-308	49	422	31
-310	49	534	31
-313	50	650	31
-317	50	726	31
-324	50	809	31
-333	50	877	31
-341	51	932	31
-350	51	978	31
-359	51	996	31
-373	52	1006	31
-387	53	996	31
-402	53	971	31
-416	54	924	31
-432	55	877	31
-449	56	805	31
-466	57	719	31
-484	57	626	31
-501	58	494	31
-520	59	402	31
-538	59	286	31
-557	59	172	31
-576	59	46	31
-595	59	-87	31
-615	59	-174	31
-631	59	-283	31
-648	59	-383	31
-665	59	-467	31
-682	59	-560	31
-700	58	-612	31
-711	58	-663	31
-723	58	-699	31
-736	57	-724	31
-748	57	-732	31
-761	55	-724	31
-766	55	-699	31
-773	55	-661	31
-779	55	-610	31
-786	54	-528	31
-793	53	-466	31
-792	53	-389	31
-792	52	-299	31
-791	52	-205	31
-791	51	-100	31
-790	49	-31	31
-783	49	56	31
-776	49	134	31
-768	49	198	31
-761	49	275	31
-754	49	316	31
-741	49	352	31
-728	49	379	31
-716	49	393	31
-703	49	389	31
-690	48	376	31
-673	48	347	31
-656	48	305	31
-640	48	252	31
-623	48	171	31
-606	48	105	31
-588	48	26	31
-569	48	-68	31
-551	48	-159	31
-532	48	-261	31
-514	48	-326	31
-497	48	-405	31
-480	48	-473	31
-463	48	-531	31
-446	47	-591	31
-429	46	-622	31
-415	46	-646	31
-401	47	-658	31
-386	47	-653	31
-372	48	-629	31
-358	48	-602	31
-349	48	-553	31
-341	48	-490	31
-332	48	-415	31
-324	48	-311	31
-315	47	-225	31
-312	48	-120	31
-309	48	3	31
-307	49	124	31
-304	49	271	31
-301	50	366	31
-305	51	488	31
-309	52	593	31
-314	53	695	31
-318	54	801	31
-324	55	866	31
-334	55	931	31
-345	56	982	31
-356	56	1015	31
-367	57	1035	31
-379	57	1035	31
-393	58	1019	31
-409	59	992	31
-424	59	946	31
-440	60	873	31
-456	61	809	31
-474	61	716	31
-493	61	609	31
-512	62	501	31
-531	62	352	31
-551	62	252	31
-568	62	122	31
-587	62	4	31
-605	62	-127	31
-624	62	-264	31
-643	62	-353	31
-657	62	-466	31
-673	62	-567	31
-688	62	-652	31
-704	61	-743	31
-720	60	-792	31
-730	60	-840	31
-741	60	-872	31
-752	59	-893	31
-763	59	-895	31
-775	57	-880	31
-778	57	-853	31
-782	57	-808	31
-787	56	-748	31
-791	56	-668	31
-796	54	-600	31
-793	54	-518	31
-790	53	-427	31
-786	53	-334	31
-783	52	-225	31
-780	50	-158	31
-771	50	-67	31
-762	50	11	31
-752	50	79	31
-743	50	155	31
-734	50	198	31
-720	50	237	31
-706	49	265	31
-691	49	281	31
-677	48	280	31
-663	46	267	31
-646	46	242	31
-629	46	202	31
-611	46	154	31
-594	46	75	31
-577	46	18	31
-559	46	-50	31
-541	46	-131	31
-523	45	-209	31
-505	45	-294	31
-487	43	-347	31
-471	43	-415	31
-455	43	-467	31
-438	43	-512	31
-422	43	-556	31
-406	43	-574	31
-393	43	-585	31
-380	44	-586	31
-368	44	-571	31
-355	45	-534	31
-342	45	-499	31
-335	45	-442	31
-328	45	-373	31
-322	46	-294	31
-315	46	-185	31
-308	46	-100	31
-308	47	1	31
-307	48	116	31
-307	49	225	31
-306	50	352	31
-306	51	430	31
-312	52	528	31
-318	52	607	31
-325	53	682	31
-331	53	756	31
-339	54	796	31
-351	55	828	31
-364	56	857	31
-376	56	861	31
-389	57	848	31
-403	58	824	31
-419	58	783	31
-436	58	729	31
-454	58	658	31
-471	58	561	31
-489	58	485	31
-507	58	380	31
-526	58	263	31
-546	59	150	31
-565	59	9	31
-585	59	-81	31
-602	59	-194	31
-620	59	-291	31
-637	59	-395	31
-655	59	-494	31
-674	58	-560	31
-688	58	-633	31
-702	58	-685	31
-717	58	-732	31
-731	57	-765	31
-747	56	-771	31
-754	56	-771	31
-762	56	-748	31
-771	55	-717	31
-779	55	-662	31
-788	53	-612	31
-789	53	-535	31
-791	53	-448	31
-792	52	-360	31
-794	52	-239	31
-797	50	-157	31
-792	50	-60	31
-787	50	35	31
-781	49	130	31
-776	49	228	31
-771	47	289	31
-759	47	360	31
-748	47	420	31
-736	47	462	31
-725	47	502	31
-713	46	517	31
-698	46	519	31
-683	46	510	31
-667	46	487	31
-652	46	440	31
-637	45	398	31
-619	45	331	31
-601	45	256	31
-584	45	179	31
-566	45	69	31
-548	45	-6	31
-530	45	-88	31
-512	45	-175	31
-494	44	-257	31
-476	44	-343	31
-458	42	-392	31
-443	43	-449	31
-427	43	-494	31
-412	44	-525	31
-396	44	-548	31
-381	45	-548	31
-370	45	-540	31
-360	46	-515	31
-349	46	-474	31
-339	47	-409	31
-328	47	-353	31
-323	47	-273	31
-318	48	-185	31
-314	48	-86	31
-309	49	44	31
-304	49	141	31
-306	50	247	31
-308	50	362	31
-311	51	473	31
-313	51	592	31
-317	52	663	31
-324	53	745	31
-333	53	816	31
-341	54	874	31
-350	54	924	31
-359	55	953	31
-372	55	964	31
-386	56	964	31
-401	56	946	31
-415	57	908	31
-430	57	868	31
-447	57	804	31
-464	57	729	31
-482	57	638	31
-499	57	522	31
-518	57	431	31
-535	57	320	31
-554	57	198	31
-572	57	86	31
-591	57	-50	31
-610	57	-136	31
-627	57	-239	31
-644	57	-330	31
-662	57	-418	31
-679	56	-506	31
-698	55	-557	31
-709	55	-610	31
-722	55	-649	31
-734	54	-669	31
-747	54	-680	31
-760	52	-669	31
-766	52	-648	31
-773	52	-612	31
-779	52	-560	31
-786	52	-482	31
-794	51	-425	31
-794	51	-339	31
-794	50	-250	31
-793	50	-165	31
-793	49	-53	31
-793	47	17	31
-786	47	98	31
-779	48	174	31
-772	48	247	31
-765	49	318	31
-758	49	356	31
-745	49	397	31
-732	49	423	31
-718	49	431	31
-705	48	431	31
-692	47	420	31
-675	47	391	31
-658	47	349	31
-640	47	291	31
-623	47	214	31
-606	47	154	31
-588	47	64	31
-569	47	-23	31
-551	47	-106	31
-532	47	-215	31
-514	46	-285	31
-497	46	-359	31
-480	46	-429	31
-462	46	-491	31
-445	46	-548	31
-428	45	-576	31
-414	45	-606	31
-401	45	-619	31
-387	46	-618	31
-374	46	-594	31
-360	46	-566	31
-351	46	-521	31
-343	46	-456	31
-334	47	-377	31
-326	47	-275	31
-317	47	-197	31
-315	48	-84	31
-313	48	29	31
-310	49	145	31
-308	49	291	31
-306	50	395	31
-309	50	503	31
-314	50	620	31
-318	51	719	31
-323	51	824	31
-328	51	886	31
-337	52	953	31
-347	53	998	31
-358	53	1034	31
-368	54	1053	31
-379	55	1056	31
-393	55	1041	31
-409	56	1009	31
-424	56	964	31
-440	57	889	31
-456	57	824	31
-473	57	736	31
-491	57	637	31
-508	58	523	31
-526	58	383	31
-545	58	277	31
-563	58	156	31
-581	58	25	31
-600	58	-93	31
-618	58	-234	31
-638	57	-321	31
-652	57	-425	31
-668	57	-513	31
-683	56	-600	31
-699	56	-681	31
-715	54	-729	31
-725	54	-771	31
-737	54	-804	31
-748	53	-815	31
-760	53	-811	31
-772	51	-796	31
-776	51	-761	31
-780	50	-716	31
-785	48	-653	31
-789	47	-568	31
-795	45	-502	31
-792	45	-413	31
-789	45	-319	31
-786	45	-232	31
-783	44	-121	31
-780	43	-51	31
-771	43	29	31
-762	43	101	31
-752	43	171	31
-743	43	236	31
-734	43	270	31
-720	43	306	31
-705	44	326	31
-691	44	332	31
-676	45	322	31
-662	45	303	31
-645	46	268	31
-628	47	220	31
-610	47	158	31
-593	48	74	31
-576	49	15	31
-558	50	-72	31
-541	51	-158	31
-523	52	-236	31
-506	53	-336	31
-488	54	-399	31
-472	55	-464	31
-456	56	-525	31
-441	58	-576	31
-425	59	-624	31
-409	60	-645	31
-397	61	-661	31
-385	62	-662	31
-372	62	-650	31
-360	63	-618	31
-348	64	-580	31
-341	65	-528	31
-335	66	-456	31
-328	68	-370	31
-322	69	-261	31
-315	70	-181	31
-314	70	-67	31
-313	70	42	31
-313	70	151	31
-312	69	283	31
-311	68	373	31
-316	68	467	31
-321	67	561	31
-327	67	642	31
-332	66	719	31
-339	64	759	31
-350	63	804	31
-363	61	824	31
-375	60	838	31
-388	58	824	31
-401	55	809	31
-417	53	770	31
-433	51	715	31
-450	48	647	31
-466	46	548	31
-484	42	471	31
-502	41	365	31
-521	39	255	31
-539	37	135	31
-558	35	-6	31
-578	32	-111	31
-595	32	-225	31
-614	31	-345	31
-632	30	-452	31
-651	29	-572	31
-670	27	-645	31
-683	28	-729	31
-698	29	-792	31
-712	30	-853	31
-727	31	-900	31
-742	32	-921	31
-750	34	-935	31
-759	36	-932	31
-768	38	-910	31
-777	40	-869	31
-787	42	-827	31
-787	44	-761	31
-789	46	-685	31
-790	47	-600	31
-792	49	-490	31
-794	51	-415	31
-788	52	-309	31
-782	53	-207	31
-777	53	-113	31
-771	54	1	31
-765	55	72	31
-753	54	152	31
-741	52	222	31
-730	51	286	31
-718	49	343	31
-706	46	368	31
-690	44	397	31
-674	42	408	31
-657	39	402	31
-641	37	376	31
-625	33	350	31
-608	32	305	31
-590	30	250	31
-573	27	181	31
-555	25	96	31
-538	22	38	31
-521	22	-41	31
-504	22	-119	31
-486	22	-185	31
-469	22	-269	31
-452	22	-319	31
-438	25	-365	31
-424	28	-412	31
-411	32	-443	31
-397	35	-466	31
-383	38	-470	31
-374	43	-465	31
-365	48	-443	31
-357	53	-409	31
-348	58	-350	31
-339	63	-297	31
-336	68	-228	31
-333	72	-140	31
-329	77	-42	31
-326	81	80	31
-323	86	164	31
-324	88	274	31
-327	91	376	31
-329	93	478	31
-332	96	593	31
-335	98	666	31
-342	98	742	31
-349	98	812	31
-357	98	870	31
-364	97	921	31
-373	96	940	31
-385	94	954	31
-397	91	954	31
-410	89	938	31
-422	86	893	31
-436	82	857	31
-451	80	796	31
-466	78	716	31
-482	75	626	31
-497	73	511	31
-514	69	426	31
-530	69	314	31
-547	68	206	31
-565	67	92	31
-582	66	-34	31
-600	64	-125	31
-616	64	-220	31
-633	65	-318	31
-649	65	-399	31
-666	66	-482	31
-684	66	-529	31
-698	67	-576	31
-713	68	-606	31
-727	69	-625	31
-742	70	-625	31
-758	71	-612	31
-766	71	-589	31
-775	70	-546	31
-785	69	-493	31
-794	68	-409	31
-804	66	-347	31
-805	65	-262	31
-808	63	-177	31
-810	61	-79	31
-813	59	26	31
-816	56	97	31
-810	53	183	31
-805	50	263	31
-799	46	329	31
-794	43	399	31
-788	38	438	31
-773	36	475	31
-759	34	496	31
-744	31	510	31
-730	29	503	31
-715	25	490	31
-696	25	456	31
-677	25	412	31
-657	25	356	31
-638	25	269	31
-619	25	200	31
-597	26	115	31
-575	27	24	31
-552	29	-74	31
-530	30	-180	31
-508	31	-247	31
-488	33	-334	31
-468	36	-408	31
-447	38	-466	31
-427	41	-535	31
-407	43	-570	31
-392	43	-596	31
-377	43	-612	31
-363	43	-619	31
-348	43	-600	31
-333	43	-576	31
-325	42	-531	31
-317	40	-474	31
-309	38	-405	31
-301	36	-300	31
-293	33	-220	31
-293	30	-120	31
-293	27	-3	31
-293	23	118	31
-293	20	260	31
-293	15	352	31
-298	14	474	31
-304	11	577	31
-311	9	674	31
-317	6	779	31
-324	3	844	31
-334	4	902	31
-346	5	954	31
-357	7	996	31
-369	8	1011	31
-381	9	1015	31
-395	13	1008	31
-410	17	977	31
-424	21	932	31
-439	25	861	31
-455	29	796	31
-471	35	714	31
-488	40	607	31
-506	46	496	31
-523	51	357	31
-541	57	263	31
-558	61	139	31
-575	64	25	31
-593	68	-92	31
-610	71	-222	31
-629	75	-309	31
-644	75	-404	31
-660	75	-494	31
-677	75	-572	31
-693	75	-646	31
-710	75	-681	31
-721	73	-723	31
-733	69	-740	31
-745	66	-746	31
-757	62	-733	31
-770	58	-713	31
-775	55	-674	31
-780	51	-612	31
-786	48	-548	31
-791	44	-457	31
-798	39	-391	31
-796	38	-300	31
-795	37	-214	31
-793	35	-118	31
-792	34	-17	31
-790	31	49	31
-781	32	128	31
-772	33	200	31
-764	33	258	31
-755	34	318	31
-746	35	348	31
-731	38	371	31
-716	41	380	31
-701	43	379	31
-686	46	358	31
-671	49	333	31
-653	51	287	31
-634	54	228	31
-616	56	164	31
-597	59	66	31
-579	61	-4	31
-560	61	-91	31
-542	61	-178	31
-523	62	-270	31
-505	62	-365	31
-486	62	-427	31
-470	62	-501	31
-454	62	-560	31
-439	62	-609	31
-423	61	-658	31
-407	60	-674	31
-397	61	-685	31
-386	62	-681	31
-376	62	-666	31
-365	63	-625	31
-355	64	-588	31
-351	68	-522	31
-347	72	-447	31
-343	76	-363	31
-339	80	-243	31
-335	84	-152	31
-338	90	-42	31
-341	96	80	31
-345	101	204	31
-348	107	342	31
-353	113	430	31
-362	118	542	31
-372	123	639	31
-382	128	719	31
-392	133	811	31
-403	138	861	31
-417	138	902	31
-431	138	938	31
-446	138	954	31
-460	137	948	31
-476	136	932	31
-491	130	889	31
-508	123	847	31
-524	116	784	31
-541	109	689	31
-558	101	609	31
-572	90	511	31
-587	78	394	31
-602	66	271	31
-617	54	122	31
-633	41	24	31
-643	30	-103	31
-654	19	-217	31
-666	7	-331	31
-677	-4	-456	31
-689	-17	-542	31
-696	-21	-629	31
-703	-26	-716	31
-711	-31	-783	31
-718	-36	-843	31
-727	-42	-873	31
-728	-39	-896	31
-730	-35	-902	31
-733	-32	-898	31
-735	-28	-871	31
-738	-25	-836	31
-737	-15	-783	31
-735	-5	-713	31
-734	6	-637	31
-732	16	-535	31
-731	26	-459	31
-726	37	-365	31
-721	49	-278	31
-715	60	-181	31
-710	72	-77	31
-705	83	-9	31
-697	90	72	31
-688	97	145	31
-680	103	204	31
-671	110	262	31
-663	117	291	31
-651	117	315	31
-638	116	324	31
-626	116	322	31
-613	115	298	31
-601	113	274	31
-585	108	228	31
-568	102	172	31
-552	97	109	31
-535	91	20	31
-519	84	-40	31
-501	79	-116	31
-482	72	-190	31
-464	66	-266	31
-445	59	-344	31
-427	52	-392	31
-409	50	-449	31
-390	47	-494	31
-372	43	-524	31
-353	40	-548	31
-335	36	-557	31
-322	37	-553	31
-308	39	-534	31
-295	40	-502	31
-281	42	-443	31
-268	43	-399	31
-263	46	-323	31
-258	49	-238	31
-252	53	-148	31
-247	56	-23	31
-242	59	66	31
-246	60	168	31
-250	60	277	31
-255	61	387	31
-259	61	496	31
-265	62	570	31
-277	60	654	31
-290	57	726	31
-303	53	782	31
-316	50	836	31
-330	46	861	31
-347	40	877	31
-365	33	879	31
-384	25	866	31
-402	18	824	31
-421	10	789	31
-439	4	729	31
-459	-3	654	31
-478	-11	573	31
-498	-18	456	31
-518	-26	366	31
-534	-30	263	31
-552	-35	143	31
-569	-39	26	31
-587	-44	-105	31
-605	-50	-188	31
-619	-49	-293	31
-634	-48	-383	31
-648	-48	-465	31
-663	-47	-548	31
-679	-46	-604	31
-689	-42	-653	31
-701	-37	-685	31
-712	-33	-708	31
-724	-28	-713	31
-736	-24	-704	31
-745	-17	-678	31
-755	-10	-641	31
-765	-3	-586	31
-775	4	-506	31
-786	11	-439	31
-791	19	-353	31
-798	27	-256	31
-804	34	-158	31
-811	42	-40	31
-818	50	35	31
-818	57	129	31
-819	64	210	31
-821	70	291	31
-822	77	371	31
-824	84	420	31
-818	89	469	31
-813	94	506	31
-807	98	526	31
-802	103	534	31
-796	108	528	31
-781	110	507	31
-767	113	475	31
-752	115	422	31
-738	118	350	31
-723	120	291	31
-703	120	206	31
-682	121	114	31
-662	121	26	31
-641	122	-85	31
-621	122	-158	31
-598	121	-240	31
-575	118	-313	31
-553	116	-388	31
-530	113	-457	31
-507	110	-494	31
-489	108	-538	31
-471	106	-564	31
-454	103	-576	31
-436	101	-571	31
-418	97	-554	31
-409	97	-521	31
-399	98	-474	31
-390	98	-409	31
-380	99	-321	31
-371	99	-253	31
-372	104	-150	31
-374	109	-42	31
-376	113	63	31
-378	118	207	31
-381	123	302	31
-389	133	410	31
-398	142	518	31
-408	152	621	31
-417	161	726	31
-427	171	784	31
-437	180	857	31
-449	190	909	31
-460	199	946	31
-472	209	981	31
-484	218	982	31
-492	222	978	31
-501	226	954	31
-511	229	915	31
-520	233	852	31
-530	237	795	31
-532	230	708	31
-536	221	615	31
-539	213	515	31
-543	204	379	31
-547	195	283	31
-546	175	174	31
-544	153	50	31
-543	132	-63	31
-541	110	-191	31
-540	88	-270	31
-537	60	-365	31
-534	31	-449	31
-532	1	-520	31
-529	-28	-593	31
-526	-58	-633	31
-526	-84	-666	31
-526	-111	-685	31
-526	-138	-685	31
-527	-165	-674	31
-528	-193	-652	31
-534	-206	-610	31
-541	-220	-556	31
-547	-235	-489	31
-554	-249	-401	31
-562	-264	-329	31
-572	-260	-242	31
-582	-256	-147	31
-593	-252	-58	31
-603	-248	46	31
-615	-244	110	31
-625	-224	187	31
-635	-203	252	31
-646	-183	313	31
-656	-162	362	31
-668	-142	395	31
-671	-116	418	31
-675	-89	426	31
-678	-63	422	31
-682	-36	399	31
-687	-10	371	31
-680	12	324	31
-673	33	271	31
-666	55	197	31
-659	76	105	31
-652	98	36	31
-634	106	-56	31
-615	114	-150	31
-597	123	-234	31
-578	131	-336	31
-560	139	-396	31
-535	133	-464	31
-510	127	-515	31
-486	120	-568	31
-461	114	-609	31
-436	106	-625	31
-413	93	-637	31
-391	79	-631	31
-368	64	-610	31
-346	50	-567	31
-323	35	-521	31
-310	24	-456	31
-296	11	-380	31
-283	-1	-286	31
-269	-14	-167	31
-256	-27	-81	31
-257	-29	43	31
-258	-32	166	31
-260	-34	283	31
-261	-37	431	31
-264	-41	528	31
-278	-32	632	31
-293	-24	729	31
-309	-15	824	31
-324	-7	909	31
-340	2	954	31
-362	17	1009	31
-385	31	1042	31
-409	46	1051	31
-432	60	1055	31
-456	75	1037	31
-477	88	1006	31
-499	101	954	31
-521	115	889	31
-543	128	796	31
-566	141	719	31
-580	145	615	31
-595	149	501	31
-611	152	385	31
-626	156	231	31
-642	160	124	31
-647	154	6	31
-652	148	-122	31
-658	141	-242	31
-663	135	-373	31
-670	127	-455	31
-669	115	-554	31
-669	102	-638	31
-668	90	-708	31
-668	77	-777	31
-667	63	-811	31
-666	52	-841	31
-665	40	-861	31
-663	29	-860	31
-662	17	-838	31
-661	4	-808	31
-662	0	-761	31
-663	-4	-702	31
-665	-9	-632	31
-666	-13	-539	31
-669	-19	-465	31
-674	-16	-377	31
-680	-12	-283	31
-686	-9	-196	31
-692	-5	-91	31
-699	-2	-28	31
-703	6	47	31
-708	15	112	31
-714	23	171	31
-719	32	224	31
-725	40	253	31
-725	48	275	31
-725	57	283	31
-725	65	277	31
-726	74	253	31
-727	82	225	31
-718	86	180	31
-709	90	125	31
-700	95	56	31
-691	99	-28	31
-682	103	-92	31
-664	103	-173	31
-646	103	-254	31
-629	103	-326	31
-611	103	-412	31
-593	102	-462	31
-572	101	-515	31
-551	98	-557	31
-530	96	-594	31
-509	93	-620	31
-488	90	-625	31
-470	90	-625	31
-452	90	-606	31
-435	90	-575	31
-417	89	-517	31
-399	88	-469	31
-391	89	-399	31
-383	91	-315	31
-375	92	-215	31
-367	94	-96	31
-359	95	-12	31
-360	98	104	31
-363	101	214	31
-365	103	316	31
-368	106	440	31
-371	109	517	31
-381	110	597	31
-391	111	671	31
-402	113	733	31
-412	114	784	31
-424	115	809	31
-436	114	824	31
-449	112	828	31
-461	111	814	31
-474	109	778	31
-488	106	737	31
-498	102	679	31
-508	96	605	31
-519	91	515	31
-529	85	398	31
-541	79	314	31
-547	72	192	31
-553	65	72	31
-560	57	-42	31
-566	50	-191	31
-574	41	-286	31
-575	36	-392	31
-578	31	-494	31
-580	25	-594	31
-583	20	-695	31
-586	13	-748	31
-587	12	-811	31
-589	9	-863	31
-591	7	-895	31
-593	4	-917	31
-596	1	-917	31
-598	3	-902	31
-601	6	-874	31
-605	8	-830	31
-608	11	-750	31
-612	13	-701	31
-617	19	-612	31
-623	25	-523	31
-628	30	-424	31
-634	36	-305	31
-641	42	-215	31
-645	50	-116	31
-651	58	-14	31
-656	67	78	31
-662	75	182	31
-668	83	246	31
-670	90	314	31
-672	98	366	31
-675	105	415	31
-677	113	450	31
-681	120	467	31
-678	126	471	31
-675	131	462	31
-671	137	436	31
-668	142	387	31
-665	148	344	31
-654	148	281	31
-642	148	213	31
-631	148	130	31
-619	148	40	31
-608	148	-26	31
-591	142	-106	31
-574	135	-183	31
-557	128	-250	31
-540	121	-326	31
-523	113	-365	31
-503	101	-411	31
-483	88	-442	31
-464	74	-464	31
-444	61	-469	31
-424	47	-464	31
-407	32	-439	31
-390	17	-402	31
-373	1	-353	31
-356	-14	-275	31
-339	-31	-212	31
-329	-42	-127	31
-319	-54	-34	31
-310	-65	75	31
-300	-77	201	31
-290	-90	285	31
-290	-92	398	31
-291	-95	502	31
-293	-97	591	31
-294	-100	699	31
-296	-104	759	31
-307	-96	824	31
-320	-88	881	31
-332	-79	931	31
-345	-71	954	31
-358	-63	970	31
-377	-46	967	31
-398	-29	946	31
-418	-13	913	31
-439	4	853	31
-460	21	798	31
-484	41	719	31
-509	60	632	31
-535	80	531	31
-560	99	405	31
-586	119	316	31
-609	135	197	31
-633	151	85	31
-658	167	-20	31
-682	183	-150	31
-707	199	-233	31
-727	206	-320	31
-747	212	-407	31
-768	219	-481	31
-788	225	-548	31
-810	232	-586	31
-822	230	-622	31
-836	226	-642	31
-849	223	-644	31
-863	219	-625	31
-877	215	-604	31
-882	205	-565	31
-888	194	-509	31
-894	184	-442	31
-900	173	-350	31
-907	161	-282	31
-903	147	-192	31
-899	133	-106	31
-896	118	-14	31
-892	104	86	31
-888	88	156	31
-873	74	231	31
-859	59	299	31
-844	45	360	31
-830	30	415	31
-815	14	442	31
-792	4	467	31
-769	-7	477	31
-746	-19	474	31
-723	-30	450	31
-700	-42	424	31
-672	-47	378	31
-644	-53	319	31
-617	-58	251	31
-589	-64	154	31
-561	-71	83	31
-534	-71	-8	31
-508	-71	-92	31
-481	-71	-185	31
-455	-71	-280	31
-428	-71	-345	31
-409	-64	-416	31
-390	-58	-480	31
-372	-51	-528	31
-353	-45	-574	31
-334	-38	-594	31
-326	-26	-605	31
-318	-15	-602	31
-310	-3	-585	31
-302	8	-545	31
-294	20	-505	31
-295	33	-441	31
-298	46	-363	31
-300	60	-280	31
-303	73	-159	31
-306	86	-68	31
-313	96	44	31
-321	106	161	31
-330	116	287	31
-338	126	424	31
-347	136	512	31
-356	139	626	31
-366	142	725	31
-376	144	805	31
-386	147	893	31
-397	150	946	31
-404	147	992	31
-413	143	1019	31
-421	139	1043	31
-430	135	1037	31
-439	130	1019	31
-447	122	992	31
-456	113	944	31
-464	103	881	31
-473	94	784	31
-483	84	708	31
-493	76	607	31
-504	66	494	31
-516	57	372	31
-527	47	227	31
-539	37	130	31
-553	32	3	31
-568	26	-113	31
-582	21	-220	31
-597	15	-352	31
-613	8	-430	31
-627	6	-517	31
-642	4	-599	31
-658	1	-665	31
-673	-1	-724	31
-689	-5	-748	31
-698	-5	-779	31
-708	-7	-788	31
-718	-8	-776	31
-728	-10	-745	31
-739	-12	-712	31
-739	-14	-661	31
-738	-17	-593	31
-738	-21	-514	31
-737	-24	-416	31
-737	-28	-345	31
-724	-32	-253	31
-711	-36	-168	31
-698	-41	-78	31
-685	-45	19	31
-672	-51	84	31
-652	-55	152	31
-632	-60	217	31
-613	-64	267	31
-593	-69	312	31
-573	-75	332	31
-554	-75	344	31
-535	-75	344	31
-515	-76	329	31
-496	-76	293	31
-477	-78	257	31
-466	-71	203	31
-456	-63	133	31
-445	-56	59	31
-435	-48	-40	31
-424	-41	-109	31
-423	-28	-197	31
-422	-15	-275	31
-422	-1	-360	31
-421	12	-447	31
-420	25	-501	31
-425	41	-560	31
-431	57	-609	31
-436	72	-645	31
-442	88	-674	31
-449	104	-678	31
-454	115	-674	31
-460	127	-658	31
-465	138	-622	31
-471	150	-564	31
-478	161	-513	31
-478	165	-435	31
-478	169	-345	31
-479	173	-252	31
-479	177	-120	31
-481	181	-27	31
-476	179	87	31
-471	176	200	31
-467	172	320	31
-462	169	444	31
-457	165	523	31
-452	159	622	31
-446	151	699	31
-441	144	759	31
-435	136	828	31
-430	128	866	31
-430	123	889	31
-429	117	889	31
-429	111	889	31
-428	105	857	31
-428	98	824	31
-434	96	761	31
-441	93	695	31
-449	89	619	31
-456	86	496	31
-464	82	412	31
-477	82	299	31
-491	82	178	31
-505	82	49	31
-519	81	-96	31
-534	80	-188	31
-551	80	-309	31
-569	79	-418	31
-588	78	-515	31
-606	77	-632	31
-625	75	-701	31
-642	75	-766	31
-659	73	-830	31
-677	72	-876	31
-694	70	-910	31
-713	68	-918	31
-728	67	-918	31
-745	65	-902	31
-761	62	-872	31
-778	60	-811	31
-795	57	-761	31
-807	57	-685	31
-820	56	-603	31
-833	54	-512	31
-846	53	-399	31
-860	51	-322	31
-867	53	-222	31
-874	55	-133	31
-882	58	-41	31
-889	60	57	31
-898	62	123	31
-894	64	190	31
-890	67	252	31
-887	69	297	31
-883	72	339	31
-879	74	354	31
-859	75	360	31
-838	76	355	31
-818	76	333	31
-797	77	291	31
-777	78	252	31
-738	73	195	31
-700	67	125	31
-661	62	53	31
-623	56	-37	31
-584	49	-96	31
-533	39	-171	31
-481	28	-236	31
-430	16	-305	31
-378	5	-371	31
-327	-7	-415	31
-278	-19	-453	31
-229	-32	-482	31
-179	-45	-498	31
-130	-58	-502	31
-81	-72	-493	31
-51	-80	-470	31
-20	-89	-429	31
10	-99	-377	31
41	-108	-300	31
71	-118	-241	31
74	-117	-149	31
76	-116	-47	31
79	-114	51	31
81	-113	182	31
84	-112	271	31
56	-101	375	31
27	-91	475	31
-3	-80	574	31
-32	-70	674	31
-62	-59	736	31
-108	-44	805	31
-155	-29	861	31
-203	-13	902	31
-250	2	937	31
-298	17	943	31
-345	30	940	31
-394	43	920	31
-442	55	885	31
-491	68	824	31
-540	81	775	31
-572	85	692	31
-605	89	603	31
-639	93	511	31
-672	97	380	31
-706	101	288	31
-718	97	182	31
-731	91	67	31
-745	86	-45	31
-758	80	-165	31
-772	74	-240	31
-770	65	-335	31
-768	55	-413	31
-767	46	-478	31
-765	36	-546	31
-763	25	-585	31
-759	18	-610	31
-755	9	-625	31
-751	1	-625	31
-747	-8	-606	31
-743	-17	-582	31
-744	-19	-535	31
-746	-21	-480	31
-748	-24	-412	31
-750	-26	-318	31
-753	-30	-244	31
-762	-26	-159	31
-772	-22	-62	31
-781	-17	29	31
-791	-13	132	31
-802	-9	196	31
-811	-2	273	31
-821	5	336	31
-830	13	395	31
-840	20	447	31
-851	27	477	31
-851	35	495	31
-850	44	505	31
-850	52	496	31
-849	61	471	31
-849	69	442	31
-832	76	395	31
-815	83	336	31
-797	89	262	31
-780	96	166	31
-763	103	91	31
-730	109	0	31
-697	116	-97	31
-664	122	-185	31
-631	129	-286	31
-598	135	-350	31
-560	142	-418	31
-521	148	-480	31
-483	155	-535	31
-444	161	-580	31
-406	168	-601	31
-376	175	-612	31
-345	181	-612	31
-315	188	-596	31
-284	194	-556	31
-254	201	-515	31
-242	204	-456	31
-230	208	-386	31
-217	211	-294	31
-205	215	-180	31
-193	218	-93	31
-200	216	24	31
-208	213	145	31
-217	211	260	31
-225	208	402	31
-234	204	491	31
-257	195	593	31
-281	184	684	31
-304	174	775	31
-328	163	860	31
-353	152	905	31
-383	139	954	31
-414	125	982	31
-444	111	998	31
-475	97	998	31
-507	82	982	31
-533	69	948	31
-560	55	901	31
-587	40	836	31
-614	26	744	31
-642	11	671	31
-659	4	566	31
-677	-4	454	31
-694	-12	347	31
-712	-20	200	31
-731	-29	102	31
-736	-29	-8	31
-743	-29	-121	31
-749	-29	-231	31
-756	-29	-345	31
-763	-30	-416	31
-761	-24	-501	31
-760	-19	-568	31
-758	-13	-618	31
-757	-8	-669	31
-755	-2	-689	31
-749	5	-702	31
-743	11	-701	31
-737	18	-678	31
-731	24	-637	31
-725	31	-599	31
-718	36	-535	31
-711	41	-464	31
-704	45	-388	31
-697	50	-285	31
-690	55	-207	31
-684	56	-123	31
-679	58	-30	31
-673	59	55	31
-668	61	146	31
-662	62	203	31
-657	62	267	31
-653	60	318	31
-648	59	359	31
-644	57	389	31
-639	55	405	31
-633	54	405	31
-626	52	391	31
-620	49	365	31
-613	47	318	31
-607	44	273	31
-598	43	206	31
-588	40	134	31
-579	38	50	31
-569	35	-53	31
-560	32	-132	31
-546	31	-220	31
-532	28	-311	31
-519	26	-391	31
-505	23	-477	31
-491	20	-528	31
-475	18	-583	31
-459	15	-623	31
-444	12	-653	31
-428	9	-674	31
-412	5	-674	31
-398	3	-662	31
-384	1	-634	31
-370	-2	-593	31
-356	-4	-520	31
-342	-8	-462	31
-335	-8	-375	31
-328	-7	-286	31
-320	-7	-175	31
-313	-6	-41	31
-306	-6	55	31
-308	-2	182	31
-310	2	308	31
-313	7	425	31
-315	11	561	31
-319	15	648	31
-331	24	742	31
-345	32	821	31
-358	41	889	31
-372	49	954	31
-386	58	992	31
-406	67	1017	31
-427	76	1029	31
-449	84	1019	31
-470	93	992	31
-492	102	954	31
-517	108	902	31
-543	113	835	31
-570	119	745	31
-596	124	631	31
-623	130	545	31
-648	130	422	31
-673	130	297	31
-699	131	178	31
-724	131	19	31
-751	131	-81	31
-772	128	-196	31
-794	124	-313	31
-816	119	-426	31
-838	115	-545	31
-861	110	-612	31
-875	108	-698	31
-891	106	-763	31
-906	103	-811	31
-922	101	-860	31
-938	97	-876	31
-943	99	-880	31
-949	101	-876	31
-954	104	-853	31
-960	106	-804	31
-967	108	-760	31
-961	117	-685	31
-955	127	-612	31
-950	136	-533	31
-944	146	-424	31
-938	155	-347	31
-920	166	-261	31
-901	178	-165	31
-883	189	-77	31
-864	201	20	31
-846	212	78	31
-817	219	145	31
-787	227	198	31
-758	234	244	31
-728	242	281	31
-699	249	297	31
-663	245	302	31
-627	240	293	31
-592	236	271	31
-556	231	226	31
-520	225	187	31
-485	207	125	31
-451	188	59	31
-416	170	-15	31
-382	151	-105	31
-347	131	-172	31
-320	106	-248	31
-292	79	-323	31
-265	53	-392	31
-237	26	-465	31
-210	-1	-505	31
-193	-25	-548	31
-177	-50	-576	31
-160	-75	-596	31
-144	-100	-604	31
-127	-126	-599	31
-121	-138	-576	31
-115	-152	-541	31
-109	-165	-493	31
-103	-179	-415	31
-97	-193	-353	31
-97	-191	-264	31
-97	-189	-174	31
-97	-188	-65	31
-97	-186	59	31
-98	-184	148	31
-103	-170	260	31
-109	-156	366	31
-114	-142	462	31
-120	-128	572	31
-127	-114	637	31
-134	-98	707	31
-142	-82	758	31
-151	-65	805	31
-159	-49	839	31
-168	-33	850	31
-181	-24	850	31
-196	-14	828	31
-210	-5	801	31
-225	5	742	31
-240	14	686	31
-261	14	615	31
-283	13	528	31
-306	12	426	31
-328	11	299	31
-351	9	213	31
-380	1	90	31
-409	-7	-28	31
-439	-16	-134	31
-468	-24	-267	31
-499	-34	-351	31
-530	-41	-439	31
-562	-49	-524	31
-594	-57	-602	31
-626	-65	-674	31
-659	-74	-713	31
-684	-75	-746	31
-710	-76	-770	31
-737	-78	-776	31
-763	-79	-764	31
-790	-82	-740	31
-804	-73	-704	31
-819	-65	-649	31
-834	-56	-576	31
-849	-48	-482	31
-865	-39	-413	31
-865	-25	-313	31
-866	-11	-217	31
-866	4	-123	31
-867	18	-5	31
-869	32	73	31
-859	46	156	31
-849	59	239	31
-840	73	314	31
-830	86	387	31
-820	100	426	31
-807	108	467	31
-794	116	491	31
-780	124	496	31
-767	132	495	31
-754	140	482	31
-743	142	449	31
-733	144	402	31
-722	145	343	31
-712	147	258	31
-701	149	195	31
-695	149	105	31
-688	149	21	31
-682	149	-65	31
-675	149	-166	31
-669	149	-236	31
-663	151	-309	31
-658	153	-381	31
-652	156	-439	31
-647	158	-498	31
-641	160	-528	31
-631	165	-548	31
-622	170	-560	31
-612	175	-556	31
-603	180	-533	31
-593	185	-505	31
-577	189	-457	31
-562	193	-393	31
-546	196	-320	31
-531	200	-213	31
-515	204	-134	31
-497	202	-27	31
-479	198	79	31
-461	195	198	31
-443	191	326	31
-425	187	415	31
-411	175	523	31
-397	162	624	31
-384	150	708	31
-370	137	801	31
-356	123	853	31
-354	105	905	31
-351	85	940	31
-349	66	964	31
-346	46	971	31
-344	26	956	31
-355	9	939	31
-368	-9	893	31
-380	-27	844	31
-393	-45	758	31
-406	-64	689	31
-427	-72	593	31
-449	-81	496	31
-471	-90	380	31
-493	-99	247	31
-516	-109	161	31
-539	-105	39	31
-564	-101	-71	31
-588	-98	-171	31
-613	-94	-291	31
-638	-90	-363	31
-655	-77	-443	31
-673	-64	-510	31
-690	-51	-570	31
-708	-38	-619	31
-727	-25	-642	31
-734	-12	-658	31
-741	2	-658	31
-749	15	-641	31
-756	29	-602	31
-765	42	-560	31
-764	50	-506	31
-762	58	-436	31
-761	65	-355	31
-759	73	-257	31
-758	81	-188	31
-752	81	-95	31
-746	81	-10	31
-741	81	71	31
-735	81	166	31
-729	80	226	31
-723	78	285	31
-717	75	341	31
-710	71	383	31
-704	68	418	31
-698	64	430	31
-691	64	431	31
-685	64	422	31
-678	63	399	31
-672	63	354	31
-665	61	310	31
-657	67	251	31
-648	72	174	31
-640	78	91	31
-631	83	-15	31
-623	89	-85	31
-609	98	-177	31
-594	107	-258	31
-580	116	-338	31
-565	125	-423	31
-551	134	-477	31
-532	141	-528	31
-512	147	-574	31
-493	154	-606	31
-473	160	-625	31
-454	167	-625	31
-434	167	-612	31
-414	167	-588	31
-393	167	-546	31
-373	167	-480	31
-353	167	-418	31
-340	160	-339	31
-328	152	-240	31
-315	144	-136	31
-303	136	3	31
-290	127	98	31
-290	117	220	31
-291	107	336	31
-291	96	456	31
-292	86	589	31
-294	74	674	31
-310	68	770	31
-328	61	854	31
-345	53	921	31
-363	46	989	31
-381	38	1017	31
-410	38	1045	31
-439	38	1051	31
-469	38	1047	31
-498	38	1015	31
-529	37	982	31
-561	42	931	31
-595	47	857	31
-628	52	777	31
-662	57	654	31
-696	62	567	31
-721	67	452	31
-747	72	334	31
-773	76	203	31
-799	81	58	31
-826	86	-36	31
-835	86	-159	31
-845	86	-273	31
-856	86	-373	31
-866	86	-494	31
-877	86	-563	31
-869	81	-635	31
-861	75	-698	31
-853	70	-746	31
-845	64	-788	31
-837	57	-799	31
-813	50	-804	31
-790	41	-788	31
-766	33	-759	31
-743	24	-706	31
-719	15	-658	31
-687	10	-589	31
-654	3	-510	31
-622	-3	-421	31
-589	-10	-317	31
-557	-17	-247	31
-526	-18	-151	31
-495	-20	-66	31
-464	-21	13	31
-433	-23	105	31
-402	-26	164	31
-381	-23	220	31
-359	-20	272	31
-338	-18	308	31
-316	-15	336	31
-295	-12	342	31
-288	-8	338	31
-281	-5	321	31
-274	-1	290	31
-267	2	235	31
-260	6	186	31
-264	7	121	31
-269	9	41	31
-274	10	-42	31
-279	12	-144	31
-285	13	-209	31
-295	13	-294	31
-307	11	-370	31
-318	10	-441	31
-330	8	-515	31
-342	6	-560	31
-350	6	-604	31
-360	4	-642	31
-369	3	-660	31
-379	1	-666	31
-389	-1	-658	31
-389	0	-637	31
-390	0	-600	31
-391	1	-548	31
-392	1	-474	31
-394	2	-407	31
-387	6	-320	31
-380	10	-216	31
-373	13	-113	31
-366	17	23	31
-359	21	113	31
-350	26	227	31
-340	31	328	31
-331	37	431	31
-321	42	542	31
-312	47	609	31
-310	50	682	31
-307	53	744	31
-305	57	788	31
-302	60	821	31
-300	63	828	31
-311	63	828	31
-323	62	814	31
-334	61	780	31
-346	60	719	31
-359	58	671	31
-385	54	593	31
-412	50	502	31
-439	45	404	31
-466	41	266	31
-494	35	171	31
-528	31	50	31
-563	26	-67	31
-599	22	-194	31
-634	17	-328	31
-670	11	-413	31
-701	11	-521	31
-734	9	-619	31
-766	8	-701	31
-799	6	-792	31
-832	4	-840	31
-852	8	-880	31
-873	12	-917	31
-895	15	-935	31
-916	19	-935	31
-938	23	-924	31
-943	32	-893	31
-949	41	-848	31
-956	51	-790	31
-962	60	-699	31
-969	69	-629	31
-963	79	-540	31
-957	89	-441	31
-951	98	-337	31
-945	108	-217	31
-939	118	-140	31
-926	126	-39	31
-913	134	49	31
-901	141	130	31
-888	149	222	31
-875	157	277	31
-859	159	329	31
-843	162	373	31
-827	164	404	31
-811	167	420	31
-795	169	420	31
-776	167	405	31
-756	164	376	31
-737	162	336	31
-717	159	272	31
-698	155	218	31
-672	148	149	31
-646	139	67	31
-620	131	-12	31
-594	122	-105	31
-568	113	-165	31
-535	103	-238	31
-503	91	-300	31
-470	80	-359	31
-438	68	-416	31
-405	56	-448	31
-372	46	-475	31
-338	35	-490	31
-305	24	-493	31
-271	13	-475	31
-238	1	-450	31
-214	-6	-411	31
-190	-15	-355	31
-165	-23	-289	31
-141	-32	-196	31
-117	-41	-117	31
-113	-43	-20	31
-110	-47	90	31
-106	-50	197	31
-103	-54	329	31
-99	-58	413	31
-119	-55	512	31
-140	-53	602	31
-161	-50	692	31
-182	-48	778	31
-204	-45	828	31
-242	-37	881	31
-281	-29	924	31
-319	-21	946	31
-358	-13	954	31
-398	-5	948	31
-438	5	924	31
-480	15	889	31
-521	26	834	31
-563	36	753	31
-605	46	690	31
-633	53	597	31
-663	61	491	31
-692	68	389	31
-722	76	253	31
-752	83	162	31
-759	84	52	31
-766	85	-51	31
-774	87	-159	31
-781	88	-269	31
-790	89	-337	31
-779	85	-418	31
-768	79	-483	31
-756	74	-536	31
-745	68	-588	31
-734	62	-609	31
-715	54	-621	31
-697	46	-618	31
-678	37	-596	31
-660	29	-557	31
-641	19	-520	31
-628	13	-457	31
-616	6	-386	31
-603	0	-311	31
-591	-7	-205	31
-578	-15	-131	31
-578	-16	-44	31
-578	-17	45	31
-578	-19	133	31
-578	-20	224	31
-578	-23	280	31
-587	-18	347	31
-597	-13	397	31
-606	-9	437	31
-616	-4	474	31
-627	1	487	31
-636	9	487	31
-646	17	478	31
-656	25	449	31
-666	33	402	31
-677	41	360	31
-677	49	295	31
-677	57	221	31
-677	66	139	31
-677	74	31	31
-677	82	-47	31
-664	86	-133	31
-651	90	-228	31
-638	95	-311	31
-625	99	-401	31
-612	103	-453	31
-590	104	-513	31
-568	104	-560	31
-546	105	-593	31
-524	105	-619	31
-502	106	-625	31
-481	106	-612	31
-460	106	-593	31
-438	106	-556	31
-417	105	-490	31
-396	104	-436	31
-384	105	-353	31
-372	106	-269	31
-361	106	-164	31
-349	107	-36	31
-337	108	63	31
-340	111	181	31
-343	114	306	31
-347	118	425	31
-350	121	556	31
-355	124	637	31
-373	129	729	31
-391	134	809	31
-410	139	881	31
-428	144	946	31
-448	149	981	31
-478	155	1009	31
-509	160	1017	31
-539	166	1011	31
-570	171	984	31
-602	177	954	31
-641	181	902	31
-680	186	837	31
-720	190	750	31
-759	195	640	31
-800	199	556	31
-839	204	439	31
-880	209	318	31
-920	214	202	31
-961	219	54	31
-1002	224	-40	31
-1034	231	-149	31
-1067	238	-253	31
-1100	246	-355	31
-1133	253	-460	31
-1167	260	-523	31
-1179	268	-596	31
-1193	275	-652	31
-1206	283	-685	31
-1220	290	-723	31
-1234	298	-729	31
-1217	304	-724	31
-1199	311	-706	31
-1182	317	-669	31
-1164	324	-609	31
-1147	330	-560	31
-1094	328	-483	31
-1041	326	-404	31
-988	323	-323	31
-935	321	-209	31
-882	317	-136	31
-802	300	-51	31
-722	282	34	31
-643	264	114	31
-563	246	198	31
-483	227	247	31
-398	194	302	31
-313	161	342	31
-227	127	366	31
-142	94	387	31
-57	59	387	31
8	16	373	31
74	-27	347	31
139	-71	305	31
205	-114	239	31
270	-159	187	31
296	-198	110	31
322	-238	28	31
348	-277	-59	31
374	-317	-168	31
400	-358	-243	31
381	-381	-323	31
362	-405	-409	31
342	-428	-483	31
323	-452	-559	31
302	-477	-599	31
253	-476	-642	31
203	-475	-671	31
154	-474	-685	31
104	-473	-689	31
53	-472	-681	31
1	-450	-653	31
-53	-428	-610	31
-106	-405	-553	31
-160	-383	-466	31
-214	-361	-399	31
-248	-329	-302	31
-284	-298	-201	31
-319	-266	-86	31
-355	-235	50	31
-391	-203	154	31
-399	-177	270	31
-408	-151	391	31
-417	-126	501	31
-426	-100	622	31
-436	-74	692	31
-427	-62	770	31
-418	-50	828	31
-409	-38	887	31
-400	-26	931	31
-391	-14	946	31
-384	-14	953	31
-377	-16	940	31
-371	-17	910	31
-364	-19	857	31
-357	-21	809	31
-367	-28	736	31
-378	-35	652	31
-389	-43	548	31
-400	-50	420	31
-412	-59	323	31
-443	-61	198	31
-475	-63	66	31
-507	-66	-53	31
-539	-68	-199	31
-572	-72	-292	31
-613	-65	-400	31
-654	-58	-498	31
-696	-51	-596	31
-737	-44	-689	31
-780	-37	-746	31
-813	-21	-809	31
-847	-5	-856	31
-880	11	-876	31
-914	27	-896	31
-949	43	-892	31
-961	60	-874	31
-973	78	-840	31
-986	95	-790	31
-998	113	-713	31
-1012	130	-658	31
-1002	141	-568	31
-992	152	-477	31
-983	164	-389	31
-973	175	-271	31
-963	186	-192	31
-941	189	-105	31
-919	191	-15	31
-897	194	69	31
-875	196	155	31
-853	199	203	31
-832	196	260	31
-810	191	299	31
-789	187	329	31
-767	182	347	31
-746	177	348	31
-733	173	333	31
-721	167	305	31
-708	162	263	31
-696	156	200	31
-683	150	149	31
-677	149	74	31
-671	147	0	31
-666	145	-75	31
-660	143	-171	31
-654	140	-236	31
-648	143	-304	31
-642	146	-375	31
-636	149	-436	31
-630	152	-494	31
-624	155	-528	31
-612	159	-556	31
-599	162	-572	31
-587	166	-576	31
-574	169	-560	31
-562	173	-541	31
-544	174	-502	31
-526	176	-449	31
-508	177	-383	31
-490	179	-286	31
-472	180	-215	31
-457	179	-113	31
-442	178	-14	31
-427	176	96	31
-412	175	222	31
-397	172	313	31
-395	169	413	31
-393	165	512	31
-392	160	601	31
-390	156	695	31
-388	151	745	31
-401	149	801	31
-416	147	838	31
-430	144	866	31
-445	142	877	31
-460	138	874	31
-485	138	853	31
-512	138	816	31
-538	138	759	31
-565	138	682	31
-592	137	620	31
-617	138	528	31
-642	138	437	31
-668	139	324	31
-693	139	193	31
-720	140	100	31
-733	139	-15	31
-746	138	-128	31
-760	136	-229	31
-773	135	-347	31
-788	132	-417	31
-786	127	-494	31
-784	121	-560	31
-782	115	-623	31
-780	109	-669	31
-778	102	-685	31
-765	93	-708	31
-752	83	-706	31
-739	73	-685	31
-726	63	-652	31
-713	52	-610	31
-698	43	-553	31
-684	33	-482	31
-669	23	-396	31
-655	13	-290	31
-640	2	-215	31
-633	-2	-115	31
-626	-8	-19	31
-618	-13	67	31
-611	-19	177	31
-604	-25	242	31
-604	-25	312	31
-604	-25	376	31
-605	-25	431	31
-605	-25	478	31
-607	-25	496	31
-609	-20	512	31
-612	-15	512	31
-614	-10	496	31
-617	-5	463	31
-621	0	426	31
-618	6	373	31
-615	11	303	31
-612	17	222	31
-609	22	119	31
-606	28	50	31
-593	30	-46	31
-580	32	-134	31
-567	35	-215	31
-554	37	-313	31
-541	39	-373	31
-521	38	-435	31
-500	35	-493	31
-480	33	-538	31
-459	30	-572	31
-439	27	-585	31
-418	24	-589	31
-398	20	-576	31
-377	16	-548	31
-357	12	-499	31
-336	7	-452	31
-325	7	-383	31
-315	6	-296	31
-304	4	-204	31
-294	3	-80	31
-283	1	8	31
-287	5	127	31
-293	9	239	31
-298	13	353	31
-304	17	480	31
-310	21	569	31
-329	31	660	31
-350	41	750	31
-370	51	824	31
-391	61	889	31
-412	71	932	31
-443	84	964	31
-475	98	982	31
-507	111	982	31
-539	125	964	31
-572	138	939	31
-606	150	889	31
-640	162	824	31
-675	173	751	31
-709	185	645	31
-745	197	566	31
-775	204	456	31
-806	211	350	31
-837	219	229	31
-868	226	96	31
-900	233	4	31
-918	233	-108	31
-938	234	-216	31
-957	234	-310	31
-977	235	-417	31
-997	235	-481	31
-1000	230	-546	31
-1004	224	-596	31
-1009	217	-640	31
-1013	211	-668	31
-1018	204	-674	31
-1001	194	-670	31
-985	183	-650	31
-968	171	-618	31
-952	160	-554	31
-935	148	-505	31
-899	136	-434	31
-863	123	-353	31
-827	110	-266	31
-791	97	-163	31
-755	83	-93	31
-706	71	-1	31
-657	59	81	31
-608	46	155	31
-559	34	239	31
-510	20	290	31
-459	12	338	31
-408	3	376	31
-358	-6	406	31
-307	-15	421	31
-256	-25	418	31
-216	-29	405	31
-177	-35	376	31
-137	-40	338	31
-98	-46	269	31
-58	-52	214	31
-41	-53	144	31
-23	-56	56	31
-6	-58	-35	31
12	-61	-140	31
29	-64	-209	31
24	-64	-297	31
18	-64	-375	31
12	-65	-442	31
6	-65	-515	31
-1	-67	-559	31
-22	-69	-595	31
-44	-73	-625	31
-66	-76	-642	31
-88	-80	-638	31
-111	-84	-625	31
-134	-88	-593	31
-159	-93	-546	31
-183	-98	-488	31
-208	-103	-399	31
-233	-109	-326	31
-249	-114	-233	31
-266	-120	-118	31
-282	-127	-2	31
-299	-133	144	31
-317	-140	239	31
-322	-143	366	31
-327	-146	480	31
-333	-150	591	31
-338	-153	712	31
-345	-158	789	31
-346	-154	866	31
-348	-151	939	31
-350	-147	992	31
-352	-144	1035	31
-355	-140	1051	31
-361	-129	1058	31
-368	-119	1045	31
-375	-108	1017	31
-382	-98	969	31
-390	-87	918	31
-409	-72	844	31
-429	-57	756	31
-449	-42	654	31
-469	-27	522	31
-490	-12	426	31
-520	1	299	31
-551	13	181	31
-582	26	50	31
-613	38	-92	31
-645	51	-188	31
-678	57	-303	31
-711	63	-415	31
-745	68	-508	31
-778	74	-612	31
-813	80	-674	31
-836	78	-739	31
-861	76	-782	31
-885	73	-815	31
-910	71	-840	31
-935	67	-840	31
-941	62	-829	31
-948	56	-799	31
-954	50	-750	31
-961	44	-685	31
-969	37	-629	31
-961	35	-553	31
-952	33	-470	31
-944	30	-375	31
-935	28	-269	31
-927	24	-200	31
-911	30	-106	31
-895	36	-23	31
-878	43	49	31
-862	49	134	31
-846	55	184	31
-832	71	231	31
-819	87	270	31
-805	103	296	31
-792	119	308	31
-778	135	305	31
-770	155	290	31
-762	175	260	31
-754	196	218	31
-746	216	149	31
-738	236	94	31
-733	251	25	31
-728	265	-56	31
-722	280	-141	31
-717	294	-234	31
-712	309	-296	31
-701	312	-374	31
-691	315	-442	31
-680	318	-498	31
-670	321	-560	31
-659	324	-595	31
-639	314	-622	31
-618	303	-642	31
-598	292	-645	31
-577	281	-629	31
-557	269	-609	31
-528	251	-570	31
-499	231	-515	31
-470	212	-452	31
-441	192	-353	31
-412	172	-277	31
-385	152	-185	31
-358	132	-72	31
-332	111	39	31
-305	91	172	31
-278	69	256	31
-264	56	362	31
-250	42	456	31
-237	29	548	31
-223	15	641	31
-209	0	695	31
-214	-4	746	31
-220	-8	792	31
-226	-13	816	31
-232	-17	824	31
-239	-23	821	31
-260	-21	801	31
-282	-19	759	31
-304	-16	708	31
-326	-14	626	31
-349	-12	561	31
-374	-7	470	31
-401	-2	360	31
-427	3	251	31
-454	8	106	31
-481	13	11	31
-498	16	-112	31
-516	19	-222	31
-535	23	-339	31
-553	26	-462	31
-572	29	-541	31
-575	29	-633	31
-579	29	-715	31
-582	29	-782	31
-586	28	-847	31
-591	27	-873	31
-584	24	-896	31
-577	20	-907	31
-570	16	-901	31
-563	12	-873	31
-556	7	-843	31
-548	3	-788	31
-540	-2	-723	31
-533	-8	-644	31
-525	-13	-531	31
-517	-19	-452	31
-517	-22	-352	31
-517	-26	-250	31
-517	-30	-142	31
-517	-34	-26	31
-518	-39	47	31
-528	-39	143	31
-539	-40	226	31
-550	-42	295	31
-561	-43	373	31
-573	-45	413	31
-587	-42	448	31
-601	-39	473	31
-616	-35	485	31
-630	-32	477	31
-646	-29	459	31
-655	-21	426	31
-664	-13	376	31
-674	-4	322	31
-683	4	235	31
-694	12	170	31
-690	25	92	31
-686	37	9	31
-683	50	-75	31
-679	62	-169	31
-675	75	-225	31
-659	88	-296	31
-642	102	-353	31
-626	115	-405	31
-609	129	-453	31
-593	142	-475	31
-571	152	-489	31
-550	162	-489	31
-528	172	-474	31
-507	182	-441	31
-485	192	-405	31
-468	192	-347	31
