File Name: not saved
Channel 2: 'Channel 2', 31260 values, raw ADC, no filters.
Channel 3: 'Channel 3', 31260 values, raw ADC, no filters.
Channel 4: 'Channel 4', 31260 values, raw ADC, no filters.

-217	-131	24
-170	-201	31
-121	-192	32
-87	-131	-18
-63	-63	-78
-44	-21	-57
-12	-7	-69
39	-3	-86
97	15	-48
150	58	-19
180	106	-7
184	142	-20
171	143	12
153	120	53
138	88	19
125	61	-34
107	46	-26
71	27	-19
11	-11	-27
-68	-67	-36
-148	-122	-34
-201	-144	16
-212	-114	16
-174	-35	-45
-97	60	-116
-5	129	-92
71	140	-25
111	101	-45
107	35	-48
75	-15	-62
32	-23	-77
0	0	-30
-14	23	-1
-21	11	41
-39	-49	57
-85	-136	16
-156	-208	16
-229	-222	16
-273	-158	6
-255	-40	32
-165	85	40
-22	171	38
139	202	8
268	183	-61
328	149	-128
310	119	-143
227	98	-88
113	64	-63
4	-1	-69
-78	-101	-13
-121	-204	26
-133	-264	2
-130	-254	8
-117	-166	-5
-98	-42	-11
-62	63	-11
-9	112	-18
64	99	5
139	57	11
198	30	12
221	40	40
196	77	17
138	110	-82
64	110	-89
-2	64	-54
-50	1	-36
-78	-57	-18
-93	-89	-43
-101	-104	-42
-95	-123	-44
-69	-163	-39
-19	-213	-48
42	-237	-13
91	-198	53
101	-87	10
52	68	-18
-31	207	-58
-118	275	-65
-162	253	-56
-148	165	-75
-85	58	-48
-16	-19	-42
13	-49	-18
-19	-50	-28
-95	-47	-62
-168	-59	-13
-197	-77	12
-151	-81	20
-48	-55	48
72	-7	24
172	38	11
224	60	-21
229	53	-76
204	41	-90
170	49	-105
127	89	-61
77	134	16
10	143	0
-64	86	-12
-128	-33	-4
-170	-160	-4
-182	-230	21
-170	-202	26
-152	-97	23
-133	25	11
-115	92	0
-77	76	-40
-6	2	-84
97	-63	-102
206	-62	-65
283	12	2
296	106	9
231	154	12
114	106	7
-12	-15	5
-109	-143	-4
-155	-203	-23
-160	-161	9
-154	-52	39
-163	56	33
-187	100	-26
-204	63	-86
-182	-16	-107
-106	-74	-132
13	-69	-125
139	-5	-46
238	85	18
285	155	0
284	181	-65
252	165	-65
191	122	5
102	62	40
-24	-21	27
-180	-129	4
-331	-247	-8
-416	-332	-26
-392	-338	-33
-259	-249	-25
-61	-96	-8
112	46	-12
196	116	-5
175	89	-8
91	12	-26
16	-45	-17
5	-17	24
65	96	30
151	230	-37
199	301	-70
172	253	-71
85	102	-79
-19	-86	-115
-93	-218	-106
-117	-244	-52
-107	-167	4
-94	-44	42
-95	62	37
-101	119	48
-84	127	4
-24	114	-68
69	101	-72
162	89	-25
204	68	-7
178	31	-20
96	-13	-32
0	-41	-14
-70	-40	30
-94	-14	28
-88	4	-7
-75	-19	-40
-75	-93	-56
-86	-190	-43
-87	-260	-29
-61	-248	-39
-10	-147	-42
49	6	-33
92	143	-26
102	209	-5
82	183	-29
52	96	-28
31	5	-3
23	-46	-18
16	-43	-54
-3	-8	-20
-37	19	43
-74	19	30
-91	-11	-4
-69	-45	-35
-12	-60	-37
54	-45	-49
105	-5	-46
111	38	-35
78	68	-33
20	80	-20
-33	76	-25
-58	62	-18
-55	41	-1
-35	10	28
-22	-32	41
-23	-77	36
-39	-106	21
-56	-108	-45
-55	-71	-81
-35	-15	-57
-5	43	-68
6	72	-103
-21	55	-97
-88	-4	-49
-173	-86	32
-230	-153	71
-222	-179	74
-135	-147	42
5	-65	-26
150	41	-64
242	137	-113
248	194	-129
176	199	-117
66	155	-80
-30	87	-56
-85	15	-33
-88	-38	31
-61	-68	47
-35	-76	50
-19	-67	-9
-11	-52	-62
9	-31	-42
50	-8	-49
111	9	-59
164	12	-57
184	-3	-54
156	-33	-43
85	-66	-57
-1	-85	-26
-77	-82	32
-123	-57	46
-139	-30	72
-136	-14	65
-124	-16	29
-110	-31	-8
-86	-37	-32
-44	-23	-20
15	21	-25
83	86	-28
139	150	-24
171	197	-70
166	211	-71
132	186	-21
82	122	-47
28	31	-37
-24	-78	2
-69	-181	12
-112	-249	4
-150	-265	4
-179	-225	8
-191	-137	-30
-176	-36	-49
-133	48	-43
-65	92	-40
13	99	-38
93	85	-9
161	76	-11
205	81	-12
216	104	40
199	127	51
151	139	25
83	131	-40
9	101	-113
-58	51	-109
-108	-16	-87
-133	-93	-59
-138	-163	-22
-125	-210	-16
-100	-215	-25
-58	-176	-46
4	-105	-65
89	-27	-43
183	35	0
261	77	-5
284	103	9
223	123	34
76	138	-4
-128	130	-83
-333	76	-106
-463	-32	-18
-474	-164	34
-371	-272	37
-201	-304	40
-38	-240	38
60	-103	38
81	41	21
57	135	-24
42	149	-103
82	99	-165
175	39	-149
281	16	-114
346	45	-63
326	103	24
222	142	49
66	130	41
-88	62	26
-203	-29	10
-259	-105	-10
-260	-133	-74
-222	-113	-105
-157	-66	-33
-78	-20	-17
-1	9	-12
55	23	16
80	30	7
66	40	18
33	49	15
5	49	50
1	31	26
28	-1	-25
62	-36	-58
79	-52	-58
55	-35	-30
-1	6	-55
-70	51	-9
-127	72	-14
-145	45	-41
-126	-28	-7
-85	-121	13
-30	-190	29
27	-203	17
86	-144	-3
148	-31	-24
203	89	-30
230	177	-47
221	200	-32
166	163	-14
85	93	-42
3	26	-89
-56	-13	-98
-84	-30	-86
-90	-38	-97
-91	-59	-65
-98	-92	-36
-115	-117	-15
-126	-113	1
-121	-63	-7
-85	10	-35
-23	77	-36
48	91	-18
106	41	12
136	-54	18
128	-142	-6
79	-170	-17
5	-112	-31
-74	9	13
-128	135	24
-136	205	33
-93	183	14
-12	85	-32
72	-37	-32
124	-120	-48
117	-126	-71
53	-59	-83
-34	40	-38
-101	119	-28
-115	145	-31
-65	117	-25
20	59	-46
96	8	-31
124	-23	-26
88	-33	-1
7	-43	28
-87	-64	49
-151	-94	36
-169	-112	7
-145	-97	-28
-96	-46	-79
-40	24	-88
13	80	-52
68	93	-15
126	56	-6
181	-7	14
219	-60	16
230	-77	-13
201	-43	-41
140	14	-37
55	64	-14
-41	77	-24
-143	41	-48
-243	-20	-61
-331	-85	-40
-387	-120	5
-383	-123	-2
-312	-100	-17
-184	-71	-15
-32	-52	-18
96	-44	-16
172	-38	-13
194	-20	0
175	19	-22
149	74	-21
131	130	-1
120	171	17
99	191	44
50	183	-5
-24	149	-55
-102	89	-49
-155	11	-63
-158	-75	-66
-110	-155	-64
-32	-206	-72
49	-212	-54
115	-168	-23
158	-91	-25
180	-6	-71
191	61	-18
191	95	-19
170	103	-69
119	100	-63
39	100	-25
-51	101	54
-126	89	76
-160	46	86
-148	-28	91
-100	-115	57
-44	-181	-22
-9	-194	-97
5	-148	-176
9	-64	-147
24	14	-48
63	52	-30
117	41	-23
151	3	-53
134	-23	-43
54	-13	-40
-69	34	-32
-188	88	-16
-253	103	-7
-243	58	-1
-174	-32	-12
-87	-125	4
-26	-173	1
-15	-150	7
-36	-65	5
-62	32	6
-57	103	11
-19	120	-5
42	96	-30
97	61	-20
120	44	-8
115	53	18
89	71	-37
63	71	-113
41	35	-67
24	-26	-48
1	-88	-16
-30	-122	-12
-61	-115	-15
-80	-77	4
-70	-29	15
-40	4	-11
0	20	-62
30	29	-93
41	41	-80
38	62	-21
30	83	-7
33	83	3
46	48	16
64	-11	20
75	-81	24
69	-131	19
46	-143	-2
11	-111	-17
-32	-44	-68
-80	31	-113
-128	93	-64
-167	122	-50
-177	106	-53
-142	57	-3
-61	-15	30
46	-78	29
143	-106	36
192	-78	55
171	7	37
97	123	-31
16	233	-75
-35	284	-15
-28	252	-16
17	129	-80
59	-48	-55
58	-231	-7
2	-356	-22
-91	-386	-23
-176	-312	-3
-212	-170	-22
-184	-19	-35
-106	84	-105
-11	106	-116
66	58	-42
110	-16	-20
119	-63	1
107	-50	-7
84	16	-60
56	97	-43
21	143	-24
-16	124	-47
-55	51	-57
-91	-39	-19
-115	-104	6
-123	-120	-12
-109	-98	1
-72	-62	-16
-12	-40	-32
64	-30	-39
139	-19	-59
190	17	-40
201	76	16
167	138	43
103	171	34
35	158	1
-15	100	5
-31	23	13
-21	-32	-41
-2	-51	-37
14	-36	-26
16	-16	-34
8	-14	-35
-13	-38	-22
-44	-79	8
-86	-108	37
-135	-110	29
-173	-75	-4
-178	-12	-20
-140	51	-25
-66	100	-47
14	117	-77
62	101	-68
55	53	-69
0	-8	-118
-69	-66	-74
-110	-103	24
-96	-98	1
-32	-56	-39
46	7	-56
104	62	-58
119	87	-14
98	74	37
70	35	42
59	3	28
72	-5	17
95	18	-12
106	54	-26
86	81	-25
36	77	-33
-31	41	-33
-105	-6	9
-166	-55	14
-205	-98	14
-211	-140	40
-177	-182	61
-102	-223	21
-2	-238	-65
91	-204	-104
151	-116	-89
154	7	-96
107	117	-177
46	171	-100
5	158	-32
4	91	-61
34	21	-5
69	-15	24
78	-3	43
51	34	30
4	53	24
-38	31	0
-54	-32	-44
-47	-99	-85
-33	-127	-75
-32	-98	-12
-44	-20	-15
-52	70	7
-35	131	18
16	149	16
87	130	13
145	97	-15
166	71	-12
136	59	-19
70	53	-31
-7	35	-33
-81	3	-47
-139	-36	-51
-181	-70	-42
-200	-90	-78
-185	-93	-98
-122	-82	-54
-16	-62	9
105	-37	67
197	0	68
222	47	19
170	101	-47
74	142	-101
-21	154	-107
-69	130	-107
-71	76	-80
-52	11	-33
-50	-52	-20
-92	-100	-18
-161	-139	-4
-227	-174	24
-245	-199	24
-206	-200	-2
-127	-157	1
-43	-64	1
12	51	12
39	149	7
54	177	1
81	115	6
125	-16	-13
172	-157	-23
203	-243	-21
191	-233	-18
147	-136	-39
87	-6	-32
38	93	-5
8	121	-9
-19	84	5
-57	22	11
-110	-8	26
-157	20	51
-166	97	37
-114	182	30
-10	224	-25
109	194	-133
193	102	-151
205	-17	-132
149	-121	-164
56	-181	-124
-27	-188	-62
-76	-161	-19
-89	-122	5
-88	-92	7
-97	-76	-17
-115	-65	-64
-123	-50	-2
-97	-17	21
-28	28	-8
66	80	-20
152	117	-22
198	131	-5
190	117	-23
145	85	-43
99	54	-13
71	37	19
74	35	20
85	37	14
78	29	1
35	0	-6
-42	-45	-25
-132	-84	0
-206	-98	23
-234	-67	-3
-215	-2	-19
-168	75	-36
-115	130	-23
-84	137	-16
-80	90	-45
-92	6	-56
-98	-81	-51
-79	-131	-52
-34	-127	-44
23	-64	-33
63	27	-36
72	106	-2
46	134	16
7	87	-5
-23	-20	0
-24	-139	17
2	-215	28
35	-209	30
57	-114	19
56	28	-43
44	155	-107
40	207	-102
57	166	-49
90	57	-37
110	-63	-38
99	-139	-52
44	-147	-95
-34	-100	-55
-108	-45	6
-142	-25	19
-134	-59	-4
-97	-131	7
-54	-195	25
-28	-211	6
-8	-159	8
22	-51	-3
79	75	-4
158	183	-36
234	244	-56
267	258	-2
234	225	2
140	164	-9
16	84	-10
-89	0	-56
-142	-75	-36
-143	-125	6
-110	-136	-21
-77	-110	-80
-60	-53	-103
-64	6	-100
-66	45	-127
-55	51	-108
-27	34	-74
9	18	-3
36	21	28
46	49	28
44	84	13
46	97	-21
51	67	26
58	2	19
49	-70	-7
9	-116	-40
-51	-112	-7
-109	-66	24
-130	-11	-24
-99	23	-9
-25	23	24
55	2	36
105	-11	24
99	5	32
46	43	44
-17	76	16
-61	68	-40
-70	13	-90
-56	-68	-154
-42	-136	-169
-48	-153	-110
-77	-116	-80
-109	-48	-54
-128	8	-51
-120	24	-12
-96	9	0
-67	-11	-18
-39	-2	8
-7	38	15
46	87	25
127	106	24
224	77	39
299	16	26
310	-33	-32
242	-26	-55
105	38	-26
-50	119	-60
-173	147	-59
-227	72	-12
-207	-94	-26
-141	-289	-7
-68	-416	21
-20	-406	33
0	-254	28
-1	-19	19
-3	200	2
-3	329	-18
-1	340	-62
-6	258	-81
-20	131	-65
-33	11	-56
-32	-85	-54
-11	-149	-60
22	-177	-8
49	-166	18
50	-112	-4
21	-28	-18
-22	56	-4
-55	106	22
-61	98	-7
-36	39	-36
7	-37	-36
44	-89	-59
61	-94	-63
61	-55	-32
56	-4	-30
68	32	-64
96	43	-104
126	39	-96
139	35	-26
119	39	46
64	43	57
-8	32	65
-78	1	45
-130	-32	-4
-164	-42	-31
-184	-4	-32
-193	72	-3
-185	154	-16
-152	195	-101
-82	165	-111
13	77	-53
114	-31	-76
190	-105	-68
219	-114	34
201	-65	55
140	6	-20
63	59	-65
-23	71	-76
-102	43	-61
-170	-3	-27
-209	-49	-9
-210	-86	-1
-159	-117	37
-57	-147	31
63	-166	24
172	-158	0
234	-107	-34
229	-21	-10
165	74	-7
69	135	8
-22	132	13
-90	66	8
-123	-36	6
-130	-127	-8
-121	-175	-19
-108	-171	-98
-95	-133	-178
-81	-89	-55
-62	-53	31
-36	-24	0
0	14	9
50	70	-74
103	132	-68
144	174	-47
167	170	-27
159	116	-4
128	33	-45
88	-29	-38
57	-44	-30
39	-6	1
28	54	-9
5	89	0
-51	68	27
-136	-6	24
-239	-98	-22
-320	-160	-64
-348	-164	-31
-306	-109	27
-198	-29	56
-48	35	7
114	60	-43
260	48	-59
373	23	-43
438	12	-17
432	29	18
346	62	8
180	97	-24
-41	114	-1
-262	112	0
-426	100	-33
-487	85	-81
-433	70	-69
-297	41	-101
-136	-9	-137
-1	-83	-81
76	-155	-70
107	-196	-40
119	-186	-18
139	-117	3
175	-23	4
211	56	1
225	84	-1
197	51	0
133	-15	20
49	-78	-9
-32	-99	-1
-101	-69	7
-152	-13	-9
-184	35	-44
-191	47	-71
-166	12	-86
-104	-46	-51
-14	-94	-19
81	-103	-3
147	-59	-5
167	19	-5
139	106	44
89	171	-4
46	194	-27
34	170	-25
52	105	-7
80	11	0
86	-98	-21
47	-199	-4
-33	-269	1
-137	-283	5
-225	-232	-23
-263	-119	-29
-234	22	-40
-137	147	-49
-3	219	-30
129	229	5
219	187	48
242	127	60
196	75	46
107	43	-20
10	24	-44
-67	4	-88
-115	-28	-160
-143	-68	-118
-168	-94	-86
-202	-98	-58
-235	-75	4
-237	-43	-8
-188	-18	-27
-80	-7	-9
56	-9	-4
172	-3	-2
230	16	-17
212	48	-26
142	80	-17
61	97	-27
9	92	-31
-7	70	6
2	45	24
4	15	32
-20	-27	28
-63	-92	-7
-105	-171	-48
-116	-243	-89
-87	-264	-111
-23	-214	-106
45	-97	-78
101	43	-67
126	148	-46
130	174	16
122	127	42
106	47	10
86	-8	0
52	-16	3
9	16	-32
-42	40	-46
-89	19	-42
-118	-48	-44
-129	-122	11
-117	-142	54
-89	-77	40
-47	48	48
0	166	47
51	201	-22
101	126	-116
135	-19	-177
151	-145	-127
141	-177	-55
111	-90	-23
66	57	9
16	177	-2
-35	189	-6
-82	83	7
-122	-79	25
-151	-205	24
-157	-226	-7
-136	-134	-9
-86	11	-9
-18	130	-45
48	171	-59
97	139	-10
107	80	17
82	43	16
30	51	14
-27	77	-24
-70	77	-45
-85	19	-21
-71	-83	-30
-49	-183	-50
-32	-229	-13
-36	-202	-14
-53	-122	-10
-70	-37	20
-59	6	16
-8	4	20
82	-13	-48
182	-3	-131
252	59	-100
259	157	-70
191	243	-118
66	265	-75
-74	214	-3
-186	106	6
-239	-4	35
-225	-84	39
-159	-114	28
-75	-116	-10
2	-121	-30
54	-131	-38
82	-144	-32
94	-125	26
97	-57	57
89	38	56
69	120	8
32	139	-52
-20	82	-95
-70	-31	-95
-104	-134	-51
-107	-168	-90
-82	-107	-64
-50	20	-5
-31	142	-38
-42	194	-53
-79	141	-55
-119	9	-5
-143	-147	21
-129	-258	-6
-85	-280	-9
-20	-222	-42
37	-112	-54
77	-5	-32
99	71	-10
107	109	7
117	121	0
123	123	-22
123	120	-23
106	106	-19
76	64	-30
36	-3	-40
0	-83	-55
-25	-149	-82
-37	-174	-70
-40	-149	-20
-42	-85	4
-39	-4	19
-32	63	15
-13	103	10
17	114	1
47	112	-1
69	104	-2
75	97	3
65	85	32
45	63	26
25	32	7
10	-3	-3
-4	-28	0
-14	-35	-48
-22	-27	-123
-21	-13	-129
-6	2	-92
25	10	-40
67	17	-30
101	34	-35
105	58	-32
65	88	-20
-14	104	0
-115	94	1
-199	60	8
-240	10	-6
-223	-32	-18
-159	-61	0
-85	-79	5
-35	-101	-10
-34	-142	-9
-71	-205	0
-116	-264	-2
-128	-289	-18
-82	-249	-21
11	-139	-44
113	1	-69
180	123	-51
182	177	-28
126	143	-19
51	45	-51
6	-63	-7
22	-127	33
98	-111	-6
193	-21	-27
251	97	-16
231	186	12
120	205	29
-49	147	46
-221	45	39
-325	-48	24
-333	-87	-53
-241	-49	-129
-88	40	-139
66	136	-157
172	186	-133
201	162	-120
159	65	-147
79	-57	-68
0	-157	8
-55	-194	35
-83	-160	65
-95	-77	61
-110	9	65
-128	57	61
-143	51	40
-135	3	19
-90	-54	9
-11	-84	16
82	-66	-24
163	-5	-81
212	67	-100
225	124	-53
206	139	14
171	110	14
130	56	-1
85	2	0
29	-30	11
-35	-37	1
-104	-25	-55
-160	-14	-122
-194	-16	-81
-188	-32	-16
-143	-54	-57
-77	-63	-60
2	-51	-62
63	-15	-56
101	34	-44
107	74	-57
93	92	-5
65	77	-11
30	38	-8
-9	-13	3
-54	-58	-1
-101	-91	11
-143	-108	11
-170	-109	0
-173	-102	-35
-145	-84	-31
-96	-53	9
-37	-17	31
16	15	24
52	26	21
77	10	24
92	-26	6
105	-58	-39
116	-60	-74
129	-14	-57
143	69	-32
151	153	-8
152	197	-8
133	171	2
83	94	2
-7	-4	-67
-130	-72	-96
-258	-90	-75
-345	-68	-66
-354	-41	-70
-272	-49	-41
-120	-95	-11
48	-152	7
175	-168	7
229	-114	-3
206	5	-22
139	144	-30
72	241	0
35	244	-11
23	151	-35
15	0	-43
-16	-154	-44
-85	-254	-55
-172	-274	-50
-241	-227	-42
-259	-137	-36
-207	-43	-35
-97	32	-38
39	81	-21
161	104	-9
234	112	37
242	114	62
204	116	63
136	118	18
71	116	-19
21	105	15
-11	72	44
-32	26	37
-55	-34	-4
-86	-90	-50
-120	-129	-99
-144	-137	-88
-143	-117	-56
-110	-79	-95
-48	-30	-122
25	15	-84
91	57	-30
134	96	-82
151	134	-144
141	169	-46
118	187	-34
86	178	-43
56	130	14
30	45	34
5	-61	77
-21	-167	50
-49	-243	48
-79	-270	21
-100	-237	-15
-108	-157	-15
-92	-54	-15
-54	39	-32
-2	98	-39
46	109	5
74	81	16
77	35	7
54	-1	3
27	-10	13
3	8	12
-12	40	22
-25	67	35
-45	72	32
-77	59	-25
-109	40	-72
-121	30	-49
-98	31	-60
-38	34	-104
37	27	-71
101	1	-25
127	-34	-79
115	-63	-129
85	-63	-166
58	-36	-119
56	7	-35
72	34	-64
86	23	-60
74	-25	-51
25	-93	-55
-43	-149	5
-105	-175	14
-133	-174	40
-126	-159	39
-102	-145	26
-85	-131	21
-94	-101	-44
-120	-37	-35
-144	57	7
-136	159	15
-90	229	13
-15	236	29
52	175	46
81	77	65
59	-23	75
1	-92	51
-60	-117	-11
-95	-111	-85
-82	-94	-114
-30	-77	-92
35	-55	-40
93	-23	-17
123	26	-12
128	87	-59
119	142	-99
107	177	-82
101	185	-50
101	163	-27
98	119	-11
85	56	10
60	-13	-12
27	-82	-8
4	-134	-16
-4	-153	5
11	-137	34
40	-94	-15
61	-52	-20
52	-35	-12
-1	-49	-10
-92	-77	-42
-195	-82	-53
-269	-41	-44
-277	38	-42
-215	122	-9
-101	161	-15
14	136	-3
87	58	17
95	-17	-6
41	-44	7
-37	-8	40
-101	53	38
-125	81	-1
-108	32	-51
-62	-91	-64
-16	-224	-63
22	-287	-63
54	-230	-69
85	-66	-52
118	125	-67
150	261	-78
166	287	-17
156	210	-4
121	88	-30
70	-7	-36
19	-39	4
-16	-17	-28
-32	20	-64
-26	35	-14
-5	20	0
24	-11	11
52	-28	26
61	-25	56
40	-16	16
-17	-17	-54
-94	-41	-84
-162	-74	-132
-185	-95	-155
-152	-88	-126
-68	-60	-35
22	-41	1
82	-44	-6
88	-72	3
44	-94	29
-15	-81	44
-55	-24	28
-55	49	63
-16	92	71
42	71	19
103	-11	-15
150	-111	-13
179	-171	-60
183	-153	-130
158	-59	-141
92	61	-46
-6	157	13
-113	183	19
-197	144	25
-229	65	-26
-210	-15	-43
-164	-72	-47
-126	-103	-35
-125	-108	-31
-149	-96	-37
-172	-64	-34
-154	-15	-31
-87	44	-25
18	97	-30
125	126	-38
197	126	-11
216	106	34
194	85	13
148	82	5
93	96	5
37	110	0
-21	101	9
-79	48	15
-126	-45	10
-150	-155	-18
-140	-253	-49
-102	-305	-74
-48	-296	-63
5	-223	-32
52	-103	-11
99	32	-17
145	150	-30
196	219	-34
234	228	-46
237	182	-68
192	109	-92
109	45	-62
8	10	29
-85	3	30
-148	1	16
-182	-21	5
-194	-76	-25
-195	-148	-10
-185	-199	-18
-157	-196	-8
-104	-116	-17
-27	23	-33
60	183	-22
139	310	-16
188	362	-24
204	328	-35
188	215	-7
148	64	-6
89	-86	-50
15	-195	-48
-63	-243	-35
-136	-235	-48
-182	-192	13
-186	-147	-17
-141	-120	-118
-64	-118	-97
17	-119	-16
77	-102	-23
86	-55	-64
50	10	-13
-15	63	24
-71	78	33
-89	47	-31
-53	-4	-104
30	-38	-57
126	-29	-28
187	22	-35
175	83	3
90	117	40
-45	104	-7
-177	58	-76
-249	10	-35
-239	-15	8
-159	-11	22
-60	-4	55
10	-20	54
28	-65	47
5	-112	-38
-22	-118	-88
-18	-62	-28
23	43	-17
81	147	5
121	192	-4
113	152	-57
61	40	-57
-6	-85	-55
-61	-171	-55
-83	-187	-52
-71	-152	-40
-46	-94	-30
-21	-53	-47
0	-33	-36
27	-19	-4
66	12	5
116	68	11
159	135	1
182	183	-17
179	191	-5
158	158	5
127	100	0
86	34	0
28	-20	28
-58	-62	11
-162	-89	-26
-258	-92	-60
-296	-63	-92
-247	-4	-74
-117	66	-67
47	119	-30
169	116	0
191	53	-2
109	-45	12
-24	-125	6
-133	-147	-23
-162	-105	-57
-106	-35	-34
-12	1	-3
42	-29	-21
18	-117	-27
-81	-208	-28
-194	-238	-32
-253	-175	-17
-217	-42	-45
-98	93	-29
55	166	46
180	150	46
244	76	38
245	-1	-1
216	-32	-24
178	-1	-56
140	56	-107
98	96	-45
34	88	-12
-44	39	-57
-124	-19	-82
-174	-55	-39
-178	-61	-25
-140	-53	-78
-75	-52	-98
-6	-65	-76
52	-79	-5
96	-63	-25
120	-8	-69
122	77	-31
94	153	-16
38	186	17
-32	162	99
-90	97	112
-111	26	55
-89	-22	2
-44	-36	-93
-14	-35	-115
-20	-39	-49
-64	-64	-11
-113	-101	-3
-124	-127	-58
-71	-123	-76
25	-84	-19
122	-24	-48
175	37	-46
163	84	-19
112	110	-46
69	127	-38
77	138	-4
129	140	29
182	125	54
182	85	54
90	21	0
-71	-48	-9
-247	-98	-5
-355	-109	-37
-361	-83	-58
-268	-37	-30
-128	0	-8
1	10	-48
87	-12	-37
129	-48	-43
161	-77	-7
198	-78	34
237	-53	-6
244	-16	-48
187	9	-31
61	6	16
-96	-25	25
-222	-65	1
-271	-92	-17
-230	-83	-26
-139	-33	-104
-63	41	-140
-46	110	-140
-95	142	-110
-158	117	-47
-175	43	-4
-102	-55	65
49	-135	32
225	-165	0
354	-135	-10
375	-62	-28
289	14	-4
129	59	1
-40	53	18
-166	5	19
-221	-53	39
-214	-88	45
-178	-76	6
-138	-22	-29
-113	49	-83
-95	103	-107
-69	117	-60
-25	86	-26
42	28	-42
118	-25	3
181	-54	48
206	-43	8
182	-3	-58
113	51	-113
17	95	-67
-79	104	-39
-153	71	-44
-193	0	-2
-201	-88	-26
-186	-167	-53
-157	-205	11
-118	-184	61
-71	-116	36
-23	-16	21
31	75	-27
81	131	-67
127	137	-64
169	109	-142
206	68	-180
234	41	-136
237	41	-81
204	61	-38
129	83	-16
27	80	54
-76	41	89
-144	-24	80
-156	-96	72
-112	-148	22
-36	-157	2
40	-118	1
98	-46	1
128	35	-15
140	101	-37
139	130	-17
116	123	22
57	88	22
-45	40	23
-170	-8	-7
-277	-51	-97
-318	-85	-111
-274	-109	-104
-166	-120	-117
-44	-110	-84
36	-70	-7
55	-17	22
36	38	41
25	66	45
62	51	41
139	-1	27
212	-64	-43
225	-102	-88
147	-87	-60
4	-20	-18
-135	68	-13
-214	131	-24
-203	139	-65
-131	93	-88
-58	20	-45
-24	-34	-22
-36	-41	23
-54	-2	63
-38	48	35
33	75	32
129	51	-22
195	-6	-76
190	-64	-79
107	-85	-111
-2	-53	-93
-91	6	-36
-117	53	3
-85	48	13
-36	-18	-15
-11	-121	20
-29	-213	16
-67	-247	-67
-93	-208	-78
-74	-111	-22
-15	5	16
48	104	-2
81	163	4
58	183	40
-4	180	30
-76	165	-4
-119	138	-15
-113	93	-4
-65	25	-39
1	-63	-79
63	-142	-84
105	-182	-58
112	-164	-25
89	-89	-68
36	6	-92
-30	77	-25
-88	89	30
-111	43	0
-75	-32	-20
16	-95	-9
139	-110	-2
241	-76	-12
279	-13	-27
230	37	-17
118	53	-1
-10	35	-16
-99	0	-24
-127	-25	3
-112	-33	-10
-92	-28	-56
-105	-27	-74
-158	-35	-8
-215	-48	-4
-236	-49	-46
-179	-18	-7
-55	40	-31
91	109	-28
204	154	-49
236	152	-42
190	103	6
100	26	20
16	-37	53
-28	-64	2
-31	-48	-2
-21	-3	21
-24	38	-20
-55	51	-131
-104	22	-164
-142	-36	-70
-149	-99	-39
-115	-133	-22
-55	-126	-29
12	-79	4
69	-8	24
115	58	-20
159	101	22
202	109	37
241	93	-6
253	66	5
222	43	8
136	27	-18
14	12	-20
-117	-6	-65
-222	-31	-89
-270	-53	-40
-262	-63	-19
-214	-54	4
-145	-27	-31
-80	12	-55
-24	57	-54
19	100	-58
51	131	-60
74	144	-47
84	116	7
80	36	0
60	-94	-27
34	-241	-46
2	-355	-32
-31	-384	-47
-69	-305	-51
-110	-152	-2
-144	13	15
-159	114	38
-137	119	31
-78	43	20
13	-46	-6
107	-83	-9
175	-37	0
207	64	-30
198	158	-18
172	183	-15
152	127	-2
151	25	-13
158	-58	-18
157	-77	26
121	-18	-22
39	76	-75
-77	150	-71
-204	162	-39
-316	113	-28
-381	26	-36
-383	-56	16
-316	-105	24
-188	-118	-41
-29	-98	-87
123	-57	-66
230	-4	-67
261	51	-120
216	95	-101
125	112	-55
24	89	-2
-46	37	2
-81	-27	-14
-90	-66	-2
-101	-67	-13
-129	-33	-3
-161	11	-10
-162	36	-6
-106	28	-9
8	-8	-17
147	-45	0
252	-62	41
278	-47	56
212	-6	46
91	35	57
-34	61	30
-111	64	-30
-119	44	-100
-78	9	-116
-21	-36	-69
15	-82	-101
24	-116	-100
18	-122	-32
18	-97	-30
37	-40	-36
67	26	-35
92	72	-23
89	77	-9
55	38	-5
3	-16	2
-48	-51	24
-84	-38	24
-101	16	-1
-107	83	-11
-118	112	10
-133	77	5
-150	-17	-54
-150	-131	-85
-120	-211	-103
-65	-224	-76
2	-169	-15
62	-82	0
101	-6	1
117	32	5
120	39	12
128	40	34
148	61	41
175	106	13
191	157	11
180	178	9
131	152	-4
54	80	7
-34	-5	-65
-115	-68	-100
-172	-89	-54
-204	-61	-52
-208	-13	-3
-189	32	-13
-147	50	-59
-83	39	-75
-5	4	-99
74	-45	-51
136	-88	-35
172	-114	-55
175	-110	-35
151	-77	-40
106	-21	-72
43	35	-31
-27	66	28
-104	58	11
-173	15	-23
-211	-35	-30
-191	-56	-8
-111	-30	-27
15	32	-68
139	90	-56
211	106	-90
195	57	-96
94	-30	-4
-43	-106	57
-158	-116	58
-193	-43	71
-138	75	83
-27	174	79
83	190	59
134	106	16
105	-45	-8
6	-191	-68
-116	-265	-114
-221	-246	-107
-271	-147	-97
-260	-24	-53
-202	66	-34
-107	96	-57
2	71	-59
111	20	-26
202	-27	33
249	-47	55
244	-44	44
182	-22	45
86	7	20
-14	31	-11
-84	43	-7
-116	40	-6
-109	24	-48
-83	-2	-82
-55	-23	-49
-32	-27	-26
-13	-9	-16
12	21	4
47	45	-63
89	56	-109
123	47	-53
139	33	-56
139	28	-42
120	37	6
91	56	19
52	60	8
3	42	-26
-60	-5	-23
-126	-58	1
-178	-100	7
-197	-109	16
-165	-89	12
-89	-52	-38
13	-18	-65
107	9	-74
166	36	-103
181	78	-81
162	130	-19
128	183	-6
92	200	-32
62	161	-38
30	60	-38
-11	-65	-43
-60	-176	-17
-112	-226	8
-147	-196	36
-152	-112	70
-123	-14	52
-68	54	15
-3	78	-29
59	64	-83
103	43	-94
121	41	-20
111	59	13
74	79	-38
16	67	-39
-50	9	-42
-104	-94	-66
-127	-214	-95
-111	-313	-65
-62	-364	1
-1	-359	-19
42	-308	-50
50	-224	-39
16	-117	10
-44	-6	-3
-98	106	-2
-120	205	30
-91	268	-1
-25	283	-10
52	252	-25
105	187	-5
102	115	-28
50	63	-24
-32	41	29
-102	40	-6
-132	41	-15
-113	29	3
-65	1	22
-30	-32	14
-31	-52	10
-79	-53	2
-143	-35	-58
-181	-15	-139
-154	-5	-135
-54	-11	-88
85	-21	-30
210	-20	46
271	0	-3
253	35	-15
171	64	-37
69	70	-102
-10	41	-54
-48	-12	-52
-57	-70	-57
-65	-112	-40
-94	-122	-42
-140	-106	-23
-173	-66	0
-161	-15	28
-86	43	16
38	112	-2
171	178	7
269	221	38
301	211	91
266	136	97
188	12	83
105	-117	32
42	-195	-67
2	-186	-222
-24	-95	-222
-56	21	-49
-92	92	-32
-130	68	-23
-152	-39	-10
-145	-168	-24
-111	-246	-61
-54	-216	-91
6	-100	-34
62	40	-34
106	127	4
136	117	22
147	35	-14
132	-56	3
89	-92	22
24	-52	61
-39	29	44
-80	88	9
-81	75	4
-45	-9	-44
4	-112	-47
36	-166	-56
36	-134	-95
3	-30	-96
-50	88	-91
-93	157	-24
-115	150	28
-117	86	41
-110	16	84
-109	-14	102
-111	5	67
-108	47	-44
-86	66	-144
-40	34	-177
20	-47	-186
75	-137	-125
98	-194	-17
86	-184	42
34	-108	41
-34	10	24
-100	131	4
-145	228	22
-161	279	60
-149	279	32
-115	243	-5
-69	171	-41
-20	81	-52
31	-17	-69
79	-116	-124
119	-201	-111
138	-268	-56
126	-305	21
77	-301	78
-1	-251	14
-86	-157	-32
-137	-39	-3
-127	72	32
-46	140	49
84	150	4
216	109	-3
302	43	-12
309	-5	-90
241	-20	-121
133	-1	-150
31	26	-111
-33	35	-46
-58	15	-56
-63	-25	-42
-76	-57	-58
-99	-66	-31
-123	-48	9
-130	-17	9
-101	11	6
-38	27	-14
41	39	19
118	66	32
182	109	58
234	157	93
273	180	79
292	161	44
267	98	-5
175	12	-63
11	-67	-91
-194	-119	-81
-380	-138	-92
-491	-143	-93
-494	-152	-52
-405	-162	0
-272	-166	6
-155	-141	37
-80	-86	63
-47	-10	34
-22	57	-35
27	96	-106
109	98	-109
203	77	-99
270	59	-84
281	63	-55
226	89	7
122	119	16
5	135	10
-92	125	-5
-142	83	-92
-147	13	-114
-117	-82	-51
-81	-186	26
-59	-280	81
-61	-322	103
-85	-279	100
-99	-142	82
-81	57	-6
-15	249	-81
83	348	-66
175	315	-55
219	165	-57
189	-21	-74
93	-153	-116
-27	-178	-131
-121	-113	-86
-152	-25	-57
-116	7	-66
-43	-42	-87
30	-132	-50
77	-187	-8
84	-143	14
68	-1	19
40	177	6
16	301	7
-6	310	2
-22	211	56
-28	64	90
-20	-53	79
2	-101	78
24	-88	99
32	-62	91
9	-69	-32
-36	-117	-223
-84	-174	-260
-102	-189	-74
-72	-141	40
-2	-42	64
90	62	82
169	127	12
214	131	-51
229	88	-50
221	35	-75
198	2	-108
163	6	-96
103	40	-172
14	88	-138
-91	136	16
-187	169	-3
-252	171	20
-269	120	36
-253	8	37
-225	-157	31
-201	-329	-40
-181	-437	-61
-144	-427	-45
-67	-286	4
56	-62	-4
198	160	-8
310	291	16
339	294	10
262	191	-41
98	49	-76
-100	-61	-40
-271	-113	-48
-361	-115	-78
-357	-110	-54
-277	-127	6
-163	-154	26
-55	-162	17
20	-111	32
62	-2	74
86	131	34
114	233	-12
158	266	-20
214	228	-92
261	155	-130
269	98	-124
216	79	-125
109	90	-70
-28	93	-20
-153	45	-8
-223	-52	15
-221	-175	15
-159	-260	8
-77	-270	0
-10	-196	39
22	-70	61
28	45	-4
37	110	-28
68	106	1
121	63	35
170	20	34
175	4	11
119	17	-4
9	33	-44
-112	23	-70
-200	-27	-86
-222	-91	-100
-184	-131	-68
-123	-113	-15
-78	-32	7
-68	71	-5
-80	144	-15
-81	138	-59
-33	57	-84
71	-54	-34
214	-127	-3
354	-116	37
430	-23	37
417	103	-40
310	186	-123
131	178	-162
-70	78	-66
-247	-58	21
-356	-163	53
-380	-187	56
-321	-127	19
-208	-31	8
-70	48	-23
54	72	-45
150	45	-54
206	-2	-53
222	-31	-54
190	-15	-39
110	32	1
-8	84	0
-143	109	-4
-253	92	4
-304	37	21
-279	-37	14
-199	-108	-24
-107	-159	-34
-47	-178	-28
-40	-166	4
-65	-125	46
-86	-65	77
-55	2	66
34	70	23
154	132	28
260	187	-13
313	225	-112
302	238	-159
248	208	-164
184	127	-108
128	7	-64
82	-121	-87
28	-213	-40
-52	-242	-40
-156	-203	-53
-255	-134	-34
-312	-83	-39
-305	-78	-2
-231	-117	-38
-118	-159	-82
-8	-154	-103
72	-81	-91
105	39	-106
107	150	-106
101	202	2
103	174	16
116	98	49
122	24	102
105	-4	80
50	16	67
-29	49	34
-111	59	52
-166	30	56
-168	-19	26
-121	-49	37
-42	-30	-21
38	28	-117
99	82	-94
129	89	-54
137	35	-35
135	-48	0
130	-109	-45
121	-101	-39
95	-28	-18
47	60	-55
-18	104	-66
-79	61	-56
-112	-51	-81
-107	-179	-58
-65	-253	-5
-14	-232	9
21	-127	8
26	11	-4
10	127	28
-7	190	47
0	197	48
33	177	53
74	159	10
83	149	-44
34	135	-48
-72	101	-5
-207	40	-52
-318	-33	-61
-360	-93	-2
-323	-120	-34
-233	-116	-19
-132	-99	-25
-60	-99	-94
-25	-119	-99
-8	-143	-59
23	-130	-30
84	-53	-40
172	87	-31
261	250	-15
314	365	20
326	368	47
299	233	64
253	-8	82
200	-278	-3
136	-488	-64
40	-570	-96
-91	-516	-118
-241	-361	-92
-364	-175	-72
-415	-21	-32
-357	70	-7
-211	101	-8
-29	103	-10
123	104	-30
198	122	-30
198	154	15
153	177	6
105	174	-72
84	138	-81
83	79	-24
80	7	-30
46	-53	-30
-18	-90	26
-97	-99	84
-161	-79	171
-184	-37	201
-165	20	170
-111	81	59
-39	134	-70
36	168	-226
111	168	-368
178	137	-287
224	84	-158
230	28	-88
193	-12	-4
118	-25	31
39	-20	-9
-16	-13	-78
-33	-24	-49
-26	-67	-8
-31	-125	3
-79	-173	19
-172	-174	-32
-269	-117	-20
-313	-18	42
-255	87	85
-92	153	100
119	161	85
299	115	53
369	53	-16
300	13	-98
122	11	-112
-88	41	-53
-255	70	-30
-325	69	-35
-299	24	8
-209	-51	56
-108	-130	65
-38	-184	-25
-13	-198	-100
-17	-177	-118
-27	-131	-128
-16	-72	-115
26	-3	-117
93	74	-29
158	148	36
196	200	28
191	202	14
140	139	27
62	21	30
-22	-120	-2
-93	-235	2
-137	-286	-17
-151	-256	-37
-136	-173	-33
-98	-72	-53
-37	4	-55
38	43	-13
119	56	2
184	61	9
210	79	4
188	106	-26
116	134	-26
21	142	-40
-67	121	-43
-121	80	3
-128	34	5
-93	7	6
-41	0	24
1	8	8
16	15	-59
-1	10	-104
-35	-16	-68
-64	-62	0
-66	-116	38
-30	-162	42
39	-179	51
128	-155	4
206	-86	-109
254	14	-178
261	113	-99
228	182	-60
159	201	-30
68	174	29
-38	117	36
-157	60	94
-263	12	100
-343	-33	14
-366	-85	-68
-320	-144	-55
-222	-190	-90
-103	-190	-137
-8	-122	-81
33	0	5
17	131	57
-20	215	30
-45	206	68
-31	118	-35
16	-6	-205
68	-104	-89
90	-142	-86
67	-133	-192
18	-107	-59
-31	-105	-33
-44	-127	-36
-21	-148	-7
24	-130	-26
61	-68	-11
69	14	-25
57	72	2
40	75	42
44	34	61
74	-13	49
114	-17	42
136	31	11
114	102	-35
51	142	-37
-37	112	-5
-117	23	19
-163	-76	41
-162	-123	33
-118	-91	8
-51	1	-15
20	100	-49
81	154	-57
120	150	-70
136	106	-105
130	70	-79
107	66	0
78	89	7
51	108	14
26	90	22
2	35	4
-31	-40	-17
-71	-105	-24
-116	-142	-38
-149	-160	-84
-154	-169	-121
-133	-180	-129
-92	-177	-76
-52	-140	-3
-29	-58	70
-23	47	94
-17	126	56
11	137	3
66	72	-36
139	-29	-30
196	-106	-64
203	-106	-71
140	-30	18
29	66	53
-88	119	41
-153	85	13
-126	-15	-61
-14	-113	-43
145	-136	-10
279	-56	-135
329	90	-184
262	233	-44
97	289	-10
-110	243	-36
-292	122	-29
-393	-2	-32
-394	-79	-13
-315	-94	-16
-194	-68	-34
-84	-49	-55
-17	-54	-11
-3	-82	-4
-20	-102	-7
-42	-94	47
-46	-56	49
-26	-17	-7
5	3	-38
32	-6	-9
42	-31	-32
44	-45	-99
50	-38	-77
78	-17	30
121	4	59
166	6	32
180	-4	1
137	-14	-27
44	-9	-19
-77	5	-41
-173	6	-54
-204	-25	-40
-162	-93	-22
-68	-163	-65
25	-184	-46
79	-122	-7
72	27	-17
26	215	36
-22	374	4
-31	438	-105
8	373	-114
78	205	-6
144	-13	16
169	-206	2
139	-320	1
63	-329	5
-25	-254	31
-101	-142	-12
-143	-50	-75
-142	-19	-110
-102	-46	-168
-27	-102	-209
63	-131	-28
151	-97	51
205	7	44
209	139	111
157	237	118
66	250	127
-24	174	24
-87	51	-80
-98	-60	-79
-75	-118	-69
-45	-123	-106
-40	-109	-132
-69	-105	-77
-112	-120	19
-138	-119	30
-121	-66	3
-60	55	26
23	209	21
90	322	0
113	332	-49
96	215	-70
53	22	-116
17	-167	-129
7	-274	-69
21	-273	-50
48	-191	4
61	-87	67
50	-11	68
7	23	49
-60	34	80
-136	53	78
-195	89	17
-223	123	-44
-201	125	-83
-131	76	-97
-40	-9	-135
46	-91	-115
89	-118	-13
75	-67	7
22	44	-20
-38	174	5
-68	262	62
-55	266	69
-11	171	38
32	9	-36
49	-170	-107
34	-307	-59
2	-354	-31
-14	-301	-25
-1	-168	-8
33	-9	-9
68	117	-39
78	177	-50
59	171	-63
27	141	-113
7	137	-93
15	183	-34
42	249	14
69	272	62
69	186	41
32	-26	31
-30	-306	16
-98	-547	-38
-145	-638	-54
-158	-541	-54
-135	-309	-56
-83	-46	-60
-10	130	-61
71	180	-96
148	131	-92
198	77	-3
214	80	51
199	151	57
171	239	56
153	261	2
151	188	-33
151	41	-69
113	-94	-49
8	-158	14
-172	-127	20
-385	-52	59
-554	-11	58
-602	-41	16
-505	-131	-4
-292	-210	2
-48	-210	-28
140	-110	-65
234	47	-48
236	178	-105
200	221	-116
178	168	-100
182	66	-60
192	-11	-32
165	-21	-95
82	34	-47
-40	103	-65
-139	133	-66
-168	100	-28
-107	16	22
8	-74	64
114	-127	-9
159	-120	29
127	-61	99
54	26	83
-12	106	41
-32	155	8
-10	156	-78
18	106	-47
18	25	-9
-26	-67	-87
-96	-140	-126
-152	-175	-175
-162	-162	-145
-123	-121	-71
-55	-77	-32
7	-46	-25
42	-33	-14
61	-17	-20
85	25	13
127	103	112
184	199	112
231	276	61
234	299	38
171	243	-38
59	127	-115
-71	-11	-61
-177	-125	-21
-234	-189	-24
-241	-199	-15
-210	-182	-68
-165	-170	-89
-117	-182	-84
-78	-216	-67
-43	-246	-93
-19	-237	-30
-5	-168	111
2	-44	121
13	104	108
42	230	72
93	290	8
152	268	-35
192	171	-56
184	44	-60
125	-74	-56
31	-148	-99
-55	-164	-126
-104	-135	-116
-97	-82	-84
-51	-26	-37
3	14	-12
40	37	14
56	41	21
66	32	48
81	16	-5
97	4	-49
87	1	-20
30	13	-21
-79	37	0
-214	59	19
-320	68	46
-353	51	40
-300	14	16
-193	-29	16
-84	-55	13
-18	-54	45
-4	-35	13
-18	-17	-31
-20	-23	-31
14	-52	-144
80	-91	-218
147	-105	-72
184	-68	14
186	12	-27
159	109	-38
125	174	-34
98	174	-50
75	103	-82
38	-7	-79
-20	-106	-48
-89	-154	-8
-143	-131	42
-158	-61	28
-120	22	-37
-48	91	-55
32	129	-48
94	145	-10
130	154	14
150	162	-18
164	160	-39
181	137	-60
187	93	-17
166	42	-4
104	13	7
9	18	77
-93	43	79
-173	47	87
-203	-19	52
-186	-171	29
-132	-371	-17
-72	-530	-130
-26	-556	-116
-1	-403	-118
6	-111	-145
12	210	-63
26	435	-24
59	475	-34
104	341	-4
143	110	43
161	-97	-32
138	-207	-94
76	-208	-40
-16	-147	-25
-115	-83	19
-200	-42	36
-248	-14	29
-252	35	32
-209	115	-16
-126	191	-106
-17	202	-102
104	109	-38
213	-69	-24
283	-257	-12
280	-348	24
199	-286	42
47	-95	14
-126	130	19
-263	269	43
-328	262	53
-304	121	47
-221	-64	84
-123	-202	21
-54	-233	-78
-25	-174	-99
-14	-88	-171
11	-28	-214
72	-15	-170
162	-21	-133
244	-6	-165
281	45	-103
252	114	-26
162	158	52
37	143	101
-86	76	87
-181	-3	119
-232	-51	112
-236	-45	54
-200	2	-64
-136	51	-89
-61	81	-14
6	81	-42
52	81	-101
79	103	-66
96	153	-98
121	202	-110
167	210	-70
216	154	-11
241	41	66
207	-87	56
109	-182	58
-29	-212	67
-157	-187	37
-231	-138	-37
-229	-101	-113
-174	-93	-110
-113	-98	-69
-84	-94	-51
-95	-61	-65
-118	-8	-45
-116	38	14
-58	51	-3
46	25	1
162	-21	40
252	-48	31
278	-34	-15
245	21	-72
170	86	-21
77	119	35
-11	97	33
-88	35	26
-150	-25	8
-186	-39	4
-186	3	-22
-150	68	-55
-91	102	-31
-31	51	-27
6	-79	-27
24	-235	-2
41	-326	-10
90	-294	-1
180	-136	-64
290	79	-90
365	248	-61
341	298	-69
196	214	-15
-46	57	26
-300	-80	51
-477	-137	26
-518	-106	-54
-425	-35	-123
-255	10	-129
-83	-6	-112
34	-65	-92
86	-117	-84
97	-116	-48
104	-51	35
128	38	72
158	102	84
164	106	66
125	60	23
46	6	-1
-45	-21	-49
-116	-5	-62
-143	26	-5
-129	39	-5
-87	16	-24
-38	-28	3
12	-59	-21
65	-49	-88
127	5	-126
191	72	-80
234	122	-48
234	129	-17
180	104	38
89	72	30
-8	59	39
-74	63	50
-97	65	68
-93	45	42
-91	-2	-40
-114	-57	-78
-165	-104	-123
-215	-129	-158
-228	-140	-60
-176	-161	-7
-72	-194	-46
49	-224	-26
142	-211	-52
182	-134	-59
163	0	-33
118	145	-20
78	240	43
59	244	31
62	160	-34
65	38	-28
52	-58	-30
12	-93	-29
-47	-62	-35
-113	-5	-27
-169	41	-15
-204	57	-28
-208	48	-7
-170	39	7
-91	41	0
24	51	1
144	48	-9
234	21	-47
261	-21	-54
212	-43	-26
114	-21	1
8	43	45
-62	116	90
-76	138	108
-43	82	82
1	-41	32
17	-167	15
-13	-229	21
-77	-192	22
-142	-86	-34
-187	22	-117
-190	62	-149
-159	12	-282
-112	-89	-295
-65	-165	-95
-29	-166	-48
-1	-84	-10
17	22	-64
32	90	-155
40	84	-40
40	22	74
35	-34	81
29	-44	37
30	-2	5
42	47	-15
72	63	-24
111	34	-27
154	-12	10
184	-23	36
181	17	11
135	85	-36
46	113	-20
-60	49	-25
-152	-97	-95
-195	-258	-60
-178	-341	24
-120	-299	59
-59	-153	35
-33	6	-3
-49	92	-58
-89	72	-101
-108	-8	-101
-72	-62	-74
20	-28	-44
139	90	-55
234	224	5
265	295	34
229	261	21
152	162	72
75	65	20
20	32	-19
-9	66	2
-34	114	9
-75	116	11
-131	45	11
-183	-58	-10
-201	-131	-21
-172	-120	12
-97	-29	2
-3	82	-35
85	143	-48
152	116	-70
201	28	-94
232	-55	-83
242	-76	-48
216	-20	-35
135	67	-17
6	121	28
-151	99	40
-286	7	64
-352	-103	52
-325	-174	27
-224	-182	10
-94	-145	-50
10	-105	-57
54	-86	-92
42	-81	-166
7	-54	-135
-13	16	-52
7	119	-25
67	195	-21
141	182	-32
191	53	-2
188	-144	41
116	-318	77
-2	-376	91
-134	-280	7
-241	-92	9
-287	83	12
-268	142	-83
-195	59	-109
-99	-101	-101
-8	-229	-33
59	-231	-16
103	-93	-62
132	112	16
158	279	24
178	335	-13
188	269	-50
183	149	-130
156	51	-149
113	19	-149
54	46	-33
-20	77	14
-115	63	41
-226	7	14
-333	-62	-57
-394	-97	13
-372	-82	-21
-244	-39	-51
-35	-17	-63
189	-50	-22
351	-125	63
404	-195	35
335	-202	17
194	-128	42
49	-2	54
-48	110	41
-77	150	28
-62	98	-35
-42	-13	-62
-45	-122	-14
-67	-178	-35
-88	-162	-113
-79	-95	-134
-29	-15	-88
41	56	-16
104	110	31
127	159	10
104	209	-42
48	252	-97
-10	268	-114
-37	233	-80
-27	143	-77
16	17	-76
62	-107	-2
85	-199	8
60	-237	-18
-10	-219	2
-109	-160	7
-201	-70	30
-249	32	34
-232	138	26
-148	223	26
-24	261	34
94	233	35
172	127	50
191	-24	36
156	-178	-12
95	-273	-23
40	-277	13
4	-186	96
-15	-36	111
-35	112	42
-75	208	-11
-130	218	-89
-181	150	-253
-197	36	-241
-160	-70	-84
-64	-127	-9
58	-116	66
178	-45	55
256	41	47
275	92	12
245	61	-156
179	-51	-243
103	-208	-178
31	-341	-91
-31	-383	-55
-86	-309	-69
-139	-159	-107
-191	-2	-21
-243	81	30
-273	66	2
-272	-16	12
-228	-88	-9
-136	-87	14
-17	7	21
103	145	8
190	253	41
222	270	29
195	195	35
126	80	54
46	-10	49
-16	-27	56
-49	17	87
-58	82	101
-57	117	98
-61	106	99
-75	70	3
-90	36	-105
-99	18	-182
-91	-2	-243
-67	-51	-174
-24	-139	-157
36	-236	-104
114	-278	-14
198	-218	-118
266	-51	-147
287	166	-48
237	338	23
118	388	-24
-42	295	-24
-182	103	20
-255	-101	13
-239	-237	11
-148	-273	-27
-29	-219	-22
66	-120	-36
123	-21	-64
145	57	-42
159	109	1
178	138	35
198	148	63
187	134	7
123	100	-40
2	53	7
-143	9	28
-264	-22	41
-331	-35	59
-331	-38	82
-282	-42	67
-216	-51	34
-149	-68	-46
-76	-87	-153
10	-110	-181
106	-138	-172
191	-171	-148
231	-192	-86
202	-190	-18
111	-141	16
-2	-56	34
-89	35	0
-116	95	-17
-91	91	4
-48	25	21
-27	-67	-20
-46	-137	-50
-87	-147	-28
-113	-99	-32
-95	-22	-13
-29	43	41
55	77	76
122	91	86
149	108	53
140	155	-16
118	221	-36
111	272	-71
121	269	-67
134	199	-6
127	80	-41
81	-44	-51
8	-120	-12
-75	-129	-44
-140	-91	15
-176	-45	63
-180	-32	19
-162	-51	-3
-128	-79	-30
-83	-70	-54
-24	-6	-117
40	98	-151
95	186	-100
126	202	-8
128	119	-5
110	-40	-96
86	-206	-113
70	-304	-57
67	-289	-55
64	-182	-49
42	-43	-36
-1	55	-14
-68	81	72
-129	48	124
-166	13	56
-160	26	-41
-115	95	-54
-50	179	-126
12	213	-152
52	158	-79
67	26	-22
61	-122	43
46	-210	85
33	-196	78
28	-108	19
30	-4	-20
34	43	-17
36	15	21
26	-54	16
5	-97	26
-28	-62	62
-59	43	44
-71	168	39
-56	233	-13
-4	199	-112
69	85	-210
138	-37	-208
170	-98	-211
140	-69	-134
57	13	9
-60	69	22
-177	40	28
-260	-85	42
-297	-240	66
-299	-330	44
-281	-290	-15
-253	-127	-63
-210	74	-90
-135	208	-71
-23	197	-2
110	58	51
231	-118	57
302	-212	37
295	-149	-9
216	49	-5
113	275	-13
23	394	-37
-16	319	-15
-5	72	-15
27	-232	-15
43	-445	-13
22	-475	-27
-30	-322	-29
-87	-84	-47
-111	116	-24
-87	193	-76
-15	142	-98
80	39	-43
166	-26	-67
221	6	9
234	118	32
204	244	-4
134	305	-16
39	259	-60
-71	122	-63
-174	-45	-60
-246	-171	-28
-271	-223	-15
-247	-205	11
-187	-157	41
-114	-118	6
-52	-99	4
-7	-86	18
24	-46	-5
56	37	-10
98	154	14
142	267	45
175	327	19
175	301	-83
140	190	-53
78	29	-5
10	-121	-60
-39	-204	-38
-64	-192	17
-67	-99	24
-64	33	-66
-61	143	-162
-61	191	-168
-55	163	-113
-39	81	-13
-14	-20	1
13	-111	-28
33	-174	-38
52	-215	-112
78	-238	-107
117	-246	-62
159	-222	-4
175	-156	54
136	-51	61
26	64	67
-128	145	29
-279	154	30
-354	77	10
-329	-52	-6
-221	-173	-5
-83	-228	-11
16	-181	-21
47	-55	-30
24	98	-1
-3	210	16
5	238	30
54	174	12
111	57	0
127	-62	1
75	-144	-14
-28	-166	-40
-128	-140	-46
-170	-96	-9
-134	-60	-27
-42	-45	-60
56	-42	-81
120	-34	-98
140	-9	-92
147	41	-79
164	105	-2
203	169	39
241	213	39
231	233	30
147	221	15
-2	187	-4
-170	136	10
-300	83	-83
-345	30	-225
-310	-18	-144
-224	-59	-14
-125	-100	-12
-53	-135	-30
-6	-160	-48
28	-154	-116
64	-108	-67
107	-21	32
149	91	65
175	183	38
175	218	-20
159	174	-34
130	70	-39
96	-53	-32
57	-144	20
12	-167	52
-47	-130	61
-115	-68	52
-173	-29	-24
-203	-35	-76
-191	-77	-15
-132	-116	29
-40	-112	3
64	-55	29
156	33	41
212	113	-24
224	145	-84
196	122	-84
136	58	-54
65	-5	-50
-5	-45	5
-69	-54	-2
-124	-52	-71
-168	-60	-112
-196	-95	-116
-206	-148	-81
-181	-196	-70
-120	-211	-32
-28	-177	-1
80	-95	31
170	14	39
219	122	68
208	203	109
134	243	65
16	236	22
-117	190	-71
-227	114	-125
-284	21	-120
-277	-77	-125
-212	-169	-78
-116	-233	-79
-22	-254	-49
42	-218	-15
68	-134	5
60	-24	48
45	89	52
42	174	53
65	228	39
101	244	-26
125	237	-139
122	202	-169
83	135	-86
24	30	32
-26	-107	98
-42	-245	29
-21	-338	-32
22	-344	8
58	-254	5
68	-105	-102
50	41	-169
14	124	-70
-19	122	-12
-38	58	14
-42	-5	55
-41	-18	34
-36	35	-4
-21	125	-108
14	194	-135
77	197	-60
151	130	26
210	33	56
219	-42	60
159	-64	81
33	-37	42
-129	0	-5
-280	13	-38
-387	-20	-92
-410	-77	-113
-347	-118	-67
-215	-119	-8
-39	-74	28
130	-7	15
254	48	-6
302	75	-12
266	80	-13
175	84	-34
69	97	-75
0	113	-84
-10	101	-26
33	43	49
84	-56	61
97	-163	26
38	-225	-13
-87	-207	-16
-242	-121	24
-364	-9	26
-394	76	63
-325	99	49
-165	69	-64
26	22	-120
179	-5	-188
253	4	-257
238	27	-244
161	35	-111
68	6	-22
4	-51	17
-14	-103	100
4	-114	147
27	-67	138
28	12	77
4	100	19
-36	161	-101
-64	189	-128
-64	188	-75
-30	165	-66
22	117	-46
71	31	-70
104	-94	-63
113	-244	-38
101	-368	-39
74	-416	-21
33	-357	9
-22	-211	19
-80	-34	-18
-128	100	-40
-152	145	-62
-139	109	-64
-92	35	-30
-24	-9	5
43	21	49
102	118	64
150	237	43
188	312	76
216	300	113
219	200	53
176	50	-10
77	-90	-3
-70	-177	-23
-227	-195	-55
-342	-168	-81
-366	-131	-99
-300	-123	-124
-172	-151	-203
-40	-192	-147
40	-218	-67
52	-196	-47
16	-124	-8
-22	-17	24
-18	88	61
44	158	1
144	181	-32
230	166	-48
257	134	-32
198	110	50
74	103	47
-72	104	48
-189	98	67
-243	70	28
-229	23	-70
-175	-28	-106
-118	-64	-18
-83	-74	-9
-70	-56	-48
-56	-27	-111
-15	1	-120
72	15	-70
184	20	-34
280	24	56
322	35	90
280	57	13
179	78	-68
52	89	-65
-48	82	-42
-93	56	-31
-92	16	-51
-75	-32	-34
-77	-80	3
-104	-117	11
-138	-126	49
-137	-98	20
-78	-29	-22
32	57	-38
157	125	-54
245	131	-42
262	60	-28
207	-62	-13
115	-180	3
18	-227	-3
-56	-174	-63
-110	-54	-90
-163	58	-21
-228	85	-25
-291	0	-80
-330	-160	-18
-312	-300	-1
-224	-334	-4
-88	-232	0
54	-37	-21
160	153	14
195	253	10
172	236	37
118	141	58
75	46	-2
64	6	-55
88	28	-52
132	74	-46
171	92	-44
188	51	-59
167	-21	-60
105	-88	-15
1	-105	-51
-129	-62	-38
-263	8	26
-366	70	16
-389	96	-12
-320	88	-62
-169	62	-92
10	38	-91
151	22	-63
211	3	-14
187	-24	-22
113	-56	-65
40	-80	-17
11	-83	18
21	-65	-24
41	-41	-17
30	-31	-16
-26	-35	-24
-105	-41	-14
-167	-23	-24
-170	27	-41
-113	103	7
-18	170	50
68	197	47
118	170	40
129	104	0
121	35	-36
111	-1	-44
105	4	-6
87	33	-15
41	49	-63
-35	28	-24
-116	-40	-19
-170	-134	12
-165	-219	14
-105	-263	-64
-14	-246	-45
74	-173	-14
132	-58	7
165	64	-13
175	163	-22
175	205	3
155	178	-25
109	90	-65
33	-28	-113
-58	-126	-78
-136	-168	-25
-177	-137	-22
-169	-53	-33
-133	45	-26
-100	122	5
-88	159	34
-92	164	71
-88	148	81
-48	114	86
36	49	58
140	-60	9
234	-210	-56
280	-361	-161
269	-448	-260
214	-421	-241
136	-283	-155
55	-93	-59
-27	62	-8
-114	120	-48
-208	79	-3
-292	2	41
-342	-27	55
-338	41	82
-273	179	52
-173	304	16
-68	335	-33
15	240	-111
67	72	-115
94	-71	-48
106	-117	-8
114	-53	34
114	53	79
101	122	78
68	96	49
25	-8	33
-18	-123	-26
-50	-175	-117
-66	-140	-162
-69	-57	-103
-55	12	-8
-26	22	-15
24	-16	6
87	-60	29
136	-54	36
151	10	27
111	98	-56
31	155	-68
-51	142	-7
-88	71	21
-56	-9	-2
27	-48	-23
106	-26	-85
121	30	-160
43	75	-106
-97	61	5
-226	-9	13
-277	-107	34
-212	-178	67
-63	-184	-1
100	-121	-20
212	-19	-34
234	83	-10
190	155	15
121	177	7
72	161	-29
50	117	-75
30	63	-69
-15	18	-84
-93	-13	-49
-174	-25	36
-217	-29	112
-194	-29	42
-108	-46	-12
-5	-86	93
69	-139	12
91	-188	-138
68	-204	-192
38	-176	-165
39	-111	-71
79	-36	-48
130	17	-64
156	34	-61
121	16	-28
30	-9	5
-83	-17	21
-170	9	44
-191	57	60
-139	104	35
-40	125	22
61	106	-10
120	58	-4
107	2	12
34	-37	-69
-75	-43	-84
-163	-17	-96
-191	32	-62
-150	82	-13
-48	113	-16
56	104	-19
115	51	-42
93	-36	-54
0	-129	-56
-121	-188	-22
-212	-182	8
-229	-99	16
-166	30	-18
-57	153	-18
48	209	-13
122	166	-40
156	37	-45
172	-123	-34
202	-242	-14
248	-263	11
299	-183	61
318	-40	87
285	92	99
190	154	83
46	123	1
-106	38	-51
-247	-43	-51
-344	-56	-94
-389	8	-71
-375	118	-38
-300	210	-89
-183	224	-128
-46	143	-150
78	8	-133
162	-114	-134
183	-163	-28
154	-121	127
93	-21	102
27	70	35
-28	103	4
-70	55	-63
-100	-39	-72
-121	-132	-57
-120	-183	-71
-90	-179	-44
-29	-141	-23
46	-103	-14
117	-84	-18
170	-71	9
197	-50	4
210	-4	-2
219	65	30
222	125	31
201	154	46
135	132	10
19	81	1
-126	30	64
-255	8	70
-325	24	21
-313	55	-5
-236	71	-32
-137	43	-88
-58	-28	-120
-21	-113	-207
-13	-178	-210
-8	-191	-86
20	-151	-35
68	-74	-14
111	7	-60
122	66	-55
85	90	-27
18	81	-42
-46	56	-53
-66	29	-82
-38	13	-8
24	12	9
81	17	26
96	22	31
57	13	16
-22	-4	22
-102	-22	9
-147	-21	22
-126	8	14
-47	61	21
64	116	29
171	140	37
234	118	21
225	50	-1
149	-29	-5
26	-83	-21
-103	-90	-41
-205	-62	-48
-252	-44	-34
-236	-64	-22
-161	-129	-10
-56	-196	4
53	-213	-3
135	-141	-6
163	1	-28
130	140	-85
42	201	-84
-62	141	-45
-149	-3	-21
-181	-151	-3
-144	-206	58
-63	-139	109
23	3	69
71	130	-53
64	163	-123
18	85	-130
-26	-48	-165
-33	-144	-201
8	-140	-178
69	-40	-57
116	96	-55
116	188	-64
74	194	17
27	136	66
17	74	124
62	55	104
140	93	54
201	144	32
198	154	-26
110	89	-43
-30	-32	-20
-175	-158	-54
-269	-228	-97
-288	-218	-83
-247	-149	-46
-173	-65	-2
-101	-9	-75
-41	3	-120
12	-10	-45
75	-22	-68
151	-16	-51
232	15	-18
296	53	52
314	82	116
276	88	80
184	75	20
65	45	-62
-57	12	-35
-158	-19	-1
-225	-43	25
-263	-52	33
-287	-47	-7
-302	-25	-15
-300	7	-38
-264	38	-33
-188	67	-21
-66	86	-36
72	92	-47
190	74	-86
242	19	-108
221	-78	-64
140	-206	-40
46	-326	-2
-22	-395	32
-51	-380	87
-51	-271	115
-54	-111	97
-79	40	99
-123	128	46
-157	143	-17
-147	112	-125
-82	89	-180
27	110	-145
132	166	-104
196	215	-21
203	206	-5
166	115	-43
117	-30	-70
87	-162	-34
81	-211	2
81	-152	-92
61	-14	-138
11	131	-110
-60	217	-77
-124	206	7
-152	116	7
-126	-2	3
-62	-94	26
11	-126	22
67	-102	27
94	-44	-24
94	18	-72
83	65	-88
79	87	-31
83	81	24
94	51	51
98	-3	89
82	-68	85
36	-126	14
-35	-151	-70
-121	-126	-52
-202	-59	47
-248	30	60
-234	112	-27
-149	163	-64
-7	174	-84
151	163	-76
268	136	-57
297	104	-87
214	63	-88
46	4	-39
-152	-70	-35
-316	-151	-98
-389	-206	-121
-355	-215	-72
-244	-173	28
-99	-95	69
16	-15	70
67	35	61
46	43	8
-18	18	-54
-85	-11	-74
-117	-20	-24
-89	4	20
-10	41	24
96	67	-13
189	53	-57
239	-5	-35
229	-92	-27
164	-167	-55
72	-196	-43
-18	-170	16
-71	-94	71
-82	2	40
-49	89	-43
4	147	-62
53	170	-62
83	164	-76
87	126	-67
79	65	-40
71	-21	2
81	-107	22
105	-166	63
128	-167	84
127	-100	11
89	7	-52
10	105	-13
-90	142	-7
-178	97	-63
-232	-5	-60
-231	-106	-37
-186	-145	13
-116	-104	12
-40	-3	-12
27	98	35
86	152	47
134	135	-14
175	74	-109
194	13	-154
172	-13	-103
103	1	-11
-11	30	-5
-132	40	-44
-226	16	10
-259	-36	16
-226	-88	-84
-152	-114	-119
-75	-107	-107
-22	-79	-36
0	-48	-14
8	-25	-7
39	-8	19
107	20	-42
206	64	-53
302	117	-11
363	154	-35
351	153	-100
262	110	-94
112	37	-36
-80	-32	35
-280	-74	56
-458	-77	88
-577	-49	54
-605	-8	-57
-518	28	-138
-330	54	-157
-81	69	-40
154	74	14
309	62	12
350	27	-5
302	-28	-2
216	-90	24
154	-135	19
132	-142	-7
141	-112	-42
133	-64	-46
78	-41	-23
-21	-62	-6
-126	-128	16
-186	-202	34
-184	-235	16
-138	-194	29
-95	-87	21
-87	45	0
-108	143	-24
-126	171	-16
-91	132	10
10	66	-6
143	16	-35
245	8	-81
261	31	-128
182	56	-193
52	51	-117
-55	15	32
-99	-35	57
-75	-72	83
-21	-77	60
9	-61	10
1	-40	-32
-27	-34	-82
-30	-37	-68
15	-27	-2
99	15	24
175	93	35
198	181	99
149	244	90
56	251	61
-28	195	-25
-65	100	-119
-54	1	-153
-25	-66	-190
-15	-95	-166
-37	-89	-80
-72	-70	10
-88	-57	28
-61	-50	1
-11	-48	-26
28	-36	-36
24	-12	-68
-27	24	-96
-92	58	-51
-123	75	-18
-101	58	-13
-38	4	-35
16	-69	-18
26	-142	-54
-15	-182	-96
-71	-177	-24
-91	-129	40
-41	-58	61
63	6	16
166	49	-50
211	74	-78
172	92	-54
83	110	-31
-3	126	-23
-30	122	-10
12	80	7
79	7	23
106	-70	28
42	-112	28
-110	-98	62
-290	-45	69
-425	3	22
-450	4	-19
-358	-46	-7
-195	-116	25
-30	-139	-12
83	-83	-15
127	40	-18
122	161	-29
105	197	-16
99	116	-56
106	-41	-84
113	-181	-117
107	-211	-115
90	-105	-24
71	84	-17
58	249	-31
46	301	-44
25	215	-70
-20	45	-82
-77	-124	-107
-119	-229	-81
-110	-249	-8
-36	-224	5
87	-185	12
208	-149	0
278	-95	-8
273	1	41
200	125	45
98	236	78
8	273	80
-53	211	22
-82	80	-15
-98	-54	-81
-113	-124	-70
-135	-113	10
-156	-60	4
-164	-29	-37
-161	-57	-74
-143	-129	-64
-112	-182	-38
-59	-156	-92
22	-39	-66
125	117	-50
225	233	-72
283	249	-5
275	170	14
192	56	16
69	-17	46
-49	-14	57
-117	45	26
-122	96	-84
-92	85	-106
-63	8	-30
-70	-88	-21
-114	-130	-14
-170	-85	-41
-198	35	-53
-170	159	-48
-91	219	-63
17	183	13
114	67	65
171	-66	7
175	-171	-5
137	-223	1
70	-242	-44
-4	-251	-129
-69	-260	-235
-115	-257	-181
-126	-210	-114
-107	-116	-68
-64	4	15
-20	98	39
3	129	56
-5	95	52
-43	33	67
-81	2	76
-93	32	82
-59	117	101
13	207	79
97	252	10
161	230	-59
178	158	-57
150	85	-66
83	43	-51
4	38	-35
-74	34	-39
-135	-6	-69
-174	-90	-79
-185	-195	-9
-156	-263	17
-85	-260	-19
19	-182	-36
130	-74	-27
216	13	-84
249	41	-122
222	20	-55
144	-14	-35
42	-23	-39
-51	8	15
-124	53	32
-168	77	38
-184	50	16
-173	-17	-40
-133	-88	-6
-71	-119	34
5	-93	39
79	-18	32
133	78	-22
165	166	-18
172	232	-1
175	267	26
175	272	94
174	237	61
154	150	-42
104	17	-48
18	-138	-36
-81	-278	-147
-165	-356	-251
-209	-356	-244
-206	-283	-163
-169	-178	-55
-123	-75	13
-89	6	19
-63	58	1
-31	93	-6
24	109	-9
107	109	-46
193	88	-43
238	55	42
209	27	60
98	21	56
-63	40	60
-224	65	1
-321	70	-28
-333	35	-11
-262	-30	43
-148	-96	36
-40	-130	11
22	-116	-44
32	-72	-162
14	-28	-163
0	-11	-138
21	-17	-64
82	-26	-1
166	-10	16
244	41	98
280	108	51
265	154	-86
193	155	-111
84	110	1
-44	49	-37
-166	2	-121
-263	-15	-84
-321	-16	-25
-325	-22	28
-277	-56	41
-187	-115	78
-78	-170	54
27	-186	33
107	-144	52
155	-55	65
172	51	39
169	142	1
151	195	-2
116	202	-56
63	174	-95
-1	131	-173
-59	74	-201
-88	12	-94
-71	-58	-64
-14	-127	-60
54	-183	-31
97	-216	20
90	-213	70
40	-173	80
-17	-99	49
-43	-12	14
-14	72	-2
54	137	3
119	168	-55
135	161	-96
89	116	-88
-4	45	-115
-95	-43	-93
-145	-136	-89
-143	-219	-36
-105	-268	-5
-66	-259	32
-48	-178	48
-48	-33	51
-45	137	118
-12	272	87
58	320	44
151	259	6
228	119	-32
261	-40	-67
244	-148	-85
182	-168	-119
103	-111	-120
21	-22	-43
-54	41	-40
-126	62	-48
-199	42	-28
-272	21	-36
-331	24	-39
-354	53	-56
-325	84	-44
-234	82	8
-97	39	24
59	-23	28
196	-65	-12
283	-61	-34
299	-13	-21
249	43	-16
165	64	22
75	29	97
5	-48	111
-52	-120	75
-110	-149	23
-188	-117	-66
-280	-48	-140
-355	10	-225
-371	21	-162
-295	-14	-112
-137	-64	-93
52	-88	-2
210	-56	4
283	28	16
273	128	-40
214	210	-98
160	244	-113
136	233	-49
135	180	46
121	105	55
64	17	84
-28	-81	48
-118	-179	36
-153	-263	32
-108	-311	-7
-7	-307	-58
91	-250	-117
125	-161	-62
80	-69	-16
-14	2	-9
-91	45	6
-97	67	-33
-26	81	-80
72	95	-30
132	106	14
106	108	11
-2	90	29
-139	49	30
-239	-1	64
-245	-50	62
-169	-79	22
-44	-69	-2
72	-21	3
151	59	-39
191	145	-179
212	208	-197
231	215	-86
239	159	-46
214	59	-31
131	-48	42
-11	-117	53
-175	-127	1
-315	-93	-5
-375	-50	15
-342	-44	-48
-237	-87	-95
-107	-155	-100
-7	-202	-29
42	-189	52
46	-107	34
38	7	37
47	104	-39
90	145	-177
159	131	-206
225	101	-100
261	93	-31
250	134	21
189	203	74
89	259	86
-25	260	42
-136	189	-1
-224	64	41
-262	-87	-30
-255	-232	-67
-201	-353	-71
-127	-436	-67
-60	-456	-30
-23	-387	-30
-16	-211	18
-26	44	40
-28	313	42
-1	495	16
52	516	-22
106	357	-61
123	80	-80
84	-202	-88
-6	-389	-66
-109	-423	15
-170	-334	-62
-157	-195	-94
-63	-81	5
63	-32	30
171	-33	-12
209	-43	-18
162	-18	-13
62	52	-58
-35	151	-76
-82	244	48
-55	308	179
18	321	120
94	279	16
124	193	-57
91	67	-88
8	-82	-210
-81	-218	-259
-141	-305	-153
-153	-308	-111
-127	-223	-19
-87	-83	29
-45	52	49
-7	127	25
36	123	-27
94	55	-23
154	-20	32
198	-54	57
206	-28	40
167	39	38
91	102	-22
5	122	-12
-76	86	22
-134	19	24
-181	-43	16
-217	-70	-1
-242	-60	-7
-240	-31	-1
-191	-6	-26
-102	-4	-57
14	-14	-75
123	-21	-64
201	-3	-11
231	38	-10
222	89	9
186	125	-34
136	119	-112
80	65	-91
11	-27	3
-53	-129	27
-103	-208	-15
-113	-235	-17
-78	-195	-70
-16	-100	-71
35	21	-8
40	121	-6
-3	170	-67
-66	157	-96
-95	96	-44
-41	28	4
93	-9	37
261	5	23
374	53	0
371	104	16
216	112	10
-43	62	-26
-315	-30	19
-506	-120	65
-558	-157	-14
-474	-116	-98
-302	-17	-151
-116	85	-142
28	126	-111
101	68	-125
114	-61	-61
97	-204	-25
75	-280	7
61	-248	45
54	-127	46
46	10	47
34	88	35
13	65	54
-8	-33	45
-30	-142	9
-45	-187	-34
-56	-147	-19
-57	-53	-3
-46	31	-18
-20	55	-27
22	23	-22
67	-24	-8
104	-27	-45
115	41	-141
102	157	-190
74	261	-121
46	299	-87
36	250	-52
38	142	35
44	24	71
28	-68	94
-15	-131	57
-85	-170	5
-156	-201	-4
-198	-216	16
-191	-196	16
-123	-123	9
-10	-8	-28
125	110	-80
248	190	-55
334	201	-26
358	160	-76
317	103	-86
215	72	26
72	85	48
-77	120	12
-201	142	-42
-266	121	-39
-262	63	-57
-194	-11	-77
-91	-58	-19
20	-64	-50
113	-38	-78
172	-6	-36
202	1	9
204	-24	6
175	-69	34
118	-104	-22
23	-101	-60
-99	-57	-42
-229	12	-38
-338	75	18
-407	100	17
-419	67	76
-375	-15	113
-288	-116	-1
-173	-194	-145
-42	-213	-189
89	-168	-128
209	-83	-92
291	-5	-60
319	26	-56
280	-3	-45
190	-65	6
74	-110	11
-25	-95	38
-80	-14	48
-82	93	37
-48	165	22
-10	153	-2
4	56	8
-18	-78	-10
-64	-181	1
-113	-196	29
-140	-127	58
-127	-13	35
-77	82	-62
4	112	-21
96	76	29
182	8	-30
242	-45	-161
265	-57	-281
239	-28	-155
162	12	-58
52	31	-15
-74	22	91
-177	-7	71
-237	-28	42
-245	-22	-26
-211	16	-25
-158	67	7
-102	104	-40
-53	104	-108
-1	61	-119
60	-2	-48
135	-56	6
216	-67	-6
285	-23	-6
320	61	13
308	153	-34
255	206	-52
170	201	-77
63	134	-18
-56	40	1
-182	-35	-43
-289	-62	-18
-355	-34	1
-358	17	24
-291	55	18
-180	43	11
-66	-16	19
9	-92	24
23	-139	26
-11	-124	34
-52	-53	48
-66	35	21
-39	79	15
10	37	-12
54	-89	-85
62	-243	-82
35	-343	-101
-2	-328	-176
-25	-190	-117
-16	15	-59
15	187	-62
50	244	0
72	156	13
78	-22	26
81	-190	59
92	-249	68
114	-167	4
129	13	-45
125	194	-69
89	282	-111
29	244	-100
-33	117	-27
-78	-12	17
-93	-67	-25
-83	-35	-6
-58	43	-50
-37	93	-118
-24	68	-75
-17	-18	-24
-15	-108	-22
-8	-133	-6
7	-70	17
34	47	2
74	149	13
117	171	76
142	102	85
127	-18	52
60	-121	80
-56	-162	53
-187	-136	-30
-288	-87	-121
-324	-57	-153
-285	-71	-142
-194	-108	-137
-87	-125	-56
2	-89	9
59	9	80
98	135	103
136	243	82
183	286	11
228	253	-81
244	155	-93
212	23	-114
133	-103	-59
26	-198	-47
-79	-238	-124
-162	-226	-71
-206	-166	7
-211	-86	56
-180	-6	49
-113	55	37
-24	93	25
64	110	-21
131	112	-58
147	101	-119
107	72	-85
35	27	-112
-28	-28	-140
-49	-74	-110
-20	-84	-47
35	-53	57
75	4	90
70	55	100
23	61	81
-36	17	66
-76	-55	-7
-69	-106	-60
-33	-92	-30
12	-1	-38
35	135	-40
34	252	14
26	288	-22
30	217	-40
52	63	47
80	-115	6
88	-243	-79
61	-272	-84
1	-198	-70
-66	-61	-27
-126	67	-28
-163	125	-84
-186	75	-41
-204	-64	-52
-214	-238	-45
-202	-364	-24
-145	-376	-32
-38	-246	35
99	-12	16
222	241	4
288	416	36
287	445	79
226	325	84
140	114	32
57	-95	0
-12	-210	-35
-76	-200	-75
-140	-90	-140
-202	49	-166
-241	135	-136
-231	124	-76
-169	19	15
-70	-125	61
25	-238	104
89	-261	118
110	-183	65
103	-41	31
94	99	-15
102	170	-95
131	143	-140
164	39	-112
184	-68	-50
172	-108	-67
131	-43	-83
65	97	-24
-16	224	-5
-99	244	-44
-173	118	-64
-215	-110	-78
-221	-326	-131
-183	-419	-129
-114	-331	-90
-42	-116	-47
18	104	62
56	214	138
80	178	113
96	53	119
110	-43	92
112	-27	16
84	96	-42
18	233	-47
-76	272	-19
-165	158	-54
-213	-62	-121
-197	-270	-132
-125	-345	-60
-28	-254	-63
56	-54	-39
106	133	39
126	221	60
137	191	37
164	106	-71
211	51	-103
258	68	-60
271	135	-5
222	186	10
98	160	-26
-82	60	-3
-272	-65	-15
-424	-151	-52
-497	-163	-40
-480	-124	-14
-379	-85	19
-232	-81	30
-72	-107	20
62	-126	35
163	-89	20
234	8	-29
276	127	-66
294	203	-74
279	197	-5
229	116	-21
147	12	-64
50	-51	-13
-30	-52	-5
-76	-12	24
-81	16	52
-62	-9	74
-54	-88	87
-70	-173	89
-114	-202	87
-154	-150	-14
-159	-32	-161
-110	86	-240
-17	150	-147
85	127	-88
159	39	-119
167	-59	-113
115	-113	-126
25	-96	-89
-63	-21	-60
-111	65	-99
-97	110	-115
-23	85	-134
84	-12	-117
182	-145	60
228	-260	186
190	-304	161
74	-245	178
-89	-88	141
-234	118	118
-312	301	66
-288	392	-35
-186	349	-61
-53	185	-124
44	-34	-195
69	-233	-223
29	-345	-158
-43	-348	-49
-97	-273	66
-106	-164	74
-72	-70	102
-29	-9	149
0	27	65
13	58	-21
28	98	-89
77	137	-112
162	164	-127
266	166	-64
343	149	-34
344	121	-42
248	96	-60
75	79	-149
-126	50	-63
-291	6	32
-372	-53	-16
-352	-108	-28
-248	-126	7
-100	-102	12
39	-43	46
132	17	112
161	41	116
136	17	63
93	-30	8
65	-58	-40
79	-34	-111
121	48	-35
165	150	31
166	221	-13
100	215	-54
-25	136	-117
-169	16	-82
-279	-97	-101
-313	-165	-134
-260	-185	-125
-147	-174	-126
-13	-154	-76
95	-132	-32
159	-97	21
175	-36	85
159	47	152
121	126	168
71	168	123
21	148	21
-29	78	-80
-70	-2	-88
-95	-53	-65
-99	-52	-99
-77	-18	-105
-33	18	-56
20	22	-69
68	-6	-49
95	-38	4
83	-31	1
27	35	-21
-60	138	-61
-151	215	-93
-207	215	-70
-201	109	-59
-131	-72	-4
-27	-254	52
67	-353	82
114	-336	95
107	-224	25
71	-84	-13
46	10	-6
56	28	-76
87	-11	-110
104	-55	-52
69	-56	-9
-16	-3	-23
-112	79	-60
-161	144	26
-116	163	69
7	135	18
148	94	-28
228	61	-97
195	45	-123
65	30	-92
-101	-12	-34
-225	-85	1
-259	-169	30
-212	-222	65
-129	-215	61
-59	-153	38
-26	-66	58
-15	3	102
2	35	66
39	40	15
85	47	-49
111	74	-104
97	122	-134
51	165	-153
3	171	-118
-14	130	-94
11	57	-27
53	-13	-30
75	-57	-16
48	-70	41
-18	-74	15
-88	-85	-57
-112	-108	-201
-70	-119	-149
18	-89	-69
107	-2	-40
156	127	10
151	257	9
115	336	49
90	335	43
102	250	6
147	112	-34
176	-41	-69
154	-168	-83
52	-246	-54
-104	-262	-46
-258	-217	-30
-357	-133	-2
-362	-37	10
-291	30	40
-186	41	30
-91	-5	27
-33	-79	4
-10	-124	-53
5	-99	-34
38	7	20
92	142	24
151	233	23
191	208	5
184	53	19
126	-169	44
26	-361	39
-91	-421	17
-198	-318	-23
-267	-99	-60
-277	129	-111
-218	257	-137
-88	238	-135
90	103	-60
277	-52	7
422	-135	62
478	-102	151
430	21	140
291	156	97
110	233	42
-69	211	-65
-203	123	-148
-277	15	-142
-295	-60	-105
-279	-93	-119
-249	-99	-170
-214	-106	-119
-182	-126	-23
-144	-140	-33
-105	-120	-26
-57	-45	-19
-8	71	-17
44	191	-25
93	267	34
128	265	76
143	191	-51
132	67	-61
100	-56	17
54	-151	3
9	-196	-50
-30	-191	20
-61	-147	21
-85	-71	-26
-96	13	-67
-86	88	-104
-50	124	-25
18	102	-34
104	25	16
184	-82	43
232	-162	-4
234	-171	-71
196	-86	-162
136	64	-82
88	212	-12
54	284	6
32	237	-42
2	84	-63
-56	-110	-28
-138	-259	-87
-229	-311	-82
-288	-263	-17
-295	-168	5
-241	-91	14
-140	-64	44
-30	-78	9
60	-82	-28
115	-34	18
129	67	34
122	183	28
107	253	15
97	241	9
85	161	24
60	64	30
9	8	24
-58	6	14
-126	27	22
-166	20	20
-152	-40	9
-81	-135	-14
22	-192	-34
118	-160	-54
172	-27	-81
171	138	-80
132	241	-47
94	211	14
86	51	45
114	-153	37
144	-292	21
133	-297	18
44	-171	-6
-113	0	-81
-291	117	-136
-425	118	-132
-451	23	-152
-366	-92	-162
-208	-145	-126
-47	-102	-108
58	14	-41
94	135	-3
84	204	30
76	205	60
103	164	60
164	123	74
228	112	77
244	120	123
190	112	126
71	62	16
-69	-31	-83
-185	-137	-164
-239	-212	-229
-231	-228	-165
-173	-186	-55
-99	-110	-18
-29	-34	24
32	25	65
86	68	57
140	103	-28
193	134	-186
231	149	-171
237	132	-70
204	72	-7
135	-23	-2
42	-126	-27
-50	-203	54
-126	-225	48
-173	-188	-44
-181	-111	-62
-156	-24	-11
-105	40	-19
-48	68	-24
-1	64	-4
19	42	-17
13	20	-46
-15	14	-63
-47	24	10
-63	43	49
-52	59	62
-8	54	79
51	24	61
106	-27	49
128	-81	-7
110	-118	-40
54	-122	-38
-16	-94	-49
-74	-47	-42
-97	-1	-70
-80	23	-117
-35	20	-72
15	-4	28
50	-30	61
62	-43	18
55	-34	-8
42	-5	-9
34	28	-50
33	52	-99
33	53	-101
31	29	-50
26	-11	-23
29	-50	-42
49	-67	-79
83	-50	-64
107	1	-35
89	72	-40
2	135	5
-141	166	20
-304	149	16
-418	98	16
-425	39	20
-319	0	38
-134	-13	29
49	-5	5
162	-1	-60
172	-24	-64
105	-71	-40
16	-127	-37
-40	-158	21
-42	-141	74
-8	-84	76
29	-8	52
41	50	-49
32	76	-125
34	68	-109
70	52	-92
144	45	-97
229	53	-70
276	65	-36
261	58	-43
184	28	-60
82	-18	-92
-7	-51	-58
-58	-53	-3
-82	-19	-23
-95	31	-48
-124	70	-18
-166	83	6
-203	68	16
-211	48	-3
-178	35	32
-115	28	61
-45	13	-28
5	-30	-72
32	-94	-49
41	-153	15
44	-168	40
54	-124	41
61	-44	19
58	20	-64
37	12	-92
5	-83	-43
-24	-228	1
-34	-340	-33
-15	-344	-97
20	-219	-36
60	-13	6
86	182	-48
97	282	-32
101	261	-39
109	169	-9
126	86	57
140	77	65
135	149	40
85	235	-32
-12	257	-75
-134	163	-96
-250	-18	-47
-312	-211	-17
-295	-322	-14
-198	-309	1
-55	-190	-17
85	-38	-20
178	68	-22
199	90	-32
151	41	-43
66	-25	-19
-18	-60	9
-79	-45	3
-100	5	-18
-93	57	-24
-79	89	34
-76	91	40
-94	77	26
-125	55	64
-153	24	40
-154	-22	42
-115	-89	7
-40	-160	-108
50	-200	-157
132	-181	-113
186	-89	-123
199	50	-193
183	185	-206
151	260	-161
121	248	-61
99	160	12
72	41	82
39	-53	120
-12	-96	130
-64	-85	125
-106	-46	99
-112	-14	20
-81	-7	-119
-25	-21	-143
32	-29	-12
61	-18	11
49	22	-64
2	72	-65
-53	105	-41
-94	100	-47
-102	55	-87
-77	-8	-86
-37	-60	-46
-3	-79	-42
5	-59	-43
-15	-25	-17
-51	-5	-17
-85	-17	41
-95	-51	60
-74	-82	14
-30	-66	-12
22	7	-37
65	120	-77
89	222	-70
96	247	-2
98	168	1
106	2	-85
123	-182	-79
139	-307	57
142	-317	60
115	-218	15
55	-76	-13
-25	37	-19
-98	67	-7
-129	23	-21
-101	-40	16
-15	-55	30
99	9	-2
192	123	-87
222	213	-111
165	203	-80
34	70	-49
-123	-140	-17
-254	-332	-19
-325	-418	-7
-325	-358	11
-281	-192	41
-228	-9	32
-189	106	22
-166	121	20
-134	64	-7
-68	6	-48
39	13	-96
163	105	-57
260	238	10
291	336	-5
234	327	-61
113	200	-26
-31	-1	9
-141	-195	-75
-177	-295	-196
-134	-263	-134
-36	-124	30
69	45	8
141	162	22
150	166	59
93	55	83
-2	-108	76
-95	-243	7
-145	-277	24
-137	-189	57
-70	-15	-20
24	168	-135
116	279	-117
172	287	-93
188	203	-113
170	85	-210
131	-5	-241
87	-33	-136
42	-11	-11
-4	19	105
-58	16	87
-114	-37	76
-157	-110	49
-175	-160	7
-161	-144	-48
-116	-62	-50
-54	48	-6
8	136	44
59	158	117
96	108	17
113	18	-60
118	-58	-92
111	-81	-49
101	-40	-22
90	39	-49
78	116	48
56	156	49
20	139	58
-32	81	48
-92	-1	19
-131	-80	56
-129	-133	-32
-67	-154	-131
33	-142	-183
132	-105	-171
185	-56	-66
160	-9	-25
69	16	-52
-37	14	-38
-106	-19	-24
-105	-62	-8
-50	-101	42
5	-110	57
4	-89	36
-75	-51	37
-205	-14	28
-321	0	-71
-363	-10	-144
-300	-36	-109
-157	-57	-90
16	-55	-75
171	-22	-8
274	43	57
329	127	70
344	211	38
318	272	-22
234	279	-49
81	213	-26
-126	75	-21
-336	-104	-20
-473	-273	15
-496	-364	15
-390	-343	-52
-209	-223	-70
-32	-57	-48
87	68	-12
124	105	57
117	48	47
109	-44	-11
137	-98	-60
193	-68	-90
242	33	-123
251	143	-149
204	195	-86
122	160	-45
36	68	-60
-27	-10	-24
-71	-26	41
-106	16	81
-144	59	116
-185	37	92
-204	-76	48
-180	-230	-22
-104	-331	-65
3	-296	-66
107	-118	-209
180	120	-228
207	301	-107
201	333	-56
178	221	3
153	49	41
120	-68	45
75	-61	65
12	49	76
-60	178	85
-122	233	78
-153	174	61
-144	48	70
-99	-72	41
-31	-122	-30
39	-98	-96
97	-43	-36
133	-15	26
141	-27	-53
119	-49	-131
75	-32	-144
23	43	-151
-14	143	-140
-25	197	-76
-16	142	-34
-10	-13	-12
-30	-210	6
-91	-351	13
-175	-371	-1
-242	-275	-26
-253	-132	15
-200	-23	42
-107	19	32
-20	14	15
16	20	-112
-3	77	-200
-49	174	-137
-72	253	-77
-45	241	-14
31	118	55
118	-71	55
169	-238	45
156	-301	77
84	-243	111
-8	-116	117
-91	-2	63
-141	35	-2
-162	-2	-43
-160	-63	-69
-137	-81	-112
-91	-24	-118
-7	84	-13
105	187	-9
215	237	-108
288	215	-108
288	158	-48
211	100	-48
83	55	-52
-49	12	-83
-141	-64	-141
-174	-177	-149
-156	-299	-90
-112	-366	21
-71	-326	38
-44	-183	83
-27	11	155
-3	174	87
37	237	-39
91	196	-36
147	102	70
181	30	38
181	29	-10
148	95	-34
87	169	-27
22	191	27
-32	127	12
-68	0	-23
-84	-133	-100
-86	-216	-131
-85	-223	-131
-88	-168	-95
-95	-93	-27
-99	-30	4
-88	11	-20
-51	47	-41
6	96	22
74	160	38
129	215	7
155	233	-31
139	189	-80
93	95	-86
36	-12	-42
-8	-97	-58
-27	-130	-22
-26	-119	60
-20	-85	60
-28	-51	67
-53	-29	21
-84	-7	-16
-96	19	-6
-77	57	-27
-24	94	-50
40	109	-118
85	90	-106
86	40	-7
42	-19	-2
-28	-70	-16
-92	-105	-38
-128	-131	-20
-135	-161	-12
-130	-190	-27
-136	-200	13
-166	-159	30
-208	-56	49
-233	88	62
-214	209	105
-139	237	110
-22	132	49
106	-70	-33
216	-281	-121
294	-386	-195
328	-307	-232
324	-67	-152
285	224	-147
216	427	-194
123	434	-76
20	251	41
-75	-32	60
-136	-262	85
-162	-337	56
-158	-232	-3
-143	-34	-86
-132	126	-110
-121	157	-64
-96	41	32
-36	-136	135
52	-264	102
145	-264	92
203	-129	-2
195	66	-54
122	218	-36
22	253	-59
-57	169	-27
-82	15	-47
-50	-119	-65
-1	-175	-116
28	-143	-133
7	-52	-105
-56	41	-118
-125	103	-119
-159	119	-62
-130	109	26
-52	95	58
50	91	45
130	97	29
163	98	51
139	89	27
76	64	15
-3	35	33
-72	12	31
-113	-4	51
-121	-9	40
-97	-10	29
-47	-5	2
13	7	-44
71	20	-95
111	28	-137
122	11	-103
101	-36	-77
54	-107	-65
-2	-170	-28
-52	-192	1
-79	-156	22
-76	-65	41
-49	32	37
-12	96	20
23	101	-7
51	62	-35
72	22	-55
96	22	-61
121	68	-27
139	131	-25
127	164	-46
68	123	-29
-37	20	9
-164	-98	-5
-267	-171	-11
-304	-166	22
-258	-94	28
-154	-11	-51
-34	25	-99
46	-12	-63
60	-100	-36
21	-186	-7
-39	-215	19
-81	-169	49
-92	-64	63
-82	46	48
-78	120	-10
-93	127	-61
-113	74	-112
-110	-14	-185
-47	-99	-223
72	-142	-141
219	-130	-7
337	-62	-10
369	33	-33
299	118	-90
147	151	-116
-28	117	2
-166	34	102
-231	-46	105
-229	-71	17
-183	-13	-22
-133	108	-34
-99	231	-64
-68	278	-15
-27	215	19
46	54	49
151	-130	119
256	-259	107
322	-276	-3
319	-188	-149
242	-54	-141
117	53	-82
-8	85	-140
-103	45	-94
-148	-21	3
-148	-58	49
-124	-36	116
-97	27	102
-77	86	20
-59	91	-65
-37	30	-34
-3	-72	24
33	-157	-20
65	-168	-75
81	-89	-105
72	51	-61
46	195	26
12	278	53
-15	272	12
-30	182	-35
-28	49	-56
-16	-82	-68
-2	-175	-40
7	-225	9
2	-231	-13
-7	-206	-57
-13	-162	-65
-2	-100	-81
31	-27	-103
74	50	-89
107	120	-34
108	171	37
66	199	77
-11	197	72
-100	168	76
-172	106	71
-218	24	7
-240	-69	-80
-252	-152	-90
-259	-196	-103
-250	-190	-75
-198	-137	-76
-80	-65	-95
96	-6	-44
288	19	-41
423	19	7
436	14	42
306	24	51
81	51	52
-150	70	-34
-288	50	-70
-285	-24	-105
-161	-130	-108
10	-215	-74
127	-229	-106
135	-150	-59
33	-14	-23
-120	116	-4
-245	180	4
-287	166	-30
-228	110	-26
-100	71	-7
44	84	26
165	130	42
234	161	7
254	117	2
242	-3	78
208	-154	112
159	-253	127
94	-237	97
9	-112	-3
-89	54	-59
-181	168	-169
-249	162	-215
-269	47	-143
-229	-106	-55
-126	-205	63
19	-190	55
175	-67	53
297	99	37
351	233	1
328	277	-28
242	228	-76
125	121	-36
9	7	-91
-86	-77	-39
-155	-123	32
-203	-140	24
-236	-145	102
-247	-148	18
-225	-140	-94
-159	-114	-103
-55	-62	-162
60	8	-171
159	83	-93
221	140	-51
240	162	-47
234	140	-43
216	85	-26
208	18	-44
201	-36	-88
184	-59	-87
136	-51	-14
46	-33	65
-84	-28	41
-240	-56	0
-390	-110	-2
-503	-163	26
-540	-179	12
-472	-139	-28
-303	-55	-29
-63	38	8
172	96	57
340	94	49
389	39	39
314	-26	-15
164	-60	-26
2	-41	-11
-120	19	-72
-185	85	-132
-207	119	-155
-223	103	-123
-245	55	17
-262	4	116
-241	-24	115
-157	-24	160
-16	-16	134
140	-17	7
261	-29	-161
314	-32	-153
301	-1	-90
253	74	-116
209	169	-35
179	235	-5
154	223	-10
104	119	-56
20	-38	-91
-83	-179	-70
-164	-237	-92
-190	-181	-14
-157	-47	43
-91	86	46
-40	139	37
-36	80	14
-78	-65	-8
-122	-222	-18
-124	-300	20
-57	-261	52
65	-122	35
190	42	-50
259	152	-84
238	158	-100
136	70	-109
3	-46	-41
-104	-127	-5
-142	-129	-20
-107	-70	-26
-26	-2	-39
52	19	-69
97	-26	-51
91	-102	-57
47	-148	-57
-6	-111	-6
-47	13	13
-58	173	21
-45	296	20
-18	321	3
0	244	-44
2	114	-20
-7	-2	-33
-23	-59	-58
-24	-51	-6
-10	-13	-27
20	13	-33
44	10	7
46	-12	28
17	-22	16
-34	0	-12
-79	49	-62
-89	101	-19
-46	124	52
30	113	4
103	76	-37
129	31	-39
86	-9	-44
-12	-55	-132
-125	-123	-100
-199	-214	1
-207	-306	-56
-149	-361	-108
-57	-345	-121
22	-253	-69
67	-119	-20
66	11	37
43	100	104
19	139	119
10	150	143
14	162	112
20	183	57
19	202	-25
4	194	-109
-17	145	-103
-39	64	-98
-52	-19	-107
-57	-74	-60
-54	-90	26
-48	-77	0
-42	-56	-71
-38	-40	-63
-38	-21	-79
-37	10	-8
-30	57	3
-6	104	-82
41	114	-79
111	60	-16
180	-51	21
216	-179	6
201	-263	-16
117	-261	-74
-8	-179	-12
-138	-61	45
-232	28	-11
-258	51	-34
-221	16	-7
-139	-35	24
-46	-44	-18
35	13	-17
99	123	-9
150	237	-61
195	298	-119
230	273	-92
248	174	-34
239	41	-30
201	-77	-3
140	-149	14
69	-167	41
-4	-151	45
-81	-125	24
-158	-112	19
-233	-114	3
-288	-122	24
-299	-121	51
-253	-96	34
-153	-42	24
-30	32	-5
75	108	-28
133	169	-104
151	196	-213
150	177	-151
156	116	-129
187	20	-92
214	-84	-39
191	-166	-22
84	-198	48
-103	-166	24
-317	-79	51
-459	32	53
-470	118	52
-325	145	-14
-86	102	-147
151	17	-131
294	-55	-65
306	-70	-17
211	-6	-2
78	110	57
-29	228	51
-78	287	-11
-78	261	-74
-61	157	-31
-59	15	32
-69	-118	-37
-75	-213	-44
-58	-254	-63
-17	-260	-9
23	-238	-48
38	-201	-145
15	-152	-78
-29	-88	-41
-62	-22	-28
-59	36	21
-15	74	25
50	89	-22
105	92	16
125	96	62
111	114	4
78	139	-62
43	160	-44
21	150	-13
4	97	36
-12	6	84
-36	-108	72
-62	-211	40
-75	-275	-1
-64	-282	-47
-30	-230	-89
18	-135	-94
61	-19	-58
82	93	-2
69	189	20
26	253	-8
-37	279	-32
-101	254	-39
-147	163	-60
-156	1	-91
-122	-203	-107
-56	-393	-59
18	-497	-39
74	-460	-70
94	-282	-58
81	-28	-30
54	211	1
40	344	31
54	340	30
87	229	-39
113	87	-82
107	-13	10
67	-41	64
14	-16	35
-17	16	42
-3	24	53
44	6	-11
93	-8	-52
87	9	-28
6	62	-51
-129	123	4
-262	147	19
-321	115	-136
-279	35	-209
-147	-51	-81
14	-108	14
130	-114	3
164	-81	49
122	-38	29
52	-7	-60
5	8	-108
6	17	-103
41	31	-136
70	51	-98
59	67	13
-2	57	62
-88	25	68
-145	-17	62
-134	-46	45
-43	-50	-8
100	-25	2
239	12	8
317	36	-24
299	41	-15
184	25	-23
12	8	-64
-168	-1	-92
-303	8	-136
-365	23	-141
-360	27	-82
-308	2	-15
-242	-60	35
-180	-144	63
-124	-223	118
-65	-252	123
8	-201	101
93	-71	76
175	105	11
238	261	-80
263	335	-201
253	280	-242
216	119	-152
172	-91	-27
130	-268	15
89	-351	51
42	-330	54
-13	-245	44
-77	-157	60
-129	-110	38
-161	-109	68
-160	-125	77
-130	-114	46
-90	-54	27
-52	41	-22
-31	139	-93
-20	209	-170
-10	237	-228
7	230	-295
31	207	-227
59	171	-12
89	119	37
111	37	55
126	-59	90
128	-143	-4
107	-171	26
55	-117	32
-31	2	28
-136	139	56
-222	235	6
-248	247	-28
-197	181	-127
-84	74	-71
40	-21	-110
118	-74	-224
124	-75	-80
66	-49	2
0	-24	21
-24	-17	39
16	-35	29
94	-69	35
147	-112	3
122	-149	-43
12	-169	-99
-129	-161	-80
-226	-116	-27
-217	-40	8
-100	47	84
66	117	91
207	147	77
262	131	39
231	93	31
159	64	41
104	67	3
90	106	2
98	148	-3
81	161	14
-2	122	-63
-144	44	-121
-296	-38	-124
-378	-91	-139
-351	-93	-154
-218	-64	-157
-43	-38	-50
97	-48	-54
154	-104	2
115	-179	98
28	-235	71
-50	-238	24
-76	-192	-61
-43	-122	-63
14	-60	-49
63	-29	-40
74	-18	-8
48	-2	14
3	41	6
-35	114	-1
-54	189	-27
-57	221	-51
-51	188	-59
-44	96	-38
-31	-18	65
-4	-104	72
39	-129	40
93	-96	1
136	-35	-38
144	16	-40
102	35	-12
12	28	26
-106	17	48
-217	17	29
-297	24	-41
-320	15	-57
-280	-32	-86
-188	-114	-137
-56	-196	-92
81	-228	-41
197	-171	-111
269	-34	-154
280	131	-82
238	256	-35
155	290	-22
58	231	0
-25	119	-6
-84	8	36
-117	-60	32
-124	-85	-8
-114	-87	-25
-88	-87	-64
-48	-84	-39
-5	-62	-29
36	-8	-2
62	74	4
78	150	-9
91	179	20
117	139	-22
161	49	-43
214	-48	45
255	-110	84
252	-122	87
195	-99	98
96	-71	59
-16	-57	7
-105	-53	-75
-148	-38	-76
-139	-4	-76
-101	36	-101
-53	51	-52
-16	16	-28
5	-50	-6
11	-102	0
3	-83	-38
-14	25	-23
-40	179	4
-64	295	-55
-79	291	-107
-71	154	-133
-49	-68	-194
-28	-263	-172
-32	-346	-116
-77	-283	-51
-150	-133	63
-221	11	112
-245	72	90
-195	32	49
-82	-57	14
72	-114	-25
210	-81	-53
284	43	0
277	197	52
198	301	33
83	301	-7
-27	197	17
-95	35	80
-101	-112	22
-49	-202	20
27	-218	-25
82	-181	-213
68	-127	-198
-36	-85	-60
-212	-65	-14
-405	-62	-33
-525	-65	-29
-509	-61	1
-348	-45	16
-88	-19	-13
169	19	-39
336	58	-54
369	93	-85
285	106	-64
151	90	-4
41	47	39
-6	-12	74
5	-63	56
36	-92	-7
50	-84	-60
35	-46	-96
4	6	-45
-11	62	-72
6	113	-111
51	153	-20
100	174	-36
125	171	43
125	138	86
111	71	11
107	-5	56
120	-66	18
141	-89	-49
149	-69	-74
113	-31	-68
30	-3	-37
-85	-8	-8
-191	-34	-8
-259	-51	-19
-264	-23	-7
-215	51	50
-128	135	61
-28	169	-30
68	112	-43
145	-20	-56
196	-169	-159
216	-248	-205
202	-212	-145
148	-81	-101
65	63	-51
-28	125	-4
-102	61	49
-141	-98	96
-140	-256	126
-113	-319	108
-83	-237	-19
-61	-49	-41
-55	147	-40
-51	262	9
-38	258	34
-12	168	43
16	59	78
24	10	8
1	30	-46
-51	83	-91
-112	106	-80
-155	59	-110
-159	-47	-153
-130	-168	-75
-83	-238	46
-27	-224	91
28	-140	13
93	-34	-65
170	45	-74
242	72	-36
275	60	-42
229	38	-109
91	35	-76
-106	49	24
-287	61	-17
-383	35	-9
-343	-37	34
-195	-138	-2
-12	-222	-23
123	-240	-48
162	-181	-60
116	-66	-66
38	46	-60
-12	113	-70
-20	112	-79
-8	68	-76
-18	25	-25
-66	18	37
-126	56	52
-141	110	56
-61	147	45
100	139	32
283	104	-81
402	67	-92
395	54	30
265	68	-53
81	69	-107
-80	24	9
-159	-83	69
-160	-217	-24
-127	-318	-69
-107	-325	-40
-115	-223	-35
-130	-47	-10
-115	129	-83
-50	244	-70
46	277	-35
130	249	2
158	203	81
112	174	79
23	158	81
-65	131	67
-113	65	37
-107	-33	-69
-65	-131	-127
-17	-192	-41
15	-192	7
24	-157	-13
25	-123	24
29	-130	67
48	-174	19
79	-210	-84
116	-192	-121
150	-89	-96
170	70	-126
171	225	-92
149	313	7
105	309	22
50	235	-47
7	138	-41
-10	58	-17
1	-4	-10
19	-70	35
4	-159	45
-77	-253	63
-224	-311	16
-390	-282	-53
-513	-166	-85
-524	-5	-160
-399	117	-192
-182	143	-156
52	70	-105
216	-42	-31
258	-118	-30
195	-108	-11
80	-29	33
-21	52	33
-71	72	51
-72	18	57
-55	-69	42
-52	-121	25
-71	-96	32
-93	-18	32
-85	48	13
-31	40	18
63	-45	47
169	-144	20
245	-169	-76
280	-64	-103
265	137	-15
216	338	-39
152	419	-94
89	325	-8
29	98	32
-28	-155	7
-86	-312	13
-140	-315	32
-190	-190	-37
-215	-25	-68
-208	91	-104
-159	121	-159
-66	88	-149
44	53	-124
150	63	-74
212	127	-80
210	208	-62
148	252	-9
52	233	30
-34	139	67
-81	12	93
-77	-120	70
-42	-219	48
-12	-271	36
-11	-268	-31
-38	-213	-113
-71	-117	-124
-80	5	-52
-44	119	-15
22	195	65
98	211	41
148	170	-36
158	93	-3
137	5	7
102	-67	16
72	-116	-40
48	-139	-24
21	-140	14
-14	-121	-58
-51	-84	-173
-67	-32	-141
-50	22	-82
2	64	-95
57	90	-5
81	103	-13
42	109	-24
-52	110	-21
-161	95	13
-232	48	29
-232	-34	15
-169	-127	35
-90	-192	15
-48	-187	13
-79	-109	-12
-157	-2	3
-232	64	1
-247	36	25
-173	-82	70
-35	-227	62
111	-303	29
211	-242	-18
241	-49	-20
214	194	-38
170	378	-31
136	424	-62
117	325	-117
93	143	-157
38	-35	-76
-40	-158	49
-124	-215	-13
-172	-240	-86
-165	-257	-96
-111	-270	-55
-51	-251	-78
-21	-171	-36
-31	-42	21
-55	92	85
-47	169	101
22	160	-1
144	83	-62
265	0	-92
320	-25	-110
269	26	-206
123	123	-150
-53	195	-49
-190	190	3
-240	106	74
-202	-14	119
-124	-100	94
-57	-110	79
-30	-44	47
-32	47	-93
-24	117	-142
21	132	-155
103	102	-69
184	55	10
226	19	3
201	6	13
128	3	22
42	0	11
-11	-13	26
-24	-33	11
-8	-55	-41
-1	-76	38
-27	-93	35
-83	-104	13
-142	-99	-31
-176	-65	-154
-169	-8	-76
-126	55	-35
-70	90	-48
-18	71	1
24	-2	-18
64	-87	-8
107	-136	-20
154	-116	-23
196	-37	10
225	48	32
236	85	65
231	44	37
207	-44	-13
156	-122	-14
57	-131	-53
-88	-61	-118
-258	51	-166
-393	138	-183
-444	158	-107
-371	112	-70
-199	53	-13
-7	36	36
123	89	22
131	179	15
28	243	29
-117	214	38
-224	82	-16
-236	-119	-35
-172	-316	-84
-87	-435	-58
-49	-446	26
-81	-362	79
-150	-227	152
-190	-94	112
-149	4	23
-22	51	-84
142	62	-120
280	53	-121
336	48	-133
310	64	-112
236	106	-89
165	168	-2
122	215	1
107	228	-33
91	174	-90
50	71	-37
-18	-49	53
-94	-136	31
-156	-150	67
-180	-90	-11
-164	13	-78
-116	97	-60
-43	120	-39
46	70	-59
144	-18	-60
238	-94	39
300	-114	87
301	-67	49
236	14	4
115	93	30
-21	134	18
-136	129	-22
-206	89	-34
-223	37	-25
-194	-7	-81
-134	-43	-77
-49	-75	-25
44	-104	-60
127	-125	-11
166	-129	-2
130	-112	-38
22	-77	-86
-126	-36	-66
-243	3	17
-262	34	7
-158	59	8
30	80	22
216	81	31
318	53	-35
276	-13	-67
122	-98	-39
-77	-169	-89
-237	-185	-106
-315	-126	-71
-312	-6	-70
-263	128	-22
-210	224	38
-160	243	19
-100	190	-50
-16	97	-158
85	4	-109
175	-70	8
216	-126	22
188	-167	69
104	-190	87
3	-182	56
-75	-121	10
-101	-13	-40
-81	108	-62
-33	191	-71
20	191	-51
71	104	-28
117	-26	14
154	-134	65
170	-168	26
151	-121	26
93	-27	31
10	64	1
-61	116	15
-95	117	-34
-77	88	-112
-31	47	-122
9	-1	-126
13	-57	-117
-26	-127	-82
-88	-192	-117
-139	-216	-67
-156	-171	-14
-134	-56	35
-85	85	82
-26	186	52
34	195	24
99	103	-42
165	-41	-53
216	-163	-8
236	-203	12
195	-149	0
94	-38	2
-37	64	-42
-157	109	-55
-221	83	-65
-217	22	-30
-167	-25	36
-104	-26	31
-62	21	76
-49	89	37
-45	139	-43
-25	145	-91
35	106	-67
128	49	-20
239	-2	-32
325	-21	-13
355	-11	-19
311	17	-69
188	36	-55
16	33	-40
-164	3	0
-302	-41	12
-354	-81	-2
-308	-98	29
-188	-85	-7
-43	-47	-61
69	-1	-112
114	38	-109
91	62	-37
31	80	27
-22	102	-64
-41	135	-100
-23	171	15
12	185	7
35	150	28
32	51	41
-1	-88	45
-54	-225	34
-112	-301	-43
-157	-286	-69
-174	-193	-109
-150	-71	-91
-79	13	-24
24	28	48
130	-25	17
199	-93	-5
206	-119	28
150	-72	-28
60	32	-69
-17	143	-77
-51	215	-15
-43	229	65
-19	204	94
-14	174	29
-42	145	-46
-93	95	-25
-123	-24	-67
-102	-223	-154
-16	-456	-131
107	-617	-55
222	-596	-63
275	-358	-115
245	27	-93
142	404	-33
-5	605	-9
-152	538	13
-262	247	26
-310	-123	86
-288	-399	71
-215	-474	-21
-119	-358	-53
-38	-154	-63
6	12	-14
4	71	-17
-22	37	-37
-47	-19	19
-40	-23	57
4	45	-9
76	160	-4
153	257	39
210	292	28
241	261	22
240	188	-42
210	105	-82
148	30	-44
50	-35	-36
-67	-97	-50
-183	-142	-12
-259	-151	-19
-266	-108	-58
-202	-21	-102
-100	67	-136
-5	113	-123
42	85	-89
42	1	-38
36	-90	-23
62	-123	49
150	-70	110
274	49	103
374	175	111
393	244	48
297	219	-35
116	114	-103
-88	-20	-82
-234	-124	-63
-288	-162	-56
-262	-139	-15
-203	-88	4
-158	-43	2
-143	-25	-13
-150	-32	-27
-139	-41	-76
-89	-35	-64
-1	-5	-75
96	48	17
162	112	83
174	174	91
133	215	51
64	230	-38
-5	194	-15
-57	105	-90
-91	-29	-132
-113	-183	-157
-130	-320	-158
-147	-403	-104
-151	-416	-108
-134	-362	16
-90	-272	115
-22	-174	61
56	-87	6
124	-9	-44
164	64	-96
164	143	-135
121	215	-109
48	262	-34
-30	253	15
-94	174	24
-121	45	37
-109	-98	65
-72	-206	77
-32	-246	90
-3	-209	79
14	-119	51
32	-14	13
63	68	-24
111	106	6
161	109	35
183	89	20
158	77	11
83	84	-71
-21	110	-145
-117	138	-142
-176	143	-129
-185	106	-116
-157	24	-47
-105	-76	-11
-49	-160	-27
6	-188	47
63	-147	47
117	-45	-23
157	77	-83
162	171	-100
132	202	-56
75	160	-54
23	67	-30
3	-33	-43
30	-101	-44
86	-112	-12
130	-69	-3
121	1	24
37	63	41
-102	89	90
-249	59	95
-352	-13	51
-361	-100	-2
-279	-162	-64
-130	-162	-105
32	-90	-141
158	35	-74
212	160	-27
190	224	-53
113	187	-59
16	57	-84
-61	-108	-27
-101	-235	-60
-92	-257	-56
-48	-173	-16
10	-36	-21
63	71	47
94	83	65
104	-1	102
95	-124	81
71	-196	46
40	-159	-12
5	-19	-109
-25	155	-141
-44	266	-112
-42	257	-57
-20	131	-72
15	-37	-47
42	-164	-36
50	-196	-56
28	-133	-9
-19	-32	32
-75	47	81
-121	71	62
-150	50	33
-152	19	-1
-134	11	-45
-101	37	-71
-59	76	-115
-7	100	-51
49	89	-2
105	53	-35
140	10	13
145	-21	60
111	-36	20
42	-51	-10
-40	-72	-18
-116	-105	-71
-160	-130	-100
-161	-127	-88
-120	-82	-118
-50	4	-114
31	104	-76
109	187	-80
169	221	-75
202	189	11
205	90	37
174	-52	34
113	-201	48
32	-311	31
-58	-334	34
-135	-263	22
-184	-115	40
-198	51	45
-185	171	-15
-157	202	-72
-128	144	-76
-105	43	-34
-82	-40	-48
-46	-69	-25
9	-48	-14
89	-11	5
167	11	22
223	11	11
234	12	53
192	49	112
123	126	97
52	206	26
4	232	17
-21	160	-124
-37	4	-279
-66	-168	-261
-123	-279	-93
-186	-280	24
-224	-191	-21
-191	-81	-60
-87	-11	-120
68	-11	-64
216	-41	8
301	-45	26
289	20	-2
196	139	6
74	247	49
-23	274	42
-49	195	32
-10	52	-15
58	-80	-57
106	-134	-104
94	-98	-61
21	-18	12
-87	41	27
-184	33	16
-233	-32	-15
-223	-108	-23
-168	-135	2
-101	-95	24
-50	-12	19
-32	67	28
-37	102	43
-48	93	17
-41	66	-91
-8	54	-71
48	67	-27
113	82	-98
163	60	-106
184	-12	-118
159	-114	-35
89	-196	13
-23	-213	-42
-164	-144	-38
-292	-30	-26
-378	70	-46
-378	97	-60
-281	35	-56
-109	-82	-31
86	-190	27
238	-230	56
291	-183	20
234	-66	-39
100	58	-4
-50	145	28
-153	162	-18
-178	108	-47
-134	25	-8
-56	-44	9
11	-60	-30
48	-13	9
57	84	18
60	177	-30
82	215	-69
129	168	-112
201	38	-130
272	-112	-40
318	-211	36
314	-200	11
255	-83	5
144	76	46
12	191	64
-112	194	57
-199	96	10
-231	-42	-94
-217	-130	-100
-182	-123	-106
-151	-44	-68
-134	32	16
-125	31	-50
-104	-56	-83
-51	-174	-60
26	-227	-46
107	-157	-7
159	13	9
162	195	-23
117	284	-48
48	237	-18
-8	93	-32
-36	-44	27
-31	-94	45
-10	-37	-9
10	61	-41
10	105	-48
-13	42	1
-50	-99	-12
-94	-226	-10
-126	-242	-18
-134	-123	-69
-101	69	-42
-24	225	-13
84	254	0
203	149	-13
296	-14	-30
334	-129	65
306	-129	158
216	-24	200
80	112	147
-88	195	52
-268	181	-52
-426	93	-261
-515	-21	-455
-489	-120	-359
-335	-196	-51
-85	-278	21
169	-365	-25
325	-427	-52
312	-408	-63
138	-268	-72
-106	-38	-44
-300	195	112
-350	322	192
-248	282	194
-75	104	138
62	-102	-12
94	-216	-130
24	-188	-122
-66	-47	-49
-95	99	-1
-19	166	-22
125	126	-36
262	39	-43
321	-8	-86
283	35	-80
200	147	36
131	248	22
119	263	-145
144	170	-88
155	22	51
97	-97	44
-33	-125	-18
-185	-60	-30
-288	35	-48
-292	98	-31
-195	96	12
-48	56	-37
88	33	-8
163	63	-19
170	136	-48
130	190	-47
78	163	-113
28	38	-76
-8	-136	-49
-39	-280	-10
-63	-320	69
-78	-235	114
-84	-72	108
-92	87	52
-116	179	17
-156	174	-15
-198	98	-43
-210	-7	-83
-158	-98	-69
-35	-162	-50
130	-195	2
290	-205	55
388	-187	9
399	-131	3
329	-40	-45
212	72	-108
81	168	-162
-41	206	-110
-155	165	-70
-249	49	-83
-320	-104	15
-351	-246	54
-332	-326	68
-267	-322	86
-178	-242	100
-89	-109	16
-17	27	-127
33	123	-161
70	150	-86
104	108	-120
124	29	-207
120	-32	-130
83	-36	-45
20	29	20
-39	135	49
-67	215	47
-47	221	45
7	128	31
65	-21	34
99	-160	52
98	-213	94
77	-159	60
60	-26	-35
65	115	-92
82	200	-115
89	201	-108
66	143	-62
12	77	4
-60	47	87
-115	59	93
-132	86	62
-107	85	22
-52	37	-41
10	-48	-52
63	-131	-49
95	-170	-113
101	-150	-92
81	-86	70
32	-16	59
-33	32	-82
-94	45	-127
-123	35	-52
-103	23	-40
-35	20	-75
51	32	-9
119	45	-56
141	53	-56
109	45	1
49	20	-2
-12	-18	63
-50	-68	72
-68	-123	70
-78	-167	-65
-90	-178	-150
-104	-145	-126
-101	-67	-150
-68	37	-81
-2	135	-67
77	202	-27
138	222	-12
166	203	-31
160	163	20
142	110	39
128	43	25
120	-51	-22
96	-164	-75
31	-271	-70
-80	-322	-17
-214	-285	-8
-318	-159	-9
-345	12	-2
-282	149	23
-158	191	72
-22	124	80
74	-3	-15
113	-113	-70
111	-142	-40
103	-80	13
110	29	82
126	113	64
123	114	32
70	34	0
-33	-86	-62
-160	-183	-99
-258	-215	-135
-287	-184	-114
-245	-118	-122
-158	-54	-148
-71	-4	-49
-25	48	26
-18	113	59
-26	193	16
-12	251	-24
45	244	-23
140	148	-62
237	-20	-59
288	-196	-19
275	-310	33
195	-313	9
80	-215	-26
-35	-71	-10
-118	48	16
-152	106	85
-142	101	64
-102	68	-32
-48	52	-86
6	65	-28
52	96	39
93	112	-44
121	97	-86
138	58	-70
138	26	-69
116	32	-68
66	76	-79
-11	130	-62
-107	143	-5
-200	92	62
-256	-21	29
-251	-147	-21
-178	-222	-35
-50	-203	-52
85	-90	-77
183	70	-95
211	211	-44
175	279	-20
102	251	1
34	147	35
5	10	26
13	-110	31
36	-186	-14
36	-203	-36
-3	-171	-40
-76	-110	-63
-145	-37	-41
-175	20	-8
-148	51	8
-68	45	-5
25	13	-35
103	-30	11
148	-63	32
170	-66	54
196	-40	62
237	11	21
278	70	34
283	126	-4
216	174	-52
57	209	-135
-155	217	-158
-360	177	-61
-493	69	-36
-509	-103	-32
-423	-304	15
-282	-471	-17
-154	-537	-90
-79	-464	-54
-54	-281	-28
-45	-52	-48
-6	131	-48
77	213	-67
182	187	-63
262	97	-39
269	13	-27
186	-22	-1
49	-3	60
-85	36	117
-159	56	147
-150	39	138
-85	-5	83
-13	-37	14
16	-35	-23
-6	4	-21
-51	57	-106
-75	96	-233
-38	104	-250
50	86	-131
156	58	-111
216	30	-154
203	-1	-101
117	-45	-100
1	-102	-43
-87	-151	9
-117	-166	43
-86	-124	64
-33	-36	38
2	65	30
-2	138	-11
-32	155	7
-56	121	60
-45	68	62
6	31	56
80	14	91
137	12	45
156	2	-70
135	-23	-213
99	-50	-234
70	-58	-150
62	-32	-105
61	13	11
44	49	63
-4	47	97
-81	6	98
-155	-44	65
-189	-65	63
-164	-32	41
-85	40	11
17	108	15
106	129	30
159	94	-43
175	37	-126
175	12	-211
175	52	-148
172	145	-82
151	228	-43
86	233	9
-32	125	-11
-187	-66	-9
-345	-263	-47
-447	-378	-18
-459	-364	25
-378	-246	41
-227	-102	41
-52	-13	28
100	-21	13
201	-99	-30
244	-170	-36
234	-165	-15
196	-47	1
141	131	5
82	290	-9
20	337	-2
-40	238	19
-92	39	24
-122	-168	14
-123	-280	-12
-94	-249	-51
-49	-94	-126
-12	99	-134
-4	229	-150
-39	240	-142
-109	131	-38
-188	-32	-22
-239	-174	12
-232	-232	14
-159	-198	2
-42	-109	36
85	-15	22
175	41	-14
207	56	-47
180	41	-15
118	29	-42
54	33	-84
12	47	-11
-3	53	112
4	24	145
18	-42	104
33	-129	46
53	-196	-116
82	-209	-281
123	-142	-194
171	-9	-133
211	147	-214
225	268	-189
196	308	-84
121	247	16
8	109	5
-118	-49	34
-231	-164	54
-300	-203	84
-304	-164	121
-247	-82	78
-141	-4	46
-23	37	36
75	41	-13
132	37	-106
147	50	-138
135	93	-122
115	149	-31
99	182	-2
86	166	0
66	93	56
40	-7	49
5	-100	56
-26	-148	31
-46	-141	-8
-54	-98	-21
-61	-42	-9
-75	-1	-7
-96	26	-49
-117	47	-38
-121	82	-14
-102	138	-17
-60	213	21
-14	279	107
28	305	137
58	265	91
80	140	-37
102	-45	-155
116	-261	-141
111	-444	-135
69	-535	-65
-4	-504	18
-88	-356	-43
-137	-141	-65
-121	72	-59
-36	223	-58
85	275	-21
184	243	-42
222	159	-133
175	67	-151
71	-9	-79
-48	-75	-31
-151	-139	9
-218	-210	5
-253	-275	11
-266	-309	22
-258	-287	-31
-217	-213	-58
-139	-105	-54
-37	-3	-7
60	63	-28
109	86	-71
93	80	-41
23	77	-7
-53	93	64
-86	138	109
-46	195	149
52	241	175
158	252	134
211	215	16
180	136	-77
75	27	-127
-56	-82	-301
-160	-167	-221
-195	-206	24
-162	-189	52
-77	-129	103
21	-48	51
107	26	-86
174	75	-186
214	92	-241
231	91	-282
219	89	-272
180	90	-42
113	96	97
36	92	75
-35	68	49
-82	25	29
-100	-26	25
-102	-68	37
-107	-92	61
-123	-87	62
-148	-67	36
-165	-40	5
-148	-13	24
-86	13	40
15	41	65
132	68	86
228	97	19
275	112	12
263	114	-27
208	96	-85
131	64	-71
62	29	-86
16	-1	-66
-6	-19	-65
-17	-28	-35
-35	-34	-30
-61	-50	-65
-91	-81	-45
-113	-125	-5
-123	-163	54
-122	-171	82
-121	-130	20
-129	-45	-63
-141	51	-48
-148	110	-27
-126	93	-24
-74	-6	-78
0	-143	-85
71	-252	-59
104	-273	-72
82	-190	-105
7	-47	-136
-93	79	-50
-180	122	-7
-231	68	-6
-226	-42	27
-172	-136	59
-84	-152	34
14	-75	-24
100	50	-46
156	162	-40
171	209	4
151	181	29
105	110	9
54	38	18
16	-3	65
0	-8	54
2	6	-24
11	21	-78
18	28	-66
23	32	-128
37	34	-206
71	30	-137
122	16	-36
172	-12	-2
186	-42	42
150	-54	99
62	-29	112
-42	29	112
-120	92	61
-142	122	47
-109	93	-27
-55	12	-133
-23	-92	-93
-43	-166	-136
-105	-183	-224
-172	-145	-214
-199	-76	-80
-164	-14	59
-77	25	76
30	38	70
120	40	32
175	43	19
199	44	-3
206	38	-50
200	16	-41
172	-13	-37
107	-28	-32
8	-11	-14
-104	41	-16
-191	108	-35
-217	157	-119
-181	163	-134
-108	130	-14
-40	88	14
-13	69	19
-18	92	87
-28	135	88
-6	161	81
58	125	79
151	21	64
229	-124	-6
256	-256	-101
228	-326	-115
157	-322	-47
75	-261	29
-6	-186	15
-90	-127	-80
-185	-90	-102
-286	-54	-30
-362	-5	-78
-377	61	-112
-295	127	-48
-132	153	-10
55	124	-21
201	45	-61
253	-47	-40
223	-120	10
153	-148	13
107	-125	-40
107	-77	-76
139	-24	-62
148	13	-3
86	31	45
-48	31	38
-210	17	18
-329	1	-8
-354	-13	-60
-280	-15	-109
-152	1	-13
-34	29	107
30	55	133
41	57	103
34	32	-20
46	-15	-147
93	-51	-228
150	-52	-186
175	-5	-124
142	71	-64
50	135	20
-65	149	129
-157	92	192
-183	-11	162
-148	-117	141
-68	-170	56
15	-137	-76
82	-29	-245
129	118	-302
163	241	-231
190	287	-181
198	230	-143
176	85	-30
113	-101	56
18	-259	57
-81	-331	57
-154	-299	22
-173	-181	20
-150	-40	-11
-102	57	0
-66	79	12
-54	31	11
-56	-32	-33
-47	-54	-55
-8	1	29
54	116	43
120	233	44
158	277	24
149	218	25
101	74	24
41	-91	-30
-5	-196	-28
-33	-206	-9
-49	-127	-31
-75	-19	-44
-118	51	-72
-168	53	-51
-200	-7	-32
-191	-77	-67
-136	-111	-33
-50	-82	-19
33	-6	9
96	76	71
125	124	111
130	124	71
127	88	-34
124	43	-124
124	19	-135
125	23	-111
124	43	-126
122	64	-134
117	70	-130
107	58	-15
76	29	87
14	-9	94
-72	-54	34
-162	-103	-9
-216	-140	-48
-206	-154	-190
-133	-128	-195
-31	-69	-106
54	4	-33
78	59	35
31	70	84
-58	28	120
-142	-42	130
-180	-106	76
-162	-126	-51
-105	-96	-97
-52	-37	-89
-33	11	-74
-59	16	-67
-111	-33	-54
-156	-111	0
-162	-175	56
-112	-184	68
-18	-119	24
97	4	-4
202	147	8
269	250	-34
280	275	-87
237	205	-64
162	60	-7
78	-110	32
22	-246	17
5	-299	-9
23	-252	-67
50	-131	-109
53	8	-194
19	107	-273
-52	139	-115
-126	112	25
-165	67	58
-141	48	74
-60	81	39
41	152	5
117	225	-61
133	268	-23
85	270	16
-2	241	70
-80	187	155
-120	113	113
-107	3	5
-58	-151	-128
-4	-320	-203
41	-446	-157
65	-457	-53
80	-322	-30
86	-81	-2
81	171	32
55	320	32
4	309	37
-61	161	20
-118	-17	36
-136	-120	39
-109	-97	-2
-51	15	-72
-1	122	-116
8	138	-99
-32	41	-33
-100	-113	-14
-149	-240	15
-150	-270	60
-95	-204	7
-4	-97	-76
85	-8	-127
150	24	-77
186	21	-28
209	23	58
229	63	53
248	132	42
245	185	104
202	185	24
110	121	-25
-10	30	-42
-121	-39	-35
-188	-46	-99
-197	7	-165
-164	81	-94
-124	131	-26
-110	127	2
-136	72	-30
-188	-17	-95
-229	-110	-117
-222	-190	-95
-152	-242	-27
-27	-249	54
113	-201	65
222	-105	26
268	3	10
234	67	0
136	39	-19
7	-95	-31
-118	-285	10
-202	-439	29
-231	-466	3
-202	-340	-24
-133	-107	-53
-43	132	-59
43	282	-64
116	308	-45
163	244	-43
175	170	-28
165	151	26
127	192	5
79	241	-76
25	237	-68
-21	150	-35
-56	12	-109
-83	-103	-123
-96	-140	-80
-105	-85	-69
-105	16	7
-92	95	54
-60	112	24
-7	77	37
67	41	74
150	54	69
221	127	13
258	219	0
244	264	13
172	215	-78
57	74	-81
-68	-109	-16
-170	-272	-23
-223	-355	-16
-215	-351	-24
-166	-278	-12
-102	-170	-10
-53	-56	19
-32	51	11
-30	154	-102
-28	244	-144
-4	301	-72
48	301	1
116	225	-8
172	68	26
200	-133	34
182	-322	-40
117	-439	-89
21	-437	-75
-93	-322	-43
-197	-139	-2
-270	40	54
-290	150	38
-247	159	42
-144	86	35
-11	-13	13
119	-84	17
210	-95	-40
241	-61	-108
219	-19	-171
164	2	-186
100	-1	-115
44	-1	25
-2	29	109
-42	103	87
-76	186	34
-92	231	-59
-85	198	-142
-54	93	-205
-14	-43	-182
11	-154	-60
2	-199	26
-42	-179	46
-95	-123	16
-123	-65	33
-101	-21	60
-26	20	71
68	72	129
136	134	166
135	182	145
56	183	23
-75	128	-114
-203	36	-151
-273	-50	-156
-258	-92	-75
-164	-79	-9
-31	-40	-5
90	-19	66
161	-43	46
175	-99	-72
150	-147	-225
113	-141	-244
86	-74	-142
70	28	-57
59	113	30
34	135	45
-4	93	31
-50	17	17
-86	-39	10
-99	-39	28
-95	17	-1
-83	106	-43
-77	174	7
-75	196	38
-63	150	58
-29	51	56
40	-74	5
130	-192	31
216	-265	-39
262	-278	-99
251	-217	-151
184	-105	-179
86	18	-114
-12	110	-68
-85	130	20
-122	81	106
-132	-18	137
-126	-116	118
-125	-171	47
-130	-171	-70
-141	-125	-72
-147	-62	-78
-131	-7	-123
-90	29	-96
-21	53	-135
64	70	-139
150	85	-97
208	89	-46
222	83	24
184	68	59
105	55	106
14	55	130
-62	67	162
-97	81	118
-82	80	43
-29	62	-32
33	40	-173
78	27	-132
86	35	-27
54	57	-43
3	74	-32
-49	70	-67
-85	41	-60
-97	10	28
-98	-5	62
-96	4	-18
-100	22	-82
-109	22	-97
-120	-6	-145
-128	-60	-100
-126	-107	-84
-113	-122	-112
-82	-109	-100
-25	-100	-45
58	-129	24
159	-192	-11
253	-250	-10
308	-226	-10
301	-80	-79
236	155	-67
132	370	-57
35	438	1
-32	305	-9
-63	17	-24
-86	-273	14
-122	-406	59
-182	-311	66
-253	-54	10
-291	183	29
-270	237	46
-186	51	59
-67	-270	61
36	-530	74
101	-550	47
126	-291	1
140	116	12
171	469	17
224	596	-51
268	461	-101
258	189	-64
167	-46	-57
5	-119	-65
-178	-35	-124
-318	93	-96
-361	129	-24
-312	18	-27
-203	-183	-69
-89	-348	-85
-10	-362	-9
30	-212	2
44	17	-22
61	199	-16
94	251	30
136	177	35
171	57	-15
184	-19	-63
171	-9	-58
138	57	-9
95	113	-55
48	106	-74
1	31	6
-48	-77	14
-89	-159	53
-105	-187	93
-88	-157	62
-34	-93	65
31	-15	61
85	68	17
95	147	-99
57	206	-108
-13	221	-37
-88	168	-89
-130	55	-182
-128	-74	-207
-91	-163	-171
-45	-173	-210
-20	-109	-194
-28	-25	-56
-65	18	45
-105	-13	135
-123	-91	135
-100	-154	79
-39	-141	110
39	-37	55
113	112	-63
166	233	-134
195	260	-94
208	193	-2
214	79	-8
210	-16	16
184	-47	7
121	-21	11
10	19	33
-141	25	32
-305	-15	69
-419	-81	52
-442	-127	20
-350	-125	-8
-156	-81	-46
77	-21	-89
275	22	-104
373	43	-40
342	62	-14
202	99	-39
22	153	-45
-130	186	-60
-202	156	-57
-186	47	-84
-120	-102	-81
-52	-216	-30
-28	-231	-32
-52	-133	-12
-99	6	-24
-132	84	6
-123	20	34
-68	-168	-7
14	-382	-9
93	-482	-64
151	-389	-105
183	-127	4
196	168	66
201	337	-4
201	301	-59
193	100	-63
171	-133	-12
128	-246	4
68	-174	-14
-12	29	-67
-100	225	-17
-185	290	56
-250	193	59
-273	11	74
-239	-122	6
-155	-117	37
-50	21	111
31	195	93
54	288	87
25	238	43
-30	72	-140
-58	-106	-309
-31	-207	-277
45	-196	-198
127	-121	-167
156	-62	-161
111	-70	-30
12	-135	45
-80	-191	43
-108	-170	48
-53	-55	-88
48	103	1
130	225	98
137	251	42
62	177	-36
-48	62	-63
-135	-22	-52
-151	-33	-90
-99	19	-28
-22	81	-25
26	100	-50
22	57	-17
-16	-20	11
-47	-86	21
-30	-102	25
41	-67	43
135	-7	10
203	46	5
202	74	40
127	80	13
0	79	-4
-132	85	-8
-229	94	30
-262	95	-6
-229	79	-108
-147	48	-118
-46	21	-121
36	6	-114
72	0	-44
53	-22	40
-6	-81	24
-75	-175	7
-111	-280	-6
-91	-337	-16
-16	-301	-2
88	-162	28
176	43	24
226	241	-7
225	358	14
184	354	-31
132	244	-125
78	81	-108
28	-63	20
-19	-145	39
-61	-162	10
-91	-141	44
-96	-127	68
-70	-136	37
-34	-154	-38
-8	-138	1
-14	-64	20
-50	63	-12
-89	187	-87
-105	233	-182
-72	147	-120
-4	-65	-56
68	-319	16
105	-498	37
92	-508	20
39	-330	-5
-18	-48	-134
-46	206	-241
-42	313	-161
-19	241	-60
-5	53	-76
-15	-121	-62
-34	-173	-88
-35	-72	13
7	113	63
83	269	40
158	313	119
184	233	101
139	104	57
32	19	21
-91	28	-21
-177	110	-1
-190	179	-69
-136	158	-140
-52	28	-72
16	-149	-33
35	-273	35
4	-270	45
-59	-134	15
-130	64	-32
-182	222	-59
-203	268	-29
-185	195	-86
-130	53	-116
-46	-82	-70
50	-155	-13
133	-157	-36
182	-108	-40
175	-50	-37
124	-6	-30
52	13	-18
-5	4	-31
-35	-25	3
-38	-77	36
-28	-131	44
-24	-173	22
-31	-170	35
-42	-107	19
-38	8	32
-12	142	99
34	251	149
83	295	112
118	261	-40
132	165	-165
133	36	-176
133	-89	-124
135	-177	-21
130	-206	53
105	-159	90
46	-42	70
-32	114	-8
-115	250	-47
-165	298	-56
-166	215	-23
-113	19	-90
-25	-213	-155
64	-383	-149
130	-410	-185
157	-292	-142
145	-103	-93
103	49	-17
50	81	13
-5	-17	-10
-62	-171	-19
-120	-280	-7
-177	-270	35
-229	-148	12
-261	17	-14
-257	135	-1
-211	158	57
-126	101	59
-22	32	44
74	24	24
144	96	-60
184	218	-109
201	325	-140
202	365	-92
190	332	-42
159	248	-124
95	153	-81
2	60	-35
-107	-40	-58
-194	-171	9
-233	-322	70
-214	-456	84
-159	-508	24
-102	-436	12
-68	-253	14
-57	-17	-52
-41	183	-70
14	284	-42
114	278	-24
232	202	28
306	121	78
287	72	84
167	61	104
-18	58	40
-191	34	-51
-289	-15	-52
-288	-64	-67
-215	-77	-67
-121	-28	-42
-54	70	-82
-28	179	-132
-20	248	-117
-2	244	-42
43	169	-12
102	43	-10
142	-91	-4
137	-199	15
93	-260	22
39	-263	19
17	-227	57
43	-170	64
101	-120	47
151	-99	28
149	-107	-94
90	-128	-162
-5	-131	-112
-86	-95	-80
-118	-16	-43
-95	80	-40
-40	154	-17
7	177	-43
26	152	-85
15	105	0
-3	76	81
-4	85	127
16	133	161
46	193	152
57	233	70
28	233	-92
-38	193	-176
-115	116	-185
-165	11	-162
-157	-119	-103
-87	-264	-196
25	-394	-188
142	-471	-21
229	-445	37
262	-317	45
238	-127	-24
169	48	-57
81	139	-46
-10	117	-16
-82	9	32
-133	-109	7
-173	-166	-23
-209	-130	-38
-247	-25	-25
-281	89	-1
-300	158	57
-279	162	55
-209	120	2
-97	72	48
29	44	12
129	41	-78
179	44	-99
180	45	-33
158	40	-47
143	50	-39
156	82	61
175	121	41
167	134	60
97	85	57
-37	-29	75
-197	-171	52
-315	-273	-56
-333	-278	-74
-245	-178	-115
-86	-11	-165
74	145	-163
172	227	-72
198	215	-77
163	153	-116
118	95	-62
94	83	-59
97	120	26
106	160	99
92	157	89
44	84	91
-29	-37	28
-100	-157	-67
-151	-224	-91
-172	-215	-24
-169	-153	19
-152	-74	49
-115	-15	64
-53	14	3
39	24	-83
151	31	-113
252	46	-35
306	61	26
286	66	19
202	60	104
83	55	66
-28	64	-39
-97	81	-193
-112	85	-238
-87	37	-105
-42	-71	-140
0	-223	-80
30	-346	-23
44	-383	-43
36	-303	-50
5	-140	-32
-51	28	40
-117	123	70
-165	117	129
-167	42	71
-111	-19	-89
-16	-4	-92
74	104	-19
111	244	-41
72	327	-58
-28	268	-60
-139	71	6
-210	-205	90
-212	-451	81
-154	-566	62
-78	-516	48
-20	-322	39
1	-67	-21
4	158	-94
21	289	-96
76	305	-53
153	230	-60
207	112	-26
196	12	74
98	-34	124
-57	-12	95
-204	56	-124
-281	128	-328
-253	164	-262
-139	138	-159
0	65	-48
102	-16	-18
130	-57	-54
96	-31	0
38	49	21
3	143	50
13	185	49
57	137	49
102	3	11
122	-161	-21
101	-281	-3
52	-300	24
2	-204	61
-32	-43	-16
-41	105	-96
-41	170	-137
-41	135	-110
-48	39	-10
-56	-44	41
-49	-49	41
-16	38	59
46	174	52
122	273	32
188	261	87
222	122	98
209	-93	22
151	-292	-21
65	-391	-27
-21	-351	-79
-84	-205	-134
-108	-27	-108
-98	109	-63
-68	163	-123
-39	150	-185
-24	105	-58
-25	74	48
-33	72	39
-35	89	-4
-27	105	-59
-16	102	-40
-10	83	-37
-22	52	-69
-46	15	-81
-68	-40	-44
-72	-125	-15
-58	-238	28
-36	-355	43
-29	-429	2
-52	-419	-46
-97	-311	-39
-137	-133	-17
-132	47	-39
-65	174	10
52	214	-8
178	186	-64
261	130	-111
270	100	-61
207	114	12
101	155	-11
-8	189	51
-93	175	76
-149	112	26
-180	12	22
-200	-86	28
-211	-152	44
-195	-178	38
-141	-167	-20
-45	-133	-68
77	-83	-76
189	-17	-67
256	62	-47
253	145	-63
175	206	-108
45	229	-90
-89	199	-86
-191	130	-123
-226	43	-81
-186	-32	-32
-100	-88	0
-11	-131	12
35	-173	6
22	-215	-8
-34	-247	32
-95	-244	87
-116	-189	56
-82	-88	86
-2	31	86
84	128	44
142	179	-23
159	183	-26
150	166	-27
132	154	-106
125	161	-93
124	171	-129
107	162	-97
60	106	-92
-13	11	-104
-89	-97	-4
-136	-177	41
-137	-198	77
-95	-166	-11
-38	-97	-43
9	-28	18
31	25	-14
36	57	-20
43	83	-2
66	102	53
101	104	67
129	70	-61
139	-12	-186
117	-124	-147
74	-229	-95
19	-276	-156
-33	-243	-131
-80	-140	-36
-122	-12	24
-156	93	36
-167	150	12
-143	165	16
-83	161	52
0	158	61
67	147	65
83	106	40
37	13	-38
-48	-118	-66
-125	-246	-44
-148	-301	-1
-94	-247	7
7	-90	20
104	108	15
147	265	-4
115	317	-34
34	244	-46
-50	89	-18
-93	-95	-46
-79	-241	-57
-27	-307	-62
27	-290	-96
55	-207	-121
51	-94	-58
29	11	21
7	71	36
-10	78	65
-25	35	47
-50	-25	-28
-89	-66	-90
-125	-62	-64
-139	-16	-32
-116	50	-2
-61	98	95
2	110	133
48	90	166
60	68	140
48	68	10
26	99	-190
16	137	-324
24	149	-257
44	115	-131
61	43	-56
63	-31	-64
47	-74	-84
21	-69	-118
-6	-35	-42
-31	-2	20
-51	4	1
-67	-16	60
-77	-35	55
-67	-31	85
-37	4	96
14	41	64
79	49	9
139	6	-29
181	-74	-33
191	-137	-110
175	-140	-134
137	-60	-107
92	66	-30
40	174	24
-8	205	13
-54	134	-10
-91	3	-25
-110	-122	-37
-114	-181	-57
-100	-153	-9
-79	-77	8
-60	-5	-12
-57	17	-48
-67	-2	-4
-85	-31	54
-99	-22	29
-97	37	44
-81	116	70
-58	162	57
-43	130	14
-41	25	-36
-46	-113	-62
-44	-222	-42
-19	-260	-40
37	-227	-70
116	-157	-105
189	-92	-95
232	-48	14
224	-17	21
167	30	-58
81	99	-132
-5	171	-147
-68	209	-96
-99	174	-112
-102	76	-75
-89	-52	-7
-74	-142	31
-60	-145	56
-56	-57	61
-61	87	39
-81	225	10
-107	300	29
-137	279	16
-152	179	-9
-136	24	11
-80	-139	32
11	-270	-9
111	-334	-19
196	-320	-14
245	-233	48
252	-107	38
223	7	-121
172	67	-116
113	62	-112
46	7	-152
-24	-50	-161
-98	-69	-93
-160	-36	47
-194	28	106
-185	82	93
-131	90	94
-50	46	55
34	-17	-69
99	-61	-183
134	-53	-264
136	5	-140
114	89	-3
84	171	5
48	227	17
15	249	-16
-15	236	-14
-35	180	-91
-41	82	-77
-34	-59	28
-20	-211	61
-16	-330	115
-33	-361	107
-79	-286	74
-132	-124	51
-168	58	29
-157	191	50
-83	229	30
34	178	-59
154	92	-96
216	25	-78
190	12	-20
66	39	7
-107	62	-6
-260	40	-11
-325	-41	-63
-262	-157	-96
-89	-249	-138
127	-274	-170
299	-215	-126
346	-92	-58
258	47	-37
66	153	-35
-141	192	20
-277	160	-15
-279	76	-48
-161	-25	-19
21	-110	-30
175	-145	24
226	-126	39
159	-59	32
2	28	63
-169	97	71
-280	120	70
-296	85	-26
-216	10	-64
-89	-77	-47
39	-130	-72
127	-129	-91
167	-75	-22
176	11	34
182	90	25
189	131	97
188	122	22
160	79	-106
89	33	-122
-16	24	-142
-129	75	-194
-210	171	-169
-244	275	-71
-226	315	32
-178	241	147
-124	40	143
-66	-237	86
-4	-498	15
78	-646	28
180	-615	19
278	-413	-70
333	-124	-27
317	144	4
231	300	-37
103	313	-107
-14	221	-164
-90	89	-177
-116	-20	-124
-111	-78	-36
-106	-102	41
-112	-119	78
-122	-142	102
-112	-157	74
-68	-134	21
2	-61	9
77	52	-35
121	169	23
130	251	3
117	284	-95
114	286	-103
136	283	-71
175	292	-15
191	300	-22
132	267	-46
-11	161	-88
-223	-19	-149
-432	-233	-144
-563	-408	-79
-565	-492	-19
-437	-460	34
-232	-343	48
-20	-194	51
141	-65	57
229	14	27
245	56	5
230	84	-35
202	117	-58
169	160	-25
126	195	61
61	205	69
-17	170	56
-90	97	89
-126	0	4
-118	-88	-165
-68	-142	-239
-10	-150	-98
31	-105	-17
42	-25	-45
29	66	11
16	136	16
15	164	11
27	138	-8
36	67	-44
28	-27	11
0	-117	54
-39	-173	38
-65	-181	-55
-77	-142	-125
-72	-81	-88
-68	-30	-168
-75	-15	-147
-79	-50	29
-60	-122	91
-1	-192	164
86	-222	129
172	-182	24
221	-84	3
201	43	-40
128	150	-96
34	208	-62
-32	215	-68
-50	208	28
-30	213	60
-7	238	-69
-17	257	-86
-64	215	-147
-126	89	-151
-161	-115	-152
-139	-322	-79
-64	-448	65
26	-418	30
97	-237	-35
118	20	-96
94	243	-67
59	340	-11
44	291	-57
64	153	-43
106	9	26
135	-65	67
123	-60	84
56	-20	98
-46	-7	112
-159	-56	66
-234	-148	-3
-253	-222	-63
-209	-214	-88
-118	-112	-121
-10	45	-137
91	183	-36
161	243	58
192	208	57
191	117	87
172	33	80
151	-2	-24
130	14	-51
101	46	-63
44	57	-158
-50	31	-158
-177	-17	-131
-298	-43	-111
-371	-25	-48
-353	28	-30
-244	74	28
-76	69	38
90	0	45
193	-106	95
204	-184	85
139	-187	72
40	-102	72
-41	26	26
-83	126	-27
-86	135	-121
-78	40	-178
-76	-113	-114
-91	-257	-130
-105	-330	-90
-106	-319	-36
-89	-248	38
-60	-170	63
-38	-120	38
-25	-99	29
-14	-69	16
16	6	-33
76	133	-190
159	282	-173
236	392	-95
275	400	4
260	295	22
198	104	7
113	-94	98
35	-229	99
-22	-252	87
-63	-175	-77
-101	-49	-236
-136	62	-165
-161	110	-126
-149	88	-66
-91	17	-7
2	-50	-58
99	-74	-51
166	-37	20
181	46	74
147	133	150
89	186	170
33	174	124
-7	104	67
-34	4	-19
-63	-86	-132
-101	-131	-303
-151	-125	-312
-187	-78	-102
-199	-22	31
-177	15	77
-130	23	68
-76	12	62
-19	6	59
42	22	55
119	64	85
207	118	64
292	165	57
340	193	83
312	205	39
196	211	-1
14	211	43
-179	192	7
-317	119	-133
-353	-24	-339
-278	-229	-356
-129	-433	-235
36	-556	-139
163	-537	-22
214	-368	-15
184	-114	45
101	114	83
-1	222	87
-83	177	87
-115	29	37
-97	-129	44
-49	-209	78
-8	-184	77
-10	-96	24
-68	-20	-25
-172	-15	-59
-271	-74	-27
-314	-140	1
-273	-136	-136
-159	-25	-194
-14	161	-178
99	339	-233
149	418	-104
137	362	3
103	189	40
91	-13	78
121	-163	64
172	-210	38
202	-157	15
169	-50	-12
66	46	-54
-62	90	-91
-158	62	-160
-175	-18	-100
-104	-119	30
16	-195	62
131	-216	51
197	-162	53
196	-40	56
151	114	93
95	250	33
52	317	-16
33	299	-21
22	207	-65
0	89	-28
-44	-11	-96
-100	-64	-83
-152	-80	-31
-183	-86	-37
-186	-108	7
-165	-150	9
-127	-178	32
-85	-157	14
-38	-65	29
9	65	43
60	175	30
107	208	-19
148	136	-134
166	-3	-138
159	-138	-115
124	-195	-98
74	-145	-11
21	-25	20
-17	95	28
-30	142	32
-26	94	64
-18	-20	-2
-26	-125	-138
-63	-158	-137
-122	-90	-96
-176	48	-48
-189	193	30
-139	279	67
-25	265	63
119	163	24
242	13	-63
292	-127	-100
253	-209	-106
133	-212	-81
-20	-144	-52
-158	-49	-54
-243	36	-55
-258	76	9
-211	61	19
-125	13	19
-24	-39	49
62	-70	-19
110	-74	-43
107	-62	-62
52	-55	-53
-29	-64	-4
-101	-81	55
-127	-85	79
-97	-63	109
-23	-22	90
46	17	-24
67	28	-92
16	2	-128
-83	-41	-122
-176	-70	-113
-210	-58	-103
-152	-8	-64
-28	53	49
107	86	71
196	71	41
209	26	64
163	-17	43
106	-23	13
85	9	-156
110	53	-195
159	64	-34
187	19	-91
156	-66	-122
68	-153	-23
-46	-187	17
-143	-152	48
-188	-64	21
-172	26	61
-116	81	147
-52	88	130
2	72	63
33	77	-98
50	121	-172
58	205	-182
58	289	-209
48	327	-85
24	291	22
-7	181	33
-38	20	11
-56	-153	28
-60	-294	36
-48	-373	-30
-25	-372	-55
4	-280	-93
34	-125	-127
60	57	-38
72	210	-4
59	296	-34
18	296	-30
-44	231	12
-105	147	64
-136	78	65
-120	35	36
-61	-2	-14
12	-66	-8
64	-174	6
69	-301	-81
27	-398	-157
-40	-420	-136
-100	-348	-48
-120	-210	6
-95	-56	57
-32	63	107
42	126	112
107	143	54
141	137	-15
130	130	-43
79	122	-76
2	103	-62
-63	72	-75
-85	34	-101
-40	7	-95
52	1	-67
142	8	-65
170	10	-18
90	-13	32
-84	-60	39
-282	-111	74
-413	-135	37
-410	-115	16
-269	-56	-32
-53	10	-45
138	51	-39
239	59	-78
234	49	-88
169	54	-66
99	99	3
65	183	-64
60	275	-137
44	328	-131
-7	298	-120
-96	163	-33
-173	-54	44
-191	-309	108
-132	-519	104
-14	-622	77
104	-565	84
172	-351	26
172	-39	-49
130	267	-86
87	460	-42
72	475	-4
86	324	21
96	92	74
75	-113	-13
16	-208	-150
-61	-178	-112
-124	-80	-85
-150	7	-94
-141	30	-74
-121	0	-31
-107	-25	52
-105	14	64
-94	132	75
-55	272	-65
18	345	-169
110	287	-112
188	93	-74
223	-157	-12
204	-349	-7
151	-393	24
85	-278	48
30	-77	80
-10	96	87
-44	150	63
-83	64	71
-128	-105	19
-165	-263	-7
-178	-330	-68
-152	-270	-121
-93	-124	-141
-15	40	-155
61	158	-43
116	209	55
144	214	95
154	213	70
154	240	-8
151	282	-129
150	305	-201
137	272	-178
101	166	-160
30	15	-82
-72	-131	-11
-188	-225	19
-285	-249	78
-325	-227	68
-299	-196	38
-206	-192	3
-78	-203	-15
44	-207	-41
137	-163	-67
180	-64	-1
171	56	77
120	150	48
36	170	9
-64	117	77
-166	26	47
-245	-44	-89
-281	-50	-120
-259	7	-60
-194	99	-27
-108	174	2
-31	202	-38
20	171	-77
56	103	-84
97	7	-124
157	-105	-39
227	-218	27
270	-313	-44
262	-351	-50
183	-300	-27
65	-154	-27
-47	41	-11
-108	208	-7
-105	268	29
-62	194	48
-21	31	14
-13	-125	24
-31	-175	38
-47	-81	-20
-22	110	-43
49	301	56
143	392	101
215	338	28
229	168	-101
182	-33	-86
101	-179	4
27	-226	-64
-22	-177	-126
-49	-78	-184
-75	32	-139
-120	110	-101
-175	144	-102
-214	121	80
-210	43	135
-159	-75	40
-77	-200	-19
9	-281	-90
79	-279	-152
138	-186	-156
192	-42	-32
248	80	79
280	125	53
250	84	22
125	0	13
-80	-57	-4
-310	-44	9
-481	22	20
-532	72	71
-451	40	70
-280	-93	59
-98	-264	64
38	-373	12
115	-322	-97
154	-111	-270
192	180	-201
241	416	-78
285	487	-91
288	373	-68
225	150	-94
102	-67	-82
-41	-189	-10
-153	-195	43
-204	-133	52
-194	-86	101
-147	-90	89
-91	-136	33
-42	-166	14
0	-130	-53
43	-24	-75
86	116	-115
119	225	-83
128	265	61
107	240	72
68	187	51
32	140	56
11	108	8
4	67	4
-1	-13	-48
-25	-132	-60
-69	-254	30
-124	-320	16
-166	-286	-15
-173	-164	-61
-139	-4	-94
-83	121	-157
-22	174	-248
28	162	-163
63	131	-63
91	119	-38
123	131	-10
156	131	57
180	79	56
175	-35	-18
138	-170	-23
66	-249	16
-18	-223	22
-94	-100	28
-143	51	31
-157	139	22
-139	122	-9
-101	19	-21
-56	-84	41
-17	-100	93
15	-1	172
37	168	187
59	311	83
86	351	22
122	270	-33
159	123	-185
178	-15	-385
163	-92	-394
101	-111	-161
-1	-123	26
-115	-174	16
-204	-270	-40
-242	-368	-23
-210	-393	-48
-116	-320	-83
9	-153	-61
136	32	-8
228	155	53
256	168	83
210	84	50
101	-36	-18
-40	-124	-87
-168	-140	-155
-237	-90	-159
-226	-15	-61
-143	35	16
-41	37	22
27	-5	55
16	-62	51
-71	-105	21
-195	-114	18
-300	-83	44
-324	-23	59
-258	54	14
-121	137	-7
40	208	-12
179	256	-7
269	265	-12
302	236	-74
291	171	-78
238	93	-26
159	18	-19
60	-37	17
-37	-72	25
-121	-94	6
-185	-102	53
-223	-95	35
-239	-62	-52
-229	-1	-120
-192	72	-62
-117	136	-60
-7	155	-185
120	120	-164
234	47	-66
291	-24	42
279	-59	56
206	-48	46
107	-11	96
18	11	110
-34	-10	84
-51	-70	-35
-54	-135	-66
-60	-167	-117
-78	-148	-298
-95	-99	-180
-93	-60	-61
-65	-55	-47
-15	-71	-24
44	-58	-59
97	20	95
130	163	53
150	311	-45
155	372	-57
141	292	-70
107	85	-62
47	-159	-65
-30	-325	48
-105	-346	129
-149	-233	105
-150	-80	46
-112	16	57
-58	4	-10
-10	-85	-121
23	-165	-136
50	-164	-40
89	-72	22
144	49	26
198	124	72
212	106	102
154	19	120
20	-70	40
-154	-95	-11
-306	-39	-88
-387	46	-136
-372	100	-60
-282	77	-102
-172	-2	-130
-76	-76	-123
-20	-84	-82
8	-10	-53
31	106	-104
68	206	-76
115	240	-41
154	209	9
165	150	-19
139	105	-19
93	83	16
39	61	10
-3	14	53
-30	-66	43
-35	-151	58
-26	-188	77
-5	-154	45
25	-64	0
51	19	29
59	39	-23
36	-26	-46
-14	-131	-3
-68	-196	-25
-97	-164	13
-70	-29	-41
6	135	-138
105	233	-198
175	194	-151
180	26	-99
101	-188	-39
-35	-346	59
-177	-373	60
-273	-272	87
-290	-108	-20
-237	35	-97
-139	109	-67
-36	117	-78
40	103	-64
82	114	-92
94	158	-66
91	212	-62
85	233	-24
84	198	10
87	122	-13
86	41	-23
72	-2	-30
40	3	11
-4	39	38
-51	65	57
-81	56	47
-77	4	48
-36	-68	46
31	-127	8
100	-145	-33
139	-110	-114
129	-34	-109
76	51	-22
0	114	-4
-61	125	-11
-84	76	-32
-63	-24	-36
-17	-135	7
20	-216	32
24	-238	31
-12	-198	-2
-68	-129	-94
-121	-70	-107
-150	-55	-16
-144	-74	-8
-116	-87	-1
-68	-51	74
-14	50	185
51	191	228
121	310	127
182	344	-114
222	278	-313
225	139	-344
191	-4	-338
129	-104	-185
65	-141	-52
10	-142	1
-39	-155	38
-91	-201	49
-159	-268	49
-232	-313	5
-282	-288	43
-282	-190	19
-217	-52	-1
-101	64	6
23	119	-7
110	109	18
136	64	47
111	41	64
77	60	36
64	114	48
85	160	20
116	160	-67
118	106	-112
63	27	-168
-43	-35	-142
-162	-45	10
-245	5	8
-247	90	38
-169	174	75
-40	225	-8
95	228	-109
192	189	-223
236	113	-143
229	18	-79
196	-81	17
154	-159	97
110	-192	69
65	-175	81
8	-112	31
-60	-41	0
-134	4	-53
-198	2	-141
-226	-33	-140
-203	-68	-64
-130	-64	-12
-31	-16	-6
57	50	9
101	89	5
86	65	1
20	-13	6
-54	-103	17
-99	-150	11
-95	-120	19
-48	-30	35
2	76	57
26	133	112
8	115	98
-37	32	111
-81	-76	57
-94	-150	-111
-71	-154	-192
-28	-74	-182
16	72	-219
50	249	-217
82	399	29
123	461	203
175	390	228
225	174	114
236	-129	-179
191	-435	-323
94	-627	-430
-21	-631	-323
-114	-459	-113
-159	-202	-50
-153	5	55
-121	72	2
-87	-11	31
-58	-160	77
-26	-254	79
26	-210	154
88	-33	152
141	183	134
154	327	47
109	324	11
21	200	-29
-71	45	-78
-132	-41	-43
-145	-15	-36
-126	88	-84
-114	183	-78
-129	202	0
-168	129	-2
-195	14	-20
-178	-76	-33
-107	-92	-82
-4	-44	-127
87	24	-134
135	67	-153
132	76	-75
107	75	-1
97	93	16
116	137	59
159	171	56
190	149	95
184	40	43
131	-123	2
53	-275	-3
-26	-343	14
-84	-290	30
-111	-157	-30
-116	-15	-42
-105	67	-54
-80	70	-46
-39	36	-44
11	29	4
56	100	86
74	238	130
44	382	161
-19	445	124
-97	371	53
-150	157	-17
-158	-138	-125
-124	-422	-181
-74	-611	-219
-36	-640	-252
-22	-519	-111
-28	-295	-45
-29	-47	-89
-10	139	-145
40	219	-136
107	183	-11
163	99	-28
193	37	-30
184	60	40
143	169	64
81	298	16
11	345	-55
-56	252	2
-108	27	-27
-138	-240	-136
-144	-425	-59
-128	-451	-42
-96	-325	-66
-53	-133	-8
-8	12	6
40	57	80
93	23	112
143	-6	96
184	45	69
204	182	86
194	340	109
151	410	59
89	335	31
20	130	16
-47	-104	-13
-114	-260	-150
-183	-282	-195
-248	-198	-160
-295	-94	-136
-302	-44	-56
-253	-72	-105
-156	-131	-153
-31	-147	-83
81	-83	9
150	40	133
166	150	182
148	191	143
119	147	78
99	64	15
89	9	-49
68	13	-178
32	58	-219
-22	88	-106
-76	51	-33
-107	-47	-96
-107	-160	-97
-80	-215	-28
-46	-176	-27
-21	-61	-55
-8	65	-79
2	142	-52
15	138	6
23	71	63
15	-6	42
-22	-59	-14
-76	-66	-13
-113	-35	43
-96	20	66
-14	89	70
104	158	119
194	202	123
199	187	29
107	86	-70
-45	-92	-52
-173	-288	-80
-214	-416	-149
-143	-393	-133
-3	-216	-62
131	46	29
203	283	29
193	396	-68
133	353	-155
72	208	-217
44	51	-164
48	-43	4
54	-65	92
37	-52	129
-13	-57	81
-76	-96	45
-121	-139	34
-128	-138	-1
-97	-71	5
-42	29	-86
14	105	-103
55	93	-86
79	-15	-155
76	-165	-159
46	-275	-96
-13	-290	-28
-96	-206	24
-177	-75	59
-232	28	60
-233	59	66
-181	24	67
-91	-33	55
6	-68	29
88	-59	43
141	-16	38
169	31	-25
175	68	-77
163	98	-124
127	130	-136
64	174	-127
-13	207	-64
-81	202	-24
-114	144	-4
-101	52	18
-56	-30	-21
-13	-59	-10
-5	-26	27
-40	29	100
-101	51	168
-141	-9	110
-129	-134	12
-55	-257	-69
57	-288	-111
163	-185	-88
224	17	-147
229	221	-86
189	317	78
135	257	56
86	85	-58
42	-91	-176
-9	-165	-121
-81	-102	-44
-170	42	1
-252	161	33
-289	158	68
-264	23	79
-182	-174	-76
-69	-315	-114
33	-314	-129
101	-166	-142
132	56	-57
144	250	-71
156	338	-23
178	301	0
199	197	-1
195	81	39
148	4	4
56	-36	22
-56	-64	-31
-156	-110	-86
-207	-171	-58
-195	-227	-45
-128	-249	-78
-40	-224	-63
34	-165	-12
64	-103	15
41	-64	9
-12	-57	29
-60	-64	46
-65	-65	-15
-16	-42	-10
72	1	12
157	50	6
184	85	37
126	93	46
-10	85	22
-178	68	21
-316	65	-52
-375	76	-80
-340	97	-32
-240	110	-32
-115	103	16
-5	71	61
78	25	47
139	-15	21
198	-27	0
256	7	-23
302	85	-72
314	181	-85
275	259	-45
192	275	-69
78	210	-92
-40	58	-127
-145	-137	-120
-235	-322	8
-299	-443	-19
-325	-456	-37
-296	-362	13
-195	-196	12
-32	-19	-16
154	124	-21
302	202	-42
363	215	-58
310	183	-47
180	135	-81
22	84	-107
-93	29	-105
-138	-31	-23
-123	-97	42
-84	-158	57
-63	-190	81
-77	-181	56
-111	-125	70
-139	-39	106
-137	57	20
-100	142	-137
-42	198	-208
17	221	-104
65	201	-93
106	135	-138
148	30	-134
193	-93	-81
229	-194	-8
234	-235	-29
186	-187	-36
90	-74	-43
-35	53	-3
-152	131	38
-225	123	63
-230	40	59
-180	-64	61
-98	-128	44
-16	-121	26
46	-56	51
89	4	5
110	16	-37
125	-28	-84
133	-86	-37
133	-95	29
114	-23	26
67	113	46
-1	244	39
-85	299	51
-165	243	14
-221	102	-89
-237	-46	-126
-211	-136	-68
-150	-128	14
-69	-44	97
2	64	134
46	147	94
56	174	42
44	147	-85
36	74	-273
48	-26	-382
87	-143	-268
123	-257	-51
121	-342	-16
44	-368	-40
-98	-320	-10
-262	-214	38
-383	-89	82
-389	9	74
-272	51	60
-67	47	33
142	29	-40
276	36	-75
300	80	-51
230	139	-43
131	171	-23
62	149	15
53	62	36
90	-53	24
123	-150	-15
116	-189	-38
58	-159	-95
-27	-83	-132
-104	2	8
-140	61	53
-134	81	39
-94	75	91
-37	60	-21
26	58	-132
98	76	-167
167	104	-104
219	131	-51
234	149	-96
195	154	-46
111	151	106
12	145	112
-70	129	-8
-121	94	-44
-140	34	-22
-161	-43	-50
-203	-109	-117
-263	-140	-231
-319	-122	-200
-321	-71	-49
-249	-30	52
-105	-35	87
60	-94	64
195	-173	97
257	-211	123
242	-164	54
184	-32	-35
119	128	-38
77	243	-52
55	252	-16
32	161	44
-13	21	32
-82	-92	16
-152	-144	-43
-191	-143	-17
-175	-137	-1
-102	-161	11
5	-202	-76
110	-216	-187
182	-150	-34
210	2	-18
202	181	-52
178	301	-62
155	299	-120
136	183	-23
113	24	-18
69	-79	-47
-5	-77	-13
-100	12	50
-193	106	87
-248	121	71
-234	37	38
-151	-103	-43
-22	-210	-17
96	-218	-8
156	-117	-44
131	38	-64
33	158	-130
-86	182	-72
-173	93	-32
-189	-65	1
-137	-227	5
-55	-326	-42
8	-330	-20
18	-243	-24
-19	-94	-70
-77	63	-121
-119	175	-37
-129	209	28
-113	153	2
-93	37	-17
-80	-88	22
-68	-160	4
-39	-154	-112
24	-83	-55
115	11	-36
198	84	-23
233	116	38
192	119	17
92	120	13
-23	129	-31
-101	129	-6
-118	88	16
-83	-6	-21
-28	-130	-40
4	-222	10
7	-218	87
-8	-104	93
-8	75	57
24	228	-9
91	282	-51
161	227	-98
203	114	-165
201	40	-192
155	59	-101
90	158	-45
29	250	-79
-16	238	-11
-47	84	0
-69	-164	-9
-88	-386	5
-95	-460	-36
-81	-343	-47
-47	-86	-27
-2	179	-3
34	329	11
49	301	49
40	137	100
19	-60	110
6	-186	-11
12	-190	-23
40	-93	60
72	43	31
91	156	40
81	215	-47
37	228	-98
-26	205	-27
-93	151	-46
-145	53	-24
-179	-96	-7
-182	-273	-64
-157	-423	-98
-100	-487	-156
-18	-429	-113
78	-278	8
164	-103	21
214	24	-66
212	61	-155
144	25	-105
33	-32	-42
-94	-59	-21
-199	-39	-33
-253	4	-19
-258	30	-23
-226	15	-104
-187	-28	-163
-151	-66	-112
-124	-67	-14
-95	-25	42
-52	31	81
-1	77	63
49	93	77
77	97	58
77	104	29
54	125	-3
30	138	-43
20	109	-27
24	18	-17
32	-119	-11
26	-245	-15
2	-300	24
-29	-246	123
-47	-101	149
-31	71	77
20	205	-9
93	257	-105
161	237	-208
202	183	-194
211	149	-127
197	148	-51
170	168	36
133	177	52
90	147	91
32	80	74
-36	-5	35
-102	-69	4
-145	-95	-81
-157	-74	-114
-135	-21	-71
-94	43	-42
-47	111	-26
-2	169	25
40	210	20
91	215	-31
151	162	-71
204	38	-87
230	-142	-38
200	-333	-35
111	-470	-137
-18	-487	-83
-140	-361	30
-214	-127	79
-217	137	52
-150	335	-20
-52	398	-82
28	308	-170
62	110	-125
42	-116	-79
-2	-292	26
-35	-372	95
-30	-348	-12
7	-259	-56
48	-148	-46
52	-57	-66
-1	-15	-88
-100	-25	-23
-203	-77	2
-261	-150	-9
-246	-210	-7
-173	-232	31
-94	-195	62
-63	-100	9
-107	27	-9
-200	153	-20
-277	243	-18
-273	282	9
-158	277	-16
36	252	-6
242	221	28
373	180	18
396	121	-2
318	29	-15
200	-85	-5
107	-188	3
62	-235	18
52	-195	21
31	-80	-24
