File Name: not saved
Channel 2: 'Channel 2', 31690 values, raw ADC, no filters.
Channel 3: 'Channel 3', 31690 values, raw ADC, no filters.
Channel 4: 'Channel 4', 31690 values, raw ADC, no filters.

46	-31	-90
144	17	-66
175	70	-35
151	121	-23
107	161	-22
68	179	-52
32	168	-23
-13	125	17
-80	59	24
-165	-18	22
-235	-87	-20
-260	-129	-42
-223	-135	-35
-133	-109	-25
-34	-62	-24
39	-16	-14
66	18	-24
57	36	-25
37	40	20
35	44	32
59	49	0
97	54	-6
123	56	-34
114	44	-93
66	23	-79
-14	-11	-34
-95	-44	-4
-149	-75	-3
-155	-92	2
-102	-94	-25
-10	-85	-5
90	-59	89
156	-29	84
160	6	10
103	38	-61
18	61	-105
-37	78	-150
-28	87	-186
46	91	-170
140	88	-138
190	76	-79
151	46	4
40	1	16
-86	-55	38
-153	-109	40
-123	-141	28
-31	-142	41
53	-111	49
52	-63	65
-40	-14	27
-174	24	-8
-258	47	-25
-221	60	-41
-67	67	-88
121	72	-98
242	71	-50
229	56	-42
96	28	-21
-79	-12	11
-198	-49	33
-214	-75	24
-150	-83	18
-67	-78	-49
-32	-66	-108
-53	-55	-62
-95	-44	-34
-99	-24	19
-38	9	13
65	58	-48
164	110	-48
208	154	-20
182	168	-65
118	144	-92
57	92	-70
24	20	-61
13	-53	-5
-4	-117	2
-48	-163	2
-112	-186	-16
-160	-191	-23
-157	-174	-26
-89	-138	-50
20	-87	-25
113	-31	-15
154	21	10
128	62	12
62	86	16
4	97	12
-16	93	13
4	81	13
33	58	-4
36	27	19
-13	-14	19
-101	-60	-8
-187	-101	-42
-227	-124	-72
-191	-121	-56
-94	-90	-50
32	-33	-36
133	29	-21
180	86	-36
170	125	-17
131	141	-12
107	137	-16
127	117	-13
186	90	-18
245	60	-9
261	29	-24
192	0	-23
39	-31	-19
-159	-61	-25
-347	-87	-34
-459	-103	-43
-480	-102	-27
-400	-85	-36
-262	-51	-46
-115	-15	-27
8	18	-10
94	38	9
144	43	10
167	37	2
171	26	5
153	19	-16
103	12	-42
20	6	-16
-90	-7	28
-208	-28	47
-303	-49	34
-340	-64	-55
-306	-64	-105
-197	-48	-65
-39	-19	-71
130	14	-87
273	44	-119
363	69	-117
388	89	-20
354	106	-23
292	118	-36
226	118	23
169	99	34
123	61	68
75	10	48
13	-42	15
-63	-81	32
-137	-99	27
-187	-100	21
-191	-94	20
-144	-89	-27
-67	-91	-63
13	-95	-92
65	-87	-158
82	-64	-209
68	-25	-201
46	22	-35
37	65	1
48	95	-33
66	102	12
70	90	-13
44	58	-32
-15	19	-28
-93	-27	17
-156	-68	24
-177	-101	30
-143	-116	16
-64	-109	19
29	-76	29
103	-25	-32
128	31	-61
102	81	-32
36	110	-17
-31	114	-27
-70	96	-15
-66	60	-31
-20	17	-35
48	-27	-17
115	-66	-2
158	-97	34
169	-114	12
143	-112	-6
82	-92	7
-19	-50	-21
-149	3	-19
-287	57	-37
-400	106	-60
-434	134	-47
-366	141	-66
-201	125	-78
13	92	-58
192	48	-40
266	5	-17
202	-29	-2
29	-51	12
-180	-58	41
-331	-62	-2
-375	-71	-31
-306	-97	-16
-173	-130	3
-45	-158	48
36	-154	46
62	-102	18
65	-7	3
83	106	-36
131	204	-65
192	244	-85
225	224	-92
199	144	-71
113	45	-48
5	-45	-14
-78	-112	-12
-99	-160	-33
-57	-208	-24
9	-271	-21
63	-341	-12
77	-384	-6
55	-368	-1
28	-272	-2
24	-108	-23
52	78	-32
103	233	-45
151	309	-52
175	300	-37
179	230	-20
165	150	-8
144	95	1
117	79	8
74	89	-2
7	91	-19
-80	64	-30
-161	4	-27
-209	-57	-24
-202	-95	-31
-143	-81	-47
-48	-24	-55
46	46	-53
114	101	-42
143	114	-27
132	93	-28
99	58	-14
48	34	-7
-4	32	-4
-53	39	4
-96	38	11
-122	14	22
-135	-30	16
-130	-78	2
-116	-101	-22
-91	-89	-28
-62	-47	-45
-34	2	-79
-1	32	-84
31	33	-83
66	10	-53
98	-19	-20
121	-34	6
130	-28	38
118	-5	35
84	14	-2
25	17	-21
-48	-4	47
-123	-37	80
-180	-66	46
-202	-77	42
-176	-60	-89
-102	-28	-243
4	8	-229
118	30	-201
208	34	-76
245	21	129
204	3	170
96	-8	90
-57	-8	-30
-206	3	-77
-295	17	-143
-285	26	-179
-174	25	-169
8	13	-65
189	-1	72
302	-16	5
299	-25	39
171	-31	64
-32	-33	42
-236	-35	24
-366	-36	8
-378	-30	64
-269	-14	-57
-90	12	-141
97	41	-23
222	64	-53
257	66	-172
203	40	-179
99	-7	-72
-14	-67	57
-101	-117	40
-144	-141	36
-149	-131	57
-122	-94	32
-84	-39	17
-40	14	3
-3	53	14
22	79	12
28	90	10
20	100	29
12	116	14
23	139	-30
72	162	-24
151	166	-40
227	132	-118
255	57	-93
201	-52	-19
68	-175	-24
-97	-281	-35
-226	-339	-19
-264	-338	-21
-201	-281	-14
-72	-191	17
56	-90	-1
142	1	-37
169	71	-28
162	127	-36
159	171	-54
179	213	-56
196	241	-55
178	248	-38
97	219	-36
-36	144	-38
-170	30	-28
-252	-109	-16
-248	-235	-2
-175	-314	1
-80	-313	5
-12	-224	36
3	-72	86
-27	93	109
-77	215	80
-117	265	5
-140	231	-74
-144	142	-150
-133	39	-182
-108	-44	-122
-59	-97	-79
-1	-127	22
51	-149	84
69	-171	29
44	-181	28
-10	-163	-30
-57	-115	-67
-61	-45	-35
-14	17	7
57	51	15
104	50	-4
94	39	26
31	44	31
-39	82	22
-62	140	-52
-12	185	-124
93	185	-81
192	122	-90
226	20	-59
167	-77	-32
41	-126	-79
-83	-110	22
-157	-45	107
-152	37	113
-96	99	57
-32	127	21
3	124	2
3	102	-141
-3	72	-189
12	32	-90
66	-18	-21
140	-78	-58
198	-126	-103
207	-144	-175
158	-121	-184
78	-63	-12
8	4	176
-22	53	208
-6	68	113
29	58	16
48	49	-84
22	66	-183
-48	119	-303
-137	183	-242
-202	225	-59
-213	204	3
-163	105	24
-76	-55	-35
8	-234	-72
55	-371	-56
51	-421	-33
14	-376	-3
-29	-256	12
-46	-112	45
-31	3	54
5	49	55
33	27	45
28	-44	41
-16	-119	43
-87	-157	79
-156	-133	170
-192	-55	209
-182	52	155
-127	162	84
-43	249	-39
44	301	-149
114	313	-172
151	279	-249
149	195	-271
114	61	-195
59	-99	-87
3	-254	31
-37	-344	56
-54	-340	22
-48	-229	-3
-27	-53	-15
0	123	-58
30	241	-66
69	270	34
128	228	67
208	153	35
296	89	14
353	60	-18
344	51	-74
238	37	-78
37	-4	-47
-213	-68	-23
-442	-132	63
-564	-170	93
-540	-168	69
-386	-137	-2
-162	-97	4
40	-62	27
159	-40	-117
184	-20	-157
150	4	-108
111	28	-51
111	41	-3
143	35	24
164	15	92
128	-2	30
24	6	-51
-116	41	-75
-233	91	-74
-273	120	-13
-232	106	-15
-139	45	-53
-56	-30	-54
-22	-82	-45
-32	-78	-111
-52	-15	-157
-39	70	-124
20	138	-43
112	152	11
194	106	-35
229	23	-17
208	-62	76
148	-122	152
77	-149	109
12	-150	21
-38	-141	65
-79	-135	-27
-107	-132	-192
-117	-119	-300
-98	-78	-298
-53	4	-110
-1	126	19
38	269	75
46	401	112
24	469	95
-3	433	-3
-13	266	0
8	-13	10
49	-334	-58
86	-604	-50
97	-721	109
80	-648	190
49	-418	80
29	-123	8
33	110	-95
56	204	-110
78	149	-115
76	19	-164
42	-74	-131
-10	-47	-141
-53	109	-165
-63	323	-122
-35	490	-25
17	519	40
57	387	84
52	143	79
-12	-116	56
-124	-311	50
-245	-402	74
-328	-400	130
-332	-348	71
-248	-282	33
-101	-224	84
65	-162	15
192	-82	-93
242	18	-239
209	127	-289
114	219	-61
-1	270	83
-87	272	179
-119	229	163
-95	160	13
-31	83	-88
40	18	-240
95	-30	-85
118	-60	76
107	-80	18
72	-94	-70
15	-106	-155
-53	-116	-167
-120	-109	-197
-169	-75	-74
-180	-6	49
-133	82	11
-32	165	74
94	213	126
206	210	19
254	161	-90
221	85	-117
116	17	-76
-14	-22	-83
-123	-33	-124
-180	-31	-151
-186	-39	-185
-168	-65	-93
-152	-105	39
-147	-134	71
-136	-138	37
-95	-111	50
-7	-66	45
114	-19	78
236	20	116
310	45	80
313	66	72
248	85	32
140	97	48
29	98	112
-61	84	96
-128	60	19
-170	41	-101
-195	35	-171
-198	41	-126
-170	41	-56
-107	21	-9
-11	-21	26
101	-64	28
208	-74	-76
280	-25	-124
302	74	-22
259	174	-16
151	215	-25
1	157	-25
-150	1	-21
-253	-195	-6
-281	-344	2
-227	-381	62
-133	-298	92
-57	-143	133
-48	-2	141
-106	62	84
-186	38	-30
-221	-32	-176
-155	-82	-283
1	-67	-306
187	1	-325
325	68	-311
346	74	-189
253	-9	63
93	-140	352
-55	-248	438
-137	-257	425
-141	-148	215
-105	29	-22
-75	182	-246
-87	228	-534
-135	150	-598
-187	-8	-463
-203	-152	-238
-152	-200	-72
-43	-139	222
97	-9	402
225	113	292
295	162	151
290	127	69
210	49	84
79	-13	-214
-60	-21	-412
-168	19	-211
-221	62	82
-208	62	350
-149	-1	436
-72	-100	299
-4	-178	-76
40	-186	-236
68	-109	-279
91	19	-403
119	143	-389
154	215	-271
181	225	-150
189	190	-78
167	150	210
124	130	164
70	128	-46
18	122	8
-25	87	20
-66	16	87
-108	-63	-4
-152	-121	-8
-184	-131	-6
-190	-98	5
-154	-45	26
-77	-2	16
20	16	208
107	20	235
161	27	129
167	56	68
136	100	-31
96	129	-211
67	116	-257
60	47	-120
67	-54	52
67	-154	66
44	-207	-33
-5	-201	-23
-67	-142	-60
-126	-64	-151
-162	-1	-165
-164	28	-102
-137	22	-55
-87	-1	30
-16	-28	130
74	-40	194
175	-33	213
275	-6	118
340	38	55
334	88	-114
242	131	-295
65	155	-353
-152	154	-330
-353	132	-136
-487	103	19
-522	71	58
-459	34	99
-329	-19	123
-182	-97	112
-62	-184	52
1	-246	-7
8	-247	-5
-26	-171	-65
-65	-49	-81
-78	61	23
-51	93	168
10	27	278
72	-101	237
105	-210	48
89	-235	-151
27	-164	-273
-42	-49	-298
-86	22	-190
-74	-3	-6
-8	-110	78
87	-219	47
181	-237	-19
248	-124	-205
284	77	-427
302	267	-287
310	354	-46
302	315	136
269	208	272
193	127	298
66	131	210
-91	203	-74
-238	247	-186
-333	171	-251
-363	-54	-310
-329	-356	-135
-257	-596	24
-177	-645	-35
-108	-459	-84
-50	-122	-48
7	215	24
69	410	-1
139	402	-117
202	240	-89
230	40	74
215	-80	194
156	-77	172
68	17	57
-26	120	-87
-101	162	-21
-150	126	-5
-163	49	-7
-147	-13	-34
-111	-26	-86
-64	1	9
-18	31	16
29	31	43
78	-3	-14
137	-45	-21
209	-52	-91
285	-10	-157
353	65	-86
386	127	-6
358	134	45
262	79	39
107	-16	61
-87	-100	27
-285	-133	18
-451	-104	-60
-556	-36	-129
-569	29	-141
-474	63	-63
-281	50	78
-29	7	145
209	-46	164
358	-86	149
368	-94	84
238	-69	-71
29	-15	-176
-164	51	-214
-269	109	-226
-254	120	-170
-155	66	-23
-42	-56	120
21	-214	186
12	-351	155
-37	-406	139
-75	-348	120
-55	-196	4
24	-6	-41
128	150	0
212	224	112
237	211	64
198	149	24
117	86	-16
32	52	-173
-33	49	-205
-66	51	-312
-68	30	-332
-58	-14	-372
-44	-65	-239
-40	-87	20
-51	-62	-13
-75	4	47
-95	79	-51
-91	120	-125
-50	111	-72
28	58	-23
117	-5	23
180	-49	-81
188	-53	8
130	-24	69
38	15	109
-42	42	64
-74	39	-52
-46	12	-91
19	-26	-151
85	-52	-66
116	-53	30
103	-23	102
50	27	128
-18	77	-3
-97	100	-115
-170	80	-92
-237	20	-6
-277	-56	-3
-274	-117	85
-216	-130	202
-115	-93	224
-6	-24	196
71	36	60
95	57	-91
80	37	-255
64	0	-400
93	-12	-329
184	27	-81
326	113	30
474	202	120
561	241	172
541	200	219
391	84	194
113	-59	40
-237	-174	-67
-579	-218	-118
-819	-192	-120
-872	-131	-140
-714	-80	-86
-407	-76	-43
-61	-118	36
175	-188	84
221	-246	46
96	-263	-59
-91	-232	-53
-197	-157	127
-143	-56	68
46	43	-43
276	128	-46
421	185	63
429	207	175
333	197	137
223	166	24
170	127	-206
175	102	-398
178	96	-397
98	106	-353
-81	117	-251
-302	98	-6
-458	37	114
-459	-64	94
-308	-185	3
-79	-286	-108
123	-326	-142
228	-288	-140
240	-172	-62
224	-9	68
229	154	90
260	275	42
252	326	60
139	305	90
-91	235	135
-361	150	189
-550	85	203
-554	49	199
-353	37	171
-49	16	117
212	-38	20
316	-134	-136
230	-242	-194
36	-312	-228
-148	-290	-187
-229	-161	-150
-185	39	-101
-75	228	-37
31	312	-132
87	238	-133
97	30	-233
95	-223	-302
114	-403	-276
148	-434	-192
159	-309	71
122	-105	322
33	72	511
-65	152	591
-122	121	418
-97	43	47
2	-1	-155
123	37	-345
210	143	-538
225	259	-536
171	313	-239
86	275	54
21	170	81
0	49	103
16	-35	-11
33	-80	16
9	-108	78
-77	-157	41
-210	-237	9
-338	-315	-60
-407	-343	-13
-377	-277	83
-249	-123	56
-69	68	-65
99	233	-84
204	320	-92
226	330	-35
186	295	-2
134	261	-66
115	253	34
139	252	58
186	219	-19
212	120	56
184	-41	78
93	-230	70
-33	-383	19
-159	-456	-121
-247	-432	-134
-281	-345	-39
-267	-238	81
-221	-151	90
-148	-99	79
-60	-66	-43
35	-33	-280
117	21	-332
167	92	-249
162	158	-120
107	192	-5
27	174	151
-40	108	221
-63	20	249
-42	-50	209
10	-72	112
60	-38	101
91	35	24
105	110	-59
120	149	-197
143	133	-234
159	80	-194
139	20	-201
49	-6	-182
-110	9	-130
-305	47	-22
-465	75	103
-526	56	91
-452	-8	-14
-272	-89	-45
-53	-148	-89
124	-151	-127
203	-107	-145
172	-52	-170
66	-33	-96
-52	-69	-34
-126	-149	-59
-124	-222	-9
-43	-237	45
84	-166	81
205	-20	76
275	150	74
269	286	99
199	339	101
94	292	159
-1	171	144
-59	21	57
-77	-105	42
-76	-175	-26
-80	-176	-63
-100	-130	-8
-123	-66	-39
-117	-11	-187
-51	28	-205
78	62	-66
239	106	-67
385	157	-156
453	190	-127
410	171	-26
263	83	-12
51	-62	-22
-157	-210	38
-302	-291	183
-348	-260	298
-292	-126	320
-170	48	225
-32	182	140
71	214	94
107	148	-116
77	33	-323
5	-53	-281
-67	-58	-172
-101	14	-236
-80	120	-276
-15	195	-332
66	201	-490
126	138	-363
136	48	-10
90	-27	163
-2	-65	225
-108	-75	205
-194	-89	89
-234	-127	-59
-217	-191	-161
-156	-254	-133
-82	-278	-32
-26	-243	115
-11	-151	245
-32	-32	360
-66	69	297
-82	125	48
-54	127	-119
10	89	-257
84	36	-302
135	-4	-176
138	-22	-135
105	-17	-46
57	-5	36
25	-3	47
21	-20	48
33	-52	37
44	-84	119
48	-92	126
62	-56	170
113	25	178
211	140	-18
330	260	-238
404	344	-345
371	369	-362
205	321	-155
-48	213	6
-294	70	44
-435	-75	138
-435	-196	119
-321	-282	94
-195	-320	86
-138	-311	-2
-186	-261	-47
-300	-188	89
-392	-111	176
-390	-51	212
-262	-24	234
-60	-18	115
144	-17	1
291	6	-226
351	56	-338
342	126	-282
295	188	-297
226	205	-273
132	160	-215
13	57	-90
-125	-77	-48
-249	-210	79
-304	-307	175
-262	-346	192
-135	-319	297
29	-225	259
164	-81	-48
226	81	-356
211	218	-570
159	288	-555
112	273	-252
105	185	-119
131	72	-121
166	-13	-105
178	-29	26
154	22	108
93	112	152
6	193	225
-93	225	305
-199	197	398
-290	122	386
-337	26	207
-300	-72	-72
-167	-153	-125
44	-204	-187
266	-215	-243
409	-177	-96
411	-100	-21
265	-4	27
34	71	-11
-180	99	-130
-291	68	-193
-263	-1	-172
-142	-69	-92
-8	-107	-46
62	-98	-36
37	-56	-2
-47	-7	106
-127	30	142
-143	53	93
-81	81	72
28	119	-32
125	169	-115
169	205	-145
150	198	-120
99	131	39
54	15	241
32	-116	413
28	-211	466
9	-231	307
-45	-171	25
-128	-61	-230
-201	41	-529
-223	85	-675
-167	48	-573
-43	-46	-297
103	-141	-55
224	-178	27
281	-122	118
266	10	162
192	154	213
87	244	180
-17	233	67
-101	131	-10
-149	-9	-23
-157	-119	10
-134	-167	-81
-105	-160	-1
-102	-139	99
-142	-152	67
-221	-201	-63
-289	-251	-192
-296	-243	-109
-201	-149	-100
-15	14	-168
200	175	-145
366	257	8
421	219	168
344	86	272
184	-61	218
8	-144	130
-129	-120	18
-195	-11	-294
-200	110	-553
-162	171	-615
-97	140	-471
-18	47	-259
60	-47	29
115	-85	234
114	-45	238
46	43	229
-63	130	176
-162	171	194
-187	164	136
-112	123	8
27	82	30
156	58	126
198	41	30
126	14	-40
-14	-37	52
-140	-97	37
-175	-140	-162
-105	-144	-320
25	-110	-68
140	-64	99
178	-37	41
139	-40	-23
62	-45	-57
10	-12	-11
7	91	-44
42	252	-38
84	404	60
101	457	176
96	345	209
92	88	178
110	-233	108
140	-482	-28
150	-562	-248
101	-439	-437
-21	-192	-444
-181	51	-278
-321	166	-68
-393	101	21
-379	-103	90
-295	-326	96
-186	-451	17
-89	-401	-119
-16	-204	-316
37	53	-277
82	257	-156
111	330	36
111	259	281
74	96	570
9	-74	689
-46	-183	506
-58	-201	175
-15	-135	-323
58	-26	-675
118	89	-643
119	187	-422
57	255	-290
-36	284	-63
-108	272	61
-117	214	29
-62	114	48
26	-2	47
107	-108	56
150	-169	31
156	-173	37
142	-125	20
127	-56	14
111	7	37
81	51	67
24	76	94
-55	100	118
-138	130	179
-195	166	175
-206	183	170
-163	169	98
-82	123	-42
12	64	-51
96	19	-105
147	-2	-120
150	-15	-147
100	-53	-233
0	-147	-67
-124	-283	54
-237	-421	-62
-297	-481	-137
-280	-410	-141
-198	-214	-168
-86	41	-138
9	257	-112
64	358	-93
82	324	-64
97	196	118
132	45	63
194	-62	-45
254	-111	-6
271	-117	-67
224	-110	-88
125	-104	-150
21	-93	-38
-43	-62	74
-48	-10	86
-13	45	58
22	81	72
29	89	132
15	86	-18
10	106	-140
50	166	-80
131	241	166
207	283	309
212	241	221
105	105	74
-98	-75	-69
-317	-222	-298
-459	-270	-523
-470	-218	-444
-354	-117	-155
-186	-47	118
-47	-55	139
11	-129	-48
6	-202	-88
-7	-204	-6
28	-109	8
127	45	42
245	179	36
321	229	70
302	180	155
198	85	22
48	12	-188
-81	5	-284
-150	56	-160
-153	110	107
-120	113	188
-91	39	185
-79	-74	84
-85	-178	-67
-91	-222	-113
-82	-196	-106
-54	-142	-20
-14	-88	41
29	-53	19
68	-14	-43
100	61	37
121	191	129
123	343	40
104	445	-70
59	427	-49
4	256	-62
-46	-20	-193
-80	-309	-268
-89	-502	-294
-83	-535	-159
-77	-413	83
-72	-201	268
-64	7	305
-34	142	225
34	180	139
137	138	1
245	61	-111
318	-13	-202
314	-55	-137
216	-60	-65
46	-27	-229
-158	27	-262
-342	83	-105
-454	110	-68
-466	74	-82
-394	-28	-38
-276	-179	-2
-151	-322	102
-54	-401	168
7	-362	204
48	-211	213
96	0	80
163	205	-72
237	341	-235
280	386	-189
257	358	12
150	301	-86
-16	251	-222
-173	206	-215
-248	154	-115
-205	65	72
-63	-54	141
95	-183	229
179	-271	213
131	-283	89
-23	-223	93
-195	-111	91
-275	-2	-114
-191	70	-287
42	94	-226
333	85	-185
561	67	-259
645	51	-205
569	36	83
389	3	130
182	-49	-2
-6	-110	-51
-163	-149	-136
-316	-143	-167
-474	-94	-109
-621	-20	-5
-690	45	68
-623	85	112
-415	105	104
-102	128	115
200	174	117
399	236	134
439	283	63
340	269	-43
162	174	49
-8	7	124
-111	-177	174
-130	-321	147
-84	-380	43
-10	-353	18
55	-278	-90
89	-198	-174
85	-141	-116
59	-100	-186
32	-41	-209
33	56	26
78	185	235
169	296	394
288	330	409
389	247	133
425	70	-128
358	-130	-328
178	-263	-553
-88	-263	-530
-377	-141	-364
-618	25	-259
-743	132	-263
-711	114	-373
-545	-23	-301
-294	-199	-249
-47	-301	-253
123	-263	8
184	-93	117
155	122	155
90	275	297
48	301	325
64	215	285
123	88	169
184	4	183
203	-1	213
159	41	120
68	65	65
-27	18	1
-92	-96	-300
-115	-210	-406
-101	-249	-215
-66	-170	-161
-18	-3	83
52	171	213
141	278	164
237	284	127
300	224	-55
291	163	-14
192	153	35
36	177	52
-115	183	147
-199	108	168
-178	-65	104
-87	-280	-84
12	-434	-219
46	-437	-219
-5	-277	-138
-109	-29	4
-188	179	152
-173	235	187
-54	110	117
115	-130	-38
245	-351	-294
266	-432	-517
160	-321	-350
-10	-63	-44
-150	225	116
-183	428	189
-105	474	117
18	372	79
90	181	101
42	-17	119
-115	-175	135
-305	-282	85
-418	-345	-9
-385	-374	-100
-213	-354	-64
28	-275	86
238	-130	49
354	48	-26
381	200	-248
358	270	-575
326	236	-717
283	121	-500
193	-6	-37
6	-89	236
-262	-95	364
-533	-48	201
-692	4	-135
-644	19	-155
-392	-6	-58
-37	-48	-208
270	-64	-283
406	-38	-168
352	20	-18
197	88	102
65	140	187
46	182	171
129	225	201
216	274	268
206	301	233
56	267	217
-169	131	138
-344	-87	123
-364	-316	71
-213	-454	-40
9	-433	103
167	-257	96
159	-20	-121
-5	164	-267
-209	207	-457
-316	117	-320
-236	-21	-80
0	-97	-44
265	-47	-28
431	101	-52
414	259	-4
251	324	-12
44	261	-5
-95	111	30
-122	-31	-13
-60	-95	-16
19	-65	-1
61	1	49
63	31	152
59	-13	138
85	-112	79
134	-196	-1
161	-206	-119
111	-134	-143
-36	-24	-136
-228	49	-42
-375	52	74
-399	-5	64
-281	-68	112
-90	-84	164
78	-44	166
147	11	155
105	21	35
12	-39	-190
-45	-148	-479
-22	-233	-476
72	-235	-133
169	-137	18
204	13	-25
154	135	-35
52	170	-68
-33	106	-160
-68	2	-245
-50	-77	-302
-31	-83	-339
-54	-23	-196
-132	47	-5
-226	72	63
-271	28	129
-234	-56	170
-123	-124	238
-2	-127	237
69	-63	205
64	24	159
18	77	-19
-1	60	-123
56	-7	7
190	-66	176
342	-57	225
423	38	176
379	177	16
212	282	-130
-18	283	-116
-226	162	-72
-350	-29	-12
-378	-204	110
-342	-282	-105
-280	-240	-309
-223	-107	-306
-167	39	-205
-94	138	-42
12	164	120
138	132	240
263	89	78
341	56	-2
342	43	-119
270	36	-250
147	19	-139
12	-7	-30
-98	-30	-14
-160	-40	-33
-173	-36	37
-144	-31	93
-99	-44	82
-55	-78	102
-24	-114	86
-12	-126	-46
-7	-94	-202
-3	-17	-297
13	84	-273
44	174	-98
85	233	-65
127	251	65
154	241	235
166	219	142
159	198	79
143	179	-127
123	147	-265
95	88	-269
42	-7	-157
-45	-135	-12
-163	-276	72
-282	-395	208
-361	-464	210
-351	-453	152
-231	-364	62
-31	-232	-1
181	-101	-25
319	-12	113
317	16	204
179	8	-52
-46	2	-282
-256	31	-327
-369	95	-244
-351	154	-68
-231	160	39
-86	84	183
12	-52	240
26	-186	150
-22	-246	45
-77	-198	-121
-76	-69	-251
9	72	-308
158	157	-139
313	158	30
407	104	27
409	55	69
308	59	56
144	115	-49
-28	176	-126
-165	178	-173
-231	93	-83
-229	-52	87
-175	-185	129
-104	-236	172
-43	-181	166
-7	-49	46
7	93	-152
14	196	-249
29	240	-233
55	247	-215
80	244	-112
84	236	-95
48	194	-23
-22	85	155
-108	-90	305
-173	-282	331
-189	-408	306
-153	-399	205
-79	-253	-104
-4	-35	-352
44	150	-450
56	218	-430
44	161	-323
33	36	-7
40	-62	260
74	-71	237
127	11	133
184	127	-26
230	205	-104
248	200	-158
230	121	-133
169	16	-155
65	-72	-178
-64	-118	-20
-193	-131	44
-279	-134	78
-300	-137	81
-242	-137	164
-134	-120	232
-20	-82	129
54	-31	3
64	4	-10
16	8	59
-50	-26	1
-85	-78	60
-55	-125	90
32	-152	-99
129	-152	-179
169	-130	-194
93	-102	-241
-95	-69	-251
-329	-45	-26
-511	-29	326
-537	-30	366
-373	-42	183
-71	-54	-127
260	-42	-391
486	13	-406
552	110	-352
468	227	-306
314	313	-198
179	331	-6
104	265	-49
63	140	-24
2	5	308
-116	-91	345
-273	-119	135
-403	-92	63
-434	-35	-14
-342	12	-97
-170	37	-130
4	42	-151
110	46	-31
130	62	91
109	88	142
105	110	256
150	116	339
222	102	249
270	77	84
254	53	-162
170	40	-517
64	30	-637
-15	12	-572
-40	-21	-275
-38	-61	28
-63	-92	32
-152	-94	225
-285	-64	233
-392	-26	144
-393	-11	152
-251	-42	84
5	-115	70
271	-194	0
446	-221	-1
462	-157	-46
342	-6	-99
155	174	-24
3	301	-8
-59	308	-26
-30	171	79
34	-49	152
72	-254	180
44	-356	105
-45	-322	-92
-157	-198	-238
-239	-84	-318
-257	-64	-306
-209	-160	-211
-124	-303	-97
-31	-380	-15
34	-301	77
65	-58	140
62	256	186
42	505	297
18	580	206
-2	461	9
-16	218	-178
-31	-20	-272
-47	-160	-219
-66	-174	-164
-83	-110	89
-86	-39	224
-70	-14	160
-36	-29	55
8	-45	-235
51	-26	-381
80	39	-242
86	117	-46
76	169	-8
49	174	14
19	140	65
-5	103	124
-15	77	138
-7	59	26
21	21	-33
59	-57	-272
92	-171	-383
103	-277	-361
85	-322	-242
39	-272	-5
-14	-139	14
-55	20	134
-78	141	47
-83	181	-102
-85	138	-115
-97	57	-13
-120	-8	119
-145	-19	-14
-151	24	37
-129	92	118
-88	135	164
-46	123	203
-23	53	124
-20	-52	105
-25	-153	49
-10	-212	11
37	-217	21
121	-171	-13
225	-94	-30
321	-8	218
388	72	381
404	135	193
352	171	-17
225	174	-228
24	131	-350
-230	40	-350
-481	-82	-138
-653	-203	89
-686	-274	24
-563	-263	-118
-321	-166	-178
-49	-18	-155
162	116	-119
261	186	-97
254	170	-101
190	104	-41
134	42	12
123	39	-81
151	104	-89
182	190	-18
179	227	-15
133	162	-89
62	-1	-97
-1	-202	41
-40	-351	116
-54	-376	60
-59	-273	74
-71	-101	85
-84	51	133
-81	126	390
-46	114	485
23	64	360
111	41	193
193	79	-69
245	165	-420
263	250	-652
257	283	-526
229	244	-341
169	154	-168
63	54	-107
-93	-26	-341
-272	-78	-310
-426	-117	-16
-502	-154	87
-459	-183	194
-312	-184	280
-111	-140	139
72	-66	-35
188	-1	-117
216	11	-207
191	-46	-144
145	-145	5
113	-224	13
100	-226	120
81	-134	138
38	19	-30
-32	168	-243
-113	252	-245
-170	244	10
-174	151	160
-116	6	181
-21	-164	155
72	-322	161
122	-443	133
104	-470	66
32	-371	-23
-52	-140	-68
-91	168	45
-49	438	72
61	568	25
182	480	-39
222	215	-80
125	-108	-33
-99	-340	-144
-369	-389	-208
-552	-263	-92
-556	-54	-4
-383	112	12
-110	162	20
121	105	31
212	19	-5
160	-11	-84
38	48	-47
-28	166	87
24	264	225
183	279	324
350	198	241
418	68	202
344	-44	-31
158	-96	-505
-42	-81	-604
-175	-38	-453
-208	-10	-344
-170	-19	-80
-124	-57	178
-105	-99	113
-107	-114	106
-89	-90	194
-22	-35	136
90	38	105
203	115	-52
268	183	-252
260	236	-392
192	250	-530
111	213	-391
49	121	-197
19	-5	-47
3	-127	87
-24	-203	222
-69	-207	311
-119	-151	376
-152	-70	397
-156	-22	193
-133	-29	-6
-106	-90	-173
-88	-162	-160
-72	-192	11
-42	-149	124
24	-33	119
123	109	64
234	221	102
306	250	-20
310	182	-230
234	29	-237
89	-163	-151
-82	-337	-178
-241	-443	-186
-345	-444	-229
-377	-343	-202
-329	-168	-3
-223	19	7
-98	150	21
2	187	48
44	127	-4
24	25	13
-30	-50	-13
-70	-43	-1
-57	48	75
17	168	113
128	236	66
226	197	11
273	64	46
258	-94	45
202	-186	38
135	-163	68
69	-42	-62
2	103	-193
-84	187	-115
-191	174	141
-302	96	468
-372	29	560
-371	38	350
-288	127	-23
-162	243	-341
-40	295	-472
33	228	-680
52	55	-615
39	-145	-189
28	-282	-76
40	-301	-90
69	-206	20
98	-67	-25
102	44	-126
85	89	40
62	76	219
57	53	213
81	61	81
118	115	-47
148	185	-84
151	237	-76
120	238	22
72	188	-20
25	101	-52
-10	-2	-56
-34	-108	-88
-54	-212	53
-76	-300	137
-96	-348	98
-99	-329	47
-76	-225	3
-21	-50	-15
56	136	-77
134	262	-19
198	271	58
222	145	-87
195	-76	-155
119	-309	-157
9	-474	-74
-106	-516	-43
-188	-436	21
-206	-283	175
-158	-131	187
-67	-42	135
22	-37	39
70	-93	-51
61	-151	-103
13	-154	8
-38	-69	147
-60	91	149
-46	271	38
-21	406	-68
-14	445	-211
-47	385	-296
-108	259	-226
-162	130	-51
-174	48	270
-133	24	386
-60	40	238
8	57	41
42	47	-4
42	5	-208
24	-47	-435
19	-80	-576
42	-75	-627
94	-33	-507
157	22	-400
216	70	2
268	97	162
300	103	272
300	97	334
241	88	258
103	79	281
-104	57	183
-333	23	80
-509	-27	-7
-561	-81	61
-459	-126	-132
-244	-153	-457
-2	-152	-521
178	-133	-249
234	-95	11
174	-45	-23
58	15	54
-47	80	196
-98	136	305
-92	173	242
-51	169	115
-8	124	76
31	45	-23
72	-41	-183
117	-109	-160
156	-137	-63
154	-119	1
91	-64	48
-33	11	64
-169	86	99
-250	148	0
-222	182	-40
-71	182	-34
141	150	-28
331	84	8
411	-8	-17
346	-118	-45
164	-233	-33
-57	-334	0
-243	-405	-38
-333	-425	-70
-321	-383	-35
-242	-281	28
-133	-143	89
-32	-7	171
42	83	289
86	98	274
91	44	102
52	-43	-159
-20	-111	-312
-103	-116	-325
-158	-41	-319
-143	81	-197
-53	202	-85
81	272	-53
197	266	-65
231	200	-40
167	106	77
33	26	96
-91	-22	65
-136	-45	178
-82	-58	200
46	-75	101
175	-86	100
240	-81	69
212	-40	-170
121	34	-455
17	119	-358
-50	187	-335
-66	208	-590
-50	181	-348
-31	122	-10
-29	57	142
-44	9	346
-64	-16	233
-75	-25	186
-79	-33	57
-86	-43	-120
-102	-52	-151
-122	-47	-268
-119	-21	-15
-80	21	43
0	63	-36
94	84	260
167	74	369
194	46	255
163	26	-28
98	33	-337
30	71	-500
-12	119	-405
-14	138	-162
19	100	-22
80	-6	79
144	-149	124
194	-273	149
200	-326	113
139	-286	134
7	-179	162
-178	-54	68
-366	25	116
-496	34	82
-506	-7	-35
-392	-46	-23
-182	-17	9
62	98	-15
263	261	-53
381	380	-34
397	365	-26
320	174	16
170	-140	3
-26	-460	-50
-248	-655	-30
-450	-637	-21
-584	-421	-106
-617	-122	-165
-524	114	-48
-329	181	83
-82	80	46
156	-106	-70
341	-244	-23
447	-248	46
478	-117	-8
450	68	-115
368	208	-190
253	239	-291
113	174	-349
-28	91	-113
-141	53	4
-202	92	-38
-200	169	-13
-150	222	248
-76	213	517
-1	150	425
61	85	233
117	61	-35
166	90	-284
204	127	-453
216	119	-292
191	41	-106
116	-76	4
9	-163	159
-106	-170	150
-195	-90	113
-242	22	-66
-236	89	-232
-185	71	-276
-105	-12	-237
-10	-91	-232
82	-99	-53
151	-16	175
182	116	238
163	219	163
107	236	-31
33	161	-80
-24	43	-234
-46	-47	-222
-33	-74	41
-3	-46	109
12	-16	-35
-3	-26	-90
-49	-89	46
-99	-164	74
-126	-201	74
-114	-161	174
-65	-50	87
-10	79	-87
32	165	-230
50	161	-306
54	67	-192
69	-72	-84
111	-189	21
172	-223	97
234	-148	98
244	9	54
179	174	-10
42	261	-36
-129	203	18
-273	-5	128
-343	-298	211
-324	-559	180
-240	-680	45
-147	-611	-20
-85	-379	-39
-65	-90	-86
-65	148	-69
-36	271	23
46	285	30
172	248	-97
280	211	-229
306	192	-224
208	161	-153
9	86	-172
-221	-29	-127
-392	-139	-63
-451	-174	62
-380	-97	175
-223	62	160
-44	215	52
106	268	-8
195	191	-32
222	23	-120
201	-131	-68
148	-189	-164
82	-118	-135
21	28	158
-10	162	372
-3	215	326
37	181	74
81	105	24
87	45	-56
36	34	-222
-55	56	-309
-137	77	-223
-160	68	-181
-97	37	-242
23	14	-72
135	23	-114
184	66	-17
141	106	170
49	106	14
-29	42	-95
-44	-66	-172
11	-176	-197
87	-244	-243
121	-250	-199
78	-209	-69
-27	-149	-3
-125	-90	105
-153	-45	169
-82	-4	206
54	36	209
183	85	189
236	131	211
187	163	218
65	170	196
-57	138	112
-129	61	63
-121	-64	30
-56	-222	-78
15	-372	-178
48	-453	-155
24	-425	-160
-40	-281	-219
-115	-64	-135
-168	137	20
-179	244	40
-161	215	-125
-124	85	-341
-87	-78	-441
-50	-183	-408
-7	-186	-214
56	-91	40
140	49	111
229	171	131
288	237	173
283	237	167
198	192	149
48	131	135
-120	70	117
-253	20	-13
-300	-16	-109
-250	-33	-66
-138	-24	69
-14	11	118
66	62	86
85	106	99
46	124	36
-13	106	31
-57	60	80
-69	6	71
-42	-30	51
7	-28	-100
63	15	-243
111	85	-126
143	163	-59
150	218	-15
117	233	25
42	194	-60
-76	97	-180
-210	-51	-270
-325	-230	-287
-389	-416	-248
-370	-557	-13
-260	-612	13
-81	-555	-82
133	-381	-77
329	-142	-94
454	88	-61
478	236	-17
391	255	93
208	161	130
-15	17	141
-223	-95	189
-354	-121	217
-378	-61	130
-299	43	87
-159	138	83
-18	187	-81
77	187	-232
105	168	-402
91	145	-259
74	126	-27
94	90	120
161	27	231
252	-52	139
323	-114	87
328	-121	23
253	-68	-72
107	15	-27
-61	74	86
-215	70	43
-321	14	35
-369	-46	-92
-355	-47	-319
-294	32	-365
-198	165	-311
-80	278	-184
42	305	-129
148	233	-82
224	98	-89
254	-28	-67
245	-97	3
203	-109	3
149	-108	113
91	-138	257
33	-213	298
-26	-286	102
-91	-292	-51
-156	-196	-150
-209	-19	-283
-237	156	-254
-237	231	-71
-206	160	182
-158	-24	216
-105	-225	240
-54	-334	225
-7	-297	133
40	-140	48
91	45	-147
136	161	-239
164	158	-107
156	55	29
111	-77	21
39	-158	108
-30	-152	100
-75	-66	-19
-69	49	-148
-21	150	-162
50	213	-126
121	241	-127
169	244	47
180	229	-28
166	185	-154
138	98	-137
110	-25	-157
77	-149	-74
30	-222	-3
-45	-206	114
-143	-103	268
-252	37	409
-335	138	376
-366	137	155
-325	21	-74
-225	-166	-268
-91	-337	-468
41	-411	-560
130	-348	-356
165	-165	-68
154	71	222
121	284	478
92	408	571
78	410	415
81	299	152
89	110	-158
95	-97	-474
97	-261	-565
101	-326	-405
105	-274	-291
98	-120	-306
59	76	-154
-25	236	-153
-147	296	-264
-272	237	-162
-351	101	-42
-345	-43	-72
-248	-126	-76
-92	-126	135
62	-66	133
160	0	133
172	22	221
114	-11	235
22	-75	231
-56	-122	155
-96	-124	260
-95	-72	238
-64	10	199
-22	86	163
28	132	79
80	138	-8
129	110	-151
166	54	-113
171	-13	-209
143	-79	-303
88	-123	-328
34	-130	-319
8	-97	-179
19	-40	-72
59	4	15
101	4	54
118	-40	70
96	-102	112
41	-125	116
-26	-74	152
-86	52	121
-133	205	-100
-166	318	-198
-183	345	-214
-185	287	-306
-161	191	-246
-108	103	-19
-38	48	113
24	3	123
46	-77	76
22	-210	26
-42	-371	3
-109	-488	-20
-144	-497	-52
-130	-379	-63
-72	-190	25
-4	-20	181
52	60	285
89	40	319
122	-16	300
180	-28	151
271	51	-163
373	200	-462
438	340	-551
406	397	-316
244	345	-40
-20	233	52
-318	130	12
-554	88	-92
-644	86	-66
-571	66	-21
-378	-27	53
-144	-189	135
46	-346	124
158	-410	86
207	-326	1
242	-137	-27
301	56	-3
383	152	-90
438	113	-154
400	2	-120
231	-80	-76
-32	-48	31
-312	82	147
-493	223	160
-509	259	49
-382	141	-124
-184	-79	-331
-25	-285	-261
28	-355	-40
-18	-254	-81
-100	-33	-85
-138	192	-46
-91	320	-10
28	324	-147
158	241	-137
234	154	-83
226	110	-48
154	106	201
57	100	334
-16	42	330
-48	-79	168
-45	-240	12
-20	-384	-198
11	-466	-244
44	-460	-287
74	-371	-308
84	-215	-28
61	-30	23
0	141	36
-82	254	-23
-141	267	-90
-135	171	-60
-43	6	-29
111	-165	179
267	-256	331
357	-226	408
341	-85	338
226	96	122
68	233	-128
-75	276	-309
-164	228	-405
-195	142	-353
-195	78	-174
-184	68	-70
-162	98	-156
-111	124	-182
-20	106	-12
106	34	171
219	-64	218
258	-151	84
193	-184	-25
29	-160	5
-168	-92	-7
-319	-11	-100
-369	48	8
-310	72	-17
-184	52	-51
-58	3	122
16	-56	110
32	-97	-89
6	-96	-301
-23	-54	-211
-31	12	-81
-12	68	-15
17	93	89
42	79	216
57	49	302
66	35	213
80	51	108
105	90	-58
135	110	-150
162	88	-241
162	14	-316
127	-80	-161
58	-145	-26
-28	-153	-100
-105	-103	-139
-145	-32	-136
-138	16	-153
-93	22	-11
-38	1	150
-10	-9	158
-26	17	56
-74	82	-17
-119	154	-56
-126	194	-104
-86	181	-43
-20	124	128
27	54	305
22	-7	511
-26	-54	681
-64	-103	591
-31	-158	219
101	-213	-186
288	-240	-687
436	-222	-915
446	-163	-733
276	-106	-532
-9	-102	-229
-286	-168	23
-435	-274	213
-392	-346	176
-209	-312	26
-2	-153	13
113	80	-92
89	277	-161
-31	345	-190
-144	260	-170
-166	76	-89
-71	-93	93
82	-149	242
204	-61	248
236	109	155
171	265	22
68	322	-87
-3	259	-13
-2	131	123
62	17	90
139	-23	133
175	7	65
135	58	-22
25	76	-114
-120	34	-219
-262	-32	-90
-355	-74	-83
-378	-43	-89
-317	49	-111
-187	153	-320
-26	197	-255
114	148	-59
187	18	169
179	-123	429
111	-212	500
45	-216	171
28	-152	-196
79	-70	-251
158	-22	-384
198	-21	-392
140	-45	-246
-20	-51	-15
-229	-22	236
-388	36	271
-420	85	234
-302	89	186
-81	41	64
151	-28	-126
308	-68	-241
344	-48	-337
275	35	-328
156	143	-194
45	215	-52
-16	215	64
-32	134	-23
-27	6	-61
-26	-116	16
-43	-189	135
-68	-204	225
-84	-183	155
-68	-163	123
-19	-175	116
51	-210	103
121	-246	74
163	-237	-75
154	-164	-207
89	-42	-204
-16	81	-91
-128	148	11
-205	129	36
-224	38	85
-182	-65	208
-105	-122	272
-39	-89	128
-17	17	-42
-47	135	-206
-104	201	-395
-137	171	-447
-111	74	-391
-18	-36	-179
110	-86	-3
216	-43	51
262	63	131
230	174	51
144	229	36
55	201	85
4	120	56
8	38	56
52	-2	133
106	4	209
135	31	112
126	38	67
83	8	38
25	-48	-144
-24	-89	-290
-42	-82	-283
-23	-22	-193
25	67	-90
77	140	56
94	169	138
44	138	89
-81	70	99
-250	-4	29
-410	-62	-123
-497	-90	-170
-489	-96	-119
-392	-90	-99
-269	-93	-84
-165	-109	-94
-107	-143	-118
-80	-184	7
-36	-204	-5
52	-181	-149
181	-95	-161
299	31	-61
341	150	-30
286	198	-35
162	129	-18
39	-47	20
-15	-260	118
28	-408	194
136	-410	265
237	-263	268
266	-32	192
196	169	38
61	261	-127
-76	233	-297
-158	153	-314
-157	105	-105
-90	138	54
7	223	102
93	268	17
142	203	-76
149	20	-114
118	-198	-42
64	-333	85
3	-297	210
-49	-109	339
-81	123	229
-88	265	87
-79	236	-102
-68	62	-218
-64	-133	-154
-71	-214	-208
-75	-113	-330
-63	130	-387
-30	398	-353
13	553	-403
45	522	-166
56	312	77
44	5	72
31	-300	147
29	-527	243
40	-639	281
45	-628	135
21	-510	99
-46	-320	1
-141	-100	-204
-221	90	-190
-232	193	-62
-155	190	-93
-8	109	-169
155	25	-230
262	3	-226
269	72	16
169	197	108
-9	298	97
-194	316	127
-325	241	112
-366	127	38
-303	44	10
-170	35	49
-16	68	-35
107	68	-76
169	-26	-12
158	-219	29
98	-432	20
24	-551	67
-27	-498	117
-40	-288	126
-22	-16	106
15	195	47
48	258	12
71	182	-51
76	42	-47
66	-54	21
49	-55	-4
29	27	-120
17	133	-270
15	197	-324
26	192	-248
39	138	-128
42	79	28
24	37	120
-12	11	213
-45	-20	299
-49	-74	213
2	-138	-10
103	-184	-209
229	-179	-320
336	-117	-311
383	-24	-68
363	64	330
284	114	486
169	121	321
28	103	135
-130	83	-22
-312	80	-241
-497	86	-532
-647	89	-695
-712	68	-538
-644	26	-193
-448	-34	178
-172	-91	255
103	-122	171
291	-120	175
342	-88	96
266	-40	4
123	-1	-130
-19	7	-82
-95	-17	41
-91	-64	-28
-24	-115	-147
61	-138	-214
119	-131	-242
127	-98	-292
84	-60	-172
18	-28	74
-35	3	175
-44	51	210
1	136	109
86	253	-53
175	366	-190
228	427	-168
214	391	31
133	259	98
23	69	116
-76	-114	86
-125	-246	57
-110	-303	65
-61	-301	55
-11	-264	17
4	-214	31
-19	-150	-13
-59	-62	-71
-89	37	57
-81	121	65
-41	143	-57
18	77	-41
77	-66	97
127	-234	177
175	-346	216
229	-348	138
273	-231	-79
275	-36	-168
202	162	-364
34	305	-437
-194	362	-119
-415	339	191
-546	252	235
-538	120	57
-400	-50	-209
-197	-246	-427
-19	-435	-389
78	-557	-82
81	-553	233
39	-393	329
16	-103	256
53	224	138
140	489	-6
229	618	-228
260	599	-267
202	489	-77
69	345	-33
-87	211	-144
-213	74	-229
-273	-87	-213
-263	-280	-4
-210	-446	210
-136	-497	233
-58	-368	182
19	-83	135
94	241	-16
161	434	-338
203	387	-351
219	106	-149
214	-254	79
209	-504	345
222	-502	205
248	-258	57
262	82	-11
219	331	-165
94	368	-252
-103	214	-226
-312	-4	-59
-451	-137	-79
-456	-125	-54
-321	-19	92
-100	68	58
117	51	103
249	-58	138
269	-167	-47
202	-166	-169
102	-30	-107
22	166	-47
-24	290	-61
-48	244	105
-74	43	222
-108	-202	192
-133	-346	201
-124	-309	36
-65	-117	-176
28	112	-357
122	251	-320
175	248	-140
169	139	-37
113	24	48
44	-19	27
1	20	-24
-3	90	-94
30	117	-29
72	67	19
93	-32	-39
64	-121	20
-18	-151	138
-148	-118	376
-299	-66	473
-436	-46	362
-526	-66	79
-533	-99	-303
-446	-88	-412
-275	-3	-412
-51	137	-476
188	272	-397
406	336	-229
578	301	-70
688	202	191
705	85	297
606	-3	263
373	-56	123
22	-114	-25
-374	-212	-161
-708	-352	-322
-873	-490	-333
-821	-555	-301
-564	-492	-200
-215	-309	-57
97	-65	48
277	152	144
309	278	201
254	301	189
202	262	172
211	202	68
270	149	8
320	97	-9
295	22	-39
172	-81	160
-3	-184	298
-157	-233	233
-229	-186	118
-202	-48	-54
-117	122	-233
-28	244	-278
28	260	-119
53	170	6
74	41	17
110	-43	11
151	-30	-89
158	68	-225
103	181	-327
-13	225	-336
-145	147	-161
-237	-28	-84
-247	-228	42
-185	-355	162
-93	-352	16
-24	-224	-44
-3	-28	37
-12	149	192
-13	244	166
28	236	57
109	150	64
199	39	35
252	-47	-39
238	-82	-103
170	-74	-144
71	-50	-151
-12	-35	-52
-66	-34	-22
-91	-31	2
-102	4	87
-112	90	69
-122	215	29
-126	333	60
-111	379	78
-82	311	-18
-45	125	-69
-12	-128	-74
15	-362	-139
44	-506	-171
81	-515	-114
127	-412	-60
161	-261	-86
155	-131	-70
93	-66	13
-19	-63	98
-147	-88	74
-245	-97	39
-276	-69	-47
-236	-18	-198
-148	27	-84
-51	37	-25
28	15	1
79	-12	79
115	-1	24
155	68	20
196	186	8
221	301	65
196	365	137
116	349	161
-10	258	113
-135	135	37
-212	22	-104
-222	-52	-221
-166	-99	-186
-86	-137	-175
-15	-175	7
22	-208	76
26	-199	-13
19	-127	-67
16	8	-95
31	168	-24
63	292	45
111	345	129
170	332	138
229	275	138
267	215	48
261	171	-153
192	124	-387
54	27	-490
-118	-136	-345
-285	-346	-225
-406	-534	-185
-454	-615	-114
-439	-546	-10
-388	-345	40
-318	-94	63
-231	116	101
-116	229	77
36	251	149
213	235	264
366	243	192
450	298	24
432	365	-143
328	387	-223
175	299	-182
28	93	-55
-86	-181	129
-165	-441	135
-221	-616	60
-264	-671	-7
-288	-617	-19
-262	-497	103
-173	-353	215
-34	-217	353
113	-98	326
214	8	104
234	103	-152
186	182	-373
114	235	-527
78	253	-460
101	238	-185
164	195	24
216	134	187
204	76	249
101	38	95
-71	33	-141
-255	65	-186
-383	116	-144
-416	157	-176
-353	157	-200
-226	106	-113
-76	31	7
54	-29	82
148	-25	116
198	48	97
214	161	76
206	244	-63
184	243	-124
157	139	-14
128	-26	49
100	-169	28
68	-215	18
33	-137	72
-10	29	60
-58	200	41
-102	294	45
-132	261	-2
-134	115	-55
-112	-96	-104
-68	-297	-162
-20	-426	-181
21	-451	-106
48	-368	32
53	-213	118
41	-36	107
11	95	98
-29	138	110
-70	83	62
-103	-36	-69
-110	-147	-243
-89	-176	-239
-35	-86	-67
35	98	13
113	300	91
181	430	202
228	431	180
245	313	13
229	129	-164
170	-46	-276
69	-166	-379
-58	-215	-289
-193	-227	-87
-289	-236	-4
-313	-256	24
-251	-275	21
-121	-271	3
21	-229	32
110	-154	112
104	-71	228
3	-11	298
-141	17	235
-255	15	120
-272	7	-3
-180	9	-43
-18	26	-76
136	51	-238
216	76	-297
195	93	-324
96	101	-308
-20	106	-198
-103	109	-147
-123	104	-35
-96	89	133
-47	71	194
0	68	156
44	94	164
105	150	68
186	213	-119
269	252	-273
313	237	-254
279	163	-112
160	59	91
-10	-37	298
-170	-98	346
-262	-134	230
-267	-174	-140
-200	-249	-375
-114	-359	-312
-52	-460	-202
-35	-485	-58
-46	-386	13
-54	-171	-12
-27	91	-35
39	301	-54
121	394	-19
182	354	86
196	239	174
158	129	185
82	79	119
5	90	-30
-52	116	-157
-69	98	-175
-57	13	-57
-31	-119	32
-7	-241	91
-1	-299	240
-10	-263	230
-32	-149	40
-58	7	-168
-81	168	-319
-83	298	-349
-54	372	-276
8	379	-123
94	298	42
178	129	151
226	-94	125
204	-309	85
107	-449	112
-42	-460	16
-209	-348	-62
-333	-157	-41
-392	38	-39
-374	174	-33
-296	229	-103
-185	215	-80
-63	169	15
57	108	-1
170	43	42
258	-35	6
302	-126	-82
287	-207	-127
210	-246	-168
96	-222	-70
-13	-143	162
-79	-59	350
-81	-15	242
-31	-35	72
25	-99	-41
46	-156	-161
1	-153	-190
-105	-85	-238
-232	21	-238
-325	109	-178
-333	138	-162
-236	116	-67
-53	77	16
154	70	87
310	113	176
359	182	103
292	233	-41
151	222	-128
5	153	-109
-75	48	-107
-63	-52	-165
15	-125	-126
96	-169	-64
119	-196	47
65	-213	149
-32	-198	83
-108	-131	35
-116	-7	-9
-44	150	-31
65	284	25
151	345	-19
172	305	-53
126	191	-2
48	51	-3
-22	-57	-27
-63	-111	74
-83	-109	155
-105	-81	125
-142	-47	94
-183	-21	-18
-197	-5	-30
-160	2	-5
-70	-5	-103
42	-30	-129
141	-66	-193
200	-92	-278
211	-72	-268
189	1	-64
142	113	9
76	213	10
-20	248	130
-140	190	144
-255	51	83
-324	-106	-85
-310	-222	-140
-207	-249	-168
-55	-190	-228
83	-75	-160
158	50	-53
158	150	-20
115	205	1
86	204	53
105	154	53
171	58	143
242	-58	225
269	-162	253
226	-210	255
119	-187	163
-10	-121	30
-123	-71	-157
-200	-104	-312
-239	-233	-328
-243	-411	-238
-217	-535	-126
-159	-501	-22
-72	-291	78
13	26	228
57	312	326
23	445	215
-80	386	66
-203	206	-100
-273	39	-302
-237	-15	-332
-107	59	-196
52	181	-2
153	236	49
136	154	-43
20	-40	-199
-119	-243	-242
-195	-348	-18
-164	-306	104
-46	-166	16
87	-17	-115
167	59	-96
172	57	-16
135	38	57
107	70	164
125	181	179
171	321	176
196	399	172
156	345	104
46	164	-46
-85	-69	-211
-175	-254	-382
-180	-312	-436
-103	-243	-356
3	-111	-136
81	7	194
100	62	322
71	61	297
35	40	150
31	43	14
67	76	-34
118	121	-239
151	147	-372
138	134	-211
82	99	-47
5	61	-7
-63	40	15
-112	34	-31
-133	27	-35
-138	-2	57
-134	-55	105
-118	-111	140
-88	-141	147
-43	-123	87
11	-56	23
56	39	-10
81	132	-54
81	197	-161
63	211	-107
39	168	-1
24	71	12
20	-55	124
16	-176	175
8	-249	95
-13	-254	-72
-44	-192	-99
-79	-106	-11
-101	-53	-124
-104	-70	-84
-84	-147	-21
-43	-222	2
8	-216	140
59	-94	99
102	116	15
128	313	2
132	395	-164
115	298	-356
77	65	-291
18	-185	-160
-43	-330	3
-91	-319	100
-97	-191	28
-44	-67	-76
52	-53	-197
159	-171	-278
216	-339	-268
182	-423	-123
35	-332	29
-177	-70	103
-383	237	112
-494	435	120
-472	427	196
-330	227	272
-135	-30	237
24	-192	173
95	-173	111
69	2	66
-6	215	11
-77	334	4
-104	298	191
-80	141	167
-27	-26	-116
25	-105	-454
66	-63	-687
101	53	-614
138	161	-409
181	191	-147
216	147	96
224	71	205
192	32	268
127	51	278
49	106	135
-18	144	-76
-62	121	-104
-86	41	-52
-97	-57	-92
-108	-124	-88
-115	-138	-161
-109	-109	-67
-83	-80	164
-34	-80	137
30	-105	54
98	-135	-36
167	-134	8
226	-96	58
266	-37	200
280	6	306
254	13	152
187	-6	-30
89	-24	-316
-14	-3	-435
-96	65	-303
-139	163	-106
-151	244	-1
-145	261	-11
-145	200	-62
-156	67	-38
-162	-98	-5
-151	-254	-35
-107	-351	-15
-34	-358	-17
52	-265	-16
141	-93	-16
216	110	3
273	266	66
299	301	158
278	181	222
190	-57	158
38	-320	20
-152	-481	-130
-329	-460	-163
-433	-258	-103
-439	41	-91
-361	305	-131
-255	431	-119
-167	381	-80
-120	208	-110
-94	5	-46
-46	-140	55
46	-204	103
175	-210	147
283	-203	196
314	-209	290
238	-216	289
80	-192	205
-99	-119	85
-234	-7	-142
-288	95	-341
-276	142	-497
-218	120	-491
-143	61	-222
-57	18	-34
42	35	-48
155	112	-119
258	210	-153
323	272	-153
332	261	-67
288	185	87
216	88	290
138	14	430
52	-19	386
-48	-25	213
-177	-43	-57
-311	-94	-328
-393	-162	-515
-366	-210	-397
-202	-192	-186
54	-102	-76
302	26	60
435	131	162
400	162	145
229	114	152
25	22	275
-107	-48	456
-126	-56	485
-61	-4	192
4	64	-291
2	96	-712
-81	68	-799
-190	-9	-716
-255	-85	-376
-231	-117	22
-128	-83	196
-5	0	343
83	93	278
117	173	222
121	221	160
128	235	-59
155	211	-218
186	148	-246
181	39	-151
118	-106	-80
9	-242	-61
-94	-329	37
-144	-329	138
-118	-256	236
-46	-153	316
13	-81	279
17	-70	253
-46	-110	196
-133	-142	22
-188	-120	-184
-165	-26	-261
-66	103	-242
60	210	-251
165	252	-177
200	236	-57
169	199	-58
95	191	-85
19	215	-64
-30	232	-123
-54	171	-84
-66	8	-18
-83	-232	-15
-98	-453	19
-102	-553	24
-76	-478	61
-19	-254	100
50	20	124
100	233	62
100	319	-103
51	267	-207
-16	134	-132
-52	-20	-43
-24	-142	-63
68	-215	-35
175	-232	116
222	-190	193
143	-91	127
-63	45	78
-328	171	-38
-539	229	-219
-589	180	-246
-452	38	-237
-181	-121	-147
106	-211	-3
285	-174	24
301	-29	94
188	139	150
39	237	201
-47	210	326
-27	97	350
67	-21	167
162	-59	2
191	-8	-204
136	81	-479
40	120	-524
-36	53	-341
-47	-89	-93
7	-226	48
83	-256	59
126	-144	-74
106	61	-120
34	260	-44
-51	345	29
-104	291	207
-97	130	304
-38	-48	246
42	-170	162
102	-202	70
110	-169	-157
61	-113	-391
-28	-69	-332
-123	-43	-125
-188	-23	4
-199	-2	9
-152	12	-85
-64	8	-190
31	-18	-245
101	-43	-160
126	-36	-90
104	26	-89
58	125	-13
9	211	93
-14	227	248
-4	137	382
26	-22	397
54	-186	289
57	-274	95
26	-251	-171
-35	-139	-430
-99	-6	-439
-134	80	-211
-120	88	124
-58	41	352
28	-1	288
107	3	91
150	60	-82
151	140	-230
123	198	-248
94	205	-193
78	168	-131
68	117	-41
47	75	-9
-1	38	64
-76	-13	49
-156	-109	-12
-202	-241	-49
-198	-370	-103
-156	-438	-116
-104	-413	-181
-84	-301	-206
-101	-157	-136
-134	-40	49
-133	14	119
-60	17	90
82	12	82
248	40	2
370	110	-57
386	190	-79
288	241	-7
123	236	60
-49	186	140
-172	129	264
-232	93	294
-250	77	192
-258	56	14
-264	-2	-160
-254	-93	-209
-191	-183	-194
-60	-218	-213
107	-176	-209
248	-80	-137
306	17	-49
245	49	27
101	7	82
-65	-80	-4
-182	-140	-108
-212	-133	-153
-172	-62	-89
-103	20	-42
-49	58	-11
-25	34	75
-15	-23	138
9	-53	202
58	-17	182
118	78	98
163	174	19
170	215	-84
139	183	-257
91	97	-287
48	28	-169
21	26	-29
2	92	34
-22	171	16
-52	197	61
-77	130	182
-72	-14	297
-31	-170	338
34	-260	359
91	-242	271
111	-125	-4
93	26	-266
63	142	-359
56	171	-515
91	117	-683
145	12	-615
180	-81	-395
148	-114	-201
36	-71	-14
-116	28	114
-257	138	97
-319	211	158
-288	215	164
-189	158	26
-70	56	-77
20	-49	-170
77	-127	-185
115	-171	-65
160	-184	100
212	-182	188
250	-173	149
231	-148	135
128	-101	155
-43	-32	155
-237	35	124
-392	68	102
-459	36	64
-426	-67	1
-325	-214	-46
-198	-348	-132
-78	-408	-153
16	-361	9
85	-216	213
124	-28	345
133	138	320
109	230	113
65	228	-143
36	155	-347
56	58	-449
137	-14	-438
250	-31	-316
326	5	-130
297	71	-21
147	131	-14
-80	161	-45
-281	143	-6
-363	89	40
-298	17	24
-125	-41	-34
47	-66	-30
136	-45	75
121	20	127
44	109	225
-7	195	291
16	244	271
107	229	264
199	145	107
219	11	-279
139	-129	-511
-10	-232	-446
-150	-259	-356
-223	-209	-46
-207	-113	102
-133	-16	46
-45	37	-3
25	39	-174
76	9	-214
122	-11	-197
169	11	-40
196	77	83
175	162	155
94	221	175
-31	229	84
-148	188	-46
-207	124	-164
-188	71	-104
-116	34	6
-45	-4	50
-19	-77	24
-47	-196	1
-100	-346	-2
-128	-459	41
-104	-470	62
-25	-348	130
66	-119	176
135	139	31
154	344	-91
125	437	-228
77	413	-276
31	305	-153
2	161	-51
-9	5	24
-8	-154	85
6	-306	106
30	-422	63
62	-447	60
86	-340	51
74	-109	-5
8	171	-23
-100	379	-118
-210	406	-121
-267	233	-25
-228	-61	25
-98	-326	128
71	-427	175
208	-322	154
248	-89	43
178	137	-124
40	235	-238
-102	174	-252
-189	35	-127
-202	-62	-47
-161	-36	10
-99	103	134
-44	261	319
1	321	289
43	221	-11
91	-4	-215
135	-234	-435
166	-351	-722
175	-301	-771
163	-116	-521
145	98	-141
122	237	152
76	248	285
-19	150	311
-176	8	351
-366	-114	334
-522	-179	224
-555	-190	121
-425	-166	-23
-157	-115	-111
161	-39	-136
401	62	-179
484	166	-54
400	233	5
215	219	-128
36	116	-188
-54	-45	-169
-42	-192	-58
33	-254	55
97	-206	59
95	-77	91
20	59	124
-94	134	127
-191	112	192
-232	24	210
-212	-68	171
-145	-103	63
-68	-55	-56
5	48	-90
64	157	-74
117	215	-41
167	204	17
205	133	42
222	38	-57
205	-44	-119
163	-92	-81
109	-94	-27
65	-60	-124
34	-8	-254
3	38	-192
-50	54	-93
-140	26	-29
-253	-43	-62
-355	-118	-78
-394	-156	-36
-347	-117	-97
-209	-2	-27
-12	145	123
184	255	164
332	261	164
396	148	100
374	-45	-39
288	-233	-103
162	-340	-44
29	-336	-51
-83	-249	-86
-148	-150	-54
-158	-96	8
-125	-111	77
-78	-160	129
-48	-184	242
-56	-138	224
-97	-21	111
-132	127	-70
-125	251	-340
-52	312	-470
63	312	-417
171	284	-233
209	261	-139
145	259	-140
-4	250	-202
-181	198	-316
-304	78	-279
-331	-105	-65
-255	-304	133
-122	-459	208
4	-510	249
83	-452	233
107	-299	240
107	-112	249
109	45	171
132	138	42
162	156	-33
162	123	-31
111	80	-9
11	58	40
-97	67	45
-166	95	71
-162	113	67
-89	100	-11
17	58	-147
104	6	-261
139	-26	-193
125	-28	-87
86	-2	-10
57	31	18
57	47	-17
79	41	-9
96	28	-40
82	27	-29
34	52	16
-30	96	87
-78	135	171
-95	141	191
-82	110	130
-60	51	0
-55	0	-130
-76	-26	-327
-112	-23	-425
-139	-11	-375
-139	-21	-182
-108	-71	-11
-54	-157	81
-3	-237	253
35	-268	362
61	-222	352
86	-96	162
119	66	-109
161	208	-352
204	269	-508
229	229	-455
222	98	-264
172	-61	-36
89	-177	34
-23	-194	-43
-139	-104	-104
-241	41	38
-310	166	195
-321	190	264
-282	88	302
-197	-101	211
-88	-291	152
18	-389	-16
96	-348	-176
131	-192	-235
122	-3	-134
74	129	28
2	150	76
-79	62	205
-148	-75	171
-188	-192	32
-186	-246	-127
-140	-229	-219
-64	-161	-192
21	-70	-318
88	27	-493
128	134	-341
139	244	-19
139	336	71
142	372	118
150	332	173
150	209	224
128	44	239
79	-97	204
8	-169	134
-52	-151	62
-86	-70	24
-85	25	-127
-61	96	-229
-40	124	-204
-35	119	-116
-44	93	-55
-43	54	-24
-17	-2	30
38	-75	18
107	-147	82
156	-183	161
162	-152	111
123	-49	42
62	88	-5
5	195	1
-29	215	-34
-41	134	-178
-49	-11	-312
-62	-143	-275
-82	-202	-158
-92	-163	-104
-79	-54	-98
-36	61	-135
17	136	-63
52	156	142
52	139	313
18	123	294
-26	127	187
-51	138	58
-43	126	-117
-12	62	-241
13	-55	-256
6	-194	-136
-44	-304	-59
-120	-339	-44
-188	-292	-19
-213	-192	-10
-180	-87	60
-98	-24	91
15	-18	48
135	-50	106
239	-75	161
309	-53	20
330	22	-108
290	121	-228
191	183	-280
54	161	-108
-84	43	19
-178	-121	99
-208	-258	81
-177	-296	-4
-119	-206	-14
-75	-32	-13
-64	150	31
-82	260	35
-91	271	-15
-61	218	-69
15	168	-151
114	174	-187
194	240	-44
212	305	167
166	283	234
80	131	151
-5	-123	-14
-52	-386	-213
-60	-539	-302
-56	-519	-218
-76	-346	-121
-133	-122	-51
-212	35	-9
-276	60	-71
-277	-25	-142
-207	-127	-137
-77	-149	-4
66	-47	151
171	127	255
215	277	399
203	311	379
162	210	184
119	43	-42
91	-92	-271
68	-111	-311
35	-17	-215
-16	121	-50
-86	208	70
-145	190	1
-169	86	-137
-137	-30	-198
-57	-84	-136
44	-52	-64
132	31	-60
183	91	-144
184	83	-81
147	14	-11
94	-60	-87
43	-71	-78
5	-2	24
-32	113	141
-88	197	181
-174	182	150
-291	59	87
-407	-122	-38
-470	-281	-133
-434	-354	-140
-281	-325	-176
-42	-236	-105
214	-139	-23
403	-68	2
468	-15	46
400	56	145
255	163	268
114	285	264
35	362	242
37	332	65
80	171	-152
106	-74	-207
72	-309	-177
-16	-439	-126
-113	-413	-131
-167	-254	-198
-141	-46	-377
-54	126	-447
48	207	-202
110	199	75
104	138	196
36	71	194
-49	25	129
-110	-5	97
-116	-29	-41
-70	-57	-148
-3	-87	-98
53	-109	84
69	-121	331
40	-130	399
-22	-147	250
-91	-161	1
-130	-155	-235
-127	-101	-414
-79	1	-432
-8	131	-318
56	238	-118
91	279	109
88	241	161
61	150	129
32	54	84
21	-4	37
29	-14	8
45	-2	-36
59	2	16
63	-17	195
67	-45	274
78	-45	137
94	0	-28
103	81	-215
82	150	-381
20	156	-468
-71	80	-387
-167	-52	-142
-233	-167	-33
-247	-202	17
-223	-129	77
-180	14	87
-141	150	87
-117	204	84
-95	140	87
-62	-7	71
-18	-173	31
24	-274	12
44	-278	46
36	-194	78
13	-74	104
2	29	110
24	92	68
79	117	101
134	135	178
159	164	84
132	201	-123
77	225	-251
24	211	-306
9	158	-320
33	78	-409
61	-3	-395
49	-74	-34
-23	-138	194
-135	-213	170
-228	-309	177
-239	-410	98
-152	-475	29
-4	-466	-69
131	-359	-241
192	-171	-282
160	55	-182
66	260	-111
-20	404	-124
-51	461	-97
-22	445	28
33	359	145
68	222	205
58	45	278
13	-148	228
-30	-315	103
-40	-411	52
-18	-399	-24
16	-276	-117
28	-82	-114
14	116	-97
-8	244	-150
-1	261	-181
57	177	-170
154	45	-100
245	-62	-17
280	-96	91
234	-42	144
109	58	94
-46	150	110
-175	182	160
-241	139	83
-236	47	-46
-190	-49	-151
-133	-109	-208
-104	-117	-226
-107	-88	-156
-128	-49	9
-137	-21	203
-105	-8	263
-22	9	96
100	41	-99
214	89	-302
271	131	-331
241	142	-159
118	112	-8
-50	50	80
-206	-12	55
-299	-43	85
-304	-36	182
-239	-2	225
-140	28	216
-43	34	120
37	15	0
99	-9	-95
154	-19	-211
195	-8	-289
211	9	-173
190	3	-8
131	-40	-21
63	-120	-126
17	-202	-273
9	-253	-365
23	-253	-207
28	-205	12
-14	-144	102
-104	-105	62
-211	-102	26
-287	-123	43
-285	-135	31
-213	-107	24
-99	-20	5
15	105	0
102	231	-31
170	316	-46
238	336	62
314	300	124
373	235	127
383	165	187
300	100	222
131	31	242
-78	-57	135
-267	-163	-68
-392	-251	-198
-442	-275	-302
-438	-198	-410
-409	-33	-392
-354	153	-97
-262	267	242
-118	240	410
62	75	381
224	-149	161
302	-306	-97
273	-309	-374
155	-151	-511
19	80	-424
-57	252	-108
-43	268	281
36	118	281
122	-105	140
153	-277	-93
115	-308	-330
44	-199	-524
1	-26	-558
16	106	-175
81	134	107
152	81	207
175	12	225
138	5	104
56	82	45
-22	199	58
-65	282	167
-76	272	288
-71	168	319
-91	13	188
-134	-121	-49
-182	-192	-249
-195	-203	-387
-148	-181	-422
-50	-159	-234
58	-138	28
132	-109	175
148	-45	238
111	52	125
64	168	-8
42	261	-30
50	305	-23
74	296	-100
69	233	-156
18	136	-104
-77	17	-34
-173	-110	-9
-232	-230	-138
-222	-322	-52
-152	-361	116
-56	-334	249
28	-249	450
80	-140	442
109	-39	373
136	33	152
172	77	-242
216	109	-609
234	142	-690
210	171	-485
132	181	-306
23	145	-68
-87	62	194
-165	-38	389
-200	-112	337
-202	-117	169
-188	-49	22
-172	61	-156
-151	160	-329
-118	190	-446
-63	131	-245
11	6	11
83	-141	79
132	-249	52
151	-289	46
136	-254	37
106	-173	-41
78	-80	-77
61	-9	-149
58	22	-193
63	16	-124
64	-16	-21
52	-59	90
21	-98	154
-35	-114	169
-115	-91	108
-205	-21	54
-273	89	0
-295	208	4
-250	294	51
-152	305	21
-39	224	-8
42	83	-49
59	-66	-42
23	-154	98
-35	-143	253
-68	-39	191
-62	103	-50
-29	209	-249
-9	227	-435
-30	138	-550
-86	-11	-407
-129	-160	-84
-106	-243	138
2	-233	152
165	-147	164
306	-29	155
363	65	133
318	106	137
205	88	113
105	36	52
69	-19	-81
104	-57	-126
147	-72	-101
135	-76	-18
34	-75	145
-126	-76	234
-269	-68	194
-318	-41	-62
-246	16	-273
-91	101	-336
69	192	-357
159	261	-189
156	287	-88
89	257	-60
13	174	32
-25	57	96
-19	-62	175
7	-163	174
16	-215	-30
-12	-213	-168
-70	-162	-192
-130	-91	-124
-160	-39	28
-145	-33	77
-91	-84	130
-17	-161	57
58	-214	-90
122	-192	-118
166	-70	-52
187	126	7
175	345	-75
129	521	-81
47	582	80
-52	505	229
-142	313	308
-199	34	279
-206	-268	167
-163	-527	-36
-88	-687	-341
-8	-709	-492
56	-596	-432
95	-391	-273
107	-162	-130
111	20	-120
113	117	-95
120	142	-22
121	143	91
105	168	268
58	224	304
-20	273	230
-116	256	69
-210	139	-189
-274	-55	-349
-298	-251	-341
-279	-355	-192
-232	-322	2
-172	-174	175
-105	4	301
-34	122	294
49	138	267
141	83	224
229	24	69
280	33	-170
279	115	-296
211	221	-229
97	275	-78
-24	241	155
-112	136	186
-135	26	1
-101	-25	-150
-34	7	-279
28	83	-419
52	131	-382
36	104	-133
-6	1	87
-46	-126	208
-63	-205	55
-47	-191	-68
-1	-95	-58
53	33	-152
103	129	-150
130	162	-88
134	138	-44
110	98	74
63	72	222
-3	72	254
-81	77	141
-150	49	13
-191	-31	-120
-191	-158	-207
-141	-288	-26
-59	-371	123
33	-368	64
105	-265	24
139	-101	94
130	84	207
96	233	242
57	313	285
29	318	185
12	257	-104
-3	162	-381
-25	58	-533
-52	-35	-570
-75	-113	-445
-80	-162	-133
-59	-168	28
-26	-121	-22
5	-19	-74
24	106	-41
28	208	37
39	225	204
66	127	378
117	-63	377
169	-283	204
192	-448	-50
166	-497	-288
94	-421	-495
7	-276	-460
-58	-134	-173
-84	-50	110
-79	-40	233
-75	-67	254
-98	-94	242
-159	-82	164
-232	-34	38
-281	26	-66
-287	81	-76
-256	123	49
-212	168	229
-174	221	210
-147	275	65
-103	305	-48
-30	283	-213
70	200	-394
167	81	-387
216	-26	-194
195	-84	-35
113	-77	29
18	-24	-6
-47	30	-77
-59	57	-153
-36	49	-133
-5	25	-48
19	8	22
48	14	155
111	35	184
214	50	168
330	45	144
387	13	109
328	-27	89
144	-54	51
-99	-54	-16
-298	-30	5
-364	0	91
-275	14	-48
-94	-5	-208
79	-47	-253
156	-97	-348
119	-129	-576
20	-123	-576
-63	-80	-237
-69	-13	55
0	49	217
98	89	352
161	94	362
156	80	234
91	65	26
4	68	-198
-60	89	-306
-95	109	-279
-104	110	-117
-107	78	91
-110	24	246
-107	-28	294
-82	-55	219
-31	-53	113
34	-42	-92
89	-43	-255
114	-72	-270
106	-115	-166
80	-138	35
53	-113	195
39	-40	254
29	43	160
10	90	53
-28	64	-90
-77	-27	-259
-116	-139	-223
-126	-214	-87
-101	-213	-11
-56	-144	49
-16	-47	138
0	32	126
-12	67	140
-36	56	85
-46	20	-33
-23	-24	-181
29	-69	-387
93	-117	-385
137	-153	-231
139	-150	7
87	-84	276
-10	51	454
-136	217	482
-263	345	278
-357	369	-62
-383	252	-338
-313	35	-506
-150	-204	-509
74	-371	-297
292	-406	-24
434	-311	140
445	-130	174
328	59	121
144	207	34
-25	278	-45
-104	269	-83
-83	194	-85
-5	71	-19
57	-65	49
44	-186	34
-40	-242	36
-158	-210	64
-226	-96	-11
-205	58	55
-104	191	359
27	251	366
121	219	-10
144	132	-417
110	44	-650
67	4	-687
58	24	-544
95	70	-193
151	96	20
176	67	90
139	-11	150
38	-95	114
-94	-140	164
-210	-120	191
-269	-57	250
-259	9	386
-193	33	249
-91	15	13
19	-18	-135
120	-22	-314
191	30	-352
214	124	-94
175	219	118
81	272	215
-51	267	233
-180	222	144
-269	165	68
-300	109	-122
-272	33	-219
-209	-89	-236
-137	-268	-182
-77	-460	40
-31	-602	117
7	-611	57
46	-474	-83
93	-254	-207
138	-48	-246
169	60	-186
179	64	-124
166	23	-71
138	32	51
105	140	43
74	305	22
45	431	65
16	410	28
-17	215	-6
-55	-83	-6
-93	-351	6
-116	-464	42
-114	-395	69
-83	-215	140
-25	-35	303
39	53	382
89	38	271
111	-9	112
107	-5	-97
100	88	-188
107	233	-177
139	336	-224
184	319	-178
194	166	-209
135	-51	-221
-12	-229	-259
-210	-287	-280
-393	-213	-17
-489	-67	240
-447	67	316
-277	136	164
-46	139	-152
169	120	-432
300	122	-608
322	161	-490
262	206	-182
157	215	-12
48	155	225
-43	39	268
-117	-90	41
-170	-187	-78
-197	-224	-70
-189	-213	16
-144	-182	76
-75	-154	163
-5	-138	158
36	-117	42
45	-76	-26
35	-8	-23
32	68	-13
56	135	37
106	181	110
159	215	118
175	252	141
144	296	152
64	329	71
-33	301	-62
-110	187	-84
-143	-20	-128
-133	-263	-162
-99	-460	-5
-67	-537	85
-51	-470	137
-45	-311	182
-33	-136	257
6	-26	213
75	6	-129
160	-4	-576
234	11	-659
267	88	-472
245	201	-368
172	283	-75
68	262	64
-37	129	79
-123	-62	164
-172	-213	129
-185	-235	134
-168	-113	94
-132	89	171
-83	264	186
-18	330	114
61	268	91
151	127	30
230	-15	-71
268	-109	-200
241	-140	-201
135	-142	-207
-27	-143	-231
-206	-159	-207
-350	-173	-26
-422	-168	238
-404	-152	387
-321	-140	450
-213	-160	409
-115	-205	155
-46	-243	-276
-5	-229	-553
27	-137	-711
66	8	-761
112	147	-568
155	215	-278
172	194	-40
158	114	162
111	40	433
52	25	628
2	72	576
-26	143	340
-36	175	-12
-36	139	-341
-42	53	-471
-58	-25	-430
-78	-37	-184
-81	27	124
-59	137	234
-10	224	94
54	233	7
117	160	187
159	37	288
171	-69	312
162	-117	213
137	-97	65
107	-38	-84
71	15	-203
27	34	-239
-27	11	-221
-85	-36	-91
-130	-82	-156
-152	-101	-296
-140	-79	-412
-102	-9	-273
-52	97	22
-6	210	77
23	287	72
38	279	-5
44	158	-33
49	-61	14
52	-305	65
50	-473	137
39	-479	225
17	-304	240
-4	-21	181
-15	244	110
-8	370	-45
8	291	-172
16	58	-181
2	-210	-72
-35	-381	46
-76	-380	86
-90	-221	-23
-54	6	-136
25	195	-99
121	282	-57
190	272	-157
196	214	-231
137	162	-147
39	137	87
-52	121	338
-103	88	360
-103	26	208
-69	-50	-101
-42	-112	-457
-49	-147	-748
-97	-171	-760
-156	-213	-406
-182	-287	49
-140	-378	326
-18	-433	425
159	-408	442
322	-292	324
403	-130	89
346	13	-40
154	89	-42
-113	96	-12
-366	77	81
-503	85	203
-483	137	260
-337	201	129
-149	218	-140
-20	153	-428
-4	23	-518
-81	-100	-303
-172	-131	-21
-186	-46	112
-85	117	69
103	264	-27
296	301	-44
402	208	-37
383	28	-75
255	-133	-28
86	-192	97
-53	-123	3
-126	26	-13
-143	165	87
-126	225	-104
-105	187	-63
-82	99	103
-47	25	113
5	15	96
69	66	4
124	135	7
153	166	-53
148	126	-33
122	34	-39
98	-65	-92
86	-124	-229
78	-125	-424
62	-90	-325
28	-64	-160
-23	-90	64
-70	-165	79
-98	-254	22
-95	-301	47
-71	-263	-21
-44	-143	-72
-23	15	-168
-7	147	-96
12	202	19
42	174	110
82	105	252
111	43	458
115	32	576
88	68	414
34	124	107
-22	157	-259
-66	145	-517
-92	110	-555
-105	88	-292
-117	112	24
-127	171	48
-140	221	-25
-141	187	-98
-126	27	-206
-96	-241	-218
-58	-533	-85
-22	-725	91
10	-721	196
41	-510	164
76	-163	59
117	182	-15
162	391	-25
198	398	9
219	231	101
212	-3	268
169	-189	308
87	-254	112
-26	-199	-120
-147	-87	-265
-239	9	-230
-262	47	-243
-204	40	-299
-82	31	-141
59	56	-100
160	122	-160
182	199	-135
120	244	30
17	230	318
-76	162	384
-117	62	360
-99	-33	272
-52	-114	66
-15	-170	-247
-12	-204	-397
-30	-209	-297
-43	-171	-140
-19	-87	-135
46	33	-471
130	148	-457
189	209	-159
194	187	42
133	89	29
27	-40	8
-92	-139	61
-195	-166	22
-263	-120	68
-288	-45	107
-277	8	186
-232	8	233
-170	-33	257
-98	-70	145
-28	-58	-8
32	15	-32
84	119	-171
124	193	-186
166	197	26
195	129	213
204	38	256
175	-12	201
110	13	144
23	99	70
-58	177	-65
-104	183	-243
-102	90	-405
-68	-75	-409
-33	-233	-332
-23	-314	-375
-46	-286	-270
-83	-181	-28
-95	-53	44
-61	43	65
20	95	-5
118	123	22
191	156	109
209	195	209
166	212	387
93	170	354
16	57	241
-38	-100	4
-75	-230	-235
-104	-272	-341
-139	-200	-315
-174	-54	-181
-177	96	-65
-117	183	-36
8	182	-17
172	120	89
319	47	194
383	4	270
344	-7	218
219	-13	27
63	-55	-214
-56	-148	-409
-117	-263	-364
-120	-355	-190
-113	-373	14
-136	-301	133
-204	-173	121
-291	-40	68
-345	38	-28
-324	44	-67
-225	-6	5
-84	-59	2
35	-58	-104
93	25	-144
81	178	-205
37	340	-173
10	438	-13
31	422	0
97	279	61
170	58	272
202	-163	305
167	-306	256
80	-332	196
-26	-257	55
-103	-131	-125
-131	-15	-243
-113	56	-203
-69	84	-307
-26	96	-332
12	114	-86
46	136	90
89	135	200
136	82	196
178	-27	133
193	-152	0
163	-234	-190
94	-228	-196
4	-125	-38
-77	19	77
-129	133	-3
-150	159	9
-145	88	6
-131	-29	-40
-115	-121	-56
-94	-129	-169
-60	-51	-113
-12	76	-84
46	188	-192
104	244	-136
136	235	16
138	183	20
104	131	-54
42	100	-108
-33	88	-88
-105	72	59
-164	34	171
-194	-40	279
-186	-148	263
-138	-263	46
-56	-358	-147
37	-391	-324
118	-338	-457
161	-192	-325
159	16	-39
118	224	173
62	357	224
16	365	149
-7	253	56
1	76	-15
29	-71	-50
67	-125	2
100	-72	178
110	35	195
89	113	125
28	104	81
-59	9	-81
-150	-113	-233
-206	-189	-197
-194	-173	-74
-106	-85	-89
36	12	-88
184	55	-48
285	25	-101
297	-37	-205
221	-69	-164
94	-33	-5
-31	66	57
-113	166	89
-139	195	140
-130	117	194
-122	-39	188
-137	-206	39
-174	-308	-77
-211	-300	23
-221	-196	204
-187	-49	343
-127	82	402
-70	163	242
-40	186	-48
-43	161	-327
-62	104	-696
-65	24	-842
-40	-69	-490
8	-165	-10
48	-237	241
56	-264	208
19	-242	-5
-41	-173	-135
-92	-89	-260
-102	-13	-320
-60	43	-50
12	88	305
85	133	450
135	183	361
162	225	32
175	233	-275
193	193	-412
214	112	-486
223	22	-327
198	-45	12
129	-75	167
28	-72	183
-75	-68	-15
-148	-78	-227
-172	-105	-131
-152	-119	142
-106	-90	379
-58	-8	382
-26	102	319
-10	191	151
-4	213	-120
7	158	-358
36	55	-360
86	-39	-248
148	-78	-145
207	-41	51
239	38	98
219	115	64
139	143	54
11	104	-45
-133	10	-6
-241	-106	149
-272	-206	204
-217	-270	158
-104	-286	-46
18	-254	-268
95	-179	-164
100	-72	-48
46	42	-14
-11	144	68
-26	207	32
28	222	-3
124	193	-92
202	147	-55
199	106	77
88	84	192
-102	82	257
-296	93	213
-411	109	94
-401	126	-144
-274	134	-410
-91	115	-546
80	43	-476
184	-92	-384
205	-273	-245
172	-437	-48
118	-507	112
63	-425	232
13	-203	272
-38	69	194
-94	268	131
-141	291	170
-163	128	110
-156	-137	-30
-125	-356	-49
-96	-413	71
-85	-286	39
-89	-51	-202
-87	156	-398
-46	235	-325
42	168	-104
165	33	-124
279	-57	-20
340	-40	155
328	74	54
254	194	-23
154	233	-17
52	154	-24
-31	5	-96
-109	-119	-68
-191	-143	46
-271	-51	149
-321	98	259
-308	218	246
-203	251	84
-32	197	-21
152	111	22
279	53	-115
301	52	-313
222	88	-320
93	106	-161
-26	70	32
-84	-29	188
-80	-157	234
-47	-265	206
-25	-322	196
-35	-322	-23
-60	-277	-164
-76	-209	-211
-50	-130	-246
9	-44	-190
78	41	-110
128	114	-16
140	154	3
122	154	-28
93	120	-64
66	83	86
44	68	316
16	93	437
-27	140	281
-84	183	-82
-130	183	-387
-152	120	-567
-135	4	-615
-91	-135	-419
-36	-260	-113
12	-333	-8
40	-337	-21
51	-268	-107
41	-157	-104
15	-36	80
-28	50	96
-78	72	39
-112	37	101
-118	-29	166
-89	-70	229
-44	-52	271
-12	31	281
-16	144	233
-58	222	158
-113	218	184
-145	129	127
-125	0	-20
-56	-106	-215
35	-132	-488
109	-70	-621
147	40	-493
144	139	-148
123	180	-28
111	155	28
112	92	253
124	35	260
126	10	292
107	9	218
63	6	105
6	-28	191
-47	-95	218
-91	-171	83
-117	-214	-124
-126	-196	-312
-116	-123	-576
-85	-22	-604
-35	62	-298
25	106	-124
78	106	-102
111	100	29
113	118	57
89	182	142
48	277	267
3	353	247
-36	353	170
-59	240	29
-65	27	-55
-48	-230	-126
-3	-444	-184
54	-538	-117
109	-485	-10
132	-321	-52
108	-122	-157
46	30	-186
-20	92	-54
-44	76	225
3	40	546
111	41	708
233	106	559
288	206	152
226	278	-356
33	262	-799
-243	137	-907
-507	-60	-664
-654	-264	-208
-635	-395	-19
-447	-416	112
-161	-319	151
115	-151	163
289	28	147
306	161	49
180	206	-78
-21	154	-116
-207	22	-102
-295	-142	-64
-248	-279	105
-93	-334	150
107	-278	186
269	-137	205
336	33	108
292	161	22
171	197	-142
26	144	-208
-86	45	-256
-133	-40	-173
-114	-74	4
-47	-48	76
35	5	175
111	62	248
165	106	339
188	148	442
181	206	412
151	274	194
98	325	-101
40	313	-492
-18	224	-760
-68	65	-652
-106	-101	-317
-134	-209	-25
-154	-226	-40
-166	-157	-75
-161	-56	-15
-130	22	13
-71	50	-37
12	41	-67
99	38	46
165	65	79
191	125	72
170	178	150
111	179	24
39	106	-35
-26	-23	143
-72	-160	105
-97	-256	-59
-108	-282	-129
-111	-249	-242
-112	-181	-244
-103	-110	-201
-79	-49	-88
-38	9	134
20	70	194
74	131	195
116	171	183
132	177	212
123	141	186
98	85	-8
66	48	-111
35	54	-35
6	100	-75
-24	148	-278
-62	154	-382
-108	93	-340
-144	-16	-131
-160	-115	-84
-133	-151	-90
-59	-100	74
45	1	203
151	71	262
224	39	164
228	-120	69
157	-342	-61
40	-519	-221
-87	-543	-214
-172	-387	-75
-190	-121	26
-140	116	60
-45	195	134
56	77	213
132	-167	246
162	-384	58
139	-433	-257
72	-261	-353
-20	53	-295
-116	359	-102
-191	516	222
-225	461	285
-215	264	160
-177	47	-17
-133	-68	-277
-105	-55	-409
-96	31	-244
-93	93	59
-81	64	207
-49	-41	247
-10	-153	221
13	-188	111
4	-115	-86
-32	21	-164
-63	138	-90
-49	171	-129
33	116	-147
171	28	-147
314	-12	-190
401	38	-125
378	154	-64
252	273	-16
60	326	65
-126	283	69
-245	171	95
-271	48	-8
-213	-46	-190
-113	-104	-155
-19	-143	-50
36	-189	9
44	-240	69
22	-270	84
4	-248	84
16	-166	65
65	-50	-68
139	51	-236
200	101	-261
216	93	-95
172	49	137
85	17	278
-10	16	335
-82	43	237
-109	83	-22
-106	106	-198
-104	117	-209
-121	113	-197
-158	99	-138
-184	56	57
-166	-35	102
-84	-175	18
44	-330	-100
179	-423	-138
273	-389	-86
301	-209	91
266	51	208
193	277	93
116	359	19
47	265	-110
-11	61	-230
-71	-123	-201
-139	-170	-95
-205	-44	-59
-249	181	-111
-255	379	-51
-223	430	97
-159	305	225
-86	66	264
-19	-176	164
34	-332	-78
66	-373	-265
82	-330	-309
81	-265	-320
69	-216	-236
58	-180	-12
53	-129	83
56	-49	60
56	43	70
41	110	-21
-1	115	2
-62	60	112
-115	-27	199
-121	-100	231
-56	-126	155
72	-107	49
225	-62	-87
337	-18	-206
363	23	-253
283	70	-206
124	128	-65
-66	185	119
-237	206	58
-354	170	-96
-405	70	-40
-392	-53	12
-325	-150	3
-219	-171	93
-87	-110	123
42	-6	102
137	89	120
163	133	-67
119	127	-335
25	98	-377
-66	85	-210
-111	112	-86
-85	162	-184
-6	200	-127
79	189	21
120	115	-51
94	-6	-72
15	-134	-33
-77	-229	50
-133	-264	162
-130	-240	159
-76	-169	164
3	-77	207
72	8	194
116	68	63
136	94	-81
143	82	-168
151	45	-222
154	5	-286
148	-17	-241
123	-6	-155
79	39	-36
26	103	225
-25	155	297
-63	173	348
-94	138	270
-118	63	-34
-147	-34	-273
-166	-122	-427
-173	-179	-479
-151	-189	-391
-95	-153	-105
-16	-72	270
74	32	488
158	139	393
226	218	196
269	231	-82
276	150	-372
238	-17	-441
138	-238	-287
-15	-444	24
-195	-569	166
-351	-573	158
-423	-469	147
-377	-298	6
-223	-127	-125
-20	-2	-122
155	63	-85
244	92	-98
239	116	-42
169	156	34
93	205	65
42	241	103
16	243	102
-11	208	70
-59	154	12
-119	109	-67
-162	91	-111
-145	98	-173
-71	117	-172
20	127	24
71	122	120
39	100	183
-52	68	184
-143	33	34
-159	-6	-147
-68	-46	-281
89	-87	-289
230	-110	-206
276	-113	6
206	-91	91
65	-56	113
-67	-31	19
-130	-29	-89
-114	-49	56
-61	-75	102
-30	-84	41
-43	-63	61
-84	-16	28
-105	34	-151
-71	68	-280
11	70	-374
105	48	-328
158	14	-156
151	-8	155
97	-9	532
37	8	546
5	32	294
8	48	-32
19	50	-403
10	39	-615
-28	20	-393
-87	-2	124
-128	-23	455
-134	-36	377
-95	-37	213
-27	-17	-19
42	25	-320
104	84	-538
156	143	-518
205	186	-227
252	202	-10
284	187	96
280	153	82
225	110	115
111	60	218
-46	2	201
-219	-76	70
-375	-168	-19
-477	-263	-80
-509	-326	-209
-456	-343	-201
-321	-309	-163
-135	-246	-83
69	-190	-19
236	-160	-2
322	-153	69
313	-138	194
222	-91	342
86	0	365
-51	106	222
-158	186	15
-225	198	-214
-253	135	-447
-256	35	-429
-239	-57	-173
-197	-105	46
-133	-103	130
-46	-81	235
48	-70	285
135	-87	222
194	-113	127
223	-112	-15
230	-59	-103
229	44	-205
225	162	-262
216	248	-194
195	265	-54
148	210	76
78	109	-14
-5	4	-290
-85	-75	-409
-139	-113	-335
-166	-109	-249
-165	-71	-62
-150	-5	242
-123	74	464
-89	158	419
-40	225	233
22	255	-24
90	244	-156
148	201	-211
175	144	-181
171	92	95
132	55	281
82	23	229
32	-23	-149
-7	-89	-400
-35	-170	-406
-62	-237	-292
-93	-261	-8
-123	-223	233
-139	-131	371
-122	-24	228
-58	64	-112
52	106	-494
189	110	-536
314	100	-406
383	109	-68
346	155	378
198	218	399
-35	261	281
-281	235	95
-459	117	-104
-503	-79	-333
-415	-305	-332
-237	-492	-48
-63	-590	87
32	-567	54
24	-435	-54
-53	-229	-180
-126	-1	-122
-133	197	221
-55	327	599
69	372	588
179	343	196
223	252	-275
191	129	-623
118	-1	-760
50	-123	-597
18	-228	-170
12	-304	63
8	-339	169
-24	-317	207
-87	-222	138
-156	-60	142
-193	130	100
-180	296	163
-125	372	208
-51	332	240
11	179	242
55	-23	151
91	-207	75
130	-301	-44
179	-291	-116
214	-200	-192
209	-84	-179
142	9	81
22	52	211
-112	55	160
-209	43	65
-229	50	-165
-168	81	-399
-56	129	-553
56	174	-375
128	200	-214
150	196	-222
133	170	-26
107	131	125
94	84	204
91	32	199
82	-19	187
50	-62	102
-7	-89	-90
-80	-86	-187
-138	-56	-155
-162	-12	-94
-139	30	100
-80	55	290
-5	64	143
63	64	-95
107	67	-246
122	77	-185
103	85	-53
60	80	-35
3	45	-30
-52	-16	13
-88	-93	26
-97	-163	-32
-79	-206	-68
-48	-209	-92
-28	-174	-55
-31	-116	-113
-55	-58	-161
-87	-20	-66
-100	-6	-17
-77	-9	90
-22	-3	161
49	41	218
111	137	229
147	264	224
153	366	199
139	380	38
120	257	-99
99	5	-331
77	-303	-470
37	-562	-412
-23	-670	-257
-99	-600	-20
-172	-390	129
-221	-152	125
-226	14	49
-188	64	-46
-114	28	-125
-17	1	29
94	58	249
210	224	373
314	438	359
373	589	190
366	579	-76
269	384	-381
106	64	-505
-71	-260	-560
-194	-474	-422
-221	-510	47
-156	-390	326
-65	-187	456
-43	6	408
-141	125	140
-344	158	51
-555	137	-13
-654	106	-118
-564	94	-217
-288	96	-160
69	82	-92
375	30	-112
527	-65	-15
484	-173	-31
318	-245	-9
117	-242	24
-39	-158	-140
-124	-27	-271
-160	92	-328
-175	149	-206
-181	130	-95
-159	62	-58
-88	-2	59
31	-18	137
160	23	163
244	96	59
245	149	22
180	151	101
90	102	-38
28	31	-168
20	-16	-145
47	-22	-129
70	3	-92
52	22	-59
0	6	107
-61	-49	236
-92	-117	122
-76	-145	14
-28	-113	-94
16	-17	-121
30	95	-171
16	171	-117
-3	174	128
-2	103	101
26	-5	35
65	-104	-41
93	-151	-105
90	-136	-26
65	-71	127
36	10	259
21	78	274
18	114	267
11	116	196
-11	94	138
-47	68	-89
-79	67	-335
-83	106	-372
-51	177	-300
-1	256	-229
39	295	-130
46	250	90
20	105	172
-17	-112	48
-42	-341	-106
-44	-515	-181
-31	-581	-264
-20	-543	-229
-25	-432	-17
-41	-294	28
-48	-166	8
-32	-57	115
8	34	247
50	106	361
74	140	352
60	112	161
18	19	86
-31	-102	-69
-70	-189	-351
-93	-179	-447
-108	-59	-494
-126	120	-379
-148	274	-264
-156	315	-104
-130	224	60
-70	51	54
5	-108	13
57	-169	-42
61	-112	-10
16	13	-42
-41	120	-62
-60	148	6
-12	88	16
103	-1	21
230	-48	76
306	-13	109
292	88	134
190	188	164
46	226	52
-74	171	-57
-128	57	-139
-107	-56	-184
-39	-117	-53
21	-105	123
40	-44	108
4	20	93
-72	59	86
-156	64	-66
-213	53	-142
-221	41	-103
-170	38	61
-80	33	134
27	18	137
109	-7	39
142	-30	-132
116	-35	-71
48	-20	51
-28	4	21
-72	14	-89
-71	0	9
-33	-30	64
11	-51	26
31	-38	120
20	8	58
-6	63	-102
-10	88	-319
29	61	-509
111	2	-420
204	-40	-192
262	-8	-16
258	122	74
183	313	176
63	475	242
-59	504	234
-152	341	91
-194	12	-63
-187	-376	-67
-144	-673	46
-87	-763	298
-24	-625	419
34	-346	217
86	-83	-124
129	29	-368
151	-52	-608
141	-254	-609
94	-426	-259
9	-434	-68
-97	-246	-8
-199	58	24
-273	315	-74
-304	395	-103
-285	258	-7
-235	0	7
-178	-231	-21
-136	-301	44
-116	-186	44
-108	39	56
-91	251	107
-45	349	104
33	315	35
131	203	-30
222	93	3
274	33	26
278	21	108
234	29	101
164	22	37
86	5	-13
21	-7	-105
-32	7	-178
-75	39	-206
-105	62	-92
-118	52	69
-105	13	208
-61	-19	246
5	-9	250
76	56	326
133	150	185
163	213	-130
162	213	-330
141	145	-425
111	51	-271
81	-23	-107
45	-56	-118
4	-64	-135
-50	-86	-206
-108	-138	-145
-157	-206	-107
-185	-237	-93
-182	-190	100
-152	-63	217
-92	88	191
-20	188	120
56	189	3
125	96	-272
175	-23	-410
200	-93	-172
194	-70	254
162	16	570
111	104	715
55	130	559
2	78	86
-49	-7	-391
-100	-55	-623
-154	-16	-609
-199	103	-542
-223	238	-279
-198	313	-13
-120	291	123
-2	189	129
130	69	90
241	3	69
299	10	81
280	48	175
200	47	110
77	-60	-28
-56	-279	-40
-169	-552	7
-242	-767	-186
-273	-840	-412
-273	-737	-368
-259	-507	-222
-246	-250	-70
-237	-61	14
-223	7	105
-188	-20	132
-111	-70	113
10	-72	80
159	14	7
306	162	40
411	312	190
444	388	305
385	362	339
251	254	280
75	123	91
-94	33	-140
-211	9	-330
-255	41	-332
-235	93	-214
-180	127	-16
-127	133	130
-101	117	55
-91	103	-93
-76	104	-235
-23	120	-254
69	135	-209
175	135	-132
245	114	12
238	72	51
147	25	39
-4	-23	44
-143	-62	54
-224	-95	184
-225	-113	201
-160	-114	183
-78	-92	185
-16	-48	64
12	3	-56
22	48	-282
39	74	-341
79	80	-222
138	78	-109
190	80	26
211	92	-21
184	104	-124
121	99	-49
38	65	210
-39	6	386
-101	-61	383
-144	-112	196
-164	-127	-139
-162	-114	-427
-136	-84	-590
-90	-62	-551
-30	-62	-313
35	-78	104
100	-86	276
172	-61	67
252	10	-84
335	126	-253
396	260	-320
389	368	-189
276	403	-112
60	319	29
-208	106	119
-443	-210	107
-556	-553	152
-526	-823	81
-390	-928	51
-245	-823	-5
-181	-548	-41
-215	-192	137
-300	114	255
-324	295	306
-213	329	228
33	274	109
325	203	31
524	170	-40
541	170	-79
380	161	-68
134	108	-38
-60	9	-101
-118	-85	-207
-47	-120	-258
71	-79	-126
136	10	85
99	74	177
-15	68	176
-131	3	147
-175	-58	77
-129	-43	-151
-29	72	-318
62	243	-235
104	372	-262
97	373	-348
69	244	-215
51	41	34
45	-129	291
35	-198	391
0	-163	216
-60	-89	-64
-117	-44	-224
-136	-60	-398
-100	-105	-513
-28	-120	-333
42	-62	44
81	51	305
78	165	301
61	210	274
58	166	233
84	67	123
121	-22	-75
139	-52	-324
107	-19	-357
24	38	-206
-86	76	-81
-181	74	48
-226	61	168
-209	76	143
-136	138	33
-32	224	-70
85	267	-171
186	215	-219
244	54	-71
236	-163	77
151	-355	164
14	-441	248
-128	-400	294
-213	-268	397
-204	-121	233
-111	-25	-31
11	-10	-147
89	-52	-282
76	-111	-436
-19	-139	-489
-126	-126	-188
-170	-85	133
-109	-41	192
30	-6	217
162	21	142
196	52	-10
94	100	-115
-96	145	-237
-272	168	-261
-343	134	-136
-262	43	-2
-84	-81	29
94	-196	-102
178	-256	-189
135	-246	-87
10	-182	42
-110	-106	120
-152	-52	19
-99	-33	-114
9	-32	-57
99	-14	-121
127	41	-100
95	129	137
42	211	352
21	248	318
50	221	77
111	139	-165
156	50	-300
155	-8	-231
101	-9	-142
21	27	41
-52	75	91
-107	100	110
-137	95	98
-152	81	-64
-141	79	-30
-84	102	-87
37	136	-125
206	159	-30
363	140	104
430	77	98
346	-16	-55
132	-104	-113
-140	-162	-174
-350	-179	75
-412	-163	408
-319	-127	486
-143	-93	346
8	-62	-57
58	-39	-397
12	-22	-538
-70	-5	-494
-108	16	-243
-65	45	85
28	83	152
104	125	40
105	159	-23
27	170	-107
-69	148	-101
-117	93	-7
-76	19	98
30	-58	91
131	-125	-37
161	-178	-226
97	-219	-391
-15	-254	-331
-112	-278	-192
-136	-286	-3
-81	-270	150
13	-225	145
91	-158	134
109	-74	136
65	14	59
-11	100	-23
-81	169	-85
-110	206	-68
-92	195	35
-35	136	32
35	56	54
91	-8	36
105	-26	11
66	0	33
-17	33	-57
-106	27	-94
-148	-53	-86
-107	-182	-6
18	-294	184
174	-312	337
288	-203	245
297	-9	66
188	183	-123
11	282	-279
-153	253	-263
-232	135	-137
-204	20	41
-113	-18	26
-27	37	-10
-4	134	-56
-50	198	-84
-131	185	-92
-188	106	-160
-183	28	26
-118	2	216
-28	39	253
47	97	249
89	106	27
97	38	-287
102	-85	-400
119	-185	-368
154	-196	-282
186	-99	-188
190	59	-77
151	191	-3
69	224	-10
-29	137	30
-121	-16	63
-179	-163	43
-191	-241	1
-156	-226	23
-85	-149	49
10	-59	108
103	1	141
172	27	203
199	29	180
175	31	-153
107	44	-320
16	68	-279
-70	96	-234
-129	114	-141
-153	117	-60
-144	103	-12
-126	59	43
-112	-9	104
-104	-103	128
-89	-195	102
-49	-253	20
22	-242	-24
118	-154	-55
211	-9	-96
266	148	8
251	265	173
162	323	312
20	313	448
-139	260	381
-270	171	216
-348	48	5
-366	-123	-257
-332	-345	-474
-264	-572	-598
-181	-732	-494
-87	-745	-331
18	-590	-156
126	-308	-95
230	-4	-8
310	203	189
346	256	233
336	177	194
287	62	70
226	10	-9
174	63	-86
139	194	-152
105	313	-87
39	345	92
-76	278	281
-227	150	238
-366	30	119
-436	-35	41
-392	-47	-27
-256	-50	-195
-80	-69	-419
48	-102	-327
75	-103	-97
12	-30	38
-81	113	77
-112	268	-46
-37	359	-100
123	325	-58
294	174	-102
373	-15	-211
318	-157	-297
148	-196	-190
-52	-145	-53
-194	-68	71
-225	-24	186
-158	-37	221
-51	-77	204
34	-87	225
68	-39	222
66	58	90
59	155	-3
79	203	-25
117	183	-28
149	123	-64
141	57	-47
89	9	-82
15	-26	-165
-46	-78	-184
-66	-162	-282
-53	-263	-301
-36	-338	-159
-52	-339	-4
-116	-251	68
-201	-104	82
-262	43	93
-256	140	119
-165	174	119
-16	171	87
140	183	-35
242	244	-181
260	345	-107
195	438	12
84	450	168
-29	331	424
-101	81	433
-124	-246	212
-107	-559	-32
-68	-758	-256
-32	-775	-273
2	-609	-116
36	-312	3
83	17	-50
139	278	-233
190	400	-364
203	372	-340
153	233	-130
36	48	-35
-114	-127	-30
-236	-259	-24
-276	-340	-39
-218	-368	-43
-95	-341	-80
20	-256	-24
60	-116	-14
3	51	-53
-108	204	46
-194	292	155
-181	294	131
-56	225	116
129	131	66
279	67	-95
314	50	-231
216	72	-242
31	101	-85
-150	105	24
-252	81	60
-251	43	35
-173	17	35
-84	2	107
-26	-9	266
-21	-33	452
-43	-74	431
-59	-103	253
-44	-95	8
5	-30	-169
67	70	-517
124	168	-695
161	210	-508
175	180	-409
172	100	-115
159	19	186
133	-15	264
96	6	208
47	52	32
-5	77	-30
-54	38	-88
-93	-58	-137
-120	-178	-134
-135	-261	-104
-142	-270	34
-136	-199	101
-114	-80	90
-68	40	107
-2	129	62
78	169	42
156	170	4
215	143	-7
245	103	-36
228	53	-102
166	4	-62
70	-32	-32
-40	-39	-68
-137	-5	-144
-198	61	-36
-207	130	129
-165	164	224
-95	126	335
-19	18	246
39	-127	-22
66	-250	-360
60	-300	-576
37	-250	-585
8	-131	-427
-13	-6	-90
-19	66	221
-13	49	359
-1	-34	281
-2	-141	166
-24	-212	151
-74	-222	38
-137	-179	-160
-190	-121	-236
-197	-81	-108
-141	-62	-60
-20	-51	-12
128	-17	155
254	45	177
320	114	133
302	154	10
226	140	-197
131	81	-425
65	6	-460
48	-41	-206
62	-46	50
66	-26	123
16	-6	107
-98	-13	149
-251	-32	170
-383	-33	149
-445	19	38
-403	118	-63
-274	221	-99
-110	265	-22
42	210	232
144	77	225
196	-70	12
214	-152	-108
216	-124	-296
212	-8	-430
180	128	-302
107	202	46
-12	177	403
-147	75	368
-256	-40	236
-300	-103	84
-260	-90	-259
-161	-28	-428
-42	24	-382
49	24	-219
96	-34	-42
109	-110	67
128	-147	164
189	-111	236
291	-4	106
401	125	-12
452	219	-126
381	241	-176
169	195	-56
-139	110	45
-459	32	188
-683	-15	132
-720	-31	-79
-579	-30	-190
-313	-40	-403
-34	-70	-528
162	-117	-403
238	-165	-157
212	-195	89
154	-204	200
114	-190	263
114	-159	276
124	-116	222
107	-66	105
47	-20	7
-37	15	-124
-90	20	-317
-71	-14	-302
17	-84	11
130	-164	264
198	-216	371
182	-208	348
91	-123	137
-12	17	18
-61	161	-28
-24	251	-11
77	250	14
187	166	120
238	53	19
202	-16	-384
94	-5	-524
-47	77	-460
-178	168	-197
-281	191	152
-350	108	325
-387	-51	253
-383	-200	60
-325	-247	-106
-214	-152	-225
-61	35	-236
94	208	-176
216	264	-130
287	168	-66
300	-21	-42
269	-192	-172
219	-246	-112
159	-161	195
87	1	439
12	132	502
-60	157	352
-109	75	256
-125	-49	6
-107	-122	-335
-72	-102	-562
-43	-12	-609
-34	81	-278
-41	106	7
-45	62	90
-31	-12	21
7	-43	18
59	1	101
107	100	1
130	182	-156
122	186	-341
88	96	-320
36	-45	-13
-23	-157	182
-80	-184	118
-130	-127	-5
-166	-35	-46
-178	29	49
-164	36	176
-123	7	112
-62	-11	2
9	15	-8
83	78	93
157	125	105
214	103	66
242	3	78
224	-134	7
154	-225	33
46	-204	-21
-69	-70	-185
-160	116	-213
-201	261	-215
-186	299	-200
-136	222	-128
-76	84	-48
-25	-49	75
11	-126	140
41	-157	126
77	-175	82
116	-218	-43
144	-281	-155
150	-319	-125
117	-286	39
48	-159	205
-35	19	426
-111	166	511
-161	208	321
-172	113	15
-143	-68	-341
-88	-249	-602
-23	-329	-567
27	-268	-292
44	-97	-56
24	106	55
-25	249	41
-77	284	-17
-102	225	-24
-89	128	-14
-43	63	65
7	59	71
32	106	55
14	150	-35
-39	142	-273
-97	61	-265
-129	-66	-136
-119	-188	-5
-72	-251	200
-8	-228	391
50	-138	437
96	-25	294
126	64	-34
154	107	-485
175	110	-699
184	95	-532
172	86	-292
131	93	-169
72	103	-13
9	98	43
-44	68	77
-85	20	10
-120	-27	-23
-157	-53	13
-190	-52	-7
-204	-35	152
-183	-22	144
-117	-29	140
-20	-49	138
82	-61	131
162	-36	110
199	35	87
202	135	138
180	222	18
154	244	9
126	185	7
91	58	17
40	-82	-11
-26	-179	-133
-89	-195	-148
-130	-135	-116
-138	-34	-176
-111	60	-104
-68	116	34
-28	138	-22
-2	147	-60
10	155	-149
18	155	-168
33	123	-187
50	37	-173
61	-100	-5
52	-246	230
21	-346	538
-20	-362	741
-56	-305	722
-68	-218	401
-58	-162	-171
-34	-166	-764
-8	-208	-973
16	-240	-890
48	-203	-569
99	-85	-102
159	84	95
196	241	184
167	330	166
40	326	68
-163	243	57
-371	115	209
-493	-28	409
-448	-160	579
-239	-261	594
57	-311	275
319	-280	-214
431	-171	-581
371	-10	-842
188	141	-857
-12	227	-647
-144	215	-64
-180	137	271
-154	59	389
-128	45	352
-129	110	246
-145	208	92
-128	261	-139
-50	213	-336
66	74	-326
159	-86	-179
166	-178	-135
66	-149	-31
-86	-25	119
-207	106	152
-230	161	188
-143	99	121
-5	-34	62
111	-148	143
159	-152	192
142	-27	172
119	166	217
131	325	237
191	357	181
253	244	7
259	34	-138
175	-173	15
22	-296	86
-134	-301	-119
-233	-225	-265
-240	-134	-242
-176	-85	-256
-94	-91	-303
-36	-119	-300
-19	-125	-176
-18	-76	-56
-2	26	-166
46	143	-87
110	235	93
152	269	264
143	256	252
75	210	96
-22	161	46
-108	116	18
-147	59	70
-132	-29	38
-82	-163	-95
-27	-322	-182
2	-481	-144
0	-572	-157
-21	-570	-211
-35	-466	-207
-22	-289	-34
28	-88	22
100	87	-68
169	197	-120
209	236	-271
200	215	-311
143	165	-215
52	111	-211
-49	68	-209
-149	45	-20
-231	31	182
-295	28	275
-341	27	354
-352	31	445
-312	38	448
-208	39	389
-43	31	222
148	11	-35
306	-11	-281
385	-21	-383
360	-1	-323
249	53	-101
111	131	91
-3	207	134
-55	247	213
-52	241	91
-35	195	21
-36	135	-61
-72	80	-256
-121	32	-389
-150	-23	-325
-123	-114	-112
-44	-237	-19
49	-362	30
121	-427	-27
138	-381	100
111	-215	213
63	18	213
32	225	298
26	324	242
37	284	152
37	153	-30
7	18	-275
-51	-44	-217
-118	-12	1
-163	69	67
-170	125	65
-138	103	-11
-85	9	-148
-26	-94	-209
29	-131	-128
79	-67	5
124	64	-136
162	189	-316
181	228	-313
172	148	-138
141	-10	90
103	-170	41
67	-250	-66
42	-221	9
15	-105	79
-36	22	-54
-124	88	-55
-234	55	-34
-321	-64	38
-347	-216	382
-277	-332	626
-127	-355	464
49	-271	36
195	-109	-371
262	77	-807
253	225	-862
193	287	-675
119	247	-186
53	123	111
1	-38	115
-57	-187	140
-119	-277	150
-168	-288	263
-182	-225	331
-148	-111	203
-84	14	90
-30	113	-12
-27	162	-151
-83	157	-181
-164	110	-41
-215	51	110
-195	4	253
-106	-14	233
17	-1	202
114	32	119
147	79	-111
119	131	-320
64	194	-420
27	251	-319
15	282	-12
23	252	184
25	130	147
14	-68	55
1	-299	-145
12	-470	-360
63	-498	-361
139	-358	-121
205	-90	42
221	203	189
172	412	228
86	461	145
-5	356	142
-63	165	68
-83	-20	46
-75	-133	29
-65	-170	0
-60	-159	0
-56	-143	-78
-41	-137	-82
-6	-130	-3
33	-90	-91
60	-5	-155
68	102	-125
64	193	-132
68	227	-101
97	200	-64
137	134	-51
163	74	-30
141	45	-39
64	47	-173
-43	60	-122
-143	53	-54
-198	20	-68
-199	-31	-63
-168	-81	4
-129	-122	278
-108	-160	281
-93	-202	119
-64	-256	-140
-5	-304	-353
79	-322	-457
159	-283	-381
207	-196	-29
201	-83	297
154	18	464
85	70	312
18	65	109
-40	11	-95
-102	-62	-263
-174	-128	-301
-250	-161	-196
-300	-141	61
-296	-66	161
-218	56	217
-86	200	110
59	322	-131
175	379	-67
238	341	-22
241	224	-19
206	65	159
156	-68	285
97	-131	304
24	-108	233
-59	-27	84
-151	55	-186
-217	96	-359
-233	71	-441
-184	-2	-345
-90	-91	21
12	-157	173
82	-173	137
104	-138	-19
89	-58	-107
61	47	-162
46	161	-227
42	260	-16
42	327	134
28	343	119
-4	301	56
-29	203	56
-31	70	1
3	-66	-135
54	-182	-170
85	-254	-128
58	-274	-130
-33	-256	-240
-161	-210	-110
-269	-162	205
-302	-117	175
-235	-80	-67
-88	-41	-283
89	6	-291
229	63	-289
291	127	-295
266	180	-108
179	215	-83
65	225	-12
-34	209	142
-102	165	185
-136	85	152
-139	-32	103
-119	-189	177
-76	-356	166
-6	-490	151
81	-530	200
163	-443	101
211	-241	7
196	12	-98
110	225	-196
-18	325	-209
-142	289	-103
-205	156	166
-182	-1	442
-87	-110	400
26	-135	104
92	-89	-151
79	-13	-468
-5	50	-630
-108	81	-377
-166	77	24
-140	61	180
-41	45	254
86	31	258
191	17	194
238	0	-2
229	-18	-287
180	-25	-193
112	-13	-168
31	25	-252
-69	81	-289
-182	142	-100
-285	186	231
-339	192	389
-317	145	506
-212	47	360
-60	-74	172
77	-179	-110
156	-216	-524
159	-167	-784
115	-40	-646
69	106	-185
62	205	130
101	206	260
158	108	119
201	-38	-131
201	-164	-302
156	-208	-356
75	-160	-218
-23	-51	16
-130	58	130
-233	117	104
-319	103	152
-361	26	205
-331	-75	268
-216	-165	285
-34	-219	251
169	-228	124
320	-189	-70
373	-110	-122
320	-8	-86
184	97	-33
22	175	19
-117	204	-20
-212	171	-137
-258	85	-111
-270	-26	56
-258	-134	75
-219	-211	85
-150	-241	97
-48	-222	3
67	-156	21
172	-60	110
237	51	174
245	164	116
211	257	-15
151	322	-217
90	345	-401
44	328	-373
14	268	-334
-8	170	-338
-28	38	-190
-47	-103	-155
-62	-227	-170
-66	-297	-45
-59	-300	87
-42	-238	240
-20	-141	337
4	-53	319
33	2	142
65	22	36
104	28	-34
138	47	-185
166	85	-265
175	126	-200
172	140	-38
156	109	-49
120	39	-104
58	-40	-110
-45	-92	-31
-184	-105	57
-337	-90	118
-459	-76	219
-501	-82	254
-426	-98	211
-252	-95	52
-30	-47	-135
159	40	-69
249	133	169
226	182	41
125	160	38
15	85	109
-42	18	-161
-32	14	-405
21	81	-711
63	174	-711
54	205	-338
-8	108	-18
-92	-113	143
-144	-376	224
-137	-557	98
-75	-565	-5
11	-387	-20
81	-103	28
113	154	241
119	279	298
122	251	285
133	129	152
151	18	-16
145	-5	-58
98	61	-95
7	149	-197
-97	166	-302
-174	62	-169
-191	-127	-85
-150	-319	-99
-77	-398	-30
-3	-322	38
38	-123	102
51	105	194
52	259	204
63	290	77
90	213	-59
117	106	-59
129	38	-13
111	40	7
62	88	1
0	127	-51
-61	118	-28
-107	58	-39
-130	-15	1
-129	-53	60
-104	-32	39
-54	33	9
9	100	16
67	130	-48
102	106	-164
94	50	-142
54	-5	-12
8	-29	100
-9	-13	39
21	30	9
87	71	58
151	89	79
165	69	91
103	12	170
-20	-69	141
-161	-157	-65
-267	-217	-140
-302	-219	-244
-271	-145	-446
-207	-1	-446
-152	165	-312
-129	283	-234
-129	294	-139
-129	174	-93
-96	-27	-186
-23	-225	-185
74	-320	64
165	-275	369
213	-126	495
214	30	456
180	85	303
141	-13	94
127	-236	-134
144	-475	-262
175	-620	-398
179	-600	-432
126	-424	-202
8	-173	-59
-139	64	72
-246	232	302
-250	327	369
-126	382	117
85	418	-199
290	424	-234
386	364	-214
314	215	-294
89	0	-165
-198	-209	-3
-433	-328	2
-540	-308	16
-497	-166	83
-354	11	109
-180	135	96
-32	163	144
68	116	252
130	67	268
170	78	110
196	160	-9
193	257	-160
156	299	-178
89	233	-101
16	76	-6
-39	-108	141
-65	-241	120
-71	-278	62
-74	-233	-136
-80	-151	-330
-84	-83	-353
-66	-47	-256
-18	-34	-121
53	-13	-71
123	30	-33
163	88	-54
164	135	-10
139	153	149
117	138	155
111	105	52
121	75	49
121	53	135
86	37	120
7	22	27
-100	7	53
-197	3	35
-253	17	0
-248	47	15
-183	66	-107
-83	47	-287
29	-20	-371
122	-123	-289
176	-210	-200
184	-233	-3
144	-167	155
79	-35	138
14	100	144
-21	174	65
-18	153	4
17	49	-20
49	-81	39
47	-166	202
-5	-163	294
-102	-70	213
-202	80	90
-269	226	-11
-269	319	-273
-195	326	-457
-70	244	-324
77	92	-64
215	-92	43
322	-269	14
370	-403	-86
346	-460	-138
244	-445	-83
71	-370	-69
-135	-271	-126
-321	-189	-177
-429	-143	-186
-418	-131	-134
-287	-123	-123
-85	-92	-211
123	-20	-207
262	76	-50
297	162	147
234	210	249
107	208	278
-23	174	316
-121	140	310
-170	138	263
-173	170	205
-149	211	99
-115	228	-17
-87	185	-126
-65	86	-162
-55	-44	-154
-52	-159	-233
-52	-219	-180
-44	-209	-51
-21	-134	86
21	-27	208
81	84	163
135	165	40
172	209	33
174	210	-5
144	178	-327
98	125	-389
50	58	-231
18	-7	-186
0	-66	-246
-16	-113	-241
-48	-144	-66
-107	-160	80
-185	-153	125
-253	-122	75
-277	-67	32
-229	-4	79
-105	51	88
59	76	-164
219	57	-205
325	5	52
337	-49	164
266	-72	225
147	-44	216
28	25	101
-48	98	-44
-71	131	-172
-61	108	-197
-46	41	-165
-50	-22	7
-77	-35	208
-106	23	234
-115	120	150
-88	199	13
-31	210	4
40	138	9
102	19	-111
140	-87	-245
158	-133	-165
155	-118	-35
136	-86	-152
99	-90	-178
46	-159	-70
-16	-261	-71
-69	-332	-114
-95	-308	-151
-87	-173	-229
-51	17	-257
-21	171	-99
-22	213	119
-63	132	250
-127	-5	312
-172	-98	221
-163	-76	38
-89	55	-102
21	205	-185
117	257	-151
152	141	-12
111	-116	112
20	-393	81
-75	-557	-38
-129	-515	-36
-128	-289	16
-88	-1	72
-47	215	15
-40	269	-86
-68	187	-17
-107	58	-89
-117	2	-130
-76	68	5
20	221	71
131	361	155
214	390	222
234	275	137
181	65	50
80	-141	82
-32	-257	-19
-115	-250	-161
-150	-151	-227
-137	-25	-157
-99	65	-224
-55	97	-350
-20	85	-234
8	65	-119
36	59	-46
68	81	-98
101	109	-69
124	126	-23
127	108	-32
107	46	-18
71	-54	74
33	-178	155
-5	-282	306
-41	-330	431
-85	-288	246
-131	-170	119
-173	-15	-89
-182	115	-432
-136	171	-574
-36	154	-452
100	95	15
221	62	405
280	95	442
266	189	272
194	290	12
109	332	-151
52	277	-334
42	138	-320
61	-22	31
67	-142	347
30	-190	410
-55	-174	231
-150	-137	-61
-200	-118	-334
-168	-125	-437
-55	-134	-420
88	-120	-324
188	-81	-213
184	-45	-227
52	-58	-216
-165	-147	-162
-390	-290	-105
-545	-425	37
-571	-478	155
-466	-404	298
-281	-210	425
-79	41	419
81	268	317
163	405	74
182	417	-205
166	327	-325
147	174	-301
139	19	-223
143	-105	-93
139	-174	-51
126	-187	20
101	-152	78
80	-88	80
75	-17	119
86	46	108
100	96	130
96	133	120
63	166	81
4	194	98
-62	207	74
-115	189	-30
-138	130	-83
-126	37	-86
-94	-58	-55
-48	-117	-59
-4	-108	-86
35	-33	-97
68	75	-159
97	168	-189
115	201	-133
117	169	-81
101	91	-2
67	9	86
20	-46	90
-32	-63	5
-78	-60	-163
-112	-66	-320
-128	-94	-231
-125	-136	-25
-106	-163	-22
-76	-144	-48
-38	-72	-84
1	37	-40
44	150	21
93	225	196
144	237	415
191	193	416
212	113	263
195	31	-19
128	-29	-143
25	-67	-254
-85	-95	-209
-165	-129	110
-189	-174	281
-154	-221	308
-86	-242	77
-15	-215	-344
28	-134	-501
40	-18	-637
38	95	-647
40	159	-398
61	150	-117
90	75	135
102	-31	159
67	-122	95
-18	-163	6
-133	-153	17
-239	-116	63
-285	-86	32
-256	-76	65
-164	-80	142
-54	-78	230
26	-52	271
48	-15	294
20	6	278
-21	-15	211
-32	-70	18
11	-126	-219
98	-122	-376
189	-29	-355
240	135	-303
225	301	-236
150	386	-6
45	334	82
-46	166	87
-113	-42	61
-153	-195	-2
-185	-244	-72
-224	-196	-121
-262	-112	-77
-281	-50	-9
-249	-32	55
-160	-32	63
-26	-2	62
114	79	62
214	191	68
255	279	57
234	292	63
172	228	22
105	118	-60
45	26	-83
1	-16	-194
-37	-13	-302
-77	-11	-207
-116	-45	-37
-137	-117	130
-124	-191	249
-60	-210	183
37	-144	111
148	-16	100
231	119	24
262	197	-132
241	192	-219
175	119	-121
103	29	-52
41	-33	52
1	-48	61
-23	-35	-36
-43	-19	-113
-67	-17	-273
-97	-27	-289
-116	-30	-294
-120	-16	-219
-105	15	5
-81	48	306
-61	68	625
-53	74	719
-56	69	594
-52	58	213
-26	32	-394
26	-24	-807
98	-126	-893
162	-257	-784
188	-375	-306
158	-427	155
72	-376	164
-46	-230	-3
-153	-41	-105
-209	123	-112
-194	210	-23
-113	213	125
-3	161	93
91	103	37
133	67	112
112	54	99
49	41	70
-15	11	63
-49	-32	-7
-37	-68	-13
5	-70	140
42	-39	333
50	-4	538
15	-7	516
-48	-67	186
-107	-167	-241
-138	-249	-615
-126	-249	-747
-84	-135	-489
-21	70	12
46	300	196
111	474	138
175	540	52
231	483	-30
266	335	-34
258	138	-80
194	-64	-104
66	-243	-150
-98	-374	-136
-262	-436	-95
-385	-418	-76
-439	-317	84
-420	-164	196
-347	-3	61
-247	114	-54
-145	160	-56
-61	138	-79
7	83	43
69	31	188
135	6	116
204	11	-15
265	26	-135
300	35	-242
287	32	-186
225	16	-121
125	-3	-60
11	-26	151
-88	-50	217
-156	-74	208
-190	-80	103
-202	-52	-7
-199	16	14
-181	113	-107
-139	201	-323
-56	240	-406
62	205	-219
202	116	-113
318	15	-42
372	-45	166
340	-44	107
236	0	10
98	39	86
-32	21	144
-114	-65	118
-140	-192	-26
-121	-297	-144
-72	-316	-221
-14	-233	-176
44	-70	14
86	103	107
100	233	133
74	283	77
15	268	-1
-54	222	-82
-95	174	-149
-83	145	-68
-24	116	186
39	64	496
53	-21	500
-8	-126	285
-132	-218	21
-252	-263	-378
-296	-249	-740
-232	-201	-733
-86	-153	-407
63	-137	-128
129	-164	19
79	-206	106
-55	-228	104
-188	-200	112
-235	-126	17
-166	-32	-91
-18	44	-36
126	76	-8
193	66	-19
162	41	48
61	32	94
-40	55	68
-93	106	48
-89	164	28
-47	199	18
-9	200	45
10	161	71
18	99	30
35	25	-135
76	-37	-260
124	-80	-244
158	-96	-158
150	-82	-97
103	-48	-70
42	-14	-12
4	5	150
2	-4	376
28	-36	321
54	-75	171
49	-92	-16
10	-71	-270
-44	-17	-309
-83	55	-197
-84	120	-147
-54	160	-135
-16	170	-44
2	161	122
-10	140	263
-36	113	250
-56	75	155
-54	26	127
-32	-26	40
2	-69	-228
25	-89	-403
38	-83	-252
42	-58	-31
50	-38	32
57	-31	80
57	-33	42
36	-35	13
-5	-21	-82
-46	3	-145
-63	23	0
-35	22	109
25	4	155
89	-12	-35
117	6	-295
94	72	-344
34	174	-432
-29	267	-402
-62	311	-78
-63	286	208
-52	210	196
-63	120	69
-116	45	-3
-189	-14	-24
-239	-93	24
-217	-224	58
-112	-407	-9
47	-596	-88
203	-724	28
297	-721	152
297	-582	181
215	-351	103
97	-109	20
-16	69	-77
-91	154	-141
-123	154	-47
-130	117	-24
-128	74	14
-123	49	42
-111	41	-2
-89	53	-70
-49	88	-70
-1	149	42
42	225	69
77	282	129
94	287	228
99	214	280
96	84	268
86	-44	103
64	-108	-83
28	-70	-235
-23	44	-387
-88	171	-513
-148	229	-456
-190	182	-211
-195	51	-18
-165	-95	40
-93	-186	57
-2	-184	95
93	-109	134
166	-15	199
198	48	272
188	62	192
141	42	17
80	28	-124
21	43	-218
-21	93	-182
-46	149	-47
-66	179	48
-89	165	-57
-116	97	-208
-136	-13	-306
-130	-142	-245
-93	-259	42
-24	-333	188
50	-334	138
99	-253	32
106	-113	-112
78	40	-291
37	149	-337
14	178	-179
25	140	158
59	93	370
93	96	300
103	182	245
84	323	207
48	434	102
19	434	-20
9	282	-83
8	15	-115
0	-274	-243
-37	-482	-504
-95	-547	-615
-151	-482	-488
-172	-348	-117
-141	-217	119
-72	-133	141
2	-90	187
43	-61	41
36	-23	28
-13	16	39
-69	31	-30
-105	4	-8
-99	-56	16
-51	-108	161
23	-108	190
107	-30	175
184	100	168
232	227	151
226	283	144
150	240	54
10	109	38
-156	-58	-94
-287	-192	-211
-325	-251	-116
-255	-225	19
-112	-142	40
22	-44	109
74	27	143
23	53	-6
-85	40	-198
-169	11	-435
-152	-2	-405
-22	18	-170
159	77	108
302	154	301
332	222	260
245	248	164
97	222	-45
-23	150	-331
-63	61	-565
-26	-14	-538
35	-60	-282
58	-77	-41
15	-74	119
-72	-69	208
-151	-70	172
-174	-74	74
-133	-62	80
-58	-29	83
8	24	34
36	85	0
32	129	3
25	136	10
36	103	45
72	37	147
110	-33	130
125	-85	74
105	-94	24
56	-61	-76
11	1	-53
-15	59	1
-12	86	69
1	62	85
2	-7	-78
-19	-94	-209
-54	-164	-131
-83	-181	55
-86	-129	106
-57	-13	63
-14	141	5
21	292	-19
37	398	-114
32	414	-246
21	318	-338
18	117	-389
32	-130	-332
50	-348	-376
52	-449	-252
24	-393	-19
-34	-207	36
-98	11	151
-140	139	207
-135	106	174
-83	-72	123
-5	-296	10
66	-427	-26
107	-390	135
115	-205	376
100	10	486
86	122	395
82	70	116
86	-93	-126
77	-233	-394
30	-222	-606
-53	-24	-488
-162	270	-205
-250	504	-29
-285	548	11
-247	372	10
-143	83	42
-12	-188	91
110	-325	122
189	-313	106
212	-218	16
183	-125	-48
122	-75	-20
50	-41	87
-8	19	150
-38	123	204
-38	233	191
-14	267	164
8	183	7
3	5	-319
-49	-171	-422
-151	-243	-328
-267	-160	-213
-357	27	-162
-375	206	-30
-302	274	149
-154	201	233
21	51	334
179	-66	380
283	-81	309
328	5	175
328	110	-129
300	148	-400
253	77	-438
184	-60	-379
91	-181	-358
-27	-205	-369
-143	-125	-242
-224	10	-21
-248	126	80
-208	171	150
-126	160	134
-36	128	43
35	117	-62
75	126	-278
83	114	-423
68	41	-197
35	-101	87
-16	-263	59
-80	-379	135
-147	-384	102
-194	-277	177
-191	-110	345
-125	45	411
2	136	534
154	165	488
277	165	349
331	179	26
299	225	-310
199	279	-631
79	301	-763
-10	262	-593
-43	163	-278
-27	21	34
7	-117	149
24	-228	85
8	-288	82
-32	-292	45
-64	-249	-128
-63	-159	-165
-18	-56	5
53	15	137
110	11	207
116	-79	246
60	-222	113
-42	-332	-16
-148	-333	-158
-210	-194	-309
-204	31	-339
-122	228	-240
-1	279	-94
110	150	32
164	-102	213
125	-338	326
4	-427	242
-163	-316	115
-318	-65	-2
-397	192	-91
-378	335	-107
-268	309	67
-116	164	186
20	7	83
102	-64	79
124	-27	2
111	81	-202
105	186	-384
123	227	-272
159	195	-19
183	119	29
154	42	-8
65	-12	-33
-60	-42	-59
-167	-61	-159
-200	-70	-282
-141	-56	-398
-7	-8	-218
139	69	24
238	144	46
253	180	149
193	154	238
106	79	248
41	1	255
27	-34	213
52	-14	248
83	43	242
79	88	80
26	80	-57
-55	16	-181
-133	-67	-457
-173	-129	-747
-170	-132	-608
-134	-87	-147
-95	-25	72
-60	7	141
-26	-14	161
24	-76	66
90	-142	-114
151	-175	-217
178	-153	-71
133	-78	61
34	22	112
-86	112	143
-166	165	170
-161	168	195
-82	123	225
25	49	119
89	-23	10
74	-66	-74
-6	-69	-222
-82	-33	-179
-86	12	25
4	33	210
144	4	205
248	-69	99
230	-162	47
69	-232	-62
-161	-253	-165
-357	-233	-167
-410	-187	-109
-295	-142	40
-78	-110	12
132	-78	-123
222	-34	-172
159	23	-227
-3	69	-184
-166	74	-184
-232	15	-151
-170	-81	-90
-16	-162	7
159	-166	263
283	-62	506
334	114	520
314	291	337
257	385	189
169	357	9
56	237	-141
-93	97	-234
-255	17	-221
-386	29	-230
-438	110	-315
-387	185	-323
-252	189	-345
-95	98	-171
19	-51	60
57	-184	-7
36	-238	-187
9	-185	-233
21	-62	-218
86	68	-169
175	147	-147
234	144	-147
233	76	-107
162	-16	-2
60	-87	104
-32	-113	56
-97	-90	26
-128	-37	126
-135	19	209
-126	56	279
-95	57	352
-29	23	294
64	-38	224
158	-102	81
222	-142	37
222	-138	118
170	-85	10
94	-2	-38
32	71	-192
3	103	-338
-7	75	-330
-28	6	-243
-84	-66	-47
-162	-102	44
-232	-79	45
-246	-8	-31
-184	74	-44
-67	127	112
54	131	198
136	92	202
158	35	213
131	2	178
107	18	120
114	90	-84
154	194	-301
200	284	-384
219	310	-364
196	235	-360
136	56	-325
67	-182	-194
4	-409	2
-54	-546	140
-130	-546	63
-237	-427	-22
-357	-263	-104
-445	-144	-107
-448	-118	0
-347	-179	58
-172	-249	105
5	-238	107
105	-102	87
104	132	95
23	372	144
-62	505	291
-92	461	331
-39	260	171
61	-21	-53
143	-273	-302
159	-420	-558
98	-435	-552
3	-339	-196
-69	-174	-12
-71	16	105
-1	205	217
107	359	238
202	457	273
245	466	144
223	385	-96
148	235	-217
49	77	-312
-44	-41	-412
-117	-91	-227
-159	-82	65
-172	-55	311
-159	-48	362
-133	-69	196
-97	-94	-8
-54	-90	-170
-1	-39	-171
63	43	-28
136	117	178
198	149	222
226	122	75
205	63	-183
136	6	-391
41	-24	-425
-49	-23	-282
-106	-20	-31
-121	-32	113
-111	-66	150
-92	-105	-17
-79	-114	-138
-65	-83	-85
-42	-15	60
4	58	145
63	106	-65
105	116	-158
107	93	-85
61	62	22
-7	42	89
-60	36	69
-66	26	52
-25	-3	5
28	-63	-1
47	-140	46
0	-202	121
-102	-225	141
-208	-184	83
-269	-93	1
-253	27	-60
-172	139	-172
-66	219	-211
22	253	-117
86	244	-72
136	218	12
193	180	-26
254	136	-192
291	72	-170
266	-28	-106
167	-179	-26
25	-366	-36
-93	-543	11
-124	-654	159
-60	-646	205
42	-506	152
107	-263	48
72	12	-25
-52	228	-118
-195	321	-196
-262	275	-168
-204	135	-84
-52	-26	-161
105	-127	-137
172	-127	66
119	-32	232
-10	112	415
-126	233	527
-163	277	331
-117	227	-67
-54	114	-394
-57	-6	-625
-159	-80	-659
-314	-76	-530
-424	-11	-144
-397	79	255
-213	141	346
65	153	306
330	112	32
476	51	-118
462	6	-57
336	-3	-58
175	21	20
65	51	72
32	63	104
58	43	108
104	0	-18
133	-40	-157
140	-57	-193
129	-44	-83
107	-16	57
70	8	111
7	17	192
-87	13	129
-198	16	38
-286	36	-160
-318	77	-379
-272	114	-341
-169	117	-213
-53	69	96
30	-23	91
60	-127	-25
44	-203	-92
15	-215	-90
8	-167	32
30	-89	-15
67	-22	62
85	2	74
56	-11	34
-20	-29	34
-120	-12	75
-193	57	122
-209	156	103
-150	233	56
-28	223	-44
110	108	-36
221	-81	-48
266	-256	-123
234	-326	-124
129	-237	-101
-2	-19	-186
-112	223	-226
-149	365	-103
-87	324	-4
54	110	90
214	-176	116
306	-390	63
269	-425	13
97	-273	-26
-148	-23	6
-349	186	181
-410	250	414
-300	149	458
-78	-38	280
134	-200	111
227	-254	-204
152	-187	-631
-32	-66	-768
-215	24	-620
-298	34	-294
-242	-23	-45
-93	-98	215
62	-138	390
157	-125	391
179	-81	384
167	-32	155
170	9	-104
201	64	-349
229	157	-507
204	268	-486
101	353	-412
-54	339	-194
-200	195	2
-268	-42	26
-246	-275	35
-160	-393	60
-72	-348	168
-25	-174	233
-19	24	217
-22	139	152
3	133	40
62	48	84
130	-25	77
172	-16	-2
162	82	-37
114	202	-206
60	261	-241
35	225	-53
32	115	14
30	7	54
-7	-37	-50
-87	-11	-128
-179	36	-39
-237	41	-19
-221	-25	0
-118	-129	-42
36	-199	-91
187	-178	-35
286	-63	126
301	86	129
232	190	109
105	198	137
-51	125	115
-199	28	81
-313	-24	22
-370	-9	-11
-360	46	-108
-287	92	-136
-174	83	-132
-51	21	-127
48	-55	-99
105	-101	-13
121	-88	22
118	-29	53
123	43	109
151	99	134
196	130	213
241	143	161
245	147	75
191	127	-108
77	56	-345
-72	-81	-441
-209	-270	-337
-287	-454	-276
-286	-557	-287
-213	-527	-105
-105	-362	87
-8	-127	249
49	81	233
63	183	-39
52	160	-306
42	51	-390
44	-64	-211
54	-122	108
49	-108	345
26	-49	371
-10	-1	131
-32	2	-186
-16	-41	-356
36	-96	-282
96	-118	-51
112	-90	55
54	-22	103
-75	50	112
-233	99	-2
-345	115	-155
-357	110	-211
-252	108	-93
-61	114	54
141	124	167
291	118	212
346	90	144
302	49	167
199	16	106
80	9	17
-22	27	68
-84	56	26
-110	67	56
-112	52	41
-104	23	43
-89	3	79
-66	15	-121
-32	58	-211
17	112	-82
79	144	-178
136	138	-328
178	101	-170
188	60	-79
164	45	-100
111	62	-137
49	98	-60
-10	116	34
-52	90	134
-81	17	278
-102	-80	225
-126	-157	167
-158	-186	133
-186	-161	53
-195	-106	-69
-166	-50	-137
-88	-21	-194
23	-27	-217
145	-53	-187
236	-79	-113
269	-92	-108
238	-90	-56
159	-78	49
66	-57	-42
-10	-25	-142
-53	27	-206
-69	99	-218
-71	166	-92
-70	192	-20
-61	148	-140
-32	30	-185
24	-116	-40
91	-219	168
131	-222	319
99	-109	413
-24	57	374
-201	179	162
-361	168	-57
-410	5	-251
-304	-238	-328
-80	-439	-199
170	-478	85
306	-329	233
262	-60	233
44	183	129
-236	278	-71
-438	178	-235
-458	-56	-316
-285	-292	-316
-5	-408	-295
251	-344	-223
380	-145	-194
363	88	-127
253	256	-27
144	313	76
107	272	162
139	188	160
186	113	217
172	70	196
65	53	196
-119	45	208
-304	39	171
-407	34	44
-389	36	-84
-263	40	-24
-93	37	41
59	20	78
151	0	-9
176	-2	-100
164	38	-174
139	113	-251
123	192	-124
109	225	-6
86	181	-1
42	74	-1
-13	-49	-28
-65	-122	-36
-99	-117	19
-103	-46	-76
-87	32	-143
-56	61	-71
-24	18	-47
12	-66	-86
59	-130	-211
116	-124	-229
170	-38	-169
201	77	-231
183	150	-111
106	139	319
-18	43	606
-155	-85	583
-256	-183	419
-286	-211	116
-242	-175	-356
-150	-120	-692
-52	-88	-621
8	-95	-365
22	-113	-119
8	-105	-72
4	-35	-29
31	84	-20
89	211	-63
145	298	-38
162	301	-14
120	244	87
40	143	81
-40	45	38
-76	-32	16
-52	-90	-8
4	-130	44
50	-155	103
52	-151	112
18	-113	85
-17	-59	76
-4	-23	168
84	-42	222
212	-123	187
325	-231	178
350	-288	108
269	-238	-35
118	-67	-296
-34	162	-473
-119	345	-395
-128	409	-124
-113	319	210
-155	131	371
-292	-70	324
-503	-213	117
-691	-286	-13
-743	-326	-140
-602	-380	-397
-300	-451	-470
48	-486	-309
314	-424	-157
407	-227	-75
342	65	-17
198	345	52
79	516	101
44	511	119
79	378	134
125	200	51
126	80	-75
63	49	-76
-27	77	89
-98	91	233
-105	45	452
-58	-44	643
9	-121	540
61	-122	181
83	-34	-279
84	95	-696
90	191	-975
115	198	-912
147	123	-650
167	23	-223
153	-34	57
105	-21	102
34	35	58
-34	79	-68
-88	62	-147
-128	-11	-53
-156	-98	-3
-169	-142	91
-162	-121	192
-131	-51	230
-81	26	96
-20	84	62
32	127	145
71	183	129
99	261	68
128	325	59
164	300	97
194	125	127
198	-196	56
156	-563	-15
70	-826	43
-37	-851	37
-129	-612	-24
-184	-219	-24
-191	161	-118
-163	364	-117
-119	345	-72
-62	185	-93
6	40	-8
89	33	100
172	180	216
236	383	228
242	494	219
184	421	184
86	181	12
-12	-104	-117
-62	-297	-230
-60	-318	-250
-24	-200	-168
8	-48	-229
9	38	-341
-10	22	-397
-24	-48	-340
-7	-96	-141
21	-76	29
16	-8	110
-66	31	113
-232	-9	133
-410	-122	64
-508	-232	-120
-448	-253	-276
-233	-158	-291
48	-2	-93
268	104	-36
332	79	5
222	-79	104
14	-268	152
-175	-362	181
-272	-297	100
-261	-98	51
-193	116	39
-121	233	24
-71	205	53
-28	93	145
44	4	250
153	17	233
261	130	103
312	260	27
270	309	-1
155	236	38
19	88	93
-68	-40	48
-85	-70	-96
-46	0	-291
-4	103	-535
4	150	-573
-20	104	-251
-38	5	84
-8	-63	138
77	-35	-14
189	87	-190
273	224	-387
285	276	-447
222	187	-262
106	-12	7
-18	-232	69
-115	-371	77
-170	-386	230
-187	-308	321
-170	-207	325
-129	-144	147
-77	-126	-55
-24	-111	-163
6	-47	-190
6	82	-97
-14	236	21
-24	341	108
5	341	155
80	227	16
172	43	-156
234	-123	-58
216	-204	63
113	-175	188
-45	-56	234
-205	87	247
-304	189	278
-325	209	150
-278	138	49
-190	13	-28
-85	-117	-173
28	-189	-273
148	-184	-365
262	-111	-530
339	-27	-536
345	6	-296
268	-49	-79
121	-175	-28
-37	-296	46
-161	-326	105
-208	-223	89
-184	-8	124
-124	213	124
-68	325	59
-45	255	48
-55	36	48
-87	-227	31
-119	-394	133
-149	-393	309
-164	-237	419
-156	-15	419
-111	155	241
-19	213	-12
107	174	-247
234	113	-386
314	101	-414
301	158	-339
194	244	-190
26	298	-157
-139	268	7
-247	169	164
-263	48	91
-208	-38	91
-101	-75	32
18	-84	-147
127	-102	-241
214	-145	-273
267	-195	-202
267	-202	-35
202	-133	5
82	-2	-117
-61	134	-252
-173	207	-185
-211	181	-34
-173	74	-76
-90	-46	-11
-21	-120	87
-5	-117	117
-46	-60	56
-108	-4	-55
-134	14	-83
-97	-8	-68
-4	-37	-49
94	-31	-174
148	20	-168
131	92	-34
59	134	167
-21	110	147
-68	19	57
-60	-92	103
-14	-170	215
40	-173	343
64	-104	221
46	-5	94
-10	76	24
-78	105	-42
-121	88	-177
-118	53	-277
-52	43	-226
59	81	-112
181	161	-105
269	253	-95
280	316	-45
209	311	26
78	215	97
-56	38	100
-142	-185	130
-157	-394	173
-121	-531	124
-87	-546	0
-90	-437	-43
-137	-253	-70
-187	-66	-120
-185	53	-169
-102	82	-187
34	43	-155
161	2	-128
214	12	-86
175	88	-74
90	191	-10
29	254	80
50	226	192
139	103	387
222	-70	495
211	-215	405
66	-280	151
-159	-254	-25
-363	-178	-297
-442	-101	-579
-357	-58	-523
-175	-54	-406
-6	-54	-283
59	-18	-151
7	70	-124
-93	201	-92
-136	330	102
-57	409	281
121	397	397
308	279	304
403	84	-144
342	-148	-513
152	-338	-536
-85	-427	-398
-285	-378	-207
-383	-206	49
-383	18	192
-312	204	200
-207	274	170
-93	219	-5
19	81	-151
119	-49	-45
190	-104	57
212	-65	32
180	17	22
117	75	101
57	55	215
33	-32	234
50	-127	162
85	-162	101
99	-107	70
69	10	-47
4	120	-109
-67	170	-21
-104	142	116
-88	71	231
-28	10	209
49	-8	194
116	11	12
159	31	-391
182	27	-565
191	0	-592
184	-19	-553
154	-3	-270
85	53	13
-17	119	52
-123	157	-69
-200	152	-186
-217	115	-182
-181	85	29
-117	75	222
-71	69	271
-65	26	318
-93	-94	213
-117	-268	64
-97	-429	35
-20	-490	25
97	-409	4
198	-219	81
238	-23	177
204	74	188
119	32	19
36	-102	-181
-5	-222	-246
8	-238	-238
49	-130	-34
74	29	104
40	140	100
-56	142	46
-187	53	-150
-300	-34	-291
-355	-36	-131
-331	74	168
-241	231	310
-113	329	280
13	298	90
113	145	-294
164	-28	-689
169	-117	-756
129	-66	-454
67	77	-27
8	209	242
-14	237	274
25	135	216
121	-25	160
241	-145	47
318	-151	-60
291	-53	-90
129	65	-77
-125	120	-48
-386	69	30
-550	-40	-3
-539	-131	-25
-369	-136	24
-126	-57	120
68	41	242
129	88	317
55	37	349
-76	-78	182
-155	-190	-19
-110	-233	-210
49	-186	-398
245	-94	-397
373	-6	-284
372	36	-230
255	42	-99
98	46	10
-18	82	-21
-50	147	-132
-22	212	-300
17	244	-192
15	227	-1
-34	179	108
-95	122	279
-125	69	309
-97	2	322
-32	-103	213
30	-245	-40
54	-384	-256
35	-449	-432
-2	-388	-422
-23	-208	-256
-9	20	-5
30	190	181
72	231	258
97	139	285
104	-2	276
105	-100	176
109	-88	-11
110	22	-136
82	153	-179
11	219	24
-94	180	314
-193	68	278
-232	-47	37
-186	-93	-306
-71	-64	-615
58	-6	-641
138	14	-295
137	-48	125
74	-177	225
0	-308	278
-32	-368	260
-6	-318	77
51	-186	-55
95	-31	-97
81	74	-118
13	101	-209
-79	66	-187
-154	21	-159
-191	15	-85
-206	67	-14
-217	160	-9
-240	244	39
-251	283	80
-214	256	175
-93	180	258
97	93	316
299	27	251
429	0	94
432	0	-185
308	8	-373
115	1	-270
-57	-25	-125
-148	-62	-163
-143	-92	-198
-82	-95	-140
-19	-70	-138
15	-24	-82
22	27	-65
31	64	-4
52	75	4
66	59	34
35	32	353
-64	15	434
-209	28	324
-325	72	210
-339	130	-77
-223	161	-374
-27	123	-557
149	6	-436
209	-164	-76
136	-314	130
-4	-371	85
-97	-282	-25
-63	-71	-75
88	182	-40
261	372	16
326	424	108
224	313	142
-12	99	54
-253	-124	-39
-371	-279	-81
-312	-334	-50
-129	-309	18
49	-257	64
116	-213	68
44	-181	-46
-94	-134	-218
-188	-45	-282
-157	87	-265
-10	235	-26
169	335	112
268	340	-15
239	229	-65
110	25	-157
-28	-215	-198
-85	-421	-127
-31	-531	-9
89	-515	120
191	-379	196
206	-177	289
124	21	401
-14	148	476
-134	169	425
-191	106	274
-178	16	70
-122	-25	-227
-63	22	-488
-20	149	-609
12	288	-518
54	365	-265
113	335	-125
172	211	74
213	60	189
204	-44	-40
147	-61	-120
55	-5	-143
-44	70	-149
-129	108	-144
-189	85	-117
-224	18	-19
-236	-45	74
-222	-68	208
-181	-43	217
-115	6	249
-35	48	151
39	59	-34
97	41	-184
132	8	-272
154	-16	-190
170	-24	-89
175	-21	14
159	-12	123
107	-12	285
19	-24	236
-79	-49	35
-150	-82	-51
-164	-115	-55
-121	-135	-97
-56	-127	-204
-15	-85	-245
-24	-9	-211
-74	72	-207
-109	135	-86
-74	150	89
59	113	96
253	46	164
425	-16	205
493	-41	202
400	-20	101
179	35	-59
-86	95	-11
-291	131	-87
-366	139	-299
-310	131	-242
-186	129	-94
-81	141	-79
-57	163	-112
-124	162	-150
-237	108	-145
-321	-15	-64
-321	-196	-11
-218	-386	29
-39	-525	69
148	-555	49
274	-464	53
296	-289	20
211	-94	-11
61	36	22
-93	58	129
-191	-29	237
-207	-171	225
-144	-291	201
-39	-319	38
66	-233	-179
145	-62	-339
191	120	-387
216	252	-163
234	294	160
242	251	419
226	169	469
163	98	379
50	71	221
-101	95	-111
-245	136	-544
-340	158	-860
-363	126	-819
-311	41	-581
-211	-68	-150
-101	-167	249
-11	-209	301
50	-178	366
87	-81	290
115	45	115
147	158	-76
175	225	-241
200	237	-154
209	210	-70
203	165	15
186	123	46
162	87	-21
130	54	-97
78	19	-143
-6	-17	-44
-120	-40	40
-243	-45	142
-337	-27	249
-358	0	168
-289	18	28
-142	20	79
33	4	101
172	-13	-40
237	-24	32
210	-22	145
127	-21	200
36	-30	126
-22	-54	-200
-34	-82	-341
-16	-96	-391
-4	-86	-464
-16	-52	-254
-54	-19	-217
-95	0	-198
-113	-4	-71
-93	-18	-8
-44	-23	64
13	-6	56
55	30	155
77	67	275
79	86	362
78	83	301
85	61	176
97	40	10
106	27	-195
98	21	-244
68	8	-163
19	-22	-39
-30	-63	-30
-67	-99	-102
-88	-103	-208
-94	-64	-211
-96	12	-61
-99	101	101
-100	171	168
-79	201	53
-18	170	-16
89	86	20
232	-41	-31
363	-185	-123
420	-308	-40
355	-368	72
159	-332	125
-127	-214	40
-417	-62	-130
-617	43	-128
-659	38	-15
-545	-95	59
-329	-292	-14
-105	-436	-43
49	-421	-7
107	-219	19
100	100	33
77	390	46
85	517	103
122	424	25
163	180	-158
169	-79	-317
122	-214	-262
49	-181	-7
-8	-30	298
-22	120	413
4	180	111
32	129	-268
22	29	-518
-37	-31	-536
-115	0	-359
-159	106	-137
-121	227	-13
-6	287	149
136	267	374
237	186	352
251	90	270
179	6	169
67	-64	-45
-21	-137	-313
-60	-215	-349
-51	-278	-219
-35	-294	-179
-38	-242	-112
-67	-139	-12
-97	-34	-57
-90	28	-78
-39	40	-2
38	29	60
93	36	93
94	86	55
35	157	-2
-53	204	-131
-118	189	-6
-130	109	131
-85	9	124
-12	-64	152
49	-82	216
80	-61	347
76	-42	316
62	-56	113
58	-97	-158
72	-118	-289
94	-78	-403
111	40	-405
113	194	-190
109	315	62
107	344	178
110	269	90
111	131	79
92	-12	21
38	-114	-126
-50	-171	-298
-143	-196	-353
-214	-215	-155
-237	-218	114
-205	-181	255
-141	-84	280
-77	68	194
-43	219	53
-51	298	-96
-93	250	-226
-135	85	-196
-145	-135	-3
-101	-325	432
4	-411	696
145	-386	600
280	-287	281
366	-187	-309
363	-134	-850
268	-135	-954
107	-160	-862
-58	-158	-566
-183	-102	-8
-234	1	285
-213	110	285
-161	186	216
-124	205	56
-132	174	-45
-174	128	-126
-218	96	-264
-227	104	-193
-187	143	83
-120	189	320
-61	207	501
-44	170	507
-69	80	274
-108	-45	-23
-118	-163	-387
-76	-235	-557
13	-231	-372
110	-153	32
180	-33	202
203	86	176
189	164	40
172	182	-143
172	150	-101
203	102	-48
241	68	-2
254	71	-60
228	102	-96
159	132	-14
71	133	-48
-13	82	-49
-80	-23	11
-123	-156	-27
-151	-281	-86
-161	-354	15
-152	-348	63
-116	-254	61
-51	-95	133
32	78	155
118	211	113
178	257	-22
201	210	-43
187	103	-34
151	-5	-179
107	-64	-205
68	-53	-149
28	6	-53
-20	63	89
-79	77	186
-147	35	208
-204	-31	150
-241	-79	159
-239	-70	-123
-206	-10	-460
-154	66	-338
-99	120	-297
-50	127	-379
-6	103	-270
39	80	-25
91	81	255
141	99	343
183	98	310
196	37	66
171	-94	-205
107	-257	-345
13	-393	-430
-94	-451	-332
-193	-411	-112
-262	-303	150
-281	-171	265
-245	-47	255
-142	70	162
4	194	74
169	325	57
306	422	26
371	421	55
341	279	107
216	16	106
42	-281	85
-114	-494	144
-195	-527	246
-180	-384	231
-94	-155	51
-13	33	-133
-16	95	-322
-144	29	-585
-366	-82	-601
-574	-137	-395
-653	-84	-126
-522	53	91
-203	201	221
190	283	213
506	283	15
639	235	-172
554	194	-209
333	193	-55
97	210	5
-53	205	41
-88	135	117
-53	14	150
-20	-114	168
-28	-192	3
-64	-195	-103
-80	-147	-55
-31	-87	-74
79	-53	-71
200	-41	1
268	-29	38
245	13	20
150	77	38
32	129	44
-53	128	47
-80	59	135
-61	-45	155
-40	-138	113
-45	-174	-118
-82	-145	-284
-125	-90	-362
-143	-45	-389
-124	-32	-233
-71	-34	-124
-10	-17	106
41	45	171
74	138	63
90	219	1
95	244	-6
93	195	9
74	101	-116
35	9	-97
-16	-35	53
-71	-25	172
-113	14	303
-132	51	337
-126	64	225
-106	58	135
-72	42	0
-31	23	-175
19	-16	-298
81	-92	-281
139	-200	-247
182	-308	-275
193	-345	-200
170	-261	-49
120	-59	268
58	197	516
0	397	625
-52	451	402
-93	332	-101
-118	106	-412
-119	-123	-745
-85	-260	-862
-25	-282	-655
38	-242	-168
69	-224	201
44	-283	192
-39	-409	78
-144	-515	-63
-217	-505	-151
-211	-340	-74
-115	-64	20
31	211	138
166	372	225
219	370	159
162	238	87
6	82	19
-195	-5	-12
-366	10	-8
-453	91	9
-432	161	7
-315	160	-8
-149	88	108
14	-3	178
138	-52	47
203	-34	-19
214	29	-23
202	86	-8
193	99	-12
205	71	-39
225	40	1
228	45	72
182	92	79
82	142	116
-49	150	125
-167	95	55
-225	-5	13
-203	-89	-179
-112	-104	-302
3	-46	-339
95	45	-468
135	104	-443
126	94	-112
97	23	53
75	-50	61
75	-67	239
86	-8	294
86	99	155
52	189	-7
-13	202	-81
-87	123	-175
-142	-16	-139
-156	-166	-89
-121	-281	-105
-60	-344	-99
2	-355	-125
41	-326	-82
56	-251	-29
54	-127	75
51	41	207
56	225	259
68	370	152
81	422	6
79	365	-136
62	221	-255
34	49	-282
4	-86	-230
-13	-147	-21
-11	-138	119
6	-100	160
22	-65	185
23	-59	239
2	-64	239
-32	-54	62
-61	-13	-70
-62	51	-157
-29	99	-332
21	81	-446
58	-25	-295
46	-196	-143
-28	-376	-49
-140	-489	9
-242	-497	-33
-277	-398	-31
-217	-247	17
-85	-112	192
64	-39	274
158	-29	268
151	-39	272
59	-11	77
-60	84	-85
-129	228	-92
-108	365	-1
-5	437	-10
127	410	-113
221	300	-94
244	159	16
206	41	129
154	-19	143
121	-25	77
105	-5	-111
68	11	-284
-37	11	-332
-215	3	-218
-417	-1	21
-550	14	225
-530	41	268
-344	69	87
-60	85	-149
201	89	-353
327	86	-376
278	92	-273
110	109	-59
-76	123	242
-178	116	372
-161	68	314
-62	-26	260
44	-149	270
97	-263	-81
79	-326	-701
24	-316	-860
-18	-231	-442
-13	-102	93
34	16	314
97	85	384
142	86	182
162	40	-46
156	-12	-157
148	-29	-319
136	-1	-507
117	51	-445
81	85	-45
27	69	276
-28	4	352
-66	-78	362
-77	-123	272
-72	-96	171
-84	-2	52
-122	123	-85
-183	223	-243
-228	252	-280
-213	201	-129
-117	91	-38
44	-35	25
215	-137	64
329	-194	59
342	-200	23
253	-169	-34
101	-120	-21
-57	-79	-42
-181	-59	26
-247	-64	230
-251	-88	331
-207	-104	281
-125	-90	155
-19	-28	-31
90	75	-262
175	190	-335
206	277	-230
175	305	-231
91	257	-227
-1	151	-120
-64	20	-9
-67	-94	130
-20	-171	139
42	-202	87
80	-202	-43
56	-189	-186
-26	-174	-137
-134	-155	20
-232	-124	248
-277	-69	362
-256	4	209
-180	85	-26
-69	140	-272
41	145	-522
130	85	-555
184	-21	-355
203	-136	-45
192	-211	109
159	-214	152
107	-149	164
40	-44	79
-35	43	44
-108	84	-78
-162	68	-125
-173	28	-104
-133	5	-94
-57	24	19
32	84	109
97	150	212
118	186	246
99	170	155
65	113	26
48	55	-72
56	28	-189
81	47	-185
90	88	-108
64	114	-92
6	90	-116
-56	17	-105
-94	-78	-24
-96	-151	-101
-79	-166	-105
-72	-124	15
-92	-50	53
-125	20	81
-133	61	186
-89	74	201
3	75	199
101	85	251
148	109	184
111	131	82
12	133	-154
-86	96	-351
-123	29	-473
-74	-46	-552
23	-95	-302
93	-99	-21
81	-61	119
-24	-3	133
-162	43	-15
-251	57	-147
-236	24	-194
-116	-49	-60
50	-149	74
198	-245	225
269	-311	377
262	-322	500
201	-263	442
126	-142	129
60	13	-222
11	150	-623
-21	227	-741
-41	207	-522
-43	104	-74
-27	-34	339
0	-148	486
19	-181	322
