File Name: not saved
Channel 2: 'Channel 2', 32310 values, raw ADC, no filters.
Channel 3: 'Channel 3', 32310 values, raw ADC, no filters.
Channel 4: 'Channel 4', 32310 values, raw ADC, no filters.

41	115	-60
-8	59	-68
-47	-25	-61
-63	-109	-43
-64	-163	-40
-61	-166	-21
-55	-122	-9
-41	-53	-6
-5	19	-6
52	81	-27
123	125	-24
175	154	2
191	168	7
162	163	-5
99	134	-14
30	83	-14
-20	9	-20
-44	-69	-32
-50	-141	-32
-55	-186	-30
-67	-192	-19
-85	-160	-16
-91	-92	-20
-79	-9	-13
-46	68	-11
-4	119	-18
38	131	-16
77	111	20
113	72	32
151	39	-2
184	22	-30
194	21	-52
154	21	-43
53	8	-18
-91	-21	4
-243	-56	28
-354	-83	36
-388	-83	28
-336	-59	-11
-230	-32	-55
-106	-20	-96
-5	-32	-115
57	-61	-103
89	-85	-80
101	-84	-50
107	-51	-39
107	-11	-37
100	15	-35
84	10	-23
64	-20	-13
52	-51	-4
55	-60	22
63	-36	24
59	0	1
28	20	-3
-40	4	19
-124	-40	20
-193	-79	-8
-213	-76	-36
-166	-17	-44
-60	67	-56
66	131	-88
172	130	-97
231	59	-76
225	-43	-35
170	-117	-9
97	-116	9
24	-41	16
-32	59	15
-79	127	10
-119	119	-8
-153	44	-20
-170	-49	-39
-156	-105	-49
-101	-94	-55
-14	-28	-52
84	49	-50
169	91	-38
222	84	-19
238	45	-23
216	16	-19
169	19	5
97	51	23
2	87	16
-99	93	12
-193	59	-5
-259	-1	-14
-273	-54	-5
-239	-78	-14
-169	-66	-21
-92	-38	-23
-26	-20	-28
16	-22	-24
50	-39	-34
89	-47	-68
130	-29	-82
172	16	-60
200	76	-37
199	121	-13
172	133	7
132	106	-8
86	45	-5
28	-35	-6
-52	-126	-19
-168	-215	-12
-303	-289	-3
-415	-322	11
-443	-301	9
-355	-209	-20
-159	-63	-57
86	96	-74
285	221	-78
371	279	-66
313	261	-36
154	195	-28
-26	119	-23
-151	60	-11
-182	24	-9
-137	-4	-9
-64	-46	-11
-19	-102	-26
-16	-153	-34
-44	-170	-22
-58	-134	-13
-26	-55	-11
56	33	-10
160	96	-21
237	114	-28
249	97	-20
188	77	-23
80	78	-39
-33	106	-25
-110	139	1
-133	145	19
-109	109	21
-66	34	24
-37	-46	34
-30	-102	3
-47	-125	-23
-69	-124	-43
-80	-130	-59
-64	-156	-50
-28	-192	-46
24	-211	-22
76	-179	-3
117	-89	-3
141	42	-13
149	162	-31
132	227	-52
96	209	-84
40	122	-76
-22	5	-55
-83	-101	-42
-123	-164	-18
-136	-180	-22
-120	-157	-24
-78	-112	-15
-28	-55	-8
16	8	-13
48	76	-45
67	138	-57
86	180	-20
107	185	0
139	148	-5
167	74	8
170	-12	17
127	-86	45
36	-123	52
-85	-120	22
-195	-83	-13
-258	-23	-62
-248	41	-84
-174	101	-90
-78	142	-88
0	160	-87
22	143	-79
-10	89	-54
-61	2	-25
-94	-94	-5
-69	-173	22
7	-207	53
107	-187	33
192	-127	11
215	-55	-15
166	-4	-41
57	10	-45
-79	-8	-49
-200	-34	-38
-271	-41	-46
-279	-17	-64
-225	31	-55
-128	80	-34
-24	105	-14
61	98	-8
113	66	-17
131	38	-8
134	28	10
138	43	19
151	72	16
159	92	-8
142	81	-28
85	31	-44
-10	-42	-45
-116	-117	-7
-191	-162	32
-213	-163	33
-172	-116	2
-91	-36	-9
-4	48	-16
62	109	-15
95	122	-27
105	89	-54
107	25	-62
107	-35	-83
103	-63	-86
83	-46	-80
44	1	-58
-5	40	-28
-44	33	5
-62	-36	28
-55	-143	18
-37	-240	14
-33	-263	-6
-52	-192	-18
-88	-39	-21
-115	131	-36
-110	247	-27
-61	267	-13
17	195	-19
98	84	-27
154	-2	-36
169	-27	-69
153	8	-102
119	56	-116
90	70	-89
66	18	-36
42	-84	-7
9	-182	9
-34	-230	20
-72	-196	4
-96	-102	1
-88	9	-2
-60	85	-30
-32	99	-43
-22	56	-24
-38	-7	43
-66	-50	66
-90	-54	29
-93	-20	8
-82	26	-11
-72	53	-25
-89	49	-21
-130	13	-15
-178	-30	-8
-201	-63	0
-172	-70	-9
-91	-56	-26
18	-29	-37
118	-1	-41
179	25	-26
200	57	-10
195	100	-6
192	154	7
204	196	3
225	196	-20
225	132	-37
176	6	-64
77	-148	-69
-60	-274	-81
-191	-318	-102
-273	-259	-93
-279	-127	-72
-216	20	-48
-113	113	-31
-11	120	-4
57	57	4
82	-22	-18
72	-56	11
57	-16	52
57	85	47
76	195	37
101	255	30
111	236	6
90	151	-8
37	47	-17
-30	-27	-38
-90	-50	-62
-118	-35	-99
-115	-14	-120
-89	-18	-123
-51	-54	-111
-18	-101	-75
16	-131	-33
53	-119	-4
97	-71	6
138	-10	-10
155	35	-32
129	42	-17
54	14	5
-48	-36	21
-150	-85	24
-210	-119	10
-210	-134	12
-159	-135	13
-81	-127	-10
-11	-108	-48
29	-74	-68
42	-20	-70
48	41	-48
69	104	-22
116	143	-17
175	149	-13
231	121	-13
252	77	-12
219	38	-17
129	18	-32
-10	20	-36
-180	28	-25
-339	20	-28
-455	-17	-42
-494	-82	-49
-441	-149	-8
-304	-189	52
-124	-181	78
52	-119	100
180	-31	85
236	48	40
229	92	-4
187	93	-47
140	66	-82
104	40	-85
75	33	-63
44	45	-39
9	63	-35
-24	63	-66
-48	39	-64
-55	-9	-49
-54	-56	-48
-50	-81	-49
-52	-72	-20
-55	-36	26
-43	12	20
-2	58	-16
68	92	-33
147	114	-25
206	132	-2
225	145	6
197	152	-12
139	140	-27
69	113	-51
5	64	-79
-55	5	-69
-114	-56	-50
-170	-113	-37
-208	-154	-23
-205	-173	-11
-141	-154	-9
-23	-96	-22
117	-5	-26
237	91	-20
285	153	0
244	145	8
124	56	0
-32	-81	-2
-172	-213	-25
-255	-277	-39
-267	-246	-34
-226	-148	-17
-159	-36	1
-99	18	1
-68	-10	-29
-64	-102	-77
-72	-189	-79
-62	-206	-92
-19	-131	-108
61	11	-85
162	154	-32
254	238	31
316	241	80
323	190	97
276	138	46
184	121	-9
66	135	-26
-62	143	-39
-185	101	-64
-287	-7	-77
-357	-151	-76
-380	-277	-64
-355	-337	-48
-287	-312	-31
-195	-233	0
-100	-141	8
-16	-71	22
52	-30	37
109	8	29
159	61	-16
207	135	-47
245	203	-37
256	233	-35
234	209	-1
175	141	32
103	66	24
28	21	-8
-34	20	-51
-88	45	-72
-137	65	-54
-182	48	-32
-213	-7	-30
-208	-78	-35
-151	-127	-52
-44	-133	-76
85	-100	-64
198	-50	-53
257	-13	-38
245	-5	-5
182	-19	6
94	-35	11
20	-33	21
-24	-8	37
-35	28	21
-28	56	-2
-14	59	-23
-6	36	-49
-6	-4	-60
-18	-40	-66
-41	-58	-49
-75	-48	-26
-109	-13	-1
-123	37	45
-105	85	65
-56	112	32
3	109	-13
43	70	-55
37	6	-67
-17	-69	-71
-90	-135	-84
-141	-173	-67
-133	-179	-47
-61	-157	-19
40	-114	-1
132	-61	1
169	-8	-32
143	48	-54
83	106	-48
29	159	-40
17	205	-16
48	233	10
102	243	40
132	232	32
116	199	26
42	147	15
-65	67	12
-173	-35	16
-243	-159	-42
-256	-278	-97
-212	-368	-95
-124	-390	-67
-20	-334	-54
77	-214	-37
143	-55	-39
164	96	-38
142	209	-9
95	267	-24
47	274	-37
22	244	-34
28	179	-39
52	83	-39
68	-41	-20
56	-174	-18
2	-282	-24
-80	-326	-32
-165	-280	-35
-223	-160	-35
-240	-13	-39
-216	89	-21
-161	103	-8
-88	32	28
-7	-69	47
71	-127	38
137	-96	26
172	22	10
171	168	1
130	265	-3
61	265	8
-6	171	-7
-59	41	-34
-85	-58	-61
-90	-91	-56
-88	-66	-54
-85	-27	-76
-76	-18	-60
-48	-50	-64
10	-98	-56
98	-117	-46
192	-77	-54
263	9	-54
288	96	-46
253	130	-34
166	87	5
46	-13	23
-77	-118	-7
-189	-171	24
-264	-154	49
-298	-82	53
-281	-1	60
-218	47	16
-123	53	-27
-14	34	-50
83	33	-69
155	72	-86
194	150	-99
204	236	-78
191	279	-43
154	252	-24
97	158	-20
19	25	-35
-65	-94	-42
-138	-159	-52
-174	-152	-17
-169	-91	21
-134	-16	13
-93	27	14
-68	13	29
-63	-54	16
-64	-140	-20
-47	-206	-28
3	-216	-45
76	-167	-42
151	-85	6
194	-1	18
195	52	29
166	75	39
136	78	-2
128	84	-46
143	106	-72
157	130	-118
129	132	-134
40	89	-97
-104	2	-41
-262	-104	1
-372	-191	16
-392	-227	23
-311	-200	3
-162	-128	-2
-4	-39	-18
105	43	-45
141	106	-47
111	145	-43
52	161	-24
5	147	-19
-8	103	-19
7	28	-21
20	-59	-30
0	-135	-40
-69	-177	-54
-172	-174	-67
-263	-139	-60
-304	-96	-33
-260	-63	-9
-139	-47	-5
23	-37	-4
175	-15	0
288	30	14
343	88	27
346	143	27
320	177	27
263	182	8
180	169	-8
54	150	-6
-100	136	-19
-259	116	-30
-366	75	-38
-378	-5	-37
-286	-113	-28
-118	-223	-35
57	-294	-62
183	-300	-91
231	-237	-90
212	-130	-88
166	-20	-78
129	61	-26
115	99	21
109	99	36
85	88	34
30	72	11
-45	61	-2
-122	42	8
-177	9	-5
-198	-39	-24
-199	-89	-19
-183	-114	13
-156	-105	21
-107	-59	2
-27	5	-13
72	64	-20
167	102	-44
221	111	-72
214	105	-51
149	92	-68
56	81	-85
-27	70	-43
-79	53	-28
-95	24	-45
-97	-16	-40
-99	-54	-7
-109	-77	-8
-110	-70	-12
-83	-37	-14
-18	12	-16
72	65	-26
160	105	-43
214	126	-20
219	125	-2
181	110	-7
117	88	-10
51	66	-16
1	49	-8
-31	32	9
-45	11	26
-52	-21	13
-59	-66	-18
-79	-126	-55
-115	-189	-92
-166	-245	-72
-223	-281	-52
-253	-291	-32
-242	-275	-6
-174	-233	11
-62	-167	17
57	-76	0
150	32	-30
188	140	-45
171	231	-26
124	275	-28
78	261	-35
54	187	-50
58	69	-68
75	-61	-41
84	-176	-27
74	-250	-38
44	-274	-31
8	-243	-30
-32	-159	-1
-74	-32	53
-115	117	52
-153	251	22
-175	333	5
-173	331	10
-137	243	11
-84	87	5
-32	-80	14
-10	-208	-2
-21	-263	-34
-52	-237	-61
-78	-152	-83
-67	-38	-67
-17	71	-49
59	159	-42
138	214	-32
203	236	-43
245	221	-96
262	170	-135
266	97	-98
241	20	-62
175	-36	-67
64	-58	-30
-77	-52	36
-204	-29	55
-273	-12	29
-259	-8	-14
-170	-15	-5
-51	-21	-8
41	-23	-21
81	-27	-4
66	-49	8
26	-105	25
-6	-178	20
-12	-242	-4
5	-259	-20
22	-208	-19
30	-109	-13
24	3	-22
18	77	-31
18	95	-35
16	75	-22
0	59	-18
-48	92	-35
-122	168	-40
-195	243	-58
-237	240	-44
-221	115	2
-144	-118	5
-39	-370	7
60	-517	10
129	-475	-6
160	-242	-30
166	84	-57
161	353	-44
150	445	-47
130	328	-44
93	89	-31
44	-134	-23
-1	-222	-12
-20	-140	-2
4	37	3
64	196	-39
141	244	-44
196	177	-63
203	65	-74
143	10	-46
34	62	-32
-97	200	-15
-211	332	1
-272	362	29
-262	260	28
-191	55	0
-93	-163	-27
-15	-322	-42
1	-393	-38
-55	-403	-39
-168	-393	-28
-279	-389	-4
-333	-372	-6
-300	-309	-10
-182	-190	-12
-22	-37	-25
120	96	-60
204	163	-83
224	161	-55
204	126	-27
190	121	-25
210	174	-34
260	265	-9
300	334	12
279	316	6
163	197	-8
-41	16	-19
-279	-151	-35
-473	-248	-37
-555	-254	-23
-491	-206	-32
-307	-154	-50
-68	-126	-42
151	-114	-17
280	-84	-24
312	-15	-32
262	85	-25
184	171	-44
119	198	-41
84	150	-19
70	55	-13
56	-23	10
29	-39	34
-11	16	37
-44	106	82
-62	163	94
-55	145	58
-38	48	13
-28	-81	-68
-29	-181	-128
-32	-206	-132
-21	-151	-111
16	-47	-100
71	61	-76
121	140	-23
136	174	6
105	171	30
40	132	36
-23	63	-4
-56	-37	-25
-47	-157	-19
-4	-263	-17
44	-314	-23
80	-277	-31
93	-149	-41
97	33	-45
103	206	-35
109	317	-23
98	340	-13
48	291	0
-43	207	-12
-159	120	-26
-252	38	-13
-287	-53	-16
-255	-166	-48
-186	-294	-76
-132	-403	-64
-131	-457	-10
-187	-432	9
-261	-340	5
-291	-223	8
-236	-118	-16
-95	-44	-22
102	14	-42
299	84	-79
439	177	-69
519	282	-32
528	362	-7
469	384	-14
339	340	-36
138	252	-57
-123	149	-67
-386	44	-59
-577	-63	-46
-635	-190	-34
-537	-322	-18
-321	-419	5
-85	-417	33
88	-283	44
148	-41	51
114	225	44
45	400	36
9	409	43
34	252	5
103	18	-18
165	-180	-13
179	-250	-32
135	-179	-26
57	-30	-24
-10	106	-62
-42	166	-71
-32	135	-48
0	58	-18
41	-11	20
85	-36	12
136	-25	-15
198	-2	-16
251	6	-13
268	3	-14
214	7	-10
95	43	23
-60	113	20
-187	188	-48
-233	233	-96
-191	209	-157
-99	117	-193
-27	-26	-142
-28	-180	-103
-109	-305	-71
-222	-374	-50
-288	-368	-2
-261	-292	21
-137	-159	-3
30	-1	7
166	139	-1
223	223	9
201	222	21
141	149	19
98	39	22
93	-49	15
115	-85	31
127	-58	48
96	-1	54
23	43	24
-61	45	-4
-121	7	-14
-128	-43	-44
-90	-68	-60
-34	-44	-78
8	28	-94
23	120	-100
21	205	-86
16	252	-39
21	249	-17
24	194	-32
12	91	-18
-28	-43	26
-87	-187	8
-141	-301	-16
-164	-346	-24
-135	-296	-24
-63	-159	15
29	21	-5
110	171	-16
151	225	22
136	150	21
74	-34	-1
-15	-253	-24
-100	-421	-35
-142	-471	-44
-121	-386	-55
-32	-206	-43
97	-10	4
216	131	43
288	182	29
270	155	-23
167	103	-71
3	74	-92
-176	94	-95
-337	144	-95
-443	179	-45
-486	157	-7
-463	65	-30
-378	-60	-44
-239	-160	-72
-68	-187	-94
98	-125	-88
226	-8	-57
283	106	-56
269	169	-49
208	157	-24
138	93	3
92	13	37
75	-41	47
76	-57	58
69	-42	40
48	-18	15
22	5	9
17	31	31
58	70	55
144	134	36
245	213	-9
320	287	-40
319	323	-40
226	290	-36
61	195	-30
-130	56	-14
-295	-86	-28
-386	-191	-62
-390	-235	-66
-321	-222	-90
-217	-177	-100
-118	-135	-72
-43	-120	-62
5	-133	-23
46	-152	4
101	-143	28
178	-88	68
259	11	72
310	120	65
306	191	42
237	197	13
123	131	-39
-2	27	-44
-108	-71	-5
-189	-132	-6
-248	-148	-40
-290	-137	-67
-316	-123	-59
-308	-121	-92
-249	-121	-126
-145	-102	-155
-29	-57	-154
59	4	-99
90	45	-65
63	47	-9
19	7	39
-2	-41	59
23	-52	57
78	-3	45
119	92	35
111	170	22
42	170	17
-49	62	-4
-123	-115	-30
-137	-281	-49
-96	-351	-33
-24	-282	-4
41	-113	-14
84	74	-37
115	191	-43
157	201	-59
219	129	-57
285	47	-18
326	23	6
312	70	1
232	152	-29
110	200	-26
-26	169	-25
-150	66	-63
-253	-53	-48
-327	-118	-33
-366	-94	-17
-362	2	1
-299	114	-14
-180	179	-43
-34	166	-78
99	91	-80
179	1	-63
196	-61	-25
165	-76	2
111	-50	14
59	-13	45
13	15	40
-42	23	13
-109	12	-6
-173	-20	-20
-205	-76	-13
-183	-148	-32
-106	-216	-50
1	-246	-37
93	-208	-2
148	-93	56
162	65	56
161	210	-11
170	278	-79
191	247	-100
204	138	-90
175	5	-42
88	-100	-4
-40	-158	2
-161	-179	6
-221	-196	-15
-194	-224	-50
-101	-249	-81
5	-242	-83
67	-176	-90
52	-56	-70
-27	77	-26
-124	177	4
-180	209	21
-158	179	9
-67	122	-12
50	79	-30
133	67	-30
145	82	-22
77	89	-10
-33	67	-19
-134	13	-13
-181	-55	32
-156	-110	28
-78	-135	-11
16	-122	-38
98	-84	-35
161	-32	-34
211	26	-47
253	86	-53
279	143	-67
253	180	-50
144	183	-11
-40	144	40
-262	77	95
-431	8	110
-481	-27	108
-389	-16	48
-202	29	-51
-10	72	-118
105	78	-131
117	30	-118
58	-56	-71
5	-144	-34
20	-194	-31
113	-191	-38
237	-144	-86
311	-85	-79
287	-38	-62
164	-13	-48
-5	-4	-6
-151	11	8
-229	32	14
-230	58	-4
-186	65	-30
-135	43	-28
-96	-5	-7
-63	-62	-45
-19	-106	-69
51	-123	-37
145	-118	-20
239	-103	1
299	-90	-3
297	-70	-12
226	-37	2
98	22	29
-60	91	50
-211	143	42
-325	147	8
-369	90	-12
-339	-6	-13
-251	-98	-21
-135	-136	-38
-35	-105	-49
30	-19	-35
57	76	-27
74	131	-40
102	131	-43
155	85	-48
222	28	-49
269	-11	-49
267	-16	-47
200	-2	-50
85	13	-48
-51	16	-28
-161	10	6
-217	7	40
-223	13	67
-182	29	45
-125	38	-10
-71	30	-22
-35	8	-48
-18	-18	-76
-16	-27	-72
-17	-11	-62
-5	22	-51
27	52	-34
82	62	3
147	55	-11
206	37	-35
236	30	-4
221	32	-5
161	38	-28
68	24	-21
-28	-20	-42
-108	-85	-55
-157	-143	-56
-174	-166	-35
-161	-140	-16
-127	-78	-12
-86	-12	12
-36	26	-1
12	29	-13
61	15	-17
106	18	-40
138	55	-49
150	126	-23
132	195	22
91	215	29
26	169	14
-47	48	-20
-116	-108	-4
-165	-257	8
-188	-354	-55
-185	-386	-106
-162	-352	-109
-128	-270	-76
-88	-162	-54
-43	-42	-37
7	68	-36
60	158	-51
116	208	-38
164	213	-44
196	181	-41
198	121	-22
160	55	-24
84	-8	-21
-24	-60	-11
-136	-102	5
-217	-122	19
-242	-111	18
-203	-57	22
-123	26	31
-36	108	24
22	149	7
42	119	-2
40	27	8
48	-77	32
90	-135	41
159	-108	28
212	-9	0
201	106	-32
102	174	-44
-63	160	-64
-232	82	-71
-333	-3	-52
-332	-40	-53
-243	-16	-32
-124	29	-17
-34	34	-57
-4	-41	-75
-19	-173	-62
-29	-288	-49
3	-301	-30
91	-182	-33
201	32	-19
283	244	-28
302	353	-46
250	316	-41
154	163	2
55	-18	35
-17	-143	13
-59	-173	-14
-81	-126	-6
-100	-64	26
-120	-32	9
-135	-41	-23
-129	-67	-51
-91	-74	-57
-21	-39	-70
67	25	-60
150	88	-12
208	125	2
232	130	12
210	121	-4
151	110	-39
66	103	-30
-25	85	-21
-104	43	-38
-147	-19	-58
-151	-83	-76
-122	-108	-49
-80	-76	-28
-42	8	-30
-22	105	-17
-23	168	-21
-32	165	-30
-31	93	-44
-9	-9	-20
40	-104	4
105	-154	0
158	-158	0
169	-133	-21
116	-105	-19
-1	-92	6
-151	-90	24
-285	-87	27
-348	-66	11
-303	-21	-30
-156	39	-65
52	101	-82
245	147	-75
358	163	-28
346	143	5
211	95	12
-1	22	15
-225	-62	1
-392	-148	-8
-459	-228	-16
-415	-291	-54
-273	-332	-51
-89	-338	-21
90	-299	-35
205	-214	-46
234	-92	-47
179	39	-52
63	140	-69
-62	183	-72
-156	157	-48
-182	81	-21
-138	2	5
-37	-31	28
83	3	-3
191	86	-33
254	174	19
262	215	11
222	181	5
150	85	13
69	-23	-4
-5	-96	-1
-61	-99	7
-104	-46	33
-128	26	17
-131	77	-9
-107	86	-36
-43	64	-58
60	39	-77
189	41	-81
310	81	-49
386	142	3
373	198	13
269	223	5
99	206	-9
-90	149	-17
-229	67	3
-285	-24	-10
-256	-114	-29
-185	-187	-70
-130	-236	-84
-134	-248	-96
-197	-224	-105
-270	-168	-91
-290	-101	-63
-213	-37	-55
-44	11	-53
156	39	-33
314	56	-47
373	66	-38
321	77	-3
194	84	19
54	83	18
-52	71	-5
-117	50	7
-152	18	20
-174	-28	-3
-185	-85	-8
-168	-147	-7
-107	-195	0
-12	-204	12
85	-155	22
138	-41	18
121	106	5
51	238	-17
-26	298	-45
-58	250	-26
-32	106	9
28	-86	4
67	-250	-5
39	-326	-7
-49	-292	-19
-161	-179	-7
-234	-45	-15
-224	51	-40
-134	81	-53
-13	58	-48
91	22	7
144	14	26
149	46	-27
133	97	-67
123	126	-55
125	104	-7
128	30	-12
110	-60	-27
65	-126	-6
8	-136	-17
-42	-98	-17
-70	-45	-64
-78	-17	-144
-79	-29	-168
-85	-65	-164
-95	-89	-116
-95	-74	-68
-63	-19	-40
2	51	22
94	99	112
175	103	140
221	74	126
212	49	91
161	57	65
91	106	24
24	171	-42
-20	210	-80
-49	190	-102
-68	110	-77
-93	5	-65
-124	-80	-45
-152	-112	-53
-162	-84	-67
-134	-24	-41
-62	30	-12
46	49	2
166	29	-35
257	-13	-33
287	-52	-32
234	-60	-20
101	-34	-15
-74	15	-43
-247	59	-33
-366	76	-10
-405	41	-7
-370	-40	-38
-281	-145	-58
-174	-238	-54
-79	-277	-10
-6	-246	51
36	-150	37
54	-20	-13
58	95	-56
55	155	-74
56	142	-55
65	68	-53
91	-31	-42
125	-118	-39
161	-160	-34
179	-150	-20
167	-93	4
125	-17	29
57	51	33
-17	92	35
-85	96	27
-129	74	40
-140	44	46
-117	27	24
-66	25	-4
-4	39	-30
46	51	-41
61	48	-65
33	20	-86
-31	-26	-63
-101	-74	-34
-142	-107	-51
-135	-117	-89
-82	-112	-51
-10	-102	-57
44	-96	-86
56	-89	-41
27	-67	-56
-14	-21	-22
-39	50	-18
-25	130	-32
26	188	-26
97	200	-31
156	160	6
191	93	-7
192	32	-24
164	15	-4
119	40	24
60	88	37
1	114	61
-56	84	49
-97	-1	17
-116	-109	-19
-108	-178	-30
-77	-165	0
-37	-59	22
3	96	7
35	225	-44
64	261	-33
90	181	-59
113	15	-93
122	-164	-58
111	-273	-43
77	-265	-24
23	-157	-23
-32	-2	-40
-79	118	-35
-109	160	-22
-126	117	-56
-139	34	-92
-147	-34	-46
-140	-56	-48
-109	-33	-52
-39	3	-28
65	18	-6
200	2	28
330	-29	13
428	-39	56
466	-6	69
417	72	-3
270	161	-83
42	211	-124
-236	190	-89
-508	93	-30
-697	-52	-26
-754	-204	-40
-659	-320	-37
-448	-380	-37
-190	-384	-20
42	-348	-19
206	-289	1
299	-218	23
336	-138	47
350	-44	40
340	65	19
285	183	16
164	289	-20
-22	354	-60
-237	354	-57
-410	276	-20
-480	131	-35
-437	-48	-53
-312	-214	-57
-169	-322	-55
-62	-349	-22
-4	-288	14
27	-171	30
67	-33	32
136	83	10
216	157	-42
275	182	-48
275	168	-52
216	131	-72
127	86	-83
49	43	-91
10	3	-60
8	-26	-27
18	-44	-12
18	-48	-26
-2	-34	-26
-28	-4	-3
-36	33	4
-13	70	14
41	102	11
106	123	4
162	139	0
198	155	-30
216	166	-57
223	171	-78
209	155	-62
166	112	-45
84	43	-24
-31	-36	-7
-159	-104	-15
-253	-140	-2
-290	-136	20
-262	-105	43
-186	-63	61
-102	-32	72
-36	-22	39
-5	-24	31
4	-21	25
4	0	-13
6	42	-55
17	95	-89
28	130	-79
42	130	-76
62	85	-85
94	-4	-119
130	-116	-103
149	-224	-72
125	-292	-61
43	-307	-33
-80	-257	-23
-202	-149	6
-271	-5	22
-253	141	6
-161	264	-22
-43	338	-28
33	349	-49
34	298	-26
-33	182	21
-112	19	42
-145	-166	77
-102	-343	53
-4	-464	-7
89	-498	-52
128	-430	-65
89	-285	-63
11	-113	-51
-51	30	-61
-56	103	-49
-6	101	-23
51	48	-13
67	-18	-15
13	-65	-40
-80	-89	-58
-151	-88	-69
-143	-71	-50
-53	-35	-42
75	23	-32
170	103	-18
175	183	-7
90	230	7
-38	215	7
-141	137	-18
-177	27	-62
-141	-62	-57
-69	-89	-31
-5	-37	-2
36	63	4
64	164	9
106	218	5
172	213	-15
249	164	9
302	105	13
302	65	8
242	50	18
141	45	-5
37	27	-15
-51	-13	6
-121	-68	0
-187	-119	-17
-253	-140	2
-308	-125	6
-324	-78	22
-275	-13	44
-162	48	32
-17	95	22
119	113	44
199	104	78
216	70	44
192	18	-105
164	-40	-213
156	-89	-140
169	-117	-114
175	-121	-203
141	-100	-225
57	-63	-161
-66	-18	-104
-191	24	-90
-282	59	-43
-310	82	-15
-268	86	25
-177	74	68
-58	51	34
52	39	6
137	48	-1
184	89	-9
191	147	7
163	182	34
115	150	16
59	29	10
2	-171	30
-56	-390	-13
-119	-546	-61
-186	-562	-52
-239	-426	-38
-250	-187	-16
-195	61	-40
-63	223	-76
124	244	-64
321	144	-41
469	-3	-32
508	-119	-40
423	-150	-31
216	-100	-4
-61	-17	18
-345	41	16
-561	43	5
-651	0	15
-614	-57	25
-463	-89	-12
-257	-83	-43
-53	-46	-25
105	-8	-17
193	15	-8
221	23	-27
208	26	-44
182	39	-20
148	63	-7
100	95	-16
32	118	-13
-59	130	12
-144	131	24
-195	121	-3
-186	103	-24
-115	65	-26
-14	9	-20
72	-62	-30
107	-125	-48
91	-153	-28
45	-124	-10
17	-44	-10
30	59	-9
90	150	7
162	194	26
211	189	39
214	154	20
180	112	15
130	92	17
95	85	-8
79	81	-32
63	56	-52
22	5	-99
-52	-59	-158
-151	-119	-161
-231	-149	-132
-253	-144	-100
-200	-108	-51
-84	-55	-10
55	6	12
175	72	59
245	139	134
262	201	199
229	237	141
163	225	62
77	147	37
-23	9	-11
-123	-160	-76
-207	-322	-183
-253	-427	-162
-256	-446	-113
-213	-363	-118
-145	-204	-117
-70	-12	-160
-8	164	-127
36	277	-92
75	316	-47
107	295	-10
138	249	-21
149	206	-25
131	170	-30
84	105	-20
16	-29	-16
-43	-240	14
-79	-490	37
-84	-683	38
-67	-721	22
-46	-565	-12
-30	-251	-54
-15	96	-36
10	340	-26
52	403	-42
113	305	-13
175	145	-15
216	43	-7
216	64	6
175	177	4
94	296	-12
-14	324	-20
-134	223	7
-248	23	20
-325	-192	27
-340	-357	31
-279	-432	24
-152	-420	24
-6	-345	10
92	-224	3
90	-69	0
-23	99	0
-201	252	-22
-354	343	-65
-415	340	-85
-345	244	-109
-185	99	-84
-12	-36	-67
106	-117	-89
133	-130	-49
103	-102	24
62	-64	54
57	-40	39
90	-22	64
124	3	61
124	38	30
77	79	19
13	101	24
-16	104	-4
18	95	-23
111	103	3
214	141	14
272	201	41
259	249	-4
188	244	-40
102	182	-89
44	76	-80
25	-39	-102
24	-126	-215
18	-179	-155
-8	-211	-113
-43	-240	-104
-56	-263	9
-27	-268	52
34	-222	43
91	-119	55
107	17	10
69	144	-44
1	219	-185
-61	233	-353
-72	197	-351
-24	158	-221
60	133	-70
140	119	26
172	86	61
137	9	90
43	-106	124
-84	-224	126
-203	-286	100
-280	-261	76
-281	-162	77
-191	-41	66
-20	37	46
181	41	28
339	-11	-9
371	-60	-61
226	-50	-91
-69	34	-72
-433	148	-72
-727	203	-61
-842	135	-23
-740	-69	-36
-463	-341	-33
-143	-569	-19
97	-653	-7
188	-562	-5
143	-343	-9
44	-92	15
-4	103	19
57	205	26
227	240	37
435	257	28
583	294	-11
606	339	-37
476	353	-27
234	291	-18
-50	153	10
-294	-17	1
-436	-149	-22
-454	-180	-12
-362	-109	-16
-213	17	-50
-55	125	-43
59	163	-30
119	122	-46
136	41	-67
140	-16	-41
159	-4	-30
196	79	-61
236	194	-42
238	278	-42
182	278	-41
72	182	-8
-60	28	3
-168	-120	26
-218	-193	51
-208	-167	31
-163	-66	38
-111	35	24
-70	64	-33
-37	-13	-79
7	-163	-94
72	-289	-80
156	-298	-37
229	-147	5
260	106	-12
234	338	-34
162	409	-92
74	258	-93
7	-55	22
-17	-386	49
-7	-566	7
14	-508	16
14	-251	33
-18	69	37
-79	301	-17
-139	362	-103
-159	283	-132
-115	171	-122
-10	131	-71
120	190	-38
216	283	-15
228	300	18
123	168	14
-77	-98	29
-306	-393	43
-480	-590	21
-535	-622	-1
-448	-503	-13
-257	-326	-42
-37	-196	-127
137	-154	-180
214	-174	-99
187	-181	-49
87	-114	-40
-30	31	-26
-116	205	-69
-132	333	-62
-80	366	-35
18	311	-9
120	213	18
175	122	49
162	71	43
74	53	-3
-46	43	-31
-147	20	-26
-182	-16	-16
-142	-56	-18
-55	-83	-13
30	-88	-42
72	-74	-61
64	-43	-50
30	9	-43
13	89	-41
42	193	-15
107	292	16
175	343	32
202	301	17
170	154	11
87	-66	24
-6	-286	30
-80	-424	57
-113	-426	28
-103	-288	0
-64	-64	-22
-7	162	-63
56	313	-70
120	343	-84
172	260	-79
196	101	-35
184	-63	31
136	-184	72
70	-226	79
5	-190	65
-48	-108	2
-85	-15	-69
-117	48	-115
-145	65	-120
-176	31	-95
-197	-38	-106
-202	-119	-116
-189	-182	-36
-163	-196	53
-128	-149	64
-85	-36	45
-25	113	38
52	252	5
140	335	-153
216	323	-205
258	219	-85
238	62	-79
166	-83	5
63	-164	47
-33	-160	22
-102	-103	34
-137	-55	-2
-159	-64	19
-177	-150	-17
-193	-263	-42
-195	-345	-40
-166	-330	-59
-93	-204	-37
13	-14	-37
130	166	1
239	274	78
325	290	52
380	244	45
396	186	24
358	149	1
242	121	1
44	71	-23
-205	-31	-38
-445	-171	-106
-583	-297	-126
-562	-334	-113
-383	-248	-100
-107	-69	-51
152	119	-24
302	224	-7
319	201	28
223	80	44
98	-47	30
11	-90	41
-10	-14	28
12	138	-43
32	268	-133
12	284	-198
-49	166	-134
-123	-35	-63
-173	-218	-50
-180	-297	-34
-150	-241	-19
-100	-98	3
-48	47	3
0	131	13
49	139	-11
96	116	-15
131	121	7
131	187	8
89	282	30
13	339	57
-65	282	77
-120	89	83
-134	-191	104
-116	-453	77
-90	-585	-36
-67	-541	-117
-48	-354	-123
-15	-119	-121
44	56	-114
122	112	-68
186	62	-42
199	-19	-54
155	-54	-34
74	-4	25
10	100	52
2	190	16
44	198	17
102	106	-8
107	-42	-60
27	-181	-80
-120	-242	-72
-272	-211	-116
-348	-116	-166
-308	-11	-87
-173	60	-30
-3	85	-23
124	78	22
172	63	47
158	56	61
121	56	78
104	56	83
117	51	68
140	52	-12
147	66	-55
121	95	-75
86	117	-105
68	106	-107
89	47	-87
130	-55	-58
154	-160	55
110	-222	164
-16	-196	152
-191	-91	104
-354	61	6
-424	205	-56
-361	287	-65
-180	290	-81
58	228	-92
262	135	-90
357	45	-98
306	-24	-93
139	-85	-107
-84	-152	-111
-273	-226	-65
-370	-292	-26
-353	-321	-10
-248	-286	-2
-109	-187	16
8	-54	16
66	55	19
61	106	29
22	89	26
-22	45	22
-39	35	23
-26	106	17
12	244	5
46	382	-59
67	418	-117
65	283	-48
40	-1	28
7	-345	1
-30	-602	-21
-57	-668	-48
-74	-527	-106
-68	-263	-155
-47	-16	-160
-10	113	-138
34	106	-99
72	39	-40
98	17	5
102	102	67
96	270	100
86	422	143
78	453	152
67	323	59
49	78	-17
18	-167	-56
-26	-307	-98
-64	-301	-168
-86	-196	-171
-78	-76	-113
-42	-9	-43
6	-8	55
58	-25	74
107	-3	55
155	87	84
196	215	62
224	319	5
214	339	-90
147	259	-147
19	106	-95
-147	-63	-32
-299	-196	16
-385	-273	32
-375	-288	-25
-279	-251	-57
-145	-176	-36
-29	-74	-37
34	34	-24
48	126	18
42	169	47
60	155	24
126	95	1
237	21	-2
353	-28	29
432	-35	32
438	-9	-14
350	17	-74
175	18	-89
-52	-17	-5
-296	-77	-7
-494	-131	-18
-589	-158	-11
-552	-145	-44
-388	-102	-38
-143	-43	-65
100	16	-59
268	69	-15
319	125	37
252	187	35
119	261	-20
-17	330	-86
-106	365	-89
-129	333	-83
-102	205	-114
-53	-13	-93
-18	-280	-80
-15	-517	-58
-51	-646	-13
-116	-622	11
-191	-457	5
-248	-226	15
-255	-20	30
-193	84	-14
-63	72	-42
99	-6	-36
253	-79	-67
357	-88	-111
387	-25	-82
346	70	-15
262	145	26
161	168	94
53	138	132
-53	96	132
-164	76	50
-262	89	-22
-321	120	-25
-312	135	-98
-231	120	-151
-95	82	-155
54	53	-103
171	66	-61
238	123	-45
261	197	106
256	243	216
236	221	155
191	126	42
104	-12	-77
-33	-144	-182
-199	-229	-214
-355	-249	-182
-442	-225	-136
-424	-189	-26
-312	-171	14
-149	-170	30
8	-168	26
116	-135	6
170	-60	18
193	43	21
211	145	59
238	207	54
266	215	57
272	174	57
237	110	38
161	48	10
63	-1	-9
-22	-43	-6
-74	-86	-89
-88	-132	-96
-82	-175	-68
-74	-207	-108
-79	-214	-90
-91	-199	-113
-94	-159	-132
-65	-95	-148
-4	-8	-147
70	95	-103
122	197	-53
111	268	-16
26	277	26
-111	215	69
-250	98	17
-329	-29	-16
-315	-120	14
-217	-141	56
-83	-96	37
29	-21	41
76	47	58
60	83	65
17	91	46
-6	90	-40
20	94	-83
90	105	-98
175	99	-83
232	58	-63
238	-17	-59
190	-97	-62
107	-140	-42
13	-126	13
-79	-59	47
-155	14	54
-211	48	57
-236	19	48
-228	-58	29
-186	-138	39
-120	-175	32
-44	-151	10
28	-86	-15
92	-17	-89
150	26	-111
198	41	-31
237	56	-4
249	85	-94
224	129	-132
159	163	-35
67	153	-2
-26	81	-8
-101	-30	-32
-144	-131	-38
-163	-178	4
-168	-144	71
-166	-55	155
-158	41	81
-132	99	-19
-87	97	-40
-20	49	-79
54	-9	-141
115	-41	-177
149	-36	-61
148	-1	53
117	44	-77
64	75	-282
1	78	-281
-65	46	-131
-123	-12	-37
-161	-88	32
-165	-157	5
-128	-192	-27
-56	-174	37
37	-93	39
132	28	-25
207	147	-60
253	213	-35
263	197	-1
242	106	26
191	-23	37
117	-137	51
32	-204	46
-50	-215	-2
-117	-191	-52
-162	-152	-51
-183	-106	0
-190	-47	16
-190	33	30
-190	117	27
-182	171	1
-163	149	-24
-135	35	-14
-106	-133	22
-82	-270	12
-58	-289	-15
-27	-159	-60
33	77	-74
115	301	-85
191	409	-78
216	337	-18
155	126	47
13	-111	87
-162	-262	79
-291	-265	49
-314	-154	0
-226	-11	-55
-78	74	-74
50	62	-80
106	-14	-122
86	-85	-118
44	-85	-51
38	-3	11
93	125	51
175	241	15
226	287	-6
204	254	15
105	149	-3
-13	10	-19
-91	-131	-30
-94	-243	-38
-40	-300	-36
18	-282	-23
42	-188	-25
22	-36	-30
-3	124	8
8	237	11
79	264	-40
183	209	-89
262	114	-47
281	40	22
230	22	42
145	57	103
82	106	128
71	120	95
111	84	37
161	14	-80
179	-44	-190
143	-53	-223
56	-11	-264
-61	45	-233
-191	69	-109
-332	28	-62
-473	-71	-48
-589	-188	-8
-647	-275	19
-611	-301	15
-474	-267	29
-266	-196	43
-58	-118	38
83	-49	57
121	0	15
79	33	-66
22	47	-26
13	40	-24
85	16	-54
208	-11	-78
323	-21	-95
366	6	-11
313	69	-38
187	149	-31
44	208	-20
-56	215	-50
-85	163	31
-48	69	-1
13	-26	-72
57	-92	-55
59	-106	7
17	-74	8
-46	-17	-51
-103	37	-15
-124	62	45
-105	48	48
-57	-11	31
2	-97	2
50	-181	-6
88	-221	8
117	-183	2
143	-71	-32
167	75	-60
172	187	-25
138	198	0
54	88	20
-64	-100	22
-185	-276	-16
-260	-354	2
-264	-300	39
-205	-153	44
-115	-2	3
-42	68	-34
-11	40	-53
-15	-39	-96
-19	-86	-98
9	-37	-97
81	103	-107
172	262	-59
245	356	-47
261	335	-54
216	223	-40
144	90	-32
69	15	-12
16	16	30
-21	58	12
-62	71	-28
-124	9	-7
-195	-114	22
-242	-232	76
-228	-263	105
-135	-171	152
16	14	161
179	210	63
301	332	-23
342	335	-113
299	233	-193
189	91	-223
49	-27	-204
-87	-79	-98
-199	-71	16
-284	-38	51
-345	-23	-82
-375	-48	-294
-371	-108	-202
-321	-183	-57
-221	-245	-15
-62	-272	11
128	-248	-30
318	-173	-3
462	-59	-14
505	63	45
425	161	108
230	199	81
-29	159	24
-279	58	-51
-452	-65	-76
-509	-167	-55
-459	-214	-30
-342	-210	12
-206	-177	49
-88	-144	22
5	-123	37
80	-101	22
145	-56	7
196	23	0
214	122	-22
183	207	-13
113	240	-88
33	208	-149
-11	134	-114
4	54	-54
68	5	-18
149	-5	47
191	12	79
169	26	54
89	25	12
-15	16	-58
-94	8	-65
-122	11	-48
-97	16	-19
-43	13	4
13	-6	5
48	-34	9
61	-46	4
53	-26	4
35	14	4
16	47	6
5	43	3
8	-8	-16
30	-79	-5
67	-119	25
105	-97	-16
119	-19	-48
93	67	-25
19	109	-30
-82	80	-32
-179	4	-45
-234	-57	-93
-225	-53	-142
-151	29	-144
-37	140	-150
74	213	-125
149	201	-78
162	106	-82
117	-11	-102
38	-95	-25
-39	-112	56
-82	-85	124
-85	-57	246
-59	-68	217
-33	-108	87
-29	-130	-36
-46	-92	-147
-59	17	-165
-37	148	-96
35	228	-70
145	207	-33
245	93	0
291	-45	-36
242	-120	-81
114	-78	-116
-52	63	56
-204	215	87
-296	275	-24
-324	174	-71
-304	-63	-108
-262	-358	-19
-217	-585	-31
-173	-655	-32
-126	-551	-68
-72	-319	-100
-18	-57	-62
37	144	-37
89	240	15
139	237	41
188	182	115
221	126	187
222	95	166
171	77	74
77	45	18
-38	-27	-53
-133	-129	-168
-175	-228	-215
-156	-271	-160
-100	-232	-117
-44	-122	-71
-12	8	9
-2	99	69
14	121	74
60	85	66
140	43	108
229	45	150
285	106	152
283	200	-19
221	261	-294
124	247	-365
24	152	-211
-56	23	-149
-119	-75	2
-174	-100	85
-226	-53	109
-259	17	188
-248	60	104
-181	49	34
-65	3	-92
59	-36	-139
151	-29	-127
183	27	-153
163	103	-138
120	154	10
89	149	145
78	92	162
78	15	109
58	-46	-41
8	-69	-142
-67	-64	-184
-126	-49	-219
-125	-41	-234
-40	-36	-141
113	-25	2
277	9	49
373	74	43
341	159	38
169	244	21
-97	305	-10
-360	323	-57
-523	275	-103
-526	157	-21
-375	-23	57
-151	-233	51
41	-419	68
115	-530	44
54	-537	26
-86	-451	-2
-208	-322	-11
-228	-206	-18
-120	-142	-38
72	-117	-49
268	-92	-62
398	-19	-46
428	105	-27
380	233	16
287	290	15
175	219	-21
52	27	-34
-95	-215	-59
-262	-394	-49
-406	-437	-14
-472	-320	11
-433	-109	41
-298	96	29
-130	211	5
-10	210	21
23	126	24
-27	29	-8
-95	-27	-71
-116	-23	-103
-54	23	-80
64	77	-58
180	110	-40
233	122	9
202	127	75
117	131	90
32	132	74
-5	121	54
12	89	62
62	43	46
111	8	-13
129	4	-78
119	37	-109
90	99	-108
55	157	-94
20	189	-35
-19	183	67
-54	148	213
-74	100	210
-60	50	0
-13	10	-298
52	-29	-341
101	-66	-315
104	-105	-475
51	-132	-387
-32	-145	-166
-109	-142	-35
-151	-125	24
-139	-103	39
-87	-74	51
-12	-36	46
65	20	32
132	97	9
184	181	18
206	259	34
192	301	65
130	301	77
37	249	63
-52	152	45
-98	25	16
-71	-114	16
9	-248	21
96	-361	37
123	-436	44
48	-460	37
-117	-432	34
-320	-342	33
-463	-212	30
-480	-67	-27
-340	60	-62
-80	153	-5
216	194	-83
449	196	-103
541	174	-40
472	147	-51
259	120	-40
-20	88	-54
-287	33	-67
-468	-52	-48
-518	-163	17
-443	-271	52
-280	-341	39
-88	-336	21
83	-251	26
196	-105	33
252	60	10
255	194	-37
225	269	-76
166	276	-47
83	235	-22
-16	166	-42
-117	101	-34
-191	44	0
-218	-9	59
-185	-64	81
-105	-129	62
-12	-192	41
59	-237	3
82	-235	39
58	-179	-35
17	-74	-186
-10	53	-260
2	165	-253
50	233	-151
111	240	-136
159	203	-95
166	147	-49
124	99	-15
52	74	116
-29	60	173
-96	41	156
-135	5	140
-152	-50	57
-149	-105	-58
-136	-134	-238
-113	-122	-379
-79	-72	-246
-26	-4	-126
42	61	-27
123	109	74
209	140	32
285	166	3
340	202	-12
358	252	-25
327	305	-6
238	330	55
96	296	32
-76	178	-29
-247	-20	-66
-371	-257	-71
-424	-474	-6
-405	-590	3
-333	-572	63
-245	-425	61
-156	-218	45
-75	-47	49
10	22	13
107	-21	16
212	-117	-30
311	-174	-47
373	-119	-31
380	48	7
328	258	63
230	410	91
102	428	77
-40	305	37
-191	100	-34
-338	-94	-122
-450	-215	-161
-488	-254	-138
-417	-246	-108
-234	-235	-83
26	-233	-7
288	-224	-11
475	-171	-69
536	-58	-89
459	88	-104
287	215	-94
74	279	-43
-132	260	15
-303	182	43
-426	93	60
-500	29	49
-516	-6	48
-459	-35	57
-339	-84	44
-170	-153	-15
2	-223	-39
137	-246	-12
212	-192	-2
231	-64	16
216	103	32
198	253	29
183	335	4
164	322	-46
131	222	-113
77	64	-165
8	-101	-138
-55	-227	-60
-100	-275	-41
-119	-238	22
-120	-131	170
-107	-2	204
-83	101	84
-41	138	-76
23	111	-170
105	46	-227
184	-4	-223
237	-9	-157
249	39	-80
216	112	1
162	164	15
100	160	-30
46	96	-44
4	1	-54
-32	-90	-82
-64	-140	-27
-93	-147	52
-109	-121	101
-110	-82	81
-101	-42	42
-89	1	-21
-83	51	-100
-78	110	-107
-63	168	-81
-33	208	-8
17	221	-6
72	203	16
121	165	65
151	109	54
161	37	43
147	-54	8
110	-162	-65
40	-261	-178
-64	-321	-137
-190	-309	-9
-304	-225	64
-350	-90	48
-291	43	-14
-134	131	-6
80	161	16
267	145	-26
358	120	-84
323	106	-65
186	103	-36
14	77	-37
-122	4	-11
-185	-111	3
-165	-229	-2
-91	-288	-1
-3	-258	-6
60	-148	1
76	-20	16
36	52	47
-48	37	27
-145	-50	1
-214	-143	-16
-212	-177	-43
-129	-131	-61
13	-42	-93
154	18	-32
216	4	65
170	-85	80
14	-184	74
-180	-222	76
-324	-152	12
-354	-4	-120
-260	142	-201
-91	210	-252
75	171	-272
172	72	-194
181	-9	-82
126	-1	-16
62	102	56
34	244	130
56	341	98
107	334	36
144	233	21
137	98	-20
80	14	-106
-10	22	-92
-92	101	-23
-140	183	41
-139	193	72
-101	95	36
-49	-86	24
-2	-277	-3
27	-401	-76
42	-413	-48
55	-311	-23
77	-140	-39
107	39	21
150	183	57
191	265	-5
223	284	-121
234	243	-107
208	147	-46
136	3	-50
17	-166	-60
-126	-322	-78
-259	-419	-45
-338	-416	-7
-329	-308	-40
-237	-131	-100
-103	44	-34
9	152	21
46	161	99
-3	88	115
-101	-4	43
-182	-54	-6
-186	-27	-77
-102	57	-86
28	153	-132
140	210	-21
175	207	103
131	164	99
47	109	16
-16	64	-79
-14	18	-130
44	-43	-172
111	-129	-179
138	-212	-115
107	-240	5
44	-172	83
8	-13	164
40	179	160
139	317	70
254	327	55
314	203	22
266	-3	-40
107	-202	-59
-113	-317	-115
-325	-322	-103
-459	-245	-58
-481	-131	-71
-405	-32	-72
-258	43	-98
-89	100	-127
60	149	-134
165	181	-81
212	181	-35
204	132	-23
157	43	0
95	-51	-3
36	-119	7
-6	-136	7
-37	-113	18
-71	-77	31
-115	-55	16
-165	-62	-3
-197	-83	12
-190	-100	38
-128	-97	54
-14	-77	107
119	-45	106
234	-13	32
292	21	-20
273	62	-81
182	109	-154
46	152	-122
-95	168	-12
-202	139	105
-253	72	136
-246	-13	76
-193	-88	2
-126	-131	-58
-67	-144	-90
-31	-139	-141
-16	-127	-182
-5	-108	-190
16	-72	-189
53	-9	-150
99	76	-69
135	161	-2
151	210	54
145	213	128
131	179	127
119	138	11
117	126	-82
116	144	18
100	165	77
54	142	-10
-19	48	-11
-104	-103	-32
-167	-252	-18
-181	-322	-17
-137	-271	21
-46	-112	26
62	83	-124
158	224	-161
212	249	-109
216	161	-90
175	22	-96
111	-91	-40
39	-123	-6
-25	-83	-23
-72	-19	-35
-104	8	-17
-120	-25	-30
-124	-96	-51
-118	-152	-67
-99	-144	-83
-61	-74	-95
1	19	-50
89	83	65
193	80	119
283	27	155
322	-35	140
277	-55	56
133	-22	-27
-83	46	-103
-319	110	-103
-511	141	-57
-616	144	11
-610	138	36
-509	135	-30
-360	114	-84
-194	39	-93
-35	-111	-102
109	-317	-75
238	-497	-24
339	-562	-16
383	-459	43
350	-222	87
241	39	57
82	195	51
-64	171	21
-152	2	-1
-160	-203	-28
-104	-308	-75
-31	-248	-97
15	-58	-49
19	142	6
-1	240	13
-16	189	97
-2	41	137
41	-89	64
84	-108	-22
103	3	-124
87	181	-211
51	319	-246
25	345	-173
26	260	-48
51	132	-6
75	45	45
74	38	61
32	88	-35
-32	125	-62
-92	101	-32
-116	8	-55
-101	-99	-26
-57	-156	9
-10	-122	21
20	-16	94
34	106	76
40	187	16
55	198	16
82	158	-19
109	101	-71
126	57	-86
116	24	-83
85	-21	-22
36	-94	-39
-12	-179	-118
-52	-238	-117
-82	-232	-125
-100	-150	-40
-110	-27	30
-104	74	44
-82	104	56
-33	49	28
41	-43	12
137	-110	-24
253	-95	-72
371	11	-111
459	166	-93
484	308	-44
423	372	-6
260	345	-28
23	237	-89
-230	89	-92
-444	-53	-60
-579	-171	-57
-627	-260	-42
-617	-334	12
-581	-401	53
-540	-453	83
-481	-469	49
-382	-429	32
-222	-333	24
-22	-202	30
167	-88	56
288	-25	12
320	-37	-3
268	-97	-38
178	-141	-66
100	-124	-58
49	-24	-32
21	119	11
-5	241	53
-41	282	87
-71	228	86
-65	121	53
2	30	-48
124	15	-83
274	76	-120
399	171	-211
468	241	-129
470	244	-9
416	198	-19
317	138	-41
175	110	-32
2	120	-39
-200	138	-19
-385	124	1
-503	56	-31
-524	-45	-52
-439	-139	-38
-289	-180	3
-136	-160	38
-28	-105	101
23	-52	176
39	-31	201
60	-29	151
111	-21	-16
178	16	-124
229	74	-138
229	122	-199
172	131	-308
87	84	-364
11	11	-316
-33	-52	-157
-46	-68	-25
-45	-40	60
-51	1	94
-60	17	45
-47	-11	51
14	-64	-2
131	-100	-105
279	-76	-109
406	15	-52
455	143	26
406	254	95
265	301	116
75	280	83
-121	213	56
-291	143	31
-431	96	17
-535	70	62
-603	28	31
-627	-66	-44
-594	-222	-88
-488	-409	-96
-318	-562	-120
-102	-617	-97
120	-546	-20
306	-372	6
421	-159	15
450	24	5
385	129	3
251	148	6
81	104	1
-82	32	21
-190	-43	37
-226	-115	28
-190	-179	32
-115	-232	4
-37	-249	-32
14	-215	-51
36	-122	-90
49	5	-80
74	126	-55
122	205	-22
180	224	-8
224	201	-45
225	170	-32
179	168	26
102	193	45
17	223	29
-49	227	36
-92	179	53
-117	90	-22
-137	-9	-61
-148	-78	-12
-140	-93	-7
-102	-61	13
-31	-5	-16
52	43	-35
128	75	65
171	91	51
172	109	-81
147	135	-182
107	169	-176
70	187	-132
39	166	-141
6	96	-156
-41	-16	-202
-97	-135	-185
-152	-229	-171
-190	-270	-49
-194	-254	108
-167	-196	53
-109	-121	-45
-27	-53	-78
78	4	-37
201	52	-21
324	100	-22
418	150	-6
444	198	14
371	230	2
201	230	-3
-20	199	47
-229	150	93
-348	101	101
-352	76	69
-269	80	55
-169	98	29
-130	95	10
-181	36	5
-296	-102	0
-393	-314	0
-406	-549	28
-298	-728	53
-103	-780	17
101	-654	-14
241	-378	-42
288	-32	-59
273	262	-83
245	412	-60
237	381	-8
231	218	-3
183	24	-26
59	-103	-44
-128	-122	-60
-313	-61	-70
-410	9	-47
-362	19	-41
-188	-45	-20
28	-139	-26
195	-185	-42
245	-129	-11
195	23	-11
97	211	-18
15	345	-6
-16	379	-23
-16	296	-61
-20	150	20
-54	4	164
-104	-96	231
-136	-139	141
-122	-142	-87
-63	-127	-162
5	-106	-202
49	-69	-360
58	-10	-277
50	67	-58
58	138	4
105	177	-27
178	170	-39
237	122	-41
245	63	-9
188	19	51
90	0	72
-11	1	30
-77	-3	-47
-104	-21	-88
-111	-56	-154
-112	-92	-115
-117	-105	12
-106	-88	9
-66	-41	-6
9	20	65
99	84	75
167	138	28
184	174	21
150	188	-52
85	166	-81
29	111	18
16	36	99
50	-24	92
107	-41	45
155	-1	19
154	72	-11
96	127	-77
-9	121	-115
-129	41	-98
-228	-60	-104
-273	-113	-51
-262	-63	-30
-209	74	-53
-135	206	-56
-70	221	-69
-21	44	-26
22	-279	29
74	-612	24
140	-780	-5
208	-685	57
238	-357	43
183	41	-23
34	317	20
-181	345	6
-381	148	2
-481	-143	8
-431	-348	-36
-253	-361	-65
-31	-200	-86
124	19	-42
145	162	-14
31	165	-8
-143	55	23
-271	-70	36
-279	-126	47
-162	-82	39
18	14	18
166	85	-6
216	79	-64
162	3	-147
56	-86	-159
-26	-122	-99
-40	-74	-27
16	41	21
99	171	76
163	262	100
183	291	43
178	265	22
184	211	-66
216	160	-210
269	121	-150
291	97	-51
237	80	15
86	58	65
-128	32	21
-335	0	16
-459	-37	-26
-459	-76	-82
-352	-104	-118
-187	-113	-117
-31	-97	-84
77	-54	-170
132	-1	-214
159	50	-100
184	82	-9
223	90	-25
265	86	-12
283	76	69
258	66	149
175	51	82
51	29	-87
-84	-7	-67
-202	-47	-87
-276	-77	-113
-291	-80	-159
-249	-57	-186
-168	-24	31
-65	3	65
29	11	32
97	7	97
139	6	95
160	21	66
172	51	69
188	76	126
202	67	126
203	18	85
171	-53	36
99	-110	-40
-10	-113	-152
-134	-55	-194
-242	31	-127
-305	97	-48
-307	89	11
-245	3	14
-131	-126	-25
4	-241	-19
139	-291	-20
241	-271	-19
279	-210	11
239	-157	-4
117	-135	-28
-57	-137	-89
-251	-130	-102
-415	-84	-56
-509	-8	-46
-515	55	-7
-436	56	16
-306	-20	20
-152	-135	15
-3	-215	-9
135	-188	3
269	-44	22
406	164	22
528	341	-31
600	410	-72
583	351	-18
432	215	41
165	88	40
-166	25	34
-468	39	18
-639	76	-27
-627	78	-86
-459	16	-140
-214	-86	-159
5	-167	-139
121	-178	-46
128	-108	57
74	4	161
32	100	250
54	140	233
139	124	107
242	89	-35
302	74	-98
285	97	-190
206	143	-179
102	178	-52
19	174	-91
-26	127	-76
-41	57	9
-53	-13	-3
-75	-71	-58
-97	-125	-120
-104	-174	-69
-81	-215	-91
-32	-227	-201
21	-184	-228
57	-83	-138
68	52	35
66	168	65
67	211	37
83	166	-37
103	50	-121
104	-82	-138
67	-179	-80
2	-207	-20
-71	-169	-4
-125	-90	47
-147	-1	6
-139	70	-14
-120	110	-13
-102	106	64
-79	54	76
-38	-42	5
27	-151	-18
104	-214	-35
163	-181	42
172	-27	81
123	203	85
38	413	62
-47	487	5
-94	359	-45
-100	57	-67
-88	-313	-68
-92	-596	-138
-122	-687	-150
-159	-565	-71
-162	-312	-9
-99	-53	36
21	105	56
151	124	38
229	53	49
214	-32	63
113	-67	30
-20	-35	-2
-116	35	-12
-126	95	-4
-55	110	13
49	81	-15
119	28	-58
98	-16	-64
-26	-39	-50
-210	-36	-28
-392	-5	-39
-497	43	-3
-475	101	65
-328	154	36
-85	186	1
175	182	-32
389	139	-44
496	80	-31
478	29	-100
350	14	-112
164	32	-57
-26	64	-4
-170	80	-66
-241	58	-139
-242	6	1
-193	-51	90
-124	-85	62
-58	-81	-3
-7	-44	-21
29	9	4
57	63	17
82	116	2
109	162	-70
132	196	-102
148	197	-131
144	143	-203
125	31	-223
91	-119	-77
52	-254	-28
20	-326	-10
1	-308	65
2	-214	52
17	-93	83
41	7	12
62	55	-92
71	67	-84
62	67	-59
33	80	25
-10	99	90
-58	106	127
-93	79	171
-103	17	102
-84	-50	37
-37	-84	-123
19	-57	-282
64	12	-330
78	84	-226
44	104	-80
-32	43	-82
-131	-86	-7
-225	-237	-12
-273	-348	-14
-255	-381	24
-173	-326	21
-50	-215	58
72	-87	42
169	22	21
225	84	-9
252	105	-4
269	95	-11
285	81	13
284	82	91
228	113	93
89	183	46
-125	272	8
-369	353	-15
-556	374	-84
-617	301	-62
-531	120	-6
-329	-144	-42
-92	-418	-20
107	-608	21
228	-631	16
273	-475	7
270	-196	128
245	97	164
198	287	29
115	319	3
-15	202	-42
-166	34	-93
-296	-81	-40
-354	-70	-51
-315	53	-57
-202	218	-109
-64	333	-309
43	335	-189
101	225	10
128	53	-18
158	-107	-38
211	-212	-100
278	-248	13
325	-227	29
311	-170	-28
230	-96	-13
110	-17	-147
-6	51	-147
-82	84	-137
-108	64	-113
-105	-1	15
-101	-80	103
-104	-119	120
-102	-90	45
-72	8	-22
-6	128	-35
78	213	-44
140	227	-60
149	170	-50
100	92	-36
23	39	-44
-38	36	17
-52	65	87
-25	86	119
16	67	99
26	9	43
-6	-47	5
-64	-54	-19
-109	5	-4
-108	106	-2
-60	183	7
11	179	12
64	66	18
82	-115	-20
68	-287	-122
54	-365	-238
66	-315	-323
111	-160	-241
169	12	-64
204	111	47
198	85	107
138	-52	99
38	-219	40
-87	-326	13
-224	-320	16
-361	-212	32
-493	-72	27
-576	19	20
-580	26	-16
-480	-25	-63
-279	-68	-93
-34	-42	-111
191	63	-121
333	193	-76
366	269	3
301	241	-21
184	124	-31
57	-13	-25
-44	-102	-27
-114	-108	49
-155	-64	99
-169	-31	163
-158	-45	196
-113	-89	164
-43	-104	111
44	-36	-1
125	106	-120
184	257	-178
216	321	-206
229	249	-189
225	80	-80
204	-82	-22
162	-133	-80
93	-46	-155
7	101	-108
-75	186	-43
-126	116	34
-133	-99	104
-97	-341	55
-37	-460	69
19	-372	52
54	-106	23
72	199	-67
85	390	-195
107	388	-229
139	233	-195
171	44	-116
184	-50	-95
167	-18	21
120	92	105
50	174	87
-27	153	49
-102	37	-74
-170	-95	-95
-229	-148	-86
-263	-84	-78
-269	59	-29
-229	182	-6
-145	198	12
-38	86	42
60	-102	72
122	-264	36
136	-326	9
114	-261	29
79	-119	-7
57	16	-22
59	81	-38
76	45	-64
78	-58	-12
46	-180	21
-22	-263	31
-109	-282	42
-168	-243	11
-166	-162	-67
-94	-69	-84
17	18	-30
104	93	30
110	157	60
10	208	-1
-166	240	-88
-338	244	-93
-424	208	-117
-381	135	-113
-225	37	-32
-31	-62	57
109	-138	158
147	-174	199
86	-166	113
-10	-130	-33
-67	-92	-67
-45	-70	-94
44	-69	-137
148	-77	-107
211	-68	-40
208	-25	-35
166	50	21
126	139	97
128	211	74
169	237	-2
209	208	-124
204	135	-126
127	43	-86
-4	-37	-74
-145	-93	-60
-244	-118	-6
-273	-119	90
-236	-100	39
-159	-68	-32
-74	-23	-161
10	29	-172
84	81	-93
151	121	-189
203	142	-153
231	139	-107
221	118	-63
176	88	-3
121	59	13
68	41	26
39	30	14
22	15	4
0	-15	-16
-52	-62	-1
-134	-112	-31
-224	-140	-39
-291	-123	-44
-304	-56	-21
-253	38	43
-151	119	109
-26	148	94
94	110	38
190	28	5
257	-53	-30
291	-97	28
283	-92	8
228	-67	-20
119	-63	-24
-26	-105	-37
-178	-181	-5
-300	-245	9
-362	-252	24
-362	-185	-12
-312	-67	-61
-241	48	-65
-169	124	-15
-109	150	46
-60	149	106
-10	138	151
46	120	126
106	70	46
158	-37	-52
192	-191	-137
199	-334	-172
172	-379	-141
117	-271	-38
37	-29	-4
-48	256	-42
-116	454	71
-141	474	42
-107	301	-94
-15	35	-155
110	-206	-202
227	-316	-151
295	-264	-174
284	-116	-159
197	41	-71
57	123	-74
-99	106	-61
-229	24	-10
-305	-61	48
-315	-104	115
-263	-90	168
-172	-41	191
-64	1	116
30	17	-23
97	7	-35
127	-7	-149
129	0	-179
122	39	-77
122	104	-153
133	169	-156
149	215	-118
148	233	12
118	223	97
61	198	103
-5	161	106
-54	108	49
-69	25	-18
-41	-84	-136
14	-202	-195
75	-286	-167
113	-294	-59
115	-207	12
81	-49	36
13	116	58
-63	221	59
-134	215	57
-180	122	38
-186	-8	-6
-143	-101	-20
-48	-111	-5
81	-56	15
221	6	26
323	10	20
346	-65	0
267	-186	-26
83	-273	-50
-160	-260	-88
-392	-138	-54
-545	31	-13
-558	154	-19
-438	162	-4
-228	53	38
-4	-103	53
154	-207	51
201	-198	34
139	-84	0
1	60	-14
-152	139	-2
-269	101	32
-324	-39	30
-306	-196	-40
-229	-286	-132
-115	-251	-144
9	-116	-110
120	51	-114
195	173	-130
229	207	-102
230	169	-68
214	106	-99
201	70	-105
198	79	-44
204	116	53
200	138	120
172	114	105
121	39	60
48	-58	40
-20	-136	34
-71	-159	49
-100	-122	58
-109	-43	79
-104	37	138
-88	97	159
-57	122	82
-7	125	-147
54	121	-360
118	132	-306
160	168	-249
164	225	-217
127	295	10
61	341	55
-7	335	-20
-60	239	22
-85	43	35
-83	-229	-72
-61	-510	-140
-36	-708	-89
-14	-743	-60
3	-585	-50
12	-292	-27
14	24	-13
12	247	-14
10	308	-18
16	215	-84
32	61	-104
52	-53	-51
72	-63	-31
78	32	13
63	180	84
39	312	93
17	382	121
18	382	155
49	320	60
99	195	-17
139	10	-38
131	-223	-138
60	-455	-205
-62	-600	-159
-195	-581	-80
-279	-382	-7
-275	-81	45
-186	174	38
-62	260	52
21	127	91
9	-133	54
-105	-363	15
-277	-413	3
-419	-246	26
-459	40	64
-385	286	90
-223	353	40
-53	227	-64
60	-1	-174
97	-174	-260
76	-194	-230
46	-68	-149
44	103	-70
82	207	41
133	185	128
169	74	130
165	-32	106
127	-55	60
79	13	-6
35	116	-55
9	165	-96
-5	116	-107
-10	-5	-74
-1	-120	-26
33	-157	-28
97	-89	-14
175	41	28
253	162	58
288	221	106
273	206	97
206	155	107
113	106	112
23	77	18
-43	57	-42
-81	16	-89
-102	-48	-133
-116	-117	-152
-125	-148	-183
-129	-121	-115
-122	-55	-71
-101	3	-140
-68	6	-127
-30	-55	-112
11	-144	-76
52	-190	34
96	-143	150
135	-8	149
167	161	62
189	278	-103
194	291	-151
184	197	-37
157	51	-142
106	-74	-180
25	-137	-129
-86	-142	-116
-222	-130	-64
-347	-142	32
-425	-188	89
-426	-232	83
-344	-217	91
-201	-108	26
-42	85	13
94	305	5
184	473	0
223	522	-23
222	438	-64
198	258	-36
156	36	-7
98	-163	33
25	-306	59
-56	-384	87
-128	-416	102
-181	-421	24
-206	-416	-77
-212	-403	-166
-202	-371	-185
-176	-298	-150
-124	-171	-56
-37	6	23
78	205	-11
201	372	-33
288	453	-12
309	401	8
242	229	-33
107	-4	-53
-59	-214	-5
-221	-322	72
-336	-300	140
-389	-167	70
-375	16	53
-299	181	44
-178	286	-40
-34	319	-60
99	287	-101
192	206	-175
224	89	-154
206	-36	-74
165	-129	-57
139	-139	-26
148	-49	-30
178	110	21
203	250	124
184	259	139
115	88	155
10	-216	61
-97	-510	-91
-169	-627	-170
-190	-471	-246
-163	-101	-241
-108	309	-144
-35	552	-62
44	504	-23
125	207	-45
190	-159	-65
216	-386	-16
195	-356	43
119	-117	56
20	165	69
-60	311	79
-89	240	57
-59	13	-39
-1	-210	-126
38	-290	-80
21	-185	-62
-52	32	-22
-148	227	65
-211	301	62
-205	251	25
-126	155	37
-9	106	30
95	138	-49
147	215	-4
131	244	127
68	171	161
-8	-7	74
-65	-216	-57
-91	-368	-78
-80	-408	-74
-45	-341	-209
-2	-218	-330
36	-89	-273
60	26	-205
66	122	-70
52	201	45
29	231	29
11	178	81
8	28	-21
28	-176	-16
52	-345	110
62	-379	68
34	-248	53
-31	-11	22
-113	199	-8
-175	257	-44
-182	121	-20
-125	-135	40
-23	-362	37
85	-427	48
162	-292	45
184	-29	77
155	223	70
94	338	2
15	287	-78
-59	136	-179
-130	-4	-198
-189	-53	-140
-229	-7	-85
-237	76	-36
-209	120	31
-153	93	64
-85	20	-1
-31	-44	-137
1	-57	-186
17	-13	-72
37	47	-9
85	88	28
155	92	82
234	80	91
283	78	82
278	89	34
210	86	32
100	30	45
-20	-89	-20
-110	-234	-124
-153	-326	-155
-151	-301	-122
-118	-150	-21
-71	64	-5
-28	233	-36
11	273	-47
43	170	-123
68	-8	-113
80	-154	-84
72	-189	39
44	-97	174
1	63	193
-42	203	138
-69	248	0
-69	183	-179
-41	46	-294
4	-100	-301
40	-199	-282
47	-229	-147
9	-192	-26
-75	-117	67
-176	-28	111
-259	48	129
-285	95	133
-236	98	46
-117	57	113
34	-5	113
169	-62	62
251	-80	52
261	-38	-79
216	44	-68
150	129	-58
85	164	-24
42	119	26
12	4	-18
-17	-137	-10
-55	-246	-58
-93	-281	-77
-112	-235	-95
-95	-138	-168
-38	-38	-101
42	36	-55
125	80	-71
191	108	-70
234	134	-45
253	158	-24
254	150	37
226	93	96
148	-9	77
5	-122	120
-198	-176	91
-433	-134	-18
-631	-3	-69
-720	145	-89
-668	215	-168
-477	145	-193
-208	-57	-117
46	-305	-58
221	-474	-21
280	-464	19
249	-264	37
183	43	45
143	338	62
159	505	40
210	507	66
252	385	118
234	208	123
143	50	60
4	-54	4
-126	-124	-40
-206	-186	-156
-204	-253	-105
-139	-304	-66
-49	-297	-138
34	-210	-161
90	-56	-202
124	110	-129
152	229	-40
188	260	8
221	207	52
229	116	109
201	39	156
135	16	191
58	42	167
-1	94	97
-23	139	53
-15	162	3
-4	164	-144
-29	152	-381
-106	128	-279
-222	87	-39
-325	13	-41
-365	-89	-7
-314	-195	8
-184	-268	-116
-24	-283	-208
104	-236	-157
163	-152	-132
147	-72	-88
87	-29	18
28	-30	64
0	-59	145
9	-97	156
34	-123	85
54	-135	15
52	-129	-39
32	-98	-47
1	-33	16
-32	78	21
-60	218	-20
-86	343	-62
-100	393	-128
-93	321	-99
-52	128	-59
22	-127	-54
115	-351	-64
198	-459	-4
233	-413	57
203	-251	46
111	-51	75
-21	110	59
-159	196	68
-272	221	11
-336	222	-128
-338	226	-145
-269	222	-37
-141	165	-16
20	31	-43
175	-165	-24
275	-348	10
291	-432	59
224	-361	66
101	-167	117
-29	49	135
-118	174	53
-149	145	-98
-125	-1	-178
-74	-162	-181
-18	-218	-156
35	-121	-66
87	84	20
148	296	32
204	406	-31
242	382	-48
226	261	-87
141	131	-112
-1	55	-94
-170	41	-100
-305	50	-78
-366	23	-29
-338	-61	55
-242	-176	91
-120	-260	49
-23	-268	-21
24	-203	-22
28	-101	-13
18	-13	-33
38	38	-3
107	64	28
216	96	12
331	153	-1
389	213	29
358	241	83
230	197	102
39	86	87
-154	-53	-3
-291	-159	-173
-333	-196	-198
-288	-171	-126
-194	-130	-170
-102	-116	-155
-48	-144	-37
-42	-192	5
-57	-214	5
-58	-178	51
-18	-93	94
67	7	91
169	77	2
245	105	-11
268	106	32
233	122	-3
153	165	-127
60	213	-297
-21	233	-228
-88	188	-86
-150	93	84
-221	-7	267
-288	-57	300
-340	-39	249
-340	14	76
-272	44	-158
-139	7	-320
26	-87	-265
180	-177	-219
280	-189	-138
313	-102	18
280	29	-10
210	112	-40
123	64	-62
39	-110	-96
-37	-326	-1
-104	-460	125
-156	-418	91
-182	-210	26
-176	66	-28
-137	282	-67
-76	345	-121
-11	260	-101
46	96	-48
86	-45	-2
111	-98	51
133	-52	52
158	50	70
180	159	9
194	227	7
186	233	17
151	168	28
91	41	69
10	-113	60
-78	-252	21
-159	-314	-30
-217	-263	-57
-234	-111	-84
-198	85	-46
-105	244	-25
25	310	-42
156	279	-31
244	206	-3
248	155	-2
163	143	-51
17	144	-141
-136	93	-178
-241	-46	-85
-262	-251	-22
-211	-433	0
-133	-498	17
-81	-409	-29
-88	-207	-12
-145	6	-10
-215	132	11
-237	131	13
-183	44	-38
-53	-51	-16
111	-87	16
249	-43	53
322	44	34
319	129	26
260	182	64
180	203	125
106	209	128
49	199	79
3	156	-9
-40	52	-187
-83	-105	-275
-120	-273	-223
-144	-368	-101
-150	-333	-76
-140	-173	-76
-119	46	-83
-86	218	-83
-35	274	-64
36	208	-115
120	92	-81
195	3	-52
229	-18	13
202	6	62
114	6	68
-9	-68	76
-126	-211	32
-207	-345	-11
-228	-383	-72
-194	-286	-85
-121	-89	-31
-26	108	21
77	215	64
171	206	92
239	131	48
259	77	-4
212	106	-56
107	211	-66
-25	319	-37
-138	343	31
-182	238	68
-143	38	16
-52	-174	-1
39	-320	-70
75	-357	-112
34	-301	-135
-55	-195	-116
-141	-74	-12
-172	45	16
-122	162	-28
-20	257	-68
93	305	-47
169	277	-48
196	171	-137
190	25	-158
172	-103	-57
160	-170	-21
133	-182	43
68	-175	132
-54	-200	164
-222	-263	192
-382	-322	108
-481	-315	0
-477	-203	-67
-366	-24	-121
-198	139	-188
-30	203	-141
84	147	-6
135	24	72
148	-58	87
154	-30	46
172	100	-14
195	244	-97
194	301	-60
150	215	-41
65	30	-57
-24	-137	-107
-80	-178	-179
-74	-54	-153
-13	178	-102
58	396	-79
103	483	-101
89	387	-26
31	143	82
-31	-152	161
-60	-394	190
-36	-517	143
24	-497	78
86	-370	-6
110	-199	-67
81	-54	-128
9	14	-148
-76	-9	-117
-142	-97	-72
-173	-195	-38
-168	-234	-20
-141	-183	-17
-106	-52	4
-67	99	29
-24	205	32
34	231	30
105	183	59
183	125	122
248	105	76
280	145	-35
260	213	-136
179	256	-180
49	237	-161
-109	157	-104
-248	61	-7
-337	-3	49
-344	-23	104
-270	-27	107
-142	-63	12
-4	-151	-32
104	-258	-111
159	-313	-190
161	-255	-120
135	-80	-80
114	148	-50
111	321	-10
128	364	43
139	268	108
122	110	150
61	-15	141
-32	-43	86
-134	10	54
-221	64	60
-262	40	72
-263	-99	-30
-232	-301	-35
-183	-470	25
-126	-510	-45
-64	-393	-166
4	-168	-422
78	77	-590
147	251	-511
196	305	-245
211	252	-51
184	131	-47
120	-3	18
41	-114	152
-33	-178	241
-88	-185	224
-107	-127	185
-97	-15	143
-56	130	123
1	277	24
68	387	-115
138	431	-176
202	406	-205
244	319	-185
250	182	-59
214	10	-3
130	-178	-9
18	-356	45
-98	-482	52
-191	-519	82
-236	-444	84
-228	-286	85
-185	-101	47
-141	42	16
-120	98	31
-130	66	-3
-158	-9	-7
-167	-70	-16
-134	-90	-1
-56	-64	10
42	-23	16
122	4	16
151	15	-12
124	24	1
71	48	7
29	85	-10
25	103	-14
49	75	-6
64	-11	-43
33	-117	-114
-52	-190	-160
-159	-173	-163
-226	-57	-125
-195	112	-81
-63	269	-43
124	356	-18
288	349	17
355	273	24
296	174	0
139	92	13
-43	35	36
-185	-2	46
-247	-35	26
-239	-65	-21
-194	-85	-52
-147	-85	-67
-116	-69	-94
-89	-65	-72
-54	-92	-3
-2	-152	8
60	-217	-5
121	-248	10
170	-201	-64
202	-72	-161
226	110	-133
241	298	-21
238	433	115
202	482	240
125	427	218
14	277	50
-107	59	-35
-200	-189	3
-242	-409	-68
-229	-541	-273
-178	-535	-336
-117	-378	-270
-70	-109	-168
-42	188	-58
-22	406	-59
6	469	-43
52	359	19
113	128	80
166	-133	159
187	-322	194
165	-384	139
99	-313	85
8	-160	16
-80	-6	-135
-141	80	-236
-160	68	-271
-138	-19	-247
-90	-126	-152
-34	-188	30
10	-152	76
36	-19	77
46	164	76
51	318	36
58	372	85
72	298	20
85	123	-10
81	-79	42
53	-231	52
1	-291	60
-60	-273	22
-114	-224	-23
-132	-191	-25
-111	-190	-14
-59	-187	-10
-3	-129	-40
26	2	-16
14	174	-8
-30	313	-111
-76	335	-169
-84	213	-195
-29	9	-227
81	-173	-147
199	-225	-64
266	-120	-5
231	80	49
87	253	33
-129	295	70
-340	178	87
-473	-25	74
-489	-196	123
-391	-249	179
-226	-161	141
-48	-9	51
98	109	-19
196	130	-108
253	68	-114
280	0	-86
296	-3	-44
291	78	25
269	188	-6
226	240	-114
164	178	-115
90	17	-95
7	-157	-92
-85	-248	-52
-180	-207	-54
-258	-66	-45
-300	83	-115
-280	159	-92
-199	136	42
-79	61	72
42	9	115
127	29	99
159	103	-8
147	157	-43
118	125	18
94	-8	37
79	-179	-27
60	-286	-122
21	-242	-100
-44	-50	-128
-119	205	-91
-172	405	-34
-185	445	-4
-152	308	110
-91	43	127
-22	-242	163
40	-460	48
94	-573	-97
143	-570	-206
190	-474	-202
222	-308	-91
216	-98	-57
169	122	-38
91	305	-104
12	387	-85
-33	341	-35
-32	182	-16
-1	-21	87
21	-181	133
-1	-234	86
-82	-179	-13
-193	-71	-85
-286	11	-149
-305	17	-280
-227	-44	-262
-69	-127	-98
114	-168	-26
255	-133	54
302	-43	130
245	59	131
107	124	127
-51	134	50
-170	101	-4
-206	52	-38
-159	14	-48
-68	-11	-62
12	-23	-103
33	-31	-68
-12	-29	-18
-99	-12	-3
-170	20	27
-183	53	19
-125	70	0
-24	63	-22
66	35	-36
107	12	-22
85	9	-3
22	33	47
-36	70	114
-61	92	160
-50	85	113
-25	53	56
-8	26	-32
-15	28	-133
-33	68	-189
-40	132	-162
-19	188	-69
31	211	-33
89	197	-16
133	165	-3
152	131	-1
148	98	-35
131	47	-59
117	-49	-58
105	-195	-34
85	-361	16
52	-481	47
2	-487	107
-55	-362	102
-105	-148	37
-130	66	11
-125	186	-72
-88	166	-163
-28	36	-198
40	-116	-185
100	-198	-54
132	-163	-36
132	-30	-30
102	123	-8
50	219	-38
5	225	40
-27	168	5
-40	116	-30
-48	130	-32
-58	215	-8
-77	324	26
-88	362	-13
-72	267	-32
-26	29	-65
41	-282	-111
91	-557	-89
91	-690	38
25	-633	132
-77	-421	155
-162	-150	111
-181	77	42
-112	183	-74
13	163	-249
132	61	-266
182	-50	-155
136	-119	-74
24	-123	-60
-98	-82	-67
-168	-21	-61
-161	36	-37
-91	85	-15
-5	127	13
49	160	11
49	177	-9
7	166	-34
-48	125	-9
-89	76	32
-98	35	-5
-85	22	-4
-56	24	11
-27	17	51
3	-19	109
33	-86	134
64	-152	163
91	-179	152
107	-144	82
107	-53	-21
92	56	-108
67	148	-166
42	198	-205
21	224	-164
10	241	-52
8	261	58
17	265	107
26	214	42
22	86	-26
-12	-102	-137
-86	-288	-266
-189	-403	-247
-291	-401	-98
-347	-297	84
-330	-149	141
-234	-24	147
-88	37	126
54	51	60
159	58	-15
206	94	-52
216	151	-30
212	192	-53
221	174	-107
234	92	-181
231	-18	-181
192	-93	-124
111	-87	-38
12	-8	9
-72	95	-34
-119	154	-46
-126	132	-58
-114	44	-19
-99	-59	-88
-91	-129	-81
-76	-149	9
-40	-137	38
18	-131	46
85	-149	-13
131	-171	-25
135	-164	-32
96	-98	-30
41	6	-44
-1	105	-10
-7	143	49
8	97	31
16	-3	7
-10	-94	19
-75	-118	4
-148	-56	12
-191	62	49
-177	179	41
-107	244	10
-14	236	-26
58	166	-36
84	65	-40
69	-42	-40
41	-136	-79
34	-208	-35
56	-246	4
96	-239	-61
123	-196	-25
117	-139	16
82	-98	82
35	-86	147
-3	-86	152
-28	-53	140
-55	51	-3
-105	224	-170
-185	400	-182
-269	477	-197
-314	385	-209
-281	116	-107
-169	-238	-46
-11	-531	-38
127	-639	-87
194	-519	-90
169	-243	-38
71	51	3
-46	241	65
-139	261	90
-183	154	83
-181	13	54
-147	-68	4
-98	-49	-35
-35	49	-27
42	164	-46
129	239	-121
210	250	-197
260	210	-124
262	154	2
222	103	26
157	62	-71
91	21	-130
42	-26	-36
9	-66	-16
-22	-85	-35
-59	-62	-14
-101	-12	45
-126	39	50
-116	60	43
-60	31	110
29	-29	84
124	-85	37
200	-94	23
230	-42	-17
212	47	-76
158	127	-178
79	149	-266
-2	92	-96
-76	-23	29
-130	-148	11
-164	-230	-46
-170	-244	-98
-155	-195	-12
-124	-117	-7
-92	-43	56
-66	7	70
-49	41	13
-35	81	-11
-13	137	-9
22	208	-2
66	267	-81
111	287	-81
138	244	-64
140	153	-35
119	35	37
92	-72	42
78	-149	34
86	-192	32
107	-216	8
115	-237	22
72	-254	39
-42	-256	9
-216	-226	-53
-407	-160	-103
-539	-87	-96
-556	-34	-74
-448	-28	-51
-244	-53	-27
-21	-68	-27
139	-27	-48
196	85	-39
149	231	-37
46	327	-6
-46	290	24
-88	104	24
-63	-173	15
5	-416	-17
83	-501	-51
151	-393	-92
198	-143	-84
230	115	-17
248	257	68
244	233	147
203	96	169
120	-40	152
12	-78	68
-96	10	-31
-170	155	-117
-195	253	-200
-179	233	-181
-144	104	-81
-119	-52	91
-109	-138	173
-108	-107	152
-97	12	99
-57	138	31
4	199	-33
75	174	-190
130	110	-260
159	70	-283
161	92	-320
145	151	-250
128	190	-206
112	150	-129
99	22	-150
78	-144	-44
46	-275	133
8	-315	-16
-31	-263	27
-58	-167	137
-72	-79	75
-70	-38	74
-55	-30	63
-30	-23	65
1	16	-49
39	85	-139
83	159	-140
125	200	-107
170	186	-55
207	131	-30
237	63	104
240	13	164
204	-12	164
111	-19	167
-39	-21	72
-221	-28	-50
-387	-33	-145
-481	-30	-160
-470	-16	-116
-353	-1	-88
-175	6	-79
1	2	-82
123	-4	-30
169	-7	2
159	-8	-4
125	-17	19
101	-45	7
84	-92	-6
54	-140	-1
-2	-170	52
-83	-171	100
-144	-165	145
-148	-180	133
-66	-237	65
64	-309	-5
172	-341	-113
187	-277	-215
63	-104	-271
-162	121	-205
-398	298	-64
-537	343	47
-511	251	59
-336	97	56
-87	-6	57
133	12	-26
253	129	-92
249	241	-63
172	233	2
81	65	12
23	-186	22
8	-386	17
13	-408	-19
14	-238	-50
2	24	-66
-2	233	-64
23	279	-65
90	174	-31
176	21	-13
245	-53	5
265	6	-6
225	154	-55
143	278	-92
54	279	-13
-11	149	138
-47	-39	125
-59	-165	140
-64	-163	98
-66	-46	-35
-61	96	-142
-39	171	-130
1	147	-25
46	53	-27
84	-26	94
98	-36	89
92	33	26
81	140	-56
75	236	-116
81	282	-203
87	279	-345
79	239	-287
41	149	-155
-24	-2	18
-103	-224	15
-175	-466	22
-211	-652	-34
-200	-690	-56
-141	-541	-2
-46	-263	-14
52	25	5
125	197	-23
139	200	65
85	84	152
-29	-34	164
-157	-53	119
-255	43	39
-281	183	-39
-232	257	-181
-142	197	-283
-57	36	-224
-20	-121	-76
-32	-169	8
-65	-84	14
-71	64	-22
-21	152	-6
81	95	-11
201	-82	-3
284	-263	41
300	-314	43
241	-184	56
138	57	63
27	256	49
-62	267	15
-128	63	-18
-182	-254	-48
-231	-501	-61
-264	-540	-36
-267	-344	-28
-208	-23	-47
-85	256	-7
79	368	55
231	296	84
323	132	44
309	7	-31
198	-3	-84
30	93	-102
-131	210	-89
-225	256	-106
-223	189	-100
-141	39	-53
-31	-115	-7
54	-200	48
77	-186	85
38	-97	87
-24	8	87
-68	77	65
-62	87	33
-10	46	-7
61	-9	-105
113	-48	-164
124	-45	-128
103	1	-86
74	71	-75
69	142	-97
93	187	-164
139	190	-151
176	157	-104
184	108	-51
152	68	77
89	41	68
11	15	34
-68	-37	69
-139	-122	65
-197	-226	38
-229	-299	26
-229	-288	58
-189	-179	94
-117	0	101
-39	171	68
23	256	-18
48	213	-143
40	70	-203
13	-95	-206
-11	-200	-164
-19	-200	-75
-15	-116	-44
-10	-5	-65
-15	65	-67
-29	69	-90
-41	32	-100
-31	-1	-6
14	13	-11
90	80	-31
182	169	14
261	239	-6
301	257	34
280	227	52
193	150	52
53	45	30
-112	-88	3
-259	-246	-4
-354	-413	-49
-372	-551	-44
-325	-611	-43
-243	-557	-49
-165	-403	-15
-112	-198	22
-86	-9	61
-65	116	118
-25	170	155
36	188	114
110	204	45
165	243	-24
179	287	-89
159	313	-122
119	298	-154
95	241	-147
94	163	-22
109	77	39
113	-14	30
82	-121	22
18	-237	-48
-62	-334	-71
-123	-364	-96
-141	-294	-148
-111	-130	-157
-46	64	-88
26	209	-13
85	244	-4
117	171	-15
124	55	-62
110	-26	-88
81	-29	-80
38	33	-35
-14	101	-8
-71	112	58
-132	52	235
-185	-40	281
-223	-100	159
-227	-86	-19
-186	-2	-135
-89	94	-145
60	150	-153
236	139	-206
396	88	-174
493	45	-111
488	47	-65
370	92	16
166	134	68
-81	128	98
-299	51	53
-442	-67	-8
-488	-174	-20
-450	-212	-70
-360	-166	-89
-257	-60	-40
-166	43	16
-97	94	48
-41	62	-5
4	-30	-66
43	-144	-91
68	-225	-94
78	-232	-77
67	-154	-47
54	-14	-12
52	143	-15
64	265	14
86	300	22
97	231	2
86	70	9
49	-125	39
11	-288	39
-8	-362	-44
9	-322	-80
60	-201	-22
117	-52	-19
154	66	-32
151	124	2
115	134	24
69	124	22
40	123	15
48	129	14
81	112	-9
127	40	-28
162	-88	-43
172	-235	-51
156	-334	-33
115	-334	-43
52	-231	-66
-31	-72	-54
-130	58	-38
-241	103	-51
-333	58	-71
-389	-24	-71
-389	-67	-13
-333	-32	32
-247	72	31
-151	181	28
-64	225	43
9	178	81
74	66	80
140	-39	26
202	-85	-32
231	-52	-49
200	23	2
93	89	12
-69	110	-27
-239	95	-18
-341	81	-56
-333	101	-136
-218	155	-92
-36	205	-53
137	204	-74
242	134	-51
252	17	-63
186	-90	-36
89	-143	-20
2	-131	-58
-48	-93	-140
-67	-77	-149
-65	-110	-105
-58	-178	-62
-42	-224	37
-11	-198	24
42	-90	33
111	58	29
178	174	-19
222	200	20
225	125	152
191	-2	225
133	-114	164
71	-153	126
18	-111	60
-24	-24	-18
-55	56	-88
-81	90	-110
-102	74	-147
-117	31	-249
-119	-2	-255
-104	1	-232
-68	43	-190
-19	117	-130
36	194	-189
83	249	-82
110	249	19
115	174	27
98	27	77
63	-164	26
26	-334	41
-7	-416	47
-25	-364	74
-28	-200	58
-13	14	29
9	186	17
31	244	-21
37	178	-30
16	22	-49
-38	-153	-16
-114	-301	6
-190	-393	0
-234	-427	3
-223	-402	11
-156	-306	12
-56	-135	40
36	89	51
78	300	28
56	416	45
-14	380	22
-91	203	-19
-126	-26	-42
-93	-192	-42
6	-219	-66
137	-109	-112
245	59	-120
280	186	-102
225	205	-43
85	138	-11
-95	56	7
-253	28	-13
-344	75	-3
-333	153	36
-232	194	-8
-82	153	-23
56	43	-5
124	-74	-6
100	-135	-28
4	-123	-55
-111	-65	-26
-189	-14	4
-189	-8	-6
-116	-42	-24
-1	-77	-15
110	-65	-3
188	-1	-9
230	91	-44
252	162	-48
269	177	-32
283	138	-50
279	76	-67
237	26	-85
144	6	-44
23	3	-2
-100	-10	2
-191	-51	12
-235	-112	32
-232	-165	27
-199	-177	-21
-154	-139	-104
-102	-63	-141
-42	16	-101
32	70	-33
111	94	12
178	88	-45
211	71	-51
194	49	-7
133	25	-21
49	-7	0
-27	-46	-2
-83	-75	7
-105	-71	-12
-101	-20	-52
-89	76	-24
-77	185	-66
-70	261	-97
-65	268	-91
-58	190	-66
-42	49	-32
-12	-102	-36
37	-213	21
107	-251	59
187	-225	-2
263	-163	-34
314	-103	6
320	-69	36
266	-59	82
162	-60	75
25	-70	14
-123	-97	-10
-253	-157	-33
-354	-251	-42
-417	-351	-89
-444	-402	-102
-428	-361	-100
-371	-223	-78
-280	-35	-28
-173	119	14
-77	178	82
-10	132	69
16	38	13
16	-23	-1
17	3	-30
42	111	-72
98	233	-69
162	291	-3
198	253	69
175	150	37
95	51	6
-16	23	-16
-103	77	-46
-124	161	-63
-64	208	-82
52	178	-14
175	91	72
259	3	140
275	-26	120
234	15	91
157	85	67
77	121	-40
8	84	-248
-51	-15	-375
-106	-122	-283
-158	-179	-205
-190	-159	-129
-182	-89	-26
-128	-17	-40
-32	8	-51
75	-12	-10
164	-48	12
211	-56	24
216	-21	32
184	50	57
130	123	52
61	166	21
-22	174	-15
-112	153	-27
-195	117	-4
-245	62	38
-243	-21	36
-178	-129	-6
-71	-231	-22
39	-265	-36
119	-194	-24
147	-13	-44
127	204	-34
89	345	45
60	321	43
60	118	7
84	-175	-12
111	-417	-60
120	-488	-60
101	-361	-63
55	-116	-92
-3	108	-49
-60	194	-10
-108	115	26
-141	-58	59
-162	-208	63
-162	-240	45
-136	-143	8
-84	14	2
-5	138	-7
77	170	-30
147	113	-34
186	23	-48
192	-35	-82
170	-38	-119
129	-5	-153
75	14	-140
-1	-7	-66
-104	-60	-50
-237	-103	-33
-383	-92	-42
-506	-18	-96
-561	84	-47
-516	147	41
-375	129	47
-168	30	9
42	-96	-25
206	-179	-35
296	-170	-17
308	-77	-6
269	41	-17
221	115	-30
180	101	-8
151	13	14
126	-87	36
88	-137	41
36	-101	40
-14	-1	34
-42	113	61
-35	189	111
-1	199	134
34	165	109
38	117	62
-7	84	3
-92	65	-113
-177	47	-184
-215	16	-223
-180	-21	-193
-81	-45	-121
36	-39	-49
116	-8	7
121	17	-40
54	4	-54
-38	-53	-81
-104	-127	-143
-104	-164	-183
-38	-125	-170
58	-11	-66
140	122	-5
186	205	-19
192	191	-8
181	85	46
172	-47	77
172	-138	90
161	-140	59
120	-61	-18
48	43	-115
-36	114	-101
-99	112	-21
-119	43	-5
-101	-58	32
-62	-141	80
-39	-181	112
-42	-162	90
-68	-96	63
-87	-4	3
-74	86	-95
-21	141	-120
59	137	-100
137	67	-45
190	-41	6
200	-135	20
167	-167	1
102	-108	-16
22	8	-18
-53	119	-16
-104	155	4
-115	96	-13
-92	-24	-80
-50	-134	-6
-30	-170	57
-61	-118	37
-150	-18	32
-271	61	-41
-369	80	-12
-392	43	2
-324	1	-42
-184	1	-40
-36	47	-67
61	104	-91
76	110	-97
26	33	-64
-41	-105	-5
-74	-240	-10
-48	-301	-60
19	-263	-71
90	-154	-32
125	-37	-17
123	30	-60
98	37	-95
84	10	-121
104	-2	-35
151	22	37
200	79	45
212	129	70
175	142	10
95	110	-30
6	49	-8
-60	-5	-30
-81	-34	-43
-57	-29	-18
-19	-2	-23
16	35	33
24	79	0
11	129	6
-7	178	-2
-8	205	-71
18	185	-99
69	106	-105
128	-7	-61
169	-109	-79
175	-144	-40
154	-87	-41
117	39	-44
84	166	-8
62	210	35
42	128	65
-1	-64	79
-85	-292	99
-210	-456	57
-340	-478	26
-417	-340	-13
-392	-99	-59
-248	161	-111
-16	345	-132
216	413	-112
365	365	-50
355	253	28
178	139	66
-99	63	24
-377	29	-35
-554	2	-60
-566	-59	-105
-436	-178	-91
-228	-341	-60
-30	-490	-6
86	-562	35
115	-498	38
90	-301	61
66	-28	49
85	229	12
140	381	-22
203	377	-19
234	233	7
211	20	32
154	-169	21
96	-265	4
68	-254	-36
78	-165	-113
99	-57	-114
96	16	-80
50	43	-57
-28	41	-30
-100	40	-41
-134	67	-51
-109	119	-8
-42	171	-2
31	197	-23
77	183	-4
81	141	-17
52	93	-56
15	61	-48
-12	49	-5
-24	41	69
-30	22	100
-44	-22	69
-65	-78	-11
-87	-122	-108
-93	-127	-176
-72	-89	-210
-32	-17	-155
21	51	-45
69	92	12
105	94	28
129	65	47
139	32	22
141	15	1
132	21	-2
107	38	-8
60	52	-31
-1	51	-71
-68	30	-29
-125	-2	26
-159	-39	29
-165	-72	18
-141	-100	11
-98	-111	40
-44	-90	-9
11	-21	-97
57	105	-81
90	260	-50
105	394	-24
107	435	-167
106	340	-345
109	113	-193
122	-178	-32
143	-425	3
167	-539	41
172	-482	19
151	-311	4
86	-127	40
-20	-35	83
-157	-68	45
-300	-183	19
-415	-280	41
-459	-263	49
-410	-107	57
-261	126	44
-48	334	26
162	419	-2
300	354	-46
314	189	-84
195	14	-40
-10	-95	28
-228	-111	34
-385	-59	-25
-431	1	-51
-364	26	-9
-221	-6	-63
-50	-85	-70
98	-186	-68
191	-280	-82
225	-334	-54
198	-326	-35
132	-232	22
54	-57	-11
-7	150	-21
-31	327	12
-13	394	-20
25	327	-54
49	147	-83
34	-55	-55
-26	-196	-24
-95	-213	26
-130	-120	67
-101	24	48
-12	154	22
97	233	-39
175	274	-58
191	305	-42
154	341	-78
102	356	-92
75	294	-91
93	126	-74
132	-119	-17
156	-358	56
132	-487	185
64	-439	218
-18	-237	152
-76	13	45
-84	190	-78
-48	213	-158
-1	97	-294
28	-69	-326
28	-177	-105
8	-163	-6
-8	-48	13
-2	90	-2
21	165	-94
42	147	-76
42	62	-53
11	-19	-13
-48	-52	-43
-111	-38	-30
-155	-16	-1
-162	-32	-26
-127	-95	-48
-61	-170	-31
29	-195	43
127	-138	54
214	-19	65
275	110	28
288	187	16
244	189	16
135	141	5
-20	95	-16
-201	84	-56
-366	93	-54
-480	74	-61
-516	-17	-53
-470	-174	-28
-362	-337	-4
-228	-413	13
-102	-340	12
-8	-143	5
42	88	-2
63	235	-3
75	222	-2
86	61	7
107	-142	18
129	-275	-8
151	-263	-56
167	-116	-90
180	76	-78
192	205	-45
202	211	-28
206	115	-18
198	-5	-7
175	-64	13
138	-20	22
87	98	35
20	210	40
-63	235	-28
-150	135	-63
-215	-54	-64
-222	-254	-87
-156	-373	-100
-27	-357	-78
107	-214	9
175	-4	24
139	188	-3
6	296	3
-158	286	2
-262	192	23
-259	62	28
-158	-39	-18
-32	-79	-36
33	-51	-26
-4	14	-92
-107	80	-201
-191	115	-202
-177	109	-52
-36	71	55
170	16	1
346	-34	-46
414	-68	-28
351	-76	-54
202	-44	-8
46	21	52
-64	109	54
-122	187	51
-152	213	22
-181	158	18
-209	15	-18
-218	-165	-56
-178	-314	-47
-92	-362	-22
11	-288	-56
83	-129	-114
101	33	-67
87	115	-24
79	85	-77
117	-21	-55
192	-115	-46
259	-122	-57
258	-19	-28
156	149	-16
-21	282	26
-208	301	42
-332	190	64
-351	2	51
-278	-171	46
-169	-251	61
-76	-219	15
-23	-123	-38
-1	-29	-92
21	12	-88
64	5	-40
125	-8	-4
182	20	8
212	95	-8
211	174	-70
192	195	-35
171	119	60
153	-32	42
120	-189	40
49	-268	30
-61	-227	49
-191	-97	27
-288	39	-30
-299	89	-25
-210	20	-54
-48	-128	-71
111	-260	-147
198	-283	-193
172	-170	-163
49	32	-120
-98	215	-78
-203	287	-54
-222	215	-18
-160	54	-18
-68	-103	-35
-4	-176	-18
8	-135	18
-17	-26	-7
-40	78	-22
-24	122	-2
36	103	28
117	61	99
175	45	155
190	84	221
164	153	217
125	205	103
101	205	-47
90	144	-165
69	52	-231
10	-25	-279
-91	-59	-232
-201	-42	-136
-273	7	-85
-256	54	-55
-154	67	-27
-12	30	-6
94	-60	-9
114	-179	-42
42	-280	-69
-69	-304	-59
-155	-216	0
-163	-29	19
-92	188	11
18	327	31
111	301	24
154	104	38
138	-182	26
95	-409	-10
44	-448	-34
-2	-263	-48
-52	44	-23
-114	313	5
-174	388	37
-201	230	49
-166	-72	76
-58	-355	74
90	-467	20
228	-371	-8
302	-139	-47
290	91	-96
212	210	-71
114	201	-34
36	126	8
-3	76	-6
-20	94	-106
-42	161	-102
-91	206	-71
-158	178	-43
-218	75	-38
-248	-46	9
-236	-111	60
-190	-83	10
-130	18	-37
-71	130	-69
-16	194	-87
41	183	-20
99	106	41
151	-1	2
179	-121	69
165	-248	31
111	-370	-4
39	-454	-33
-23	-460	-192
-49	-353	-88
-31	-145	-36
28	92	-99
115	266	-62
210	305	-58
302	215	-26
373	62	-4
399	-45	-7
342	-44	-19
192	54	-24
-42	183	-28
-304	256	-28
-513	236	-26
-605	147	-31
-550	51	1
-379	7	36
-178	12	38
-28	27	-3
16	-2	-21
-36	-88	-7
-122	-198	-37
-166	-275	-62
-114	-274	-6
24	-194	7
193	-77	16
320	26	20
351	85	-10
283	106	-9
158	110	-61
29	116	-74
-52	116	-69
-74	89	-48
-47	32	-20
-1	-39	-14
41	-81	20
71	-58	2
80	37	-19
62	166	-28
18	269	-33
-50	301	-7
-125	250	-15
-181	149	-32
-189	41	-46
-143	-42	-27
-61	-103	22
21	-168	17
70	-257	19
75	-364	14
42	-457	-26
9	-487	-65
1	-427	-88
24	-289	-67
65	-118	-35
99	27	-14
106	109	2
86	125	-15
54	99	-15
29	70	6
18	62	16
20	76	19
23	94	-4
19	98	-37
-2	80	-63
-41	47	-54
-104	19	-60
-186	5	-75
-277	4	-56
-353	13	-62
-381	18	-82
-331	24	-42
-201	36	6
-21	64	19
155	101	79
269	132	122
302	143	77
269	121	-2
208	79	-49
162	32	-38
140	5	-21
128	2	-119
90	11	-96
10	8	40
-98	-22	-69
-193	-76	-156
-228	-133	-163
-186	-160	-147
-83	-140	-65
36	-78	-30
129	6	-7
184	80	7
216	123	28
248	135	18
287	131	19
314	123	-17
290	119	-35
184	106	-19
2	82	-61
-215	51	-105
-405	35	-75
-503	64	-52
-486	132	-46
-373	205	-10
-209	208	-23
-50	85	30
67	-166	52
141	-471	21
186	-693	45
225	-714	51
266	-485	68
306	-82	66
328	331	39
297	586	1
201	580	-32
42	339	-48
-148	-17	-68
-321	-325	-44
-428	-475	-29
-435	-452	-7
-333	-319	-13
-156	-181	-42
40	-109	-18
198	-120	-10
261	-173	-12
216	-208	-9
88	-182	-7
-75	-88	-13
-203	45	2
-260	170	12
-236	240	-27
-161	238	-60
-88	174	-56
-65	85	-42
-105	11	-40
-180	-19	-33
-234	-2	-44
-216	33	-47
-105	53	-52
69	39	-65
241	1	-48
342	-23	-18
334	3	7
226	88	-12
72	195	-16
-55	272	-18
-107	268	-19
-64	183	14
42	56	2
167	-51	-48
253	-92	-77
262	-64	-63
183	-9	-13
39	26	26
-132	14	-9
-270	-25	-61
-329	-53	-39
-281	-33	21
-140	36	63
47	122	74
216	177	65
310	168	26
299	106	-42
202	25	-70
72	-33	-78
-35	-57	-82
-88	-55	-59
-89	-56	-8
-67	-81	55
-54	-116	77
-63	-141	28
-80	-126	-72
-80	-69	-168
-48	9	-209
15	80	-180
85	115	-113
138	119	-38
156	109	-28
149	106	-46
125	114	-24
102	120	-12
78	106	-7
44	61	-25
-4	6	-37
-69	-37	-4
-130	-50	34
-167	-41	60
-156	-39	26
-94	-80	-48
5	-173	-34
120	-289	-7
230	-378	10
319	-381	38
363	-279	51
342	-94	65
238	119	43
44	295	63
-209	389	15
-465	382	-64
-645	282	-89
-695	104	-138
-584	-127	-136
-366	-383	-119
-122	-608	-87
58	-741	-86
122	-721	-54
82	-537	4
3	-227	12
-38	112	24
2	370	30
100	466	1
198	385	-4
211	188	15
107	-19	36
-86	-148	25
-290	-154	-21
-411	-61	-8
-393	57	-4
-262	140	-32
-79	150	-48
68	104	-66
128	45	-52
113	23	-13
75	57	14
80	132	46
156	214	52
280	261	12
399	257	-15
439	209	-81
385	143	-150
253	83	-96
102	41	-25
-15	22	-7
-75	14	22
-86	10	4
-81	0	-12
-79	-21	-30
-84	-56	-48
-75	-101	-28
-37	-137	-26
25	-145	12
94	-106	34
134	-22	26
130	79	12
85	152	-20
27	157	-62
-8	88	-150
-7	-25	-186
24	-123	-156
57	-159	-99
65	-120	5
34	-40	45
-26	26	72
-94	39	78
-143	6	99
-163	-33	150
-152	-34	11
-115	21	-101
-64	103	-92
-2	155	-103
69	137	-72
150	47	-65
221	-67	-105
262	-150	-86
254	-159	-40
176	-109	28
33	-46	77
-156	-21	94
-350	-52	112
-491	-110	103
-535	-147	44
-458	-121	-28
-279	-34	-68
-56	77	-211
132	159	-332
231	170	-273
219	103	-157
122	-19	5
1	-161	41
-92	-285	-26
-133	-365	59
-138	-384	50
-142	-339	-60
-174	-237	-13
-228	-101	29
-263	33	-13
-247	139	-13
-156	198	32
-5	214	77
154	195	40
280	153	-27
358	90	-9
390	12	-1
388	-64	14
355	-113	-16
275	-91	-43
140	10	-48
-40	161	-50
-211	296	-8
-310	341	-20
-281	268	1
-136	109	32
52	-53	32
196	-142	-3
223	-117	-37
131	-12	-39
-14	95	-49
-126	138	-40
-144	100	-20
-66	15	2
60	-56	22
172	-76	13
230	-48	-11
229	-8	-10
192	14	-23
139	10	-24
70	2	-42
-25	2	-52
-153	9	-36
-281	-7	-46
-363	-67	-64
-357	-160	-86
-253	-235	-77
-89	-226	-51
69	-108	-26
172	83	-19
207	261	-7
198	344	26
191	301	42
210	171	31
242	37	7
253	-41	1
205	-52	-4
100	-45	-34
-36	-82	-70
-150	-183	-100
-214	-313	-65
-239	-393	16
-248	-368	70
-279	-231	104
-325	-47	79
-357	102	19
-319	170	-57
-193	169	-162
-4	154	-231
186	174	-211
292	230	-97
285	264	-27
182	209	59
51	46	178
-32	-175	155
-35	-351	145
22	-388	159
76	-268	51
72	-64	-100
-10	109	-235
-134	163	-345
-243	86	-400
-275	-43	-312
-216	-122	-92
-93	-83	49
42	57	84
140	210	44
180	275	-7
167	207	-22
125	43	-9
77	-127	10
32	-212	41
-4	-184	65
-32	-78	44
-48	31	46
-51	84	30
-36	74	21
-10	32	9
21	10	-30
51	27	-23
80	59	-56
105	68	-94
126	23	-49
139	-61	-9
128	-140	-4
85	-162	9
14	-104	24
-71	0	38
-142	90	15
-182	110	-26
-185	45	-37
-162	-66	-40
-129	-157	-27
-99	-169	-44
-63	-94	-35
-4	36	-20
94	158	-42
228	225	-45
363	222	-48
446	174	-13
423	121	1
280	77	-27
53	36	-3
-181	-25	21
-325	-117	6
-338	-224	22
-221	-296	56
-43	-294	70
94	-210	65
129	-80	41
54	31	-79
-70	77	-159
-185	47	-72
-237	-7	-98
-233	-29	-105
-209	17	-70
-203	119	-57
-222	213	-33
-232	236	-51
-195	164	-40
-99	28	-101
28	-101	-95
124	-168	-67
139	-157	-58
74	-101	-32
-24	-55	-31
-83	-50	22
-48	-77	63
70	-84	71
232	-34	66
366	79	94
430	207	66
419	287	-5
346	265	-27
241	147	-59
103	-18	-94
-66	-158	-50
-253	-216	-5
-415	-183	-5
-497	-96	-5
-468	-6	-22
-325	53	-68
-133	85	-92
35	114	-78
125	171	-74
129	260	-57
94	336	-24
71	341	0
103	230	-3
175	3	-22
245	-281	-44
275	-519	-38
244	-615	-21
171	-531	2
86	-307	1
12	-45	-3
-62	135	18
-142	166	47
-234	55	67
-307	-116	56
-318	-233	56
-235	-217	29
-70	-63	-32
121	166	-90
265	369	-91
302	469	-108
234	438	-147
107	313	-106
-13	150	-44
-75	0	4
-81	-113	4
-65	-198	8
-76	-261	26
-129	-304	26
-205	-312	0
-255	-271	-60
-224	-194	-97
-98	-109	-127
102	-52	-130
324	-39	-95
488	-52	-63
541	-47	-3
451	7	65
223	112	75
-88	229	40
-398	296	22
-626	269	6
-691	153	-23
-585	-6	-39
-366	-143	-52
-120	-207	-64
50	-185	-48
104	-106	2
64	-11	10
5	65	28
0	120	38
78	160	4
204	194	-9
306	223	15
328	229	29
253	202	-4
131	137	-20
22	52	-34
-30	-28	-10
-31	-86	-30
-19	-118	-38
-31	-137	14
-77	-158	-42
-119	-186	-63
-116	-213	-91
-38	-222	-104
100	-196	-121
245	-129	-151
346	-36	-85
353	61	-24
268	135	16
117	166	61
-58	149	97
-217	98	69
-328	36	11
-378	-13	49
-364	-38	111
-299	-39	20
-209	-29	-61
-117	-21	-100
-48	-23	-92
-8	-26	-171
14	-25	-267
40	-6	-154
85	26	-60
137	62	4
186	89	3
207	96	-34
195	90	-5
155	77	8
110	71	7
72	75	7
44	85	9
23	91	5
-8	81	13
-40	51	47
-56	0	70
-43	-67	75
5	-140	55
69	-194	24
121	-202	-31
129	-142	-54
92	-14	-39
24	145	-85
-41	272	-88
-86	301	-55
-110	202	-40
-132	-1	-28
-175	-233	-32
-241	-401	-34
-313	-444	-81
-356	-362	-92
-339	-216	-60
-250	-75	-27
-104	6	22
61	16	81
211	-12	106
318	-49	91
363	-75	37
343	-94	-24
262	-111	-96
138	-118	-157
-12	-96	-128
-148	-28	-70
-237	67	-23
-263	145	-43
-235	150	-51
-173	65	-28
-110	-70	-25
-66	-182	-30
-43	-191	-46
-21	-83	-18
17	96	0
77	257	-6
137	322	2
180	279	38
183	179	56
156	100	19
123	88	5
107	134	54
119	180	63
141	168	55
144	84	57
106	-35	-2
28	-122	-29
-57	-135	-109
-108	-78	-97
-98	5	1
-35	58	-19
46	61	9
99	30	-5
94	7	-30
31	19	-67
-54	61	-113
-126	97	-157
-159	89	-163
-156	30	-86
-143	-55	-37
-149	-124	-11
-182	-152	-32
-222	-138	13
-237	-114	-3
-198	-103	-51
-105	-111	-43
18	-116	-19
129	-89	-6
196	-23	-10
211	64	20
187	134	2
154	158	-10
132	135	-13
128	88	-48
131	49	-75
120	30	-76
86	17	-64
25	-11	-13
-43	-64	6
-102	-129	3
-136	-166	16
-140	-131	16
-119	-23	7
-80	132	-11
-30	282	-19
29	372	-13
91	385	19
145	317	24
178	198	0
172	45	-22
121	-124	-49
28	-311	-80
-84	-492	-82
-187	-634	-81
-253	-692	-75
-271	-640	-30
-251	-488	4
-206	-286	37
-159	-106	37
-114	1	21
-68	27	25
-16	7	9
50	2	-19
124	47	-64
194	144	-151
234	256	-189
238	327	-121
196	330	-12
122	267	60
30	181	63
-57	112	83
-120	84	61
-142	81	-3
-118	70	32
-62	30	46
5	-43	-8
52	-116	-38
59	-154	-72
27	-125	-59
-29	-40	-6
-69	68	-22
-68	155	-76
-19	189	-46
67	170	-8
151	114	-23
199	57	-11
191	18	39
128	2	87
31	-3	57
-69	-13	-55
-157	-31	-147
-211	-56	-217
-223	-70	-271
-193	-65	-211
-123	-39	-58
-24	0	43
83	38	69
172	71	54
229	94	41
234	111	47
198	123	50
136	124	79
66	108	83
7	60	61
-40	-12	12
-68	-99	-36
-70	-173	-100
-36	-206	-143
39	-185	-126
136	-103	-118
216	20	-82
228	161	-28
136	279	0
-48	354	-9
-262	353	-31
-422	268	-43
-463	112	-26
-377	-84	3
-218	-264	3
-82	-387	20
-35	-416	44
-91	-361	56
-194	-267	38
-267	-192	4
-253	-185	-32
-156	-246	-32
-32	-339	0
51	-395	-8
66	-372	-14
38	-249	-23
27	-66	-58
86	110	-72
205	225	-65
331	254	-60
381	228	-70
313	195	-110
144	203	-103
-47	267	-34
-175	345	-27
-195	372	-11
-123	298	12
-16	99	42
69	-171	86
110	-416	90
124	-531	89
151	-459	27
202	-218	-5
255	94	13
266	354	7
198	468	1
52	413	-12
-115	253	-66
-241	84	-137
-272	-7	-171
-213	-11	-143
-113	27	-86
-30	27	-52
-4	-49	-22
-28	-179	-8
-61	-282	-22
-69	-282	-15
-32	-155	-5
29	46	-7
90	222	-25
121	279	-46
128	208	-61
121	59	-58
111	-66	-24
94	-101	-2
49	-38	28
-31	58	17
-139	110	-11
-236	78	-5
-277	-25	0
-245	-129	-16
-152	-175	-11
-43	-136	5
39	-44	4
76	44	13
82	93	26
90	93	34
123	84	32
181	94	7
234	130	-63
245	168	-113
204	163	-79
122	94	-62
34	-25	-92
-28	-140	-81
-56	-201	-86
-66	-181	-51
-85	-97	4
-120	2	16
-164	72	-1
-188	95	-18
-166	77	-15
-98	47	-34
-10	21	-50
60	-7	-80
78	-57	-53
37	-140	-9
-42	-245	0
-120	-330	-15
-165	-359	-48
-158	-318	-45
-109	-227	-37
-42	-131	-7
15	-79	12
44	-79	24
51	-108	25
48	-122	22
58	-84	22
98	10	42
161	126	95
212	219	121
208	257	118
113	240	10
-75	189	-64
-300	139	-62
-488	112	-148
-563	99	-219
-485	85	-232
-291	50	-71
-65	-4	58
101	-65	-13
155	-107	1
111	-106	6
38	-61	-52
13	19	-99
70	109	-142
190	182	-63
302	211	56
355	183	37
321	106	41
226	2	42
124	-90	-13
52	-134	-54
19	-119	-61
-5	-61	-19
-40	-1	14
-94	23	36
-139	-8	54
-145	-72	17
-99	-128	-63
-12	-130	-103
71	-64	-148
121	40	-213
127	137	-175
105	180	-75
87	163	-5
86	106	84
99	56	117
98	38	155
66	47	134
-1	52	47
-84	22	-40
-149	-43	-98
-174	-112	-121
-158	-131	-170
-117	-78	-126
-71	32	-75
-34	138	-43
1	170	-19
43	97	-30
99	-55	12
159	-207	22
202	-278	26
205	-230	18
150	-94	18
41	50	49
-102	117	27
-246	72	-11
-350	-48	-21
-392	-173	-21
-363	-224	-51
-268	-177	-48
-130	-64	-26
22	53	-10
162	127	8
268	144	17
321	125	9
320	95	-7
261	51	9
154	-24	13
7	-144	-8
-148	-291	-19
-279	-401	-29
-352	-404	-64
-348	-276	-82
-274	-60	-63
-165	137	-22
-66	222	9
-20	158	24
-29	6	0
-75	-119	-36
-104	-121	-49
-84	21	-66
2	229	-59
126	387	-65
242	406	-58
306	296	-27
302	127	-28
245	2	-38
171	-29	-21
111	7	-3
69	40	8
33	11	5
-19	-81	-22
-94	-176	-35
-172	-203	-24
-214	-131	-6
-195	1	6
-112	121	57
9	163	117
122	119	133
191	43	137
206	-2	112
179	22	34
142	92	-90
110	153	-190
89	159	-244
61	113	-227
12	60	-151
-62	52	-50
-153	98	56
-226	142	90
-257	110	70
-229	-46	52
-150	-292	-66
-40	-519	-179
63	-602	-188
138	-471	-173
169	-175	-105
154	152	-133
110	354	-126
57	343	-18
13	147	-32
-16	-115	-20
-33	-296	-10
-41	-315	26
-44	-182	24
-32	8	-19
2	152	44
63	194	35
132	144	6
181	65	7
178	10	0
105	1	-6
-19	12	17
-156	16	21
-251	1	-5
-274	-19	9
-223	-6	3
-135	47	-12
-58	125	-13
-26	178	-8
-41	169	-3
-72	86	16
-88	-39	30
-65	-151	15
-18	-209	14
21	-202	18
33	-158	-17
18	-110	-72
5	-88	-72
26	-92	-61
95	-98	-74
186	-87	-88
244	-47	-84
223	8	-37
110	58	-7
-56	85	5
-211	80	13
-300	56	-2
-305	25	-28
-250	3	-39
-177	-8	-28
-120	-11	-39
-77	-6	-10
-25	0	7
57	17	-1
165	44	19
261	83	-8
301	121	-57
256	148	-67
144	150	-63
15	119	-57
-72	61	-42
-95	-13	-38
-59	-83	-29
-10	-131	-16
10	-148	-14
-18	-132	-9
-81	-96	-12
-135	-53	-40
-148	-21	-62
-102	3	-29
-7	23	12
101	52	49
188	98	52
234	145	24
231	174	12
190	154	-1
126	74	-24
50	-51	-65
-28	-176	-66
-100	-248	-53
-154	-233	-43
-180	-133	-21
-174	10	-43
-136	143	-61
-81	223	-12
-20	235	28
35	193	11
80	122	8
121	43	39
163	-38	81
202	-118	46
229	-187	-4
230	-221	-64
190	-195	-119
107	-110	-161
0	7	-195
-112	101	-105
-197	126	20
-241	71	86
-239	-24	43
-207	-98	-47
-162	-103	-96
-115	-24	-163
-68	91	-218
-17	179	-147
36	188	1
81	110	118
93	-21	150
53	-151	98
-35	-240	34
-148	-276	-28
-230	-274	-102
-245	-251	-114
-177	-215	-106
-54	-162	-59
63	-83	19
128	16	49
118	110	79
61	171	71
10	183	75
7	150	63
52	96	9
111	46	-3
132	27	-65
86	33	-139
-8	54	-115
-101	67	-108
-145	61	-74
-125	33	-45
-69	-11	-87
-30	-51	-28
-37	-81	11
-80	-82	28
-117	-57	32
-95	-14	-6
-3	31	-36
127	64	-92
240	78	-69
285	68	-17
255	53	-5
178	43	-10
104	41	11
52	45	27
32	41	37
14	28	48
-22	3	58
-77	-15	69
-128	-15	42
-147	11	-21
-122	49	-74
-67	82	-57
-10	91	-30
26	64	-28
40	16	-47
42	-38	-76
53	-74	-55
74	-79	-13
96	-51	3
98	-4	32
70	40	36
21	60	20
-34	33	-9
-75	-38	-50
-100	-131	-85
-114	-203	-128
-129	-196	-118
-143	-94	-51
-143	77	6
-118	241	-7
-55	305	-49
31	221	-27
119	7	-30
184	-240	-96
231	-393	-75
266	-372	10
306	-184	-2
355	67	-10
389	250	15
363	261	5
233	115	0
-10	-97	-36
-328	-241	-48
-635	-229	-28
-836	-76	-17
-865	121	0
-707	237	15
-421	199	44
-108	25	43
138	-183	31
252	-316	-8
231	-312	-102
129	-186	-138
18	-22	-112
-46	95	-128
-48	119	-112
-14	66	-4
18	-5	15
20	-40	-2
-3	-14	12
-22	45	24
-12	100	42
42	110	16
118	74	-7
187	14	-46
221	-33	-74
212	-45	-62
184	-22	-63
155	16	-43
136	48	5
120	60	76
91	54	69
32	38	-16
-46	22	-32
-119	8	-20
-163	-7	-61
-159	-25	-106
-113	-44	-78
-47	-54	-19
16	-49	-23
64	-23	-3
98	15	37
122	60	41
141	98	26
151	123	-6
140	134	-40
105	130	-99
46	113	-52
-21	82	22
-83	35	-20
-125	-23	-54
-152	-86	-88
-158	-142	-89
-156	-186	-40
-136	-201	1
-99	-190	53
-44	-145	90
24	-78	77
91	10	32
140	96	-15
159	158	-87
143	180	-114
106	155	-99
52	98	-65
1	31	-9
-50	-18	2
-97	-33	-42
-139	-25	-93
-170	-13	-117
-179	-23	-82
-155	-56	-37
-92	-98	-5
-4	-111	17
92	-70	-2
175	24	-4
234	149	6
262	251	4
265	286	-22
252	233	-30
212	105	-9
139	-49	15
24	-185	29
-129	-261	20
-288	-274	11
-404	-242	9
-436	-201	6
-377	-173	-20
-248	-159	-34
-110	-144	-32
-18	-100	-44
1	-17	-34
-41	96	-7
-101	200	21
-132	254	34
-103	239	46
-22	160	42
80	57	1
164	-25	-43
203	-58	-72
186	-56	-105
120	-46	-140
19	-67	-139
-96	-130	-82
-194	-210	-12
-251	-263	36
-242	-250	68
-163	-171	58
-34	-54	47
107	48	48
219	101	-10
271	104	-78
263	83	-132
219	77	-151
161	105	-91
107	159	-60
61	197	-25
12	183	-8
-44	106	-50
-101	-17	-1
-137	-138	32
-138	-211	-11
-97	-201	3
-27	-110	-17
46	35	-63
107	183	-144
135	279	-163
138	290	-98
128	201	-59
118	47	18
111	-111	71
104	-210	71
88	-208	22
57	-117	19
17	9	29
-31	92	-7
-72	86	-10
-106	-2	-1
-126	-114	-2
-133	-170	1
-130	-123	-1
-114	16	-5
-79	178	-12
-22	286	-34
52	290	-72
129	197	-100
189	65	-42
204	-44	-17
162	-97	-20
59	-97	3
-78	-80	24
-222	-78	20
-332	-100	-25
-374	-123	-49
-337	-125	-61
-228	-90	-34
-76	-34	-2
69	20	19
163	50	-5
181	57	-41
126	59	-34
34	72	-59
-41	104	-44
-65	121	-13
-28	93	-13
43	-4	17
109	-155	115
133	-304	151
113	-387	54
66	-353	-61
25	-205	-127
4	-3	-167
-7	169	-198
-31	233	-155
-81	171	-65
-144	22	5
-181	-127	-7
-159	-196	45
-71	-153	91
48	-21	53
144	116	14
170	191	-46
123	162	-69
37	62	-106
-33	-45	-87
-54	-96	9
-28	-68	54
14	6	59
34	72	34
22	85	-2
-8	48	-60
-23	-3	-99
0	-18	-50
49	22	-39
102	92	-70
120	137	-56
95	115	-43
40	30	-39
-20	-71	-24
-61	-130	-9
-88	-108	-5
-107	-29	-10
-129	51	-14
-145	76	-81
-133	20	-125
-72	-77	-46
39	-145	-40
171	-127	-38
278	-11	21
319	157	34
277	289	83
175	320	82
52	230	56
-53	51	28
-124	-137	-17
-164	-270	-16
-191	-304	-22
-226	-251	-42
-260	-149	-36
-279	-50	-30
-260	6	-50
-197	16	-49
-95	0	-35
21	-8	-10
125	18	1
192	89	-38
210	182	-59
182	252	-24
117	261	-53
39	191	-71
-37	57	-14
-94	-93	-26
-122	-207	-41
-119	-249	-45
-88	-227	-32
-43	-165	8
5	-115	10
41	-99	-50
60	-111	-79
60	-114	-25
42	-75	-19
15	8	-31
-13	110	-39
-28	180	-30
-21	183	4
12	123	1
59	38	-13
111	-19	-32
147	-24	-14
151	12	-7
130	43	21
91	34	36
52	-21	2
22	-79	-5
1	-85	-26
-23	-12	-51
-59	117	-34
-109	233	20
-160	268	32
-191	195	7
-184	47	23
-131	-104	74
-52	-199	72
31	-222	10
86	-207	-40
101	-205	-104
77	-240	-210
29	-279	-233
-18	-271	-174
-51	-177	-90
-64	-11	-10
-61	155	-3
-48	244	-2
-24	215	-5
4	106	-5
40	-14	8
69	-70	28
91	-34	40
90	48	-1
72	116	-8
46	115	34
23	53	84
12	-22	65
11	-59	-58
12	-38	-155
8	16	-124
-4	58	-79
-20	55	-109
-32	18	-101
-33	-13	-81
-30	-3	-69
-29	57	1
-39	130	100
-54	174	126
-61	165	123
-45	119	158
-1	79	115
56	79	-35
107	114	-259
133	138	-307
145	97	-190
155	-41	-110
178	-242	4
210	-425	68
215	-510	33
148	-451	-58
-17	-278	-135
-253	-67	-103
-491	98	-9
-638	177	53
-626	182	76
-459	168	79
-212	182	85
24	236	111
159	287	111
171	276	84
97	165	-52
9	-29	-259
-37	-232	-209
-23	-346	-71
22	-322	-34
61	-178	20
72	10	4
68	136	9
84	138	44
139	21	60
231	-137	66
314	-249	40
341	-246	-8
270	-133	-26
117	24	-70
-68	148	-160
-221	183	-140
-278	129	-67
-232	21	-53
-105	-82	-40
44	-147	-15
170	-160	-1
245	-137	-15
277	-94	-41
280	-38	-5
269	27	51
241	101	85
172	171	37
44	227	-46
-141	244	-113
-360	213	-119
-556	139	-37
-667	33	-2
-652	-89	29
-526	-206	31
-330	-292	18
-138	-329	9
-7	-297	-56
49	-200	-82
55	-64	-57
66	69	-11
128	156	-19
257	171	-42
423	136	-35
560	81	-24
599	51	-31
493	69	-35
258	122	-16
-47	170	-17
-321	173	41
-485	117	57
-472	18	38
-308	-82	13
-75	-141	-14
127	-143	-14
206	-97	-52
144	-30	-33
-6	28	-29
-151	62	-40
-201	78	-38
-133	83	-83
17	92	-91
163	105	-111
234	119	-78
200	125	-5
98	110	26
-12	68	16
-78	-13	22
-87	-125	20
-69	-245	-23
-61	-325	-5
-83	-325	-35
-113	-228	-53
-121	-59	-63
-79	109	-87
14	201	-82
128	169	-61
236	38	-25
309	-112	-16
346	-188	-7
355	-135	-26
329	15	-78
254	179	-118
116	257	21
-78	202	140
-281	51	141
-429	-102	113
-465	-163	19
-383	-105	-7
-221	25	-87
-60	139	-171
31	160	-39
34	77	162
-16	-54	183
-56	-149	109
-38	-152	-1
39	-70	-9
132	29	-127
184	74	-397
165	25	-255
93	-93	0
10	-210	65
-36	-257	-45
-46	-205	-253
-53	-81	-268
-103	47	-176
-209	121	-22
-333	109	16
-405	37	-25
-358	-40	15
-194	-70	72
39	-32	107
245	57	123
342	147	129
323	185	6
222	145	-35
111	40	-48
41	-85	-94
12	-171	-62
-10	-185	-24
-61	-123	56
-141	-23	46
-222	63	34
-243	93	31
-172	58	-36
-15	-11	-67
190	-62	-72
373	-57	-47
484	10	-19
494	110	26
391	193	19
190	215	-15
-67	171	-35
-325	80	-63
-524	-16	-67
-589	-87	-50
-502	-120	-59
-296	-128	-58
-47	-125	-24
149	-121	21
234	-111	52
209	-85	25
128	-40	49
64	13	52
64	55	13
127	81	2
216	93	36
280	104	59
299	129	18
258	157	-13
175	169	-61
53	135	-95
-97	51	-105
-263	-61	-84
-415	-161	-85
-487	-200	-88
-445	-166	-40
-282	-79	36
-52	12	115
160	67	79
278	75	-49
271	56	-159
176	50	-229
64	72	-249
-8	106	-214
-17	110	-102
6	40	74
20	-100	178
-6	-257	174
-58	-345	152
-100	-300	101
-97	-120	75
-45	117	-25
18	299	-167
49	331	-161
25	188	-100
-41	-51	-16
-107	-265	15
-126	-345	2
-89	-256	-9
-15	-60	-7
53	120	-43
82	183	-72
69	98	-102
40	-80	-71
19	-236	-26
17	-275	-75
23	-171	-63
12	21	-86
-28	196	-60
-84	269	-65
-129	211	-62
-132	67	5
-85	-81	20
-5	-159	24
77	-144	20
132	-65	45
156	28	48
156	88	30
148	101	5
132	80	15
97	49	41
27	20	8
-79	-9	-39
-189	-43	-51
-258	-82	-11
-236	-107	8
-108	-100	-4
95	-53	-5
300	17	-9
425	85	-10
411	127	-11
253	131	39
5	116	3
-252	100	-92
-428	96	-68
-473	93	-36
-392	61	-35
-238	-14	-65
-81	-127	-53
26	-237	4
59	-290	9
40	-249	46
2	-121	54
-23	47	-54
-16	194	-107
20	269	-83
72	269	-116
126	227	-74
176	188	-30
216	182	-17
244	201	40
241	208	24
200	162	7
121	52	-35
14	-93	-71
-93	-215	-130
-174	-268	-168
-204	-243	-100
-166	-170	-86
-66	-108	-3
79	-95	51
234	-130	25
346	-175	14
373	-179	16
283	-119	81
87	-13	112
-163	85	142
-388	129	130
-526	97	52
-532	12	-66
-439	-82	-107
-308	-150	-87
-203	-185	-124
-162	-204	-107
-163	-222	-30
-163	-230	13
-113	-201	-25
-2	-110	-91
140	40	-150
269	208	-150
338	329	-37
334	353	45
275	279	56
192	152	126
103	32	142
22	-33	108
-56	-42	42
-127	-32	-205
-174	-37	-395
-181	-74	-195
-142	-123	-15
-72	-144	57
1	-113	59
54	-29	-47
80	77	-4
88	164	-56
100	201	-74
127	186	-40
162	127	-82
190	41	-92
186	-46	-104
151	-127	-56
90	-181	0
22	-190	16
-34	-145	23
-80	-57	67
-114	38	72
-140	110	32
-149	127	1
-133	97	-55
-85	43	-142
-11	4	-125
72	1	32
148	26	54
198	56	16
216	60	-4
198	37	-44
145	0	-14
60	-27	21
-46	-31	50
-154	-17	-2
-239	-2	-44
-271	-2	-7
-245	-11	11
-168	-11	38
-70	21	51
12	85	22
64	154	-9
84	190	3
87	164	16
85	80	35
83	-24	16
75	-93	-53
50	-87	-56
12	-5	-37
-29	112	-18
-49	207	4
-30	230	-5
30	163	16
114	26	22
191	-135	-13
225	-280	-56
184	-378	-71
62	-418	-54
-120	-400	-68
-318	-330	-79
-463	-218	-93
-504	-84	-80
-419	41	-15
-237	121	-18
-33	122	-27
104	45	33
125	-77	93
31	-190	102
-111	-241	47
-215	-210	-86
-221	-116	-211
-122	-6	-231
24	76	-210
147	108	-150
200	103	-8
186	89	40
150	90	24
138	109	69
167	129	152
202	131	91
203	116	-81
140	98	-64
32	98	-88
-77	121	-102
-138	152	-76
-139	158	-132
-101	113	-18
-67	21	8
-68	-84	28
-99	-159	103
-120	-176	108
-99	-133	59
-26	-64	-51
71	-7	-107
152	12	-273
181	-6	-318
159	-35	-126
111	-53	-76
74	-44	-99
60	-14	63
60	21	176
51	45	122
14	48	90
-40	37	37
-91	16	32
-101	4	1
-61	16	16
12	74	119
91	187	104
140	335	39
148	474	-84
118	529	-202
75	438	-312
39	189	-332
16	-160	-144
8	-497	-17
1	-690	53
-10	-666	97
-23	-449	111
-34	-157	135
-40	72	138
-40	140	178
-36	47	155
-31	-112	91
-20	-214	-4
4	-178	-26
49	-16	6
111	174	-13
166	290	6
184	262	-11
138	118	-60
26	-49	-149
-126	-148	-214
-261	-130	-198
-328	-37	-154
-300	48	-43
-181	50	43
-30	-51	-8
91	-204	-93
125	-326	-77
54	-342	-68
-91	-234	-79
-256	-45	-51
-370	150	-59
-382	275	-56
-288	298	-16
-126	215	21
36	83	60
135	-51	26
136	-135	15
50	-144	-17
-75	-87	-80
-169	3	-51
-190	80	-20
-129	109	26
-26	82	24
71	27	-4
122	-18	-12
120	-22	-27
94	20	-31
79	77	-4
105	116	-25
172	110	-15
262	71	16
340	30	-68
381	10	-69
371	16	-9
301	16	-21
175	-19	-24
1	-100	-37
-191	-191	-27
-362	-238	-15
-455	-196	-18
-436	-74	14
-308	77	-26
-116	183	-9
69	194	39
198	126	-19
237	35	-58
214	-8	-61
175	25	-44
159	106	9
172	170	69
187	162	124
162	76	119
76	-46	-24
-57	-136	-49
-191	-152	60
-279	-97	41
-282	-18	52
-212	31	74
-97	32	19
16	5	-190
96	-11	-283
132	17	-155
139	88	-183
139	171	-251
140	230	-238
142	251	-170
125	236	-68
77	197	55
-11	138	97
-120	50	60
-222	-78	14
-285	-229	-18
-285	-362	-66
-225	-419	-116
-115	-376	14
26	-261	109
178	-144	76
337	-101	82
481	-150	56
569	-248	-27
547	-300	-45
363	-234	15
15	-54	-11
-422	150	-39
-816	259	14
-1032	191	31
-980	-34	-2
-691	-297	-67
-285	-445	-71
66	-388	-56
245	-149	-136
219	155	-194
74	372	-150
-62	410	-39
-93	287	-3
0	96	19
147	-45	49
252	-75	48
254	-5	65
159	93	86
32	144	98
-56	124	61
-69	53	14
-23	-15	13
36	-41	49
71	-14	94
74	43	79
70	98	-44
91	130	-127
151	132	-97
230	117	-124
294	92	-177
318	63	-173
292	37	-86
236	17	51
159	13	31
70	23	-30
-32	43	0
-145	52	-31
-259	37	-11
-345	1	-15
-369	-44	-26
-318	-66	-6
-203	-51	-26
-64	-5	-46
55	50	-83
129	85	-11
159	87	51
162	62	85
160	34	53
169	10	30
178	-12	63
174	-53	42
138	-121	57
65	-203	30
-36	-264	-28
-148	-265	-64
-239	-192	-85
-291	-63	-126
-288	66	-186
-230	150	-181
-125	162	-147
-2	119	-139
111	58	-157
184	12	-137
204	-8	-52
181	-17	8
142	-29	98
131	-45	134
170	-51	116
253	-24	86
337	32	32
346	95	33
230	119	-10
-30	77	-30
-379	-24	-45
-697	-150	-60
-855	-249	-79
-781	-291	-113
-481	-281	-130
-69	-249	-158
302	-219	-142
506	-199	-92
484	-173	24
280	-118	91
6	-35	85
-241	51	93
-388	103	52
-428	97	-2
-392	41	-14
-320	-17	44
-214	-37	41
-77	3	-1
84	88	-23
239	174	-53
330	227	-25
320	233	-49
211	217	-92
58	215	-111
-65	248	-167
-106	295	-150
-59	305	-113
32	243	-14
109	89	121
132	-120	192
109	-313	171
64	-417	26
38	-390	125
40	-251	158
51	-60	19
55	106	-45
40	201	-207
24	212	-213
30	166	-107
74	110	-177
133	71	-171
183	58	20
187	48	84
134	18	75
52	-36	20
-26	-101	-57
-75	-139	-99
-88	-133	-173
-92	-80	-124
-100	-4	-40
-126	57	-24
-147	80	-37
-137	58	-32
-82	20	-7
15	-6	-13
122	3	-45
212	42	-14
268	87	2
288	106	9
280	80	74
248	10	25
180	-79	13
63	-152	62
-102	-187	78
-296	-182	68
-470	-143	33
-562	-100	41
-538	-64	96
-398	-48	102
-181	-46	16
48	-45	-76
229	-41	-128
328	-25	-109
336	-5	-112
270	12	-119
169	19	-153
68	15	-219
5	-2	-197
1	-33	-112
52	-72	15
129	-118	53
170	-157	64
111	-173	81
-75	-152	0
-366	-95	-25
-665	-16	16
-853	61	50
-844	113	60
-627	129	84
-277	116	81
81	97	79
325	89	61
399	98	43
329	116	33
203	122	-71
107	103	-93
82	55	-155
107	-5	-238
127	-57	-168
105	-90	-195
36	-95	-176
-41	-76	-34
-80	-39	163
-56	3	245
18	50	188
105	93	112
170	119	-24
203	126	-157
211	108	-300
215	77	-272
225	41	-30
231	20	77
212	10	38
161	4	-32
76	-6	-149
-26	-32	-161
-116	-60	-133
-182	-80	-93
-212	-79	-21
-209	-50	15
-168	-8	59
-98	29	22
-6	51	-45
86	62	-55
150	68	-78
172	80	-88
151	97	-13
109	109	95
69	105	105
52	85	49
53	66	-13
46	68	-8
5	95	41
-80	126	40
-186	121	39
-259	51	10
-241	-87	-5
-104	-246	8
135	-354	24
398	-358	40
579	-252	-16
600	-92	-104
433	36	-114
136	68	-97
-178	-1	-68
-393	-120	-18
-443	-210	22
-350	-219	68
-215	-157	29
-168	-77	-10
-273	-44	-20
-500	-84	-42
-727	-170	-35
-821	-238	-58
-691	-238	-27
-377	-169	37
7	-70	100
312	4	172
436	31	202
388	31	187
245	48	19
121	110	-118
77	203	-150
110	269	-213
172	257	-194
216	153	-111
213	0	-11
181	-122	-21
137	-148	39
97	-65	122
47	76	19
-14	199	-160
-81	247	-364
-118	215	-270
-100	138	-260
-27	74	-409
66	48	-241
121	55	-22
101	61	147
12	42	267
-90	-4	243
-145	-58	213
-129	-90	260
-59	-90	162
12	-66	-97
42	-42	-300
31	-26	-313
16	-13	-176
40	11	-168
116	58	-141
212	122	-137
269	183	-84
245	213	18
143	205	13
15	155	87
-84	78	110
-112	-15	138
-85	-114	124
-46	-207	81
-37	-273	76
-65	-289	77
-98	-243	31
-91	-144	5
-20	-27	79
90	64	52
182	105	49
210	102	-8
148	90	-80
31	110	-106
-82	165	-140
-126	227	-92
-80	238	-47
33	168	-21
155	22	-36
225	-135	-25
200	-237	5
89	-243	47
-61	-165	22
-185	-66	-49
-229	-9	-3
-178	-18	13
-69	-70	-21
28	-117	-8
44	-127	-18
-45	-110	-51
-214	-111	-68
-378	-168	-47
-448	-282	-40
-392	-395	-53
-236	-441	-62
-72	-359	-88
12	-175	-59
-22	38	-14
-132	187	-19
-230	218	1
-236	156	28
-125	78	1
54	63	-81
216	147	-72
302	291	-14
306	416	47
277	445	177
263	354	263
285	187	179
302	15	16
260	-95	-196
119	-125	-408
-79	-99	-449
-263	-62	-349
-353	-51	-162
-311	-66	44
-173	-88	184
-11	-84	213
104	-48	236
154	13	106
163	79	-91
170	133	-150
190	174	-142
199	202	-84
165	209	-99
67	177	-61
-60	89	15
-167	-55	4
-199	-227	9
-151	-368	8
-62	-421	-32
4	-356	-132
7	-196	-176
-43	-1	-17
-99	151	33
-106	211	-91
-43	177	-28
62	83	20
167	-6	-18
226	-51	29
237	-31	64
216	25	104
194	85	41
171	110	39
128	89	80
41	27	70
-91	-53	107
-237	-121	8
-345	-156	-47
-369	-140	-53
-300	-76	-64
-176	20	-41
-34	119	-25
90	193	-9
195	219	-51
292	197	-59
373	142	-56
411	83	-51
351	38	-71
167	13	-40
-113	-13	-19
-393	-64	-12
-579	-163	68
-589	-299	-1
-431	-437	-35
-195	-527	-14
-1	-517	-13
68	-394	-2
5	-192	-58
-118	31	-55
-197	207	-77
-165	296	-153
-20	295	-200
164	244	-176
297	197	-87
314	177	-48
210	171	-1
44	139	-4
-116	49	-6
-201	-91	7
-200	-225	-4
-134	-274	13
-37	-187	56
61	19	130
161	256	171
269	415	204
394	421	201
504	284	91
545	85	-64
466	-68	-176
237	-119	-207
-100	-78	-211
-452	-16	-163
-702	-15	-2
-772	-97	122
-645	-224	86
-399	-312	53
-144	-303	-65
19	-196	-209
56	-49	-215
13	56	-160
-32	80	-75
-11	35	-58
90	-16	-48
225	-13	14
334	58	104
363	160	94
316	228	46
229	221	-27
144	141	-107
86	36	-69
38	-41	-28
-16	-66	4
-92	-48	37
-161	-24	14
-189	-21	-77
-152	-43	-75
-54	-70	-44
59	-79	-6
140	-60	10
155	-29	-7
115	-6	4
50	-4	-135
4	-14	-97
-10	-21	72
0	-11	61
6	8	27
-10	26	47
-43	33	61
-68	45	-29
-52	80	-70
22	150	-95
154	237	-144
302	294	-96
428	272	-58
476	155	-43
406	-19	-59
211	-181	-45
-77	-263	-43
-385	-248	-41
-621	-178	-33
-708	-123	-9
-632	-140	28
-443	-224	68
-245	-320	62
-144	-362	-9
-174	-314	5
-295	-205	-12
-392	-96	-48
-371	-45	-56
-198	-58	-15
69	-95	78
313	-92	152
425	-19	130
390	103	85
266	215	76
163	274	-32
151	270	-158
228	244	-186
309	239	-124
299	262	-1
158	275	119
-71	215	169
-285	53	119
-383	-165	-8
-330	-345	-150
-173	-379	-198
-1	-235	-208
107	18	-332
141	257	-186
135	362	112
143	300	70
188	129	-40
242	-31	-142
260	-97	-132
198	-59	38
74	16	78
-64	36	58
-160	-33	84
-177	-159	40
-136	-249	-76
-86	-236	-130
-65	-119	-85
-81	28	-23
-103	114	-14
-92	84	9
-28	-30	85
69	-136	42
166	-148	-79
214	-38	-210
207	133	-252
158	265	-135
96	279	-63
41	174	60
-4	15	118
-50	-100	91
-106	-115	89
-163	-39	-46
-201	57	-116
-198	104	-61
-154	65	-40
-81	-30	77
-4	-120	192
57	-151	274
103	-106	241
137	-13	38
171	82	-124
199	143	-289
210	169	-356
188	179	-202
131	195	-62
56	223	22
-15	244	86
-46	238	41
-27	179	22
36	69	-45
118	-77	-48
175	-232	3
172	-362	9
102	-452	24
-26	-476	24
-169	-443	53
-280	-362	30
-342	-263	-11
-361	-173	-24
-371	-102	-35
-407	-52	-97
-480	-9	-99
-561	31	4
-581	65	116
-503	70	127
-312	28	49
-60	-60	60
170	-160	19
317	-215	-75
363	-182	-169
346	-50	-200
326	139	-66
335	316	-81
363	419	-143
357	424	-153
269	353	-195
99	254	-112
-104	160	7
-252	81	123
-291	-12	207
-217	-127	115
-86	-261	22
27	-361	-60
72	-374	-140
59	-270	-153
32	-72	-125
42	149	-133
106	317	-176
194	382	-139
253	345	-119
245	253	16
175	149	125
82	55	107
17	-30	113
7	-117	65
33	-196	36
61	-240	-9
55	-212	-23
9	-107	-9
-55	37	-8
-105	153	-66
-115	185	-135
-95	122	-21
-63	10	20
-47	-86	-8
-49	-110	12
-53	-61	-74
-38	12	-108
4	58	-140
60	45	-92
105	-8	54
109	-62	58
69	-76	97
4	-39	122
-60	16	107
-101	52	98
-108	45	12
-86	3	-69
-44	-48	-95
15	-81	-109
87	-78	-126
167	-52	17
232	-18	79
251	10	47
202	33	112
86	51	94
-60	57	40
-189	43	7
-250	2	19
-235	-49	-27
-168	-88	-194
-96	-82	-252
-55	-36	-131
-48	19	-57
-56	30	-48
-53	-36	22
-37	-163	117
-26	-289	151
-48	-326	41
-111	-229	-26
-183	-14	-101
-222	228	-86
-188	385	46
-92	388	127
16	240	41
69	21	-268
31	-169	-349
-71	-258	-345
-172	-240	-282
-195	-162	-64
-110	-87	5
49	-51	54
209	-45	30
301	-36	34
301	7	21
236	85	-19
163	164	10
116	213	14
101	211	-64
85	171	-120
40	117	-88
-36	67	-80
-113	25	-70
-144	-29	-141
-115	-101	-130
-40	-185	-19
29	-245	75
50	-244	134
14	-171	164
-51	-42	180
-93	95	191
-80	195	162
-4	235	54
97	233	-8
175	228	-88
205	250	-123
178	305	-139
124	353	-52
77	345	94
60	244	107
74	59	104
103	-158	39
119	-334	-35
99	-411	-101
31	-384	-129
-83	-292	-169
-212	-206	-173
-318	-174	-112
-353	-206	-64
-289	-263	4
-142	-292	-23
38	-254	-26
171	-150	-12
195	-27	3
98	60	14
-65	81	15
-200	41	63
-223	-8	82
-110	-27	63
85	10	13
248	88	-2
279	170	-60
151	215	-104
-93	213	12
-325	177	134
-432	124	124
-358	80	64
-128	41	2
151	6	-83
363	-33	-154
420	-66	-196
310	-81	-178
85	-63	-168
-167	-15	-84
-363	47	90
-450	101	124
-415	121	150
-288	98	151
-116	33	-48
55	-61	-344
193	-159	-446
288	-227	-261
344	-230	-106
369	-154	9
366	-11	90
335	160	199
265	291	249
150	332	104
2	261	18
-158	121	-57
-281	-20	-84
-339	-101	-54
-319	-98	-18
-244	-45	-62
-153	-4	-158
-83	-25	-128
-46	-112	-116
-25	-218	-63
10	-280	-34
75	-254	60
162	-152	184
234	-17	144
250	85	188
194	123	104
85	110	-38
-34	80	-201
-112	70	-395
-132	91	-420
-102	118	-227
-49	121	2
2	84	39
50	22	102
107	-32	99
188	-46	50
273	-13	-42
326	46	-90
301	93	-36
179	101	-14
-13	67	8
-211	15	26
-343	-29	72
-369	-48	61
-295	-48	32
-182	-57	-4
-99	-97	4
-86	-171	34
-133	-261	11
-191	-322	52
-215	-320	106
-172	-234	99
-80	-92	34
15	57	-57
75	157	-134
81	169	-163
55	105	-142
34	11	-67
42	-48	53
83	-36	151
125	45	195
139	139	186
101	187	225
24	154	207
-64	60	62
-132	-30	-69
-153	-60	-211
-130	-13	-384
-77	70	-485
-7	110	-369
67	60	-177
136	-70	-111
197	-202	-88
232	-242	-118
226	-145	-104
172	43	-26
78	215	0
-36	270	34
-137	164	58
-198	-37	29
-213	-216	-27
-185	-271	-11
-133	-186	22
-66	-32	63
12	82	92
99	96	127
195	29	155
279	-38	152
330	-25	51
312	86	-134
221	233	-103
72	322	-80
-95	286	-69
-223	140	49
-285	-37	66
-272	-166	79
-215	-202	-82
-150	-171	-168
-104	-130	-140
-80	-125	-242
-55	-149	-172
-8	-154	-44
74	-96	12
181	23	47
287	161	-29
361	258	-108
383	279	-76
352	254	-7
277	228	-17
171	230	11
40	244	63
-101	208	45
-228	63	-8
-308	-184	-32
-316	-449	44
-253	-602	109
-149	-546	-1
-67	-282	-60
-62	67	-14
-161	349	-46
-330	435	-15
-497	313	28
-588	68	26
-545	-170	14
-377	-309	1
-148	-341	-1
65	-321	-6
199	-317	0
240	-342	15
214	-354	14
171	-294	-10
148	-136	-9
151	77	-60
162	256	-133
159	324	-159
126	275	-122
81	169	-62
52	93	26
59	106	91
107	197	115
169	289	164
211	311	167
206	227	96
151	62	3
67	-119	-75
-11	-260	-168
-58	-336	-206
-71	-351	-202
-60	-316	-189
-46	-233	-162
-37	-101	-58
-31	71	49
-15	244	15
26	362	-96
86	370	-162
147	269	-107
178	119	-25
163	-6	96
101	-50	-21
11	-16	-145
-76	38	-97
-137	45	-99
-159	-27	36
-149	-151	70
-113	-256	26
-58	-276	9
14	-196	-84
111	-56	-94
222	74	51
323	143	183
373	150	229
341	132	204
216	133	108
24	171	-7
-187	221	-185
-363	236	-243
-465	179	-223
-481	62	-245
-419	-69	-235
-306	-163	-161
-162	-182	-30
-11	-141	6
117	-81	33
194	-47	16
181	-56	-11
72	-97	24
-106	-133	48
-287	-142	95
-389	-122	72
-353	-92	48
-189	-71	89
37	-64	115
216	-59	72
269	-40	6
181	-3	-11
5	29	-3
-155	31	-6
-213	-17	-9
-152	-94	19
-12	-148	33
115	-119	24
161	18	14
107	228	7
0	417	-1
-87	483	-19
-93	365	-28
-6	87	-41
135	-246	-23
262	-490	-80
325	-549	-229
299	-405	-236
200	-142	-188
74	108	-170
-39	244	-67
-115	240	45
-143	150	113
-130	67	121
-91	66	109
-35	143	100
19	233	44
63	252	-40
87	154	-138
96	-32	-153
96	-228	-71
99	-340	-16
113	-330	83
138	-218	76
169	-78	21
194	17	61
211	35	40
210	-6	26
183	-54	-58
114	-64	-49
-10	-24	4
-184	47	-42
-382	110	-121
-540	144	-241
-611	144	-242
-550	128	-260
-370	109	-122
-127	93	-84
102	69	-208
245	31	-152
285	-15	-221
237	-52	-169
142	-60	-24
45	-35	38
-31	12	83
-85	57	38
-113	77	83
-110	66	92
-72	37	71
-1	8	87
75	-9	70
120	-12	71
101	-12	65
21	-15	83
-79	-21	100
-148	-24	81
-147	-24	3
-85	-27	-71
-3	-43	-72
50	-74	-37
56	-104	-41
38	-103	-39
36	-53	-32
80	43	-18
144	149	60
180	213	110
133	202	100
3	115	90
-151	-6	46
-245	-118	14
-202	-192	52
-36	-240	30
178	-292	-26
329	-370	-59
331	-451	-131
184	-478	-136
-50	-400	-82
-264	-213	-75
-387	21	-88
-388	201	-142
-300	252	-80
-173	168	38
-45	28	124
64	-61	263
163	-26	275
239	126	152
279	305	-69
267	413	-289
200	390	-419
102	265	-413
12	120	-210
-38	34	-39
-43	28	19
-22	57	39
-5	56	29
2	-16	6
16	-127	56
67	-204	56
170	-178	-89
290	-41	-145
355	142	-109
292	287	-58
86	323	-51
-221	244	-111
-496	103	-100
-626	-28	-99
-561	-111	-86
-342	-154	84
-101	-179	175
35	-215	133
10	-245	6
-139	-238	-98
-291	-173	-127
-332	-66	-192
-217	20	-164
4	36	-110
219	-30	0
334	-131	26
314	-191	20
206	-147	112
92	-4	76
35	166	-23
42	269	-38
78	248	59
86	120	74
49	-37	70
-17	-127	98
-71	-104	69
-85	8	55
-58	138	-21
-17	213	-113
16	204	-174
39	138	-116
75	70	-32
139	43	-43
238	61	-3
333	106	72
387	153	141
363	186	155
262	204	126
126	192	74
-10	120	61
-108	-44	60
-165	-292	-49
-193	-557	-158
-213	-718	-273
-227	-676	-262
-229	-403	-109
-212	-4	77
-170	344	164
-112	483	91
-45	354	29
19	43	-46
80	-277	-91
121	-443	-67
134	-401	-81
102	-227	-114
14	-57	-87
-103	-4	-82
-213	-66	-68
-264	-160	-33
-233	-171	-7
-119	-56	13
29	126	-26
151	269	-41
202	284	-22
164	171	-6
64	16	-47
-62	-64	-124
-180	-12	-86
-263	140	26
-317	295	74
-331	345	46
-304	261	-46
-235	90	-116
-134	-71	-62
-20	-151	-66
67	-135	-89
105	-72	-45
97	-24	-55
66	-23	-76
52	-56	-72
81	-80	-77
149	-55	-136
234	16	-84
292	99	-15
310	153	-18
280	157	51
225	123	58
163	90	68
106	85	38
50	106	-24
-7	129	-56
-65	117	-7
-111	53	74
-125	-51	84
-99	-159	130
-34	-226	127
44	-225	91
117	-154	30
165	-43	26
180	72	66
172	150	16
150	166	-64
109	122	-96
50	39	-175
-22	-38	-161
-95	-63	-130
-145	-1	-119
-152	149	1
-111	341	29
-37	485	37
33	490	-24
64	295	-91
39	-79	-105
-35	-521	-104
-134	-879	-7
-225	-1007	79
-279	-854	60
-282	-490	25
-240	-78	9
-158	207	-22
-51	264	-71
59	106	-87
153	-131	43
203	-304	155
182	-315	219
85	-177	201
-81	5	37
-272	120	-136
-428	111	-306
-491	21	-391
-428	-55	-333
-251	-33	-141
-7	103	61
229	279	142
393	398	155
451	391	145
401	272	86
284	116	24
148	11	-27
25	2	-259
-65	56	-425
-126	106	-197
-166	95	18
-187	12	90
-182	-92	91
-145	-152	24
-74	-126	-20
14	-31	13
99	79	68
158	149	13
187	151	-26
195	104	-48
190	46	-60
182	16	-38
163	14	-86
122	21	-211
52	8	-227
-35	-31	-143
-119	-77	-72
-169	-97	9
-165	-62	40
-113	19	48
-34	117	80
41	187	78
97	192	106
125	131	155
136	33	142
151	-58	67
175	-107	-4
211	-92	-24
238	-29	-13
232	47	-9
170	96	-1
39	87	6
-139	17	-17
-324	-94	-41
-455	-199	-45
-487	-250	-32
-394	-210	-23
-216	-67	9
-12	141	22
153	354	-17
229	487	-59
228	472	-79
200	282	-100
201	-43	-97
253	-413	-69
320	-709	-56
331	-823	-58
226	-725	-94
-7	-466	-49
-318	-163	2
-616	57	4
-805	116	21
-840	15	19
-736	-158	48
-546	-288	82
-329	-286	118
-131	-139	169
42	84	151
198	282	18
328	372	-141
416	345	-310
432	244	-472
368	139	-454
231	89	-241
67	93	-52
-79	115	85
-168	106	194
-189	51	152
-159	-28	53
-100	-83	-42
-33	-80	-70
33	-15	-7
98	76	161
163	145	310
221	166	237
259	140	126
269	99	-116
245	70	-206
200	64	-213
139	70	-409
80	59	-184
21	24	-12
-30	-27	-40
-75	-61	56
-108	-56	-19
-126	-13	-6
-124	43	-59
-97	68	-181
-48	40	-109
14	-38	-86
83	-118	-72
145	-152	-65
199	-111	29
230	-13	130
237	85	120
216	123	144
175	75	99
115	-32	68
35	-133	32
-58	-159	15
-168	-72	9
-269	95	-24
-345	276	-50
-366	392	-35
-318	400	8
-208	305	4
-67	153	22
63	-4	-14
159	-135	-48
214	-234	-34
262	-313	-46
333	-375	-40
429	-406	-49
506	-384	-43
493	-304	-9
314	-187	-28
-34	-83	-34
-469	-44	-26
-844	-88	-69
-1026	-186	-58
-934	-271	-11
-611	-279	17
-194	-185	-5
155	-18	-20
311	151	22
262	252	22
91	253	8
-95	169	-4
-206	57	-6
-224	-33	-44
-189	-75	-93
-150	-79	-133
-132	-74	-105
-118	-78	-28
-72	-86	-74
17	-66	-45
132	-3	119
226	106	161
262	225	84
237	301	78
187	311	171
160	250	108
184	158	-30
245	82	-116
300	51	-264
306	60	-341
251	80	-387
150	80	-341
38	42	-76
-50	-17	120
-111	-72	139
-149	-97	173
-172	-87	59
-182	-53	-84
-162	-21	-153
-104	-3	-195
-16	0	-246
77	2	-371
138	23	-208
155	68	61
132	131	133
97	190	224
68	206	208
56	164	120
44	59	69
18	-85	-1
-28	-225	-23
-80	-312	8
-105	-315	61
-88	-235	96
-27	-102	80
46	27	28
98	111	-10
102	134	-22
57	123	-4
-12	119	-35
-75	149	-44
-108	201	4
-111	223	9
-89	161	10
-54	-6	-23
-17	-233	-89
28	-427	-58
78	-492	-11
133	-375	-26
175	-102	-20
180	222	-74
130	469	-118
20	546	-101
-125	430	-74
-263	171	-20
-348	-121	-34
-335	-359	-26
-215	-475	10
-29	-470	53
145	-386	86
226	-289	129
147	-240	181
-79	-254	130
-378	-311	47
-617	-351	-60
-676	-316	-150
-515	-184	-235
-169	17	-282
226	215	-231
519	336	-53
612	340	107
496	257	99
253	162	138
1	128	74
-163	180	0
-209	268	-19
-167	316	-114
-105	251	-120
-71	85	-55
-77	-109	56
-95	-225	181
-87	-202	163
-31	-61	-123
58	109	-324
150	210	-239
211	194	-201
234	93	-298
232	-3	-198
224	-20	-67
214	58	-49
199	174	-13
159	243	32
85	201	133
-14	65	134
-106	-84	77
-158	-158	31
-156	-113	43
-106	17	-51
-42	131	-181
6	135	-172
18	-4	-165
1	-228	-83
-27	-425	37
-42	-489	108
-31	-378	129
3	-144	101
45	96	54
83	244	1
105	255	-4
106	178	-16
83	99	-71
36	96	7
-28	171	69
-96	261	53
-152	268	108
-175	133	116
-154	-115	101
-89	-379	68
4	-531	9
102	-492	-64
191	-278	-111
258	16	-55
299	269	-79
302	397	-147
266	372	-47
175	249	-46
30	81	-85
-149	-76	-44
-331	-207	-39
-465	-316	-4
-515	-391	-3
-468	-421	-5
-345	-379	24
-193	-256	42
-57	-85	21
30	86	25
69	205	-56
68	256	-141
55	248	-43
42	209	-10
39	155	-3
41	83	39
45	-19	26
49	-143	39
51	-254	13
50	-301	32
42	-246	112
26	-102	70
8	65	-96
-2	180	-217
9	190	-266
46	121	-300
107	35	-164
167	16	-34
200	86	-16
190	208	-70
131	298	-188
44	279	-211
-49	156	-260
-124	-23	-272
-165	-159	-137
-167	-194	1
-138	-131	103
-96	-33	169
-57	28	198
-40	20	225
-51	-36	242
-91	-74	196
-132	-48	125
-152	39	-16
-121	136	-170
-36	171	-246
80	117	-225
189	-4	-112
254	-115	-29
256	-150	41
202	-84	113
125	39	172
56	143	174
11	166	144
-10	91	91
-20	-30	-26
-31	-131	-76
-39	-162	-92
-34	-117	-137
-8	-38	-131
29	26	-51
60	48	-12
61	45	7
30	57	13
-20	115	0
-51	211	11
-40	298	-14
18	313	19
100	215	37
158	20	27
156	-214	11
77	-395	-66
-60	-474	-126
-212	-427	-168
-335	-301	-211
-390	-160	-156
-360	-59	-43
-246	-21	-9
-67	-23	-7
140	-34	34
329	-29	75
446	-10	116
454	2	235
331	-18	213
104	-76	61
-169	-145	-26
-415	-195	-94
-567	-196	-243
-589	-141	-368
-503	-56	-282
-342	28	-117
-166	88	43
-20	129	144
76	168	161
126	214	104
145	262	-132
153	283	-213
159	244	-107
170	134	-162
179	-15	-160
183	-145	-75
170	-198	-48
138	-149	-71
90	-29	19
33	97	119
-14	159	99
-39	134	109
-29	53	149
7	-20	108
54	-29	-28
97	31	-83
121	119	-133
125	169	-125
121	139	-34
119	45	-88
129	-57	-91
148	-103	-43
164	-68	-12
167	15	41
144	77	43
96	66	66
22	-15	32
-75	-107	-19
-184	-129	-41
-296	-43	-31
-382	118	21
-416	268	13
-378	323	37
-267	244	-3
-105	75	-91
64	-89	-57
194	-170	-32
255	-153	8
244	-97	28
179	-82	10
96	-156	32
19	-291	47
-39	-403	49
-82	-407	16
-112	-269	-103
-130	-52	-156
-128	143	-122
-93	228	-107
-26	180	0
54	65	19
118	-25	-21
138	-26	-42
102	48	-57
27	121	-26
-50	106	-32
-98	-32	79
-91	-245	174
-34	-427	160
42	-481	124
103	-372	-15
117	-152	-234
77	80	-436
-7	225	-306
-104	251	-48
-195	185	-7
-261	104	77
-300	70	86
-306	106	104
-277	190	193
-206	267	166
-99	298	141
27	255	81
136	162	-48
187	38	-169
163	-83	-238
78	-179	-291
-23	-236	-182
-89	-241	-128
-85	-196	-250
-16	-113	-171
78	-18	-144
152	59	-141
186	100	-63
181	103	-106
166	92	26
166	89	129
184	110	128
201	143	183
191	160	168
137	139	182
54	91	138
-27	43	83
-81	30	17
-93	65	-53
-76	116	-99
-40	123	-139
-3	41	-44
40	-130	43
91	-322	51
144	-432	29
183	-380	-28
181	-169	32
131	108	-40
49	316	-182
-31	345	-165
-84	192	-195
-102	-55	-141
-108	-254	-62
-137	-305	-5
-203	-203	26
-288	-34	55
-336	84	124
-296	83	68
-153	-13	43
60	-104	29
263	-100	-4
383	27	-28
371	215	-111
232	345	-95
17	332	-36
-205	162	-1
-383	-84	33
-480	-296	-3
-487	-394	-59
-425	-384	-90
-308	-317	-85
-172	-263	-72
-38	-259	-48
69	-277	24
140	-263	69
178	-178	60
193	-26	44
193	139	20
176	264	-15
144	313	-34
96	296	-40
42	247	-2
12	198	5
18	159	11
58	114	122
102	52	205
111	-25	233
65	-92	166
-22	-122	19
-108	-104	-161
-148	-55	-391
-115	-11	-465
-31	10	-386
63	4	-260
120	1	-100
127	27	94
104	93	247
82	171	225
86	225	87
107	221	-27
118	157	-135
85	62	-248
5	-25	-332
-93	-78	-338
-167	-97	-209
-184	-103	-83
-142	-109	4
-70	-114	112
-8	-105	100
22	-60	38
21	11	31
9	88	-21
15	132	-63
46	131	-30
98	89	34
144	43	128
167	18	238
151	16	299
99	17	268
23	-15	125
-64	-84	-39
-142	-166	-206
-197	-204	-277
-207	-157	-192
-160	-26	-79
-55	135	46
96	249	95
262	261	91
401	165	42
470	23	-56
446	-77	-35
324	-76	-23
120	30	-54
-127	174	-25
-378	257	-23
-583	200	28
-696	-4	22
-692	-292	-13
-579	-553	-38
-389	-673	-180
-180	-604	-213
-5	-379	-92
110	-99	-60
171	116	-69
212	188	-3
258	106	67
314	-57	80
344	-199	49
296	-237	45
143	-158	46
-99	-13	-2
-350	106	-75
-515	133	11
-534	68	90
-404	-37	83
-198	-104	150
-8	-81	115
99	27	9
117	160	-64
86	248	-189
77	256	-340
121	199	-347
211	127	-171
301	92	-14
340	113	34
313	166	74
238	205	101
158	197	147
100	134	149
66	44	100
40	-37	7
-1	-85	-244
-58	-99	-425
-115	-94	-526
-136	-84	-428
-112	-76	-167
-50	-58	-40
26	-25	53
88	24	133
125	83	250
139	123	222
144	137	138
138	117	37
119	72	-84
76	17	-134
6	-37	-129
-72	-81	-29
-143	-110	34
-187	-120	61
-195	-112	60
-181	-84	79
-145	-44	45
-96	2	-36
-23	45	-70
79	86	5
202	125	60
313	163	48
366	195	52
332	207	21
208	183	-18
32	122	-25
-134	35	-8
-242	-46	-18
-280	-98	-34
-272	-110	-5
-263	-108	16
-290	-137	-1
-346	-234	-14
-383	-401	-30
-338	-586	-27
-185	-703	-52
56	-669	-90
302	-449	-112
458	-98	-113
454	268	-83
283	525	-55
23	582	-13
-227	445	-4
-377	200	17
-392	-37	24
-304	-171	24
-179	-182	-19
-81	-116	-45
-36	-47	47
-24	-29	59
-3	-60	44
62	-95	34
175	-82	-1
297	0	-26
373	116	-74
373	213	-21
285	244	47
145	215	56
5	168	44
-89	149	19
-109	174	-40
-67	209	-136
-4	194	-261
34	80	-318
14	-110	-282
-63	-306	-150
-166	-403	116
-243	-340	390
-248	-145	402
-172	86	225
-38	238	-63
102	244	-486
196	129	-576
216	-19	-425
172	-100	-179
94	-74	107
22	26	130
-22	112	70
-37	114	24
-39	25	44
-38	-97	63
-41	-168	63
-35	-143	69
-8	-46	104
36	50	58
89	80	-145
125	29	-209
133	-51	-59
118	-76	87
104	2	39
119	164	-61
170	326	-100
242	397	-68
290	332	-10
269	164	79
151	-22	94
-51	-140	53
-295	-150	3
-497	-82	-96
-610	-3	-122
-602	20	-71
-491	-33	43
-328	-137	99
-167	-241	63
-44	-297	15
32	-297	-88
83	-259	-204
133	-216	-182
201	-196	-61
270	-196	16
306	-192	29
261	-157	26
118	-81	3
-102	24	30
-335	119	38
-493	163	-21
-518	131	-30
-392	33	-36
-158	-90	-44
99	-182	27
296	-191	85
373	-112	57
346	22	24
260	158	-36
174	235	-41
128	229	-66
