File Name: not saved
Channel 2: 'Channel 2', 30500 values, raw ADC, no filters.
Channel 3: 'Channel 3', 30500 values, raw ADC, no filters.
Channel 4: 'Channel 4', 30500 values, raw ADC, no filters.

-95	-60	-26
-50	-31	-27
1	0	-28
51	31	-27
94	55	-25
121	75	-25
132	82	-24
124	78	-20
101	61	-20
61	34	-20
15	2	-20
-36	-32	-20
-83	-61	-20
-119	-82	-20
-140	-93	-25
-139	-89	-25
-118	-76	-24
-81	-50	-24
-32	-22	-23
21	11	-23
68	41	-21
105	65	-23
125	81	-20
128	85	-19
116	76	-20
84	54	-19
42	25	-19
-5	-7	-17
-53	-41	-20
-95	-67	-22
-126	-87	-22
-138	-92	-25
-132	-85	-24
-106	-66	-24
-63	-39	-22
-15	-8	-22
36	23	-24
82	50	-25
116	72	-21
131	82	-22
131	82	-21
111	70	-19
75	46	-19
29	19	-22
-21	-15	-21
-68	-46	-21
-109	-72	-25
-134	-89	-21
-139	-91	-23
-125	-81	-23
-94	-58	-23
-49	-29	-25
4	3	-24
54	34	-24
97	59	-20
124	78	-20
133	84	-21
125	81	-21
99	62	-23
59	38	-20
12	5	-15
-36	-29	-14
-83	-59	-19
-117	-83	-21
-135	-93	-24
-136	-91	-26
-116	-76	-24
-82	-51	-24
-33	-23	-23
18	9	-24
65	39	-23
104	64	-23
126	80	-21
131	85	-22
117	77	-22
87	56	-21
44	27	-20
-4	-7	-21
-53	-40	-23
-98	-68	-24
-127	-86	-23
-141	-90	-21
-134	-84	-26
-110	-65	-27
-68	-40	-25
-18	-11	-26
34	22	-25
82	49	-23
115	71	-24
132	81	-24
130	83	-22
110	67	-23
75	43	-22
29	12	-20
-20	-21	-19
-68	-51	-20
-108	-78	-24
-133	-90	-24
-141	-92	-23
-128	-81	-24
-97	-59	-27
-51	-31	-26
0	1	-26
49	31	-25
92	56	-22
121	74	-19
131	82	-20
124	79	-18
101	63	-18
62	39	-17
16	8	-21
-35	-26	-24
-80	-58	-19
-115	-80	-21
-135	-92	-24
-136	-90	-24
-118	-76	-26
-82	-50	-25
-34	-20	-25
17	11	-24
65	41	-24
106	65	-21
128	80	-19
132	83	-20
118	74	-19
89	53	-20
48	25	-17
-1	-7	-18
-50	-39	-21
-92	-66	-23
-124	-86	-24
-138	-93	-24
-134	-88	-27
-109	-71	-23
-68	-44	-26
-16	-13	-23
34	18	-23
82	48	-27
115	69	-24
131	82	-24
129	82	-22
109	70	-21
75	48	-20
30	18	-19
-20	-15	-21
-67	-47	-21
-107	-72	-23
-133	-88	-24
-139	-90	-23
-127	-81	-24
-96	-59	-23
-50	-31	-24
1	2	-25
51	33	-23
95	60	-20
122	78	-20
132	85	-21
123	80	-23
97	62	-23
59	36	-21
12	6	-19
-36	-26	-17
-82	-56	-19
-116	-78	-24
-136	-90	-26
-138	-89	-25
-119	-76	-25
-86	-52	-26
-38	-23	-28
13	8	-23
63	38	-20
104	62	-19
127	79	-22
132	83	-22
118	74	-19
89	56	-22
45	27	-24
-3	-5	-19
-51	-39	-20
-93	-66	-23
-123	-86	-24
-137	-93	-25
-130	-86	-22
-106	-69	-26
-64	-41	-27
-17	-11	-26
35	22	-25
84	51	-24
116	72	-24
132	85	-24
131	84	-21
111	70	-18
77	47	-20
32	16	-22
-18	-17	-19
-65	-49	-20
-107	-74	-19
-133	-90	-23
-140	-92	-25
-128	-83	-26
-98	-61	-25
-52	-33	-24
-1	0	-25
50	31	-25
93	57	-23
122	77	-22
132	84	-21
127	80	-20
101	64	-21
64	39	-22
18	8	-20
-31	-25	-19
-78	-55	-19
-115	-80	-21
-135	-91	-23
-138	-90	-23
-120	-80	-23
-85	-54	-23
-39	-24	-21
14	9	-23
63	39	-24
102	63	-22
124	80	-22
130	83	-22
117	77	-22
87	57	-23
46	31	-21
-1	-2	-20
-47	-36	-20
-92	-64	-22
-123	-87	-24
-138	-93	-26
-134	-88	-27
-111	-69	-26
-71	-42	-24
-20	-11	-23
32	21	-25
80	49	-23
114	70	-20
132	82	-22
130	83	-18
111	70	-21
78	48	-20
32	19	-18
-16	-15	-23
-64	-47	-21
-104	-74	-23
-130	-89	-22
-140	-93	-22
-129	-85	-24
-101	-62	-24
-56	-35	-24
-4	-1	-22
46	31	-23
91	58	-26
121	80	-22
133	86	-20
126	82	-18
103	65	-21
64	39	-25
18	8	-19
-30	-25	-20
-77	-54	-21
-113	-78	-21
-134	-91	-25
-136	-93	-23
-120	-80	-23
-86	-56	-23
-38	-27	-24
14	6	-25
64	37	-25
104	63	-23
129	80	-23
132	85	-21
121	77	-20
91	58	-21
48	31	-20
1	-2	-21
-49	-33	-21
-94	-62	-21
-125	-82	-24
-141	-91	-25
-136	-88	-26
-113	-70	-27
-74	-47	-24
-24	-17	-24
29	15	-25
76	44	-23
113	68	-20
131	81	-22
132	83	-22
115	70	-20
80	48	-19
35	18	-19
-16	-14	-20
-63	-46	-18
-104	-71	-17
-130	-88	-21
-139	-92	-24
-126	-84	-26
-97	-64	-26
-55	-36	-23
-4	-4	-25
45	28	-26
88	56	-24
118	76	-23
131	83	-23
127	80	-21
104	64	-20
67	41	-19
20	10	-19
-29	-23	-21
-77	-52	-20
-115	-77	-22
-136	-90	-24
-138	-90	-24
-120	-76	-23
-87	-53	-22
-39	-23	-23
12	8	-23
60	39	-24
103	64	-22
125	80	-20
132	84	-21
120	77	-21
91	58	-19
51	32	-18
2	0	-18
-48	-34	-19
-92	-63	-19
-124	-85	-20
-140	-95	-26
-135	-90	-27
-113	-72	-27
-72	-45	-28
-22	-14	-28
29	18	-28
78	47	-24
111	67	-25
130	81	-22
130	81	-22
113	70	-20
79	49	-18
35	21	-18
-14	-11	-22
-62	-43	-24
-102	-68	-21
-130	-86	-25
-139	-91	-24
-129	-83	-25
-101	-64	-30
-57	-37	-23
-6	-6	-25
44	28	-25
90	56	-24
121	77	-23
133	86	-20
129	82	-20
105	66	-19
66	39	-21
19	9	-20
-31	-25	-20
-76	-54	-20
-112	-78	-22
-134	-92	-25
-136	-92	-25
-122	-82	-25
-89	-58	-26
-43	-29	-30
8	4	-27
60	36	-25
101	61	-21
126	79	-19
133	83	-20
121	77	-23
93	57	-21
50	30	-19
2	-1	-20
-46	-35	-20
-91	-63	-18
-123	-85	-20
-138	-93	-21
-134	-89	-23
-112	-74	-24
-72	-46	-24
-22	-16	-25
31	16	-23
79	45	-22
115	68	-24
132	81	-24
133	82	-21
116	71	-18
83	48	-18
37	21	-19
-12	-12	-19
-60	-44	-23
-103	-69	-23
-130	-86	-23
-140	-90	-23
-130	-84	-25
-102	-63	-26
-59	-37	-25
-8	-5	-27
42	26	-27
86	53	-24
116	72	-23
130	81	-24
127	79	-20
105	65	-16
67	41	-19
20	13	-20
-28	-20	-19
-77	-51	-20
-115	-76	-21
-137	-88	-23
-139	-89	-23
-121	-77	-23
-88	-53	-26
-41	-23	-24
11	8	-28
61	38	-23
101	63	-20
127	79	-25
136	84	-24
124	80	-18
97	60	-19
54	32	-20
7	0	-20
-44	-33	-21
-90	-63	-23
-121	-84	-24
-138	-92	-27
-135	-90	-25
-114	-72	-25
-76	-48	-25
-26	-17	-23
25	15	-26
74	43	-25
109	67	-22
130	80	-20
129	83	-22
113	71	-23
82	50	-21
38	21	-21
-11	-13	-22
-60	-45	-22
-102	-72	-20
-130	-89	-21
-140	-94	-22
-132	-86	-24
-104	-65	-27
-60	-37	-26
-10	-5	-24
41	26	-23
85	54	-24
117	74	-24
131	83	-21
127	81	-20
105	66	-20
68	43	-19
23	12	-17
-28	-20	-18
-72	-51	-20
-111	-76	-22
-133	-89	-23
-137	-91	-25
-122	-80	-25
-89	-58	-25
-44	-29	-23
8	4	-21
56	35	-22
97	63	-25
123	80	-23
131	88	-21
121	81	-20
94	62	-19
54	34	-20
6	2	-18
-43	-32	-19
-91	-61	-23
-122	-82	-25
-139	-92	-24
-136	-88	-23
-114	-72	-25
-77	-48	-25
-26	-16	-28
25	16	-21
72	45	-18
110	70	-25
130	83	-21
132	84	-19
116	72	-21
85	51	-19
40	21	-20
-10	-11	-19
-59	-44	-21
-101	-69	-21
-129	-87	-24
-140	-92	-26
-130	-84	-25
-104	-64	-25
-59	-37	-24
-10	-6	-26
40	25	-26
85	52	-22
116	71	-21
130	82	-21
127	79	-16
107	66	-18
71	42	-21
25	14	-18
-24	-19	-20
-72	-51	-24
-111	-76	-24
-135	-91	-26
-137	-91	-26
-123	-80	-26
-90	-57	-24
-42	-28	-23
8	4	-23
58	35	-23
98	60	-23
124	77	-22
132	83	-20
122	77	-19
96	58	-18
54	31	-18
6	-1	-17
-44	-35	-18
-89	-62	-21
-123	-84	-23
-140	-93	-22
-136	-89	-22
-115	-72	-23
-77	-47	-24
-28	-18	-23
25	15	-26
74	44	-26
110	68	-23
130	82	-21
132	85	-20
115	75	-21
83	52	-20
40	24	-21
-8	-8	-21
-54	-42	-19
-98	-68	-19
-126	-88	-21
-140	-92	-22
-133	-85	-23
-107	-65	-25
-63	-38	-25
-12	-9	-25
41	23	-24
88	51	-24
120	72	-25
133	84	-26
131	83	-23
109	68	-21
74	44	-18
28	13	-17
-22	-21	-20
-68	-51	-25
-109	-75	-23
-133	-88	-22
-138	-89	-25
-124	-78	-24
-93	-57	-24
-48	-30	-22
4	1	-25
52	31	-22
95	59	-20
122	80	-21
132	86	-21
122	81	-25
97	63	-21
54	36	-21
6	2	-20
-42	-31	-20
-89	-61	-22
-121	-83	-22
-139	-92	-23
-136	-90	-24
-116	-75	-29
-79	-50	-30
-30	-19	-25
22	15	-25
70	43	-25
107	68	-25
130	81	-20
132	83	-19
117	72	-25
85	51	-21
40	23	-20
-6	-9	-20
-55	-40	-21
-98	-69	-22
-128	-86	-23
-140	-92	-25
-132	-85	-25
-106	-65	-24
-63	-39	-24
-15	-7	-26
37	23	-25
83	51	-20
116	71	-22
131	81	-22
128	82	-20
107	68	-21
72	45	-21
28	15	-21
-22	-20	-21
-69	-49	-20
-109	-76	-24
-133	-89	-26
-139	-90	-28
-124	-79	-27
-92	-57	-24
-45	-30	-23
7	2	-25
58	34	-22
100	60	-19
127	77	-21
136	84	-21
127	78	-20
99	60	-22
59	33	-19
12	0	-20
-39	-32	-21
-84	-61	-21
-119	-84	-21
-136	-94	-23
-136	-92	-26
-116	-78	-25
-80	-53	-27
-31	-21	-28
21	11	-27
69	41	-27
107	65	-22
128	79	-21
132	82	-24
117	71	-21
86	53	-18
42	24	-18
-7	-7	-19
-55	-41	-21
-100	-69	-22
-129	-88	-21
-142	-94	-23
-135	-87	-23
-108	-66	-20
-66	-39	-21
-15	-6	-23
36	25	-27
82	53	-24
114	72	-22
129	84	-21
126	83	-19
105	68	-20
70	45	-18
25	15	-20
-23	-17	-20
-69	-49	-22
-108	-74	-23
-131	-88	-21
-137	-90	-21
-125	-81	-21
-94	-60	-24
-49	-32	-26
0	-1	-27
52	32	-25
97	60	-27
124	79	-26
135	86	-22
124	80	-22
98	61	-20
58	34	-19
10	2	-20
-39	-31	-21
-85	-58	-23
-118	-80	-24
-137	-90	-24
-136	-86	-24
-117	-72	-23
-81	-49	-26
-31	-20	-24
21	13	-23
72	43	-24
107	67	-19
131	84	-20
134	85	-18
119	76	-19
87	54	-20
44	25	-21
-5	-7	-20
-55	-40	-19
-98	-67	-22
-129	-87	-25
-141	-92	-26
-135	-86	-25
-109	-68	-27
-66	-42	-25
-17	-11	-27
36	22	-25
82	50	-23
116	71	-22
132	83	-19
129	81	-17
109	68	-19
74	45	-19
28	16	-17
-21	-17	-15
-66	-49	-18
-108	-74	-22
-132	-91	-24
-138	-93	-24
-126	-84	-26
-94	-61	-30
-49	-32	-28
4	1	-22
54	33	-25
97	58	-25
124	77	-23
133	83	-20
124	77	-17
99	61	-21
60	35	-20
12	5	-22
-35	-30	-23
-83	-58	-22
-118	-82	-25
-137	-92	-23
-138	-89	-22
-117	-75	-24
-82	-49	-23
-33	-20	-23
18	12	-22
66	40	-23
105	65	-24
127	80	-22
132	82	-20
119	76	-19
89	56	-21
44	28	-20
-4	-6	-19
-54	-38	-20
-97	-65	-24
-126	-85	-25
-139	-92	-22
-132	-86	-25
-107	-68	-26
-66	-42	-24
-16	-11	-24
36	21	-24
81	49	-25
115	71	-22
132	81	-23
128	81	-19
107	68	-19
72	47	-21
28	18	-18
-20	-16	-18
-67	-47	-22
-107	-74	-25
-132	-89	-23
-140	-93	-24
-128	-82	-25
-99	-61	-24
-54	-32	-23
-3	-1	-25
48	29	-26
91	56	-22
122	75	-20
132	84	-18
125	81	-18
101	63	-21
61	38	-21
16	5	-17
-34	-29	-17
-81	-59	-20
-115	-82	-21
-135	-92	-23
-135	-90	-23
-116	-74	-25
-81	-50	-27
-34	-19	-24
18	12	-24
67	42	-23
105	65	-24
129	80	-22
132	83	-19
118	72	-21
86	54	-23
44	26	-21
-4	-6	-20
-53	-37	-22
-97	-65	-24
-126	-85	-24
-140	-92	-25
-135	-86	-28
-110	-67	-26
-69	-41	-24
-19	-10	-27
33	21	-27
81	49	-20
115	70	-22
130	81	-22
130	82	-22
109	70	-25
77	48	-21
31	19	-21
-18	-14	-19
-65	-47	-20
-107	-72	-19
-133	-89	-23
-142	-92	-23
-129	-81	-23
-101	-58	-25
-55	-29	-22
-2	2	-25
46	32	-23
92	59	-24
121	77	-22
132	85	-18
124	80	-21
100	64	-20
61	38	-19
14	5	-20
-35	-29	-22
-81	-58	-21
-115	-81	-24
-136	-92	-23
-136	-90	-23
-117	-77	-25
-83	-53	-24
-34	-24	-27
17	7	-25
66	36	-23
105	60	-23
128	78	-25
132	83	-20
119	74	-20
90	54	-21
46	25	-21
0	-7	-21
-51	-40	-20
-94	-68	-21
-124	-87	-24
-139	-94	-25
-133	-88	-23
-109	-71	-26
-68	-43	-26
-20	-12	-24
32	21	-25
79	51	-22
114	71	-22
132	84	-20
131	82	-23
113	68	-22
79	45	-19
35	18	-21
-15	-14	-21
-63	-45	-20
-102	-69	-19
-129	-86	-24
-136	-90	-26
-126	-81	-24
-97	-61	-25
-53	-32	-24
-4	-2	-26
48	29	-25
91	54	-29
121	72	-25
132	81	-21
126	79	-21
102	64	-22
62	38	-20
16	8	-18
-34	-27	-19
-79	-57	-22
-116	-82	-23
-136	-93	-23
-138	-91	-23
-120	-78	-26
-85	-52	-24
-38	-24	-21
14	8	-24
62	39	-24
102	64	-20
125	80	-21
131	84	-21
119	77	-20
89	56	-21
47	28	-19
-2	-4	-20
-50	-36	-20
-94	-64	-21
-125	-85	-23
-140	-91	-25
-134	-86	-26
-109	-68	-25
-69	-42	-22
-20	-11	-25
33	22	-26
80	49	-22
111	71	-23
131	81	-21
132	81	-21
113	71	-19
81	48	-21
36	21	-19
-13	-13	-19
-63	-44	-23
-104	-72	-21
-130	-90	-22
-140	-94	-24
-128	-85	-26
-98	-63	-28
-52	-33	-25
-2	0	-24
48	30	-23
91	56	-23
120	75	-23
132	82	-20
124	80	-19
102	62	-17
63	38	-20
17	6	-21
-31	-27	-20
-79	-55	-23
-115	-79	-24
-135	-89	-25
-137	-89	-24
-120	-77	-25
-86	-54	-26
-39	-25	-24
14	8	-24
62	38	-24
102	64	-21
126	81	-22
132	86	-20
119	79	-20
90	57	-21
48	32	-21
2	-2	-21
-48	-34	-23
-93	-63	-22
-125	-84	-22
-139	-92	-23
-136	-87	-26
-112	-70	-27
-70	-45	-28
-20	-13	-26
32	19	-25
79	48	-24
113	70	-22
131	81	-24
131	83	-19
114	69	-20
81	48	-25
35	18	-20
-15	-16	-20
-62	-47	-21
-104	-76	-20
-130	-91	-22
-139	-95	-23
-128	-85	-24
-99	-64	-24
-57	-36	-24
-7	-4	-26
42	26	-23
88	54	-23
119	74	-21
133	84	-20
129	80	-20
105	65	-20
67	40	-20
20	8	-19
-30	-25	-20
-77	-56	-21
-113	-78	-22
-134	-90	-25
-139	-89	-25
-123	-77	-23
-89	-54	-24
-42	-24	-23
10	9	-24
60	40	-24
101	66	-21
125	81	-20
132	85	-20
120	77	-19
91	56	-20
51	29	-20
3	-2	-19
-46	-35	-23
-90	-63	-23
-121	-84	-20
-138	-92	-22
-133	-88	-24
-110	-70	-23
-70	-44	-25
-21	-13	-25
28	18	-22
76	47	-23
107	66	-22
128	80	-23
129	81	-21
111	70	-19
80	50	-21
36	21	-21
-15	-11	-19
-64	-44	-23
-104	-69	-24
-132	-87	-24
-141	-91	-25
-130	-81	-23
-101	-60	-24
-56	-32	-26
-7	-2	-27
44	29	-24
90	55	-23
121	74	-22
133	82	-20
128	80	-20
105	64	-20
66	40	-20
20	11	-21
-31	-23	-20
-77	-53	-22
-115	-78	-20
-136	-91	-25
-139	-92	-26
-123	-81	-25
-88	-56	-25
-40	-27	-20
12	7	-18
62	38	-24
103	63	-28
128	80	-21
133	84	-21
122	78	-20
94	59	-16
52	31	-18
3	-1	-16
-46	-35	-20
-91	-64	-21
-124	-86	-27
-139	-94	-25
-135	-88	-24
-112	-70	-27
-72	-44	-25
-23	-13	-28
29	19	-26
77	47	-26
111	70	-24
130	83	-21
130	83	-19
111	71	-19
81	48	-20
36	19	-21
-14	-16	-21
-60	-46	-23
-103	-70	-23
-130	-87	-24
-140	-91	-25
-130	-84	-26
-102	-63	-25
-59	-37	-24
-9	-5	-25
42	26	-23
86	54	-22
117	76	-21
131	85	-20
127	84	-18
105	67	-18
68	41	-19
20	10	-22
-29	-24	-22
-77	-54	-22
-112	-79	-22
-133	-90	-23
-136	-91	-25
-119	-79	-23
-87	-55	-24
-41	-28	-24
9	5	-24
60	33	-22
100	58	-21
126	76	-19
133	82	-20
122	76	-23
94	56	-21
52	30	-19
4	-2	-18
-46	-34	-23
-91	-63	-24
-123	-85	-24
-139	-92	-24
-136	-90	-24
-114	-72	-25
-75	-47	-27
-27	-16	-28
26	16	-25
74	45	-24
109	68	-21
130	81	-19
131	83	-18
116	72	-18
84	51	-20
40	23	-22
-8	-9	-20
-56	-42	-20
-98	-69	-21
-128	-87	-21
-137	-93	-25
-130	-85	-27
-102	-64	-27
-58	-37	-25
-7	-4	-27
45	28	-24
89	55	-25
119	76	-24
132	84	-23
127	83	-22
104	66	-20
66	41	-17
22	11	-18
-27	-22	-20
-75	-53	-20
-113	-77	-21
-135	-89	-26
-139	-89	-28
-123	-78	-21
-89	-55	-22
-43	-26	-25
10	5	-25
59	34	-27
102	61	-20
127	77	-23
136	85	-21
125	77	-21
98	59	-24
56	32	-22
6	-1	-21
-43	-34	-22
-90	-63	-21
-123	-84	-20
-140	-94	-24
-137	-90	-25
-115	-75	-24
-77	-50	-25
-26	-19	-25
26	15	-23
74	45	-25
111	69	-25
130	83	-23
130	85	-22
112	72	-18
81	52	-19
36	22	-17
-12	-9	-19
-60	-41	-21
-101	-66	-21
-128	-84	-21
-141	-91	-25
-130	-84	-25
-105	-65	-25
-60	-38	-25
-10	-6	-24
41	25	-30
87	53	-24
119	72	-21
132	83	-22
128	80	-19
107	66	-19
69	43	-18
24	12	-21
-26	-21	-21
-75	-51	-23
-112	-76	-24
-136	-92	-23
-141	-94	-22
-126	-82	-22
-93	-58	-26
-46	-29	-25
5	3	-24
55	35	-23
97	61	-23
122	78	-21
131	85	-20
121	79	-19
94	61	-19
53	34	-16
6	2	-16
-44	-32	-19
-88	-61	-25
-122	-84	-25
-138	-93	-25
-135	-88	-25
-113	-72	-24
-75	-45	-26
-24	-15	-24
28	18	-25
76	47	-25
112	69	-21
132	84	-19
136	85	-23
120	75	-21
89	53	-19
46	24	-21
-4	-8	-19
-53	-42	-20
-96	-69	-24
-126	-87	-22
-137	-92	-24
-130	-85	-24
-103	-64	-24
-61	-37	-24
-11	-6	-26
41	26	-25
87	51	-24
118	72	-21
131	82	-21
127	79	-23
104	65	-22
67	40	-21
21	12	-20
-29	-22	-21
-76	-53	-20
-113	-78	-20
-136	-93	-22
-142	-94	-22
-126	-83	-23
-96	-60	-24
-48	-30	-23
2	3	-23
52	35	-23
94	60	-20
121	78	-22
130	84	-19
121	77	-20
96	59	-21
56	33	-19
8	1	-18
-42	-32	-19
-88	-61	-22
-123	-82	-21
-140	-92	-20
-139	-89	-24
-117	-72	-25
-79	-48	-25
-30	-18	-24
22	14	-23
72	43	-23
109	67	-22
130	81	-24
132	84	-23
116	76	-20
85	53	-20
40	26	-18
-7	-7	-18
-55	-40	-21
-96	-67	-22
-124	-85	-23
-136	-91	-26
-129	-86	-25
-105	-65	-22
-63	-40	-22
-14	-8	-23
38	23	-27
85	52	-26
117	72	-23
133	84	-22
130	83	-19
107	68	-22
72	45	-21
25	15	-18
-24	-19	-17
-69	-49	-19
-110	-74	-24
-133	-88	-23
-136	-90	-27
-122	-78	-26
-91	-57	-25
-47	-29	-27
5	4	-25
55	34	-27
97	61	-27
124	79	-24
132	85	-22
124	79	-21
97	60	-19
57	32	-21
9	0	-20
-40	-34	-19
-86	-64	-22
-121	-86	-23
-138	-95	-25
-136	-92	-25
-116	-75	-24
-79	-50	-26
-31	-19	-25
22	12	-25
69	41	-24
107	65	-21
128	80	-22
131	84	-22
116	74	-19
86	56	-22
42	26	-19
-5	-7	-18
-52	-39	-22
-96	-68	-20
-125	-86	-22
-137	-93	-22
-130	-85	-24
-104	-66	-27
-62	-39	-25
-12	-6	-25
39	24	-25
86	53	-24
117	72	-24
132	83	-24
128	81	-19
107	67	-18
70	45	-20
25	14	-19
-23	-18	-22
-70	-49	-23
-108	-74	-23
-132	-89	-24
-138	-93	-26
-124	-82	-21
-94	-61	-23
-48	-32	-29
3	0	-21
54	32	-24
97	58	-21
125	76	-20
135	84	-21
125	77	-19
99	61	-22
57	34	-17
9	3	-18
-41	-30	-19
-87	-60	-19
-120	-82	-20
-138	-93	-24
-137	-90	-28
-118	-76	-26
-82	-50	-27
-33	-20	-25
20	12	-24
69	43	-26
107	65	-25
130	81	-20
133	84	-18
118	76	-20
85	55	-18
41	26	-21
-7	-6	-21
-56	-40	-20
-98	-66	-23
-127	-86	-25
-139	-92	-25
-133	-85	-24
-108	-67	-27
-67	-41	-26
-17	-11	-25
35	22	-26
82	50	-22
116	71	-23
132	84	-21
131	82	-19
107	67	-19
72	43	-20
26	14	-21
-23	-21	-20
-71	-50	-22
-108	-75	-23
-132	-89	-22
-138	-90	-24
-126	-81	-24
-94	-59	-26
-50	-30	-27
3	1	-25
53	33	-24
97	59	-24
125	78	-20
134	85	-21
125	81	-23
98	64	-20
59	38	-21
12	5	-20
-38	-29	-23
-85	-60	-22
-119	-83	-24
-137	-93	-25
-139	-90	-25
-118	-76	-26
-82	-50	-24
-31	-19	-23
21	14	-27
69	43	-25
107	67	-23
129	83	-24
133	85	-21
119	77	-21
89	57	-23
46	29	-23
-2	-3	-20
-52	-36	-21
-96	-63	-25
-126	-83	-28
-139	-89	-24
-132	-85	-24
-107	-66	-23
-64	-41	-24
-16	-9	-26
36	22	-23
82	50	-24
116	71	-21
132	81	-18
131	81	-15
111	67	-19
75	45	-21
28	16	-17
-23	-19	-20
-70	-49	-22
-108	-77	-21
-133	-92	-20
-139	-96	-23
-126	-85	-23
-95	-62	-24
-49	-33	-26
0	1	-26
52	32	-23
95	60	-22
122	78	-21
132	85	-18
124	81	-18
100	63	-19
60	38	-19
14	5	-21
-35	-27	-21
-82	-57	-19
-119	-82	-18
-138	-92	-20
-139	-92	-23
-120	-77	-25
-84	-52	-25
-35	-21	-24
18	12	-25
66	41	-26
105	64	-26
128	79	-25
132	83	-22
120	74	-22
90	54	-22
47	27	-19
-2	-7	-21
-50	-40	-23
-94	-68	-21
-123	-88	-23
-135	-95	-25
-130	-89	-25
-107	-70	-25
-66	-45	-28
-19	-12	-30
33	19	-25
80	48	-25
114	70	-25
131	83	-19
131	83	-18
110	70	-19
75	47	-16
29	15	-16
-20	-16	-16
-67	-47	-19
-107	-71	-22
-132	-87	-21
-140	-90	-23
-126	-80	-25
-97	-60	-26
-51	-31	-26
0	3	-24
50	34	-24
93	61	-24
121	77	-21
132	84	-21
123	79	-22
99	61	-19
60	37	-16
14	6	-19
-35	-25	-21
-82	-57	-23
-117	-80	-24
-137	-93	-21
-137	-93	-24
-120	-79	-28
-84	-53	-26
-35	-21	-25
16	12	-26
65	41	-24
103	64	-24
126	79	-24
131	82	-21
117	74	-19
89	56	-21
46	28	-21
0	-4	-19
-50	-38	-20
-94	-66	-21
-125	-87	-23
-139	-94	-25
-133	-87	-24
-108	-67	-25
-67	-40	-25
-18	-11	-26
36	22	-27
82	50	-22
114	70	-23
132	83	-21
130	81	-20
111	70	-19
76	47	-15
31	17	-19
-19	-16	-19
-67	-48	-19
-107	-74	-21
-133	-89	-20
-141	-93	-24
-129	-84	-25
-97	-63	-27
-53	-34	-24
0	-1	-21
50	31	-24
94	58	-24
123	78	-24
133	85	-21
128	80	-19
102	62	-18
62	37	-20
14	5	-19
-35	-28	-21
-81	-56	-21
-116	-79	-22
-135	-90	-23
-136	-89	-22
-118	-76	-28
-85	-52	-27
-36	-21	-25
16	11	-29
64	41	-24
104	64	-27
127	80	-25
132	83	-23
118	76	-23
89	57	-21
46	30	-23
-2	-3	-20
-50	-37	-22
-95	-64	-22
-125	-86	-21
-140	-93	-24
-136	-89	-25
-112	-70	-26
-72	-44	-24
-22	-13	-27
30	19	-24
76	47	-24
111	70	-24
129	82	-23
129	82	-21
110	70	-19
77	47	-20
31	18	-20
-19	-15	-20
-67	-46	-21
-108	-72	-24
-133	-89	-27
-140	-92	-25
-126	-83	-24
-98	-61	-23
-52	-34	-25
-1	-1	-30
50	31	-24
94	57	-21
125	76	-21
136	83	-19
129	79	-18
104	62	-16
64	37	-19
18	6	-19
-32	-27	-19
-77	-56	-18
-112	-81	-22
-133	-93	-24
-136	-93	-25
-120	-79	-25
-85	-53	-26
-36	-24	-24
17	9	-23
66	40	-25
105	64	-24
128	80	-23
132	85	-21
120	77	-20
91	57	-19
52	30	-17
4	-2	-20
-46	-35	-19
-90	-63	-18
-123	-84	-24
-137	-92	-27
-134	-87	-23
-109	-68	-23
-68	-41	-27
-20	-9	-26
31	23	-26
78	52	-25
113	72	-22
130	84	-20
131	85	-19
111	71	-21
78	48	-19
33	18	-21
-19	-15	-20
-66	-47	-20
-107	-75	-22
-132	-90	-24
-140	-94	-25
-129	-84	-24
-100	-62	-23
-55	-33	-24
-4	-1	-22
46	30	-21
91	57	-21
121	76	-17
132	83	-21
127	79	-21
102	62	-22
64	38	-21
16	6	-21
-33	-27	-23
-80	-58	-22
-117	-82	-22
-138	-93	-23
-140	-92	-27
-122	-78	-25
-86	-53	-24
-38	-23	-25
14	8	-23
64	39	-24
104	63	-22
126	79	-22
133	84	-21
120	76	-19
93	56	-19
50	30	-21
2	-2	-22
-48	-35	-23
-92	-64	-23
-123	-83	-19
-139	-92	-24
-134	-86	-27
-112	-70	-27
-72	-46	-25
-24	-15	-24
27	17	-24
75	46	-22
111	68	-23
129	82	-23
129	83	-23
111	71	-22
78	49	-20
33	20	-19
-15	-12	-19
-63	-44	-22
-104	-69	-23
-132	-87	-27
-140	-90	-25
-129	-81	-25
-100	-60	-25
-55	-33	-25
-4	-2	-26
47	29	-26
90	56	-26
120	74	-23
131	82	-23
125	77	-20
103	63	-19
64	36	-19
18	7	-18
-32	-27	-21
-78	-57	-20
-116	-79	-22
-136	-91	-22
-139	-89	-21
-121	-77	-23
-87	-53	-30
-40	-24	-26
12	8	-23
61	38	-24
101	62	-20
126	80	-22
132	84	-17
121	77	-17
92	59	-18
52	33	-19
5	1	-21
-43	-32	-21
-89	-61	-21
-121	-84	-19
-136	-93	-21
-135	-89	-25
-111	-71	-25
-72	-44	-24
-22	-13	-25
29	19	-25
77	48	-26
111	68	-24
128	81	-21
131	81	-21
113	70	-20
81	48	-21
36	19	-16
-14	-14	-20
-63	-45	-23
-105	-72	-21
-132	-91	-25
-140	-94	-23
-129	-86	-23
-99	-64	-24
-55	-36	-23
-4	-4	-23
47	28	-23
92	55	-21
120	76	-21
133	83	-20
127	80	-18
105	65	-19
66	40	-17
20	10	-19
-28	-25	-21
-77	-55	-21
-114	-81	-23
-136	-93	-24
-139	-93	-26
-121	-80	-25
-88	-54	-25
-40	-24	-27
12	9	-26
63	40	-25
103	64	-24
127	80	-24
132	84	-25
121	77	-24
93	57	-22
51	31	-20
4	-1	-19
-46	-34	-24
-89	-62	-27
-122	-84	-22
-138	-92	-25
-137	-88	-24
-116	-71	-25
-79	-47	-24
-28	-16	-25
24	18	-26
72	47	-22
110	71	-23
129	85	-19
131	86	-19
113	75	-19
80	53	-17
36	23	-17
-13	-11	-16
-59	-43	-18
-100	-70	-20
-127	-88	-21
-137	-93	-23
-128	-85	-25
-101	-64	-22
-58	-37	-23
-8	-5	-24
42	25	-25
87	52	-20
118	71	-18
132	80	-21
128	78	-21
105	62	-20
67	40	-18
21	8	-19
-30	-24	-17
-77	-55	-19
-113	-81	-22
-135	-92	-23
-138	-92	-27
-123	-77	-26
-91	-54	-25
-44	-24	-24
6	8	-26
54	37	-25
98	61	-23
123	78	-22
132	84	-19
122	77	-20
95	61	-19
54	35	-23
6	1	-24
-44	-32	-21
-91	-62	-21
-122	-84	-23
-137	-93	-25
-134	-89	-24
-111	-72	-25
-71	-47	-24
-22	-16	-26
27	16	-25
77	45	-24
111	68	-24
131	81	-21
132	83	-20
116	70	-17
84	49	-18
38	19	-19
-12	-13	-17
-62	-45	-21
-103	-70	-27
-129	-88	-24
-140	-94	-25
-129	-86	-29
-102	-66	-26
-58	-38	-28
-7	-6	-27
42	26	-28
89	55	-25
118	76	-23
132	85	-22
127	83	-21
106	68	-20
67	43	-20
21	12	-20
-28	-22	-19
-77	-54	-20
-114	-78	-20
-137	-90	-24
-139	-89	-21
-124	-76	-24
-90	-54	-24
-43	-25	-24
8	6	-25
58	36	-24
99	61	-23
124	80	-22
132	85	-24
122	80	-22
95	61	-17
54	32	-19
8	0	-18
-42	-34	-18
-86	-61	-23
-121	-81	-25
-138	-91	-26
-137	-87	-26
-117	-71	-26
-79	-48	-24
-31	-18	-24
22	14	-27
71	44	-24
110	67	-21
128	81	-21
130	82	-21
114	71	-21
81	49	-19
37	21	-20
-13	-11	-19
-60	-43	-20
-102	-69	-25
-129	-88	-25
-139	-93	-26
-129	-86	-24
-101	-66	-24
-58	-38	-28
-7	-6	-25
45	27	-23
90	54	-22
120	74	-21
132	84	-20
129	81	-20
105	66	-19
68	42	-21
21	12	-22
-28	-22	-21
-75	-52	-19
-113	-78	-21
-135	-92	-21
-140	-93	-22
-125	-81	-24
-92	-57	-26
-45	-29	-29
7	5	-25
57	35	-23
98	60	-26
122	78	-23
131	83	-20
120	77	-22
95	58	-19
54	33	-18
9	2	-19
-39	-31	-20
-86	-60	-23
-119	-84	-22
-139	-94	-25
-137	-92	-27
-116	-77	-28
-77	-49	-27
-25	-19	-27
28	16	-29
77	45	-28
111	68	-27
131	81	-24
131	83	-22
115	72	-20
84	51	-19
41	24	-20
-7	-8	-19
-55	-40	-19
-97	-68	-20
-126	-86	-23
-137	-92	-27
-129	-85	-25
-102	-64	-24
-60	-37	-24
-11	-5	-24
41	26	-24
86	52	-25
118	74	-23
132	82	-21
128	83	-21
106	67	-20
68	43	-19
22	12	-19
-28	-24	-18
-72	-54	-19
-112	-79	-22
-134	-90	-24
-139	-90	-23
-125	-78	-22
-94	-54	-24
-48	-27	-22
6	5	-20
56	35	-22
99	61	-20
125	80	-23
132	87	-22
123	82	-22
95	62	-18
54	33	-21
8	-1	-24
-40	-33	-19
-85	-63	-22
-118	-83	-22
-135	-92	-24
-134	-89	-24
-113	-74	-21
-79	-52	-24
-30	-21	-23
21	10	-24
68	40	-24
107	65	-22
129	80	-21
132	84	-22
117	72	-23
86	51	-21
40	23	-19
-10	-11	-21
-58	-41	-21
-101	-68	-21
-128	-87	-20
-139	-93	-23
-131	-84	-27
-105	-65	-24
-63	-38	-24
-12	-7	-26
39	24	-24
85	53	-25
116	75	-21
131	85	-21
128	83	-21
107	68	-20
71	43	-20
25	12	-20
-25	-22	-21
-75	-53	-21
-111	-77	-21
-136	-89	-20
-141	-92	-22
-126	-80	-24
-94	-58	-25
-47	-29	-26
4	1	-25
54	33	-25
97	59	-25
124	76	-23
134	83	-23
126	78	-19
101	62	-20
61	38	-24
15	6	-19
-36	-24	-17
-83	-55	-19
-117	-78	-24
-136	-89	-25
-134	-87	-24
-115	-72	-26
-77	-48	-24
-29	-18	-22
22	14	-24
70	45	-25
107	67	-23
129	81	-21
132	84	-21
117	75	-19
85	53	-21
40	23	-19
-10	-11	-18
-59	-44	-21
-101	-71	-20
-130	-90	-23
-142	-95	-20
-134	-88	-23
-107	-69	-23
-64	-43	-22
-14	-12	-27
38	21	-26
84	49	-26
118	70	-25
131	83	-24
129	81	-21
107	67	-19
72	43	-20
27	12	-20
-23	-22	-21
-71	-52	-21
-110	-77	-23
-134	-91	-21
-141	-92	-21
-126	-82	-22
-93	-59	-20
-48	-28	-25
4	3	-25
54	36	-20
97	61	-23
123	78	-20
132	83	-19
123	77	-19
97	60	-18
58	34	-20
9	4	-19
-40	-28	-18
-86	-56	-20
-119	-79	-22
-138	-90	-28
-139	-87	-30
-119	-74	-28
-83	-49	-25
-33	-20	-26
19	13	-30
69	41	-25
107	64	-24
129	80	-25
132	82	-24
118	74	-24
87	53	-23
42	25	-23
-6	-8	-22
-56	-41	-18
-98	-68	-19
-128	-87	-24
-140	-92	-25
-130	-85	-25
-105	-65	-21
-61	-39	-24
-12	-8	-24
40	24	-24
86	51	-23
118	75	-21
133	85	-21
131	84	-19
111	70	-17
77	45	-19
30	14	-19
-20	-20	-18
-68	-50	-18
-108	-76	-23
-133	-88	-23
-139	-90	-25
-125	-81	-26
-93	-58	-23
-46	-31	-25
4	2	-27
55	32	-26
95	58	-23
122	77	-24
131	83	-21
123	79	-23
98	59	-20
58	35	-18
12	4	-20
-38	-29	-19
-82	-58	-21
-118	-80	-23
-137	-92	-23
-137	-92	-24
-119	-77	-25
-82	-52	-23
-34	-21	-24
20	13	-26
69	43	-24
107	67	-23
128	82	-16
131	84	-23
115	75	-25
83	53	-17
41	26	-22
-8	-8	-21
-55	-40	-22
-98	-67	-24
-126	-87	-24
-138	-93	-27
-132	-88	-24
-106	-68	-24
-65	-43	-25
-14	-10	-25
38	21	-25
84	49	-24
116	71	-21
131	83	-20
130	84	-21
107	68	-20
75	47	-18
29	16	-19
-20	-18	-19
-68	-49	-18
-108	-76	-22
-131	-90	-21
-139	-93	-21
-124	-82	-24
-94	-60	-23
-48	-31	-25
3	2	-25
52	32	-24
96	58	-22
122	77	-18
133	85	-18
124	80	-18
101	63	-19
59	38	-21
13	5	-16
-36	-28	-17
-84	-59	-21
-118	-81	-23
-137	-92	-25
-139	-90	-27
-120	-76	-26
-85	-53	-27
-36	-24	-27
16	8	-30
65	39	-25
105	62	-21
128	80	-22
131	84	-23
117	76	-22
86	56	-24
42	28	-21
-5	-5	-22
-54	-39	-23
-98	-66	-25
-128	-85	-25
-140	-92	-24
-132	-85	-24
-106	-66	-24
-64	-40	-24
-14	-9	-24
37	22	-24
83	50	-21
115	71	-21
131	84	-20
128	82	-20
110	69	-19
74	47	-22
30	16	-24
-20	-16	-19
-67	-49	-22
-107	-74	-24
-132	-90	-25
-139	-92	-27
-126	-82	-27
-95	-60	-27
-52	-31	-23
0	1	-22
50	32	-21
93	58	-22
122	77	-24
132	84	-20
126	79	-21
100	64	-20
62	38	-19
15	7	-18
-35	-27	-21
-81	-58	-21
-118	-82	-19
-137	-94	-23
-137	-92	-24
-117	-77	-24
-81	-52	-23
-32	-22	-22
20	11	-24
66	41	-25
106	64	-24
128	79	-22
132	83	-22
120	76	-20
90	57	-19
47	30	-21
-3	-4	-22
-54	-37	-23
-99	-66	-20
-128	-87	-24
-142	-93	-24
-134	-86	-26
-109	-68	-25
-67	-42	-24
-18	-11	-23
33	22	-23
80	49	-23
111	71	-23
129	84	-23
128	83	-19
109	69	-20
75	45	-21
30	14	-20
-19	-20	-20
-67	-50	-20
-105	-75	-21
-130	-90	-23
-138	-91	-25
-126	-82	-25
-97	-60	-24
-51	-33	-25
-1	-1	-25
50	30	-24
94	55	-23
122	76	-22
133	83	-21
124	80	-23
99	62	-21
59	37	-21
14	6	-20
-36	-27	-17
-80	-56	-26
-115	-80	-26
-134	-90	-23
-135	-89	-25
-118	-76	-23
-83	-51	-23
-36	-22	-25
16	10	-25
65	41	-22
104	65	-20
127	80	-20
131	84	-21
119	76	-22
89	55	-20
48	27	-21
-2	-5	-21
-51	-36	-21
-94	-64	-19
-127	-85	-21
-140	-92	-22
-134	-87	-22
-108	-68	-21
-67	-44	-24
-18	-11	-26
34	20	-22
81	48	-20
115	71	-21
131	82	-20
130	81	-18
110	68	-21
75	46	-23
29	17	-23
-22	-17	-24
-68	-46	-21
-109	-72	-23
-133	-88	-25
-140	-91	-25
-128	-81	-25
-97	-59	-26
-53	-31	-25
-2	0	-25
49	31	-28
93	57	-24
121	75	-21
133	83	-22
126	79	-21
101	62	-20
63	38	-20
16	7	-18
-32	-26	-20
-79	-58	-21
-115	-81	-23
-136	-93	-24
-137	-92	-25
-119	-77	-25
-84	-52	-24
-36	-21	-21
16	11	-24
65	40	-26
105	64	-24
126	80	-21
132	84	-20
119	75	-18
90	56	-21
48	27	-21
0	-5	-18
-49	-37	-19
-92	-65	-23
-123	-84	-21
-138	-92	-25
-132	-87	-26
-108	-69	-23
-67	-45	-24
-19	-13	-23
33	19	-25
80	50	-24
113	71	-25
131	84	-24
130	84	-21
111	69	-21
78	47	-20
32	16	-19
-16	-16	-19
-64	-48	-22
-106	-74	-23
-133	-90	-24
-140	-94	-24
-128	-84	-21
-97	-62	-23
-52	-32	-25
-1	1	-24
50	32	-23
92	60	-25
121	79	-23
132	85	-22
127	80	-19
103	64	-21
64	39	-21
18	7	-21
-32	-26	-19
-79	-55	-20
-116	-78	-24
-136	-90	-26
-138	-88	-23
-121	-76	-25
-87	-53	-27
-40	-25	-28
12	6	-27
60	36	-25
101	61	-24
125	78	-23
132	83	-23
120	76	-21
91	56	-19
49	27	-20
0	-5	-20
-47	-38	-20
-93	-65	-21
-124	-85	-20
-138	-94	-21
-135	-87	-24
-110	-71	-24
-70	-44	-23
-20	-14	-22
32	18	-23
80	48	-21
114	70	-22
131	84	-22
130	84	-20
111	72	-21
78	50	-18
33	21	-18
-16	-13	-21
-64	-44	-19
-106	-71	-20
-132	-90	-22
-142	-92	-22
-131	-85	-23
-102	-63	-24
-58	-35	-25
-5	-4	-27
45	28	-24
90	54	-20
120	74	-22
132	83	-23
126	80	-22
104	65	-21
66	41	-26
20	11	-22
-28	-23	-21
-76	-53	-26
-112	-79	-23
-133	-92	-25
-136	-91	-25
-120	-78	-25
-85	-53	-26
-38	-24	-24
14	8	-23
63	39	-21
102	64	-22
125	80	-21
130	83	-21
118	76	-20
89	56	-20
48	30	-20
1	-2	-18
-50	-34	-19
-93	-62	-23
-126	-85	-24
-140	-93	-23
-135	-88	-23
-112	-70	-25
-71	-43	-25
-22	-12	-26
31	20	-24
78	48	-25
113	71	-22
132	82	-23
132	83	-23
114	71	-21
79	49	-23
34	21	-20
-17	-13	-22
-64	-45	-22
-105	-74	-20
-129	-89	-22
-138	-92	-24
-127	-84	-25
-99	-62	-25
-55	-36	-27
-3	-4	-27
47	27	-22
91	54	-18
122	75	-21
133	82	-21
128	81	-20
103	64	-22
65	40	-23
18	8	-17
-32	-25	-15
-78	-54	-21
-113	-78	-22
-132	-89	-25
-136	-90	-25
-119	-78	-25
-87	-54	-25
-40	-25	-27
12	8	-25
59	38	-23
101	63	-23
125	80	-23
132	85	-22
120	78	-20
92	59	-20
50	32	-20
2	-2	-19
-48	-35	-25
-92	-64	-26
-122	-84	-20
-138	-92	-25
-133	-88	-25
-109	-70	-24
-70	-46	-26
-20	-15	-27
29	16	-25
77	45	-23
111	67	-23
129	81	-20
129	83	-22
110	71	-19
78	50	-18
33	20	-19
-15	-13	-19
-64	-46	-19
-103	-74	-21
-130	-90	-23
-140	-95	-24
-129	-86	-23
-101	-65	-24
-56	-37	-24
-6	-6	-25
44	25	-21
88	52	-24
119	71	-23
132	81	-17
127	80	-19
105	66	-17
68	43	-20
21	13	-18
-29	-20	-18
-76	-51	-21
-112	-75	-20
-135	-90	-24
-138	-90	-26
-122	-78	-27
-87	-55	-27
-40	-24	-27
12	8	-28
62	39	-27
102	63	-24
127	79	-23
132	85	-23
121	77	-23
91	59	-21
50	32	-18
3	0	-18
-46	-33	-23
-89	-63	-23
-122	-85	-23
-137	-94	-25
-136	-90	-24
-115	-74	-27
-75	-47	-25
-26	-15	-24
27	16	-25
75	45	-23
110	67	-22
129	80	-19
129	80	-20
111	70	-21
80	49	-21
36	21	-21
-14	-11	-19
-62	-44	-19
-104	-69	-23
-130	-87	-25
-142	-92	-27
-132	-84	-24
-102	-62	-24
-59	-35	-24
-8	-4	-22
44	29	-26
90	56	-26
120	76	-26
132	85	-24
128	81	-20
106	65	-18
69	39	-20
22	9	-18
-26	-25	-19
-72	-53	-19
-110	-76	-18
-131	-89	-25
-135	-89	-22
-120	-78	-21
-88	-56	-23
-42	-29	-20
9	3	-27
59	34	-21
102	58	-23
125	76	-21
132	80	-20
121	74	-20
94	56	-18
52	29	-20
5	-2	-20
-43	-34	-20
-88	-61	-21
-120	-84	-21
-136	-92	-23
-133	-87	-26
-111	-71	-25
-70	-45	-24
-23	-14	-24
29	18	-24
77	47	-24
111	70	-22
131	83	-24
132	83	-23
115	72	-22
83	50	-22
38	23	-19
-12	-11	-19
-60	-43	-25
-103	-69	-27
-130	-88	-24
-139	-92	-26
-129	-84	-26
-100	-64	-24
-58	-36	-26
-9	-5	-25
42	27	-24
85	53	-23
116	74	-21
130	82	-21
125	81	-20
105	66	-21
67	43	-20
21	14	-19
-28	-20	-21
-75	-50	-19
-113	-76	-23
-136	-88	-24
-141	-90	-23
-126	-80	-24
-93	-57	-26
-46	-28	-24
8	4	-26
58	35	-25
99	61	-22
125	77	-21
132	83	-21
121	76	-20
93	57	-19
52	31	-17
5	-1	-18
-43	-33	-19
-89	-62	-19
-121	-84	-23
-137	-94	-23
-134	-90	-23
-111	-74	-21
-72	-48	-24
-25	-16	-26
27	18	-24
75	47	-23
111	70	-21
130	82	-21
131	84	-21
115	72	-22
82	52	-19
37	24	-15
-10	-10	-18
-57	-43	-19
-100	-69	-22
-126	-87	-19
-137	-93	-24
-128	-84	-27
-102	-63	-26
-60	-36	-30
-8	-3	-24
42	28	-23
87	56	-22
118	75	-23
131	84	-21
124	83	-21
103	67	-19
65	43	-20
20	13	-21
-26	-20	-20
-72	-51	-23
-109	-76	-22
-132	-88	-25
-137	-90	-25
-125	-79	-26
-93	-57	-25
-47	-30	-27
4	3	-27
54	33	-26
97	58	-24
124	76	-21
132	82	-21
123	76	-20
96	58	-21
52	31	-20
6	0	-18
-43	-32	-20
-87	-61	-21
-120	-82	-23
-137	-91	-24
-134	-88	-26
-113	-74	-26
-76	-49	-25
-27	-18	-24
24	14	-26
72	44	-25
109	68	-23
130	82	-22
131	84	-20
115	71	-18
82	51	-18
40	20	-17
-10	-12	-16
-58	-43	-17
-100	-69	-21
-127	-87	-22
-137	-93	-24
-130	-85	-25
-102	-65	-23
-60	-38	-26
-10	-6	-28
40	25	-25
83	53	-23
115	72	-25
129	83	-23
126	81	-21
105	68	-22
68	43	-19
23	14	-17
-26	-19	-16
-72	-51	-24
-111	-76	-27
-133	-92	-25
-139	-93	-28
-123	-82	-25
-92	-58	-26
-46	-29	-28
6	4	-27
56	34	-27
100	60	-23
127	77	-24
136	82	-24
125	76	-22
97	57	-19
54	29	-21
6	-1	-20
-42	-35	-20
-87	-61	-21
-118	-83	-20
-136	-92	-20
-134	-87	-21
-114	-71	-23
-78	-46	-23
-29	-16	-25
23	17	-25
72	46	-24
107	68	-22
130	81	-21
131	84	-21
114	74	-19
82	52	-20
38	24	-21
-10	-10	-22
-60	-43	-24
-101	-69	-25
-128	-89	-24
-139	-93	-25
-130	-85	-26
-104	-64	-26
-60	-36	-25
-11	-5	-24
40	27	-21
86	53	-21
116	74	-24
131	83	-22
127	81	-18
106	68	-18
70	43	-19
28	13	-18
-23	-20	-17
-68	-50	-19
-106	-76	-22
-130	-90	-21
-136	-91	-23
-124	-81	-25
-91	-58	-24
-46	-31	-27
5	2	-27
55	32	-27
99	58	-24
124	76	-21
133	83	-23
124	78	-22
96	59	-22
57	34	-18
8	1	-18
-43	-33	-19
-88	-61	-20
-122	-84	-21
-138	-92	-24
-136	-91	-22
-115	-72	-21
-77	-48	-23
-30	-17	-26
22	16	-25
69	43	-21
107	67	-24
128	81	-22
132	83	-21
116	74	-21
85	53	-19
42	27	-20
-7	-5	-19
-55	-37	-19
-98	-65	-21
-126	-85	-24
-137	-91	-22
-130	-85	-21
-105	-66	-23
-64	-40	-26
-14	-9	-27
37	24	-26
85	52	-25
117	72	-22
131	83	-21
129	82	-21
107	67	-22
74	44	-20
27	15	-21
-21	-17	-22
-68	-49	-24
-108	-76	-24
-133	-89	-21
-141	-94	-25
-126	-83	-24
-94	-60	-21
-47	-29	-22
5	5	-28
56	37	-28
99	61	-20
124	78	-19
132	83	-18
123	77	-18
97	59	-18
58	34	-20
11	3	-16
-39	-30	-19
-86	-61	-21
-120	-84	-21
-140	-95	-24
-137	-92	-24
-117	-77	-26
-80	-51	-25
-31	-19	-24
20	13	-28
68	43	-25
106	65	-24
127	80	-22
130	84	-21
115	72	-20
85	51	-21
41	22	-19
-10	-12	-23
-58	-44	-21
-101	-71	-21
-130	-88	-24
-141	-93	-26
-134	-85	-26
-108	-66	-25
-65	-39	-26
-15	-8	-25
37	24	-23
85	51	-24
118	72	-28
134	85	-22
131	83	-23
110	68	-23
72	43	-18
28	12	-21
-22	-20	-21
-67	-51	-21
-107	-76	-21
-131	-91	-26
-139	-93	-25
-126	-82	-24
-96	-61	-25
-51	-33	-21
1	-1	-23
52	31	-24
96	57	-24
124	77	-22
133	85	-20
124	80	-19
99	62	-21
58	35	-19
11	4	-19
-39	-29	-19
-84	-60	-18
-118	-80	-20
-137	-90	-23
-136	-86	-25
-116	-70	-22
-80	-46	-20
-31	-16	-28
22	17	-30
71	47	-23
110	71	-23
132	86	-24
136	87	-21
121	78	-21
89	56	-18
44	25	-19
-6	-8	-20
-54	-41	-22
-99	-68	-22
-127	-86	-24
-140	-93	-24
-133	-87	-23
-107	-69	-25
-65	-42	-24
-14	-11	-26
37	22	-25
83	51	-22
115	71	-22
130	82	-23
127	79	-20
107	65	-21
71	41	-20
26	13	-18
-22	-19	-19
-69	-51	-19
-108	-75	-23
-134	-91	-22
-139	-93	-24
-126	-83	-25
-95	-61	-25
-49	-32	-25
2	1	-24
52	33	-23
94	59	-23
124	78	-23
134	84	-18
126	80	-20
101	63	-17
59	37	-18
11	6	-23
-39	-29	-18
-86	-57	-19
-120	-82	-25
-139	-92	-25
-138	-90	-24
-119	-76	-25
-82	-50	-26
-33	-21	-26
20	14	-26
68	43	-24
106	67	-20
129	83	-21
131	85	-21
118	76	-19
87	54	-20
44	26	-21
-3	-6	-20
-52	-39	-22
-96	-65	-22
-126	-86	-22
-140	-92	-23
-134	-86	-26
-109	-66	-28
-67	-41	-25
-16	-9	-25
37	22	-26
83	50	-26
116	71	-23
132	82	-18
131	82	-22
109	69	-25
75	47	-24
30	17	-23
-20	-17	-22
-67	-47	-24
-108	-72	-22
-130	-88	-24
-139	-90	-23
-127	-80	-25
-98	-59	-27
-53	-33	-26
-1	0	-26
48	30	-25
93	57	-21
121	76	-20
132	83	-21
124	79	-21
99	60	-20
60	34	-19
13	1	-21
-34	-32	-21
-82	-60	-21
-117	-82	-20
-135	-92	-22
-136	-90	-26
-117	-77	-22
-81	-52	-26
-31	-22	-26
20	11	-25
68	41	-25
107	65	-24
128	80	-21
132	83	-20
118	72	-20
89	54	-21
46	28	-21
-2	-5	-19
-52	-36	-19
-96	-65	-19
-126	-85	-20
-141	-93	-22
-134	-88	-24
-111	-69	-25
-69	-43	-26
-20	-11	-26
33	21	-23
81	50	-23
114	70	-27
132	82	-27
129	83	-17
111	70	-18
74	49	-19
28	19	-18
-21	-15	-19
-68	-48	-15
-107	-74	-23
-133	-89	-22
-139	-92	-25
-126	-81	-29
-95	-59	-22
-50	-30	-27
2	1	-26
52	31	-26
94	57	-23
123	75	-22
132	84	-21
123	81	-20
97	65	-21
57	40	-17
13	8	-19
-37	-25	-21
-81	-56	-20
-116	-80	-20
-134	-92	-23
-136	-90	-25
-118	-77	-25
-83	-52	-27
-35	-22	-26
17	10	-27
65	40	-24
105	64	-24
128	80	-19
133	84	-20
119	75	-21
90	55	-21
48	26	-19
-1	-6	-17
-50	-40	-18
-95	-66	-20
-125	-86	-23
-139	-94	-24
-134	-88	-26
-109	-70	-23
-68	-44	-24
-18	-14	-25
33	19	-23
81	48	-25
114	69	-21
131	81	-21
131	81	-21
111	69	-20
78	47	-20
33	18	-20
-18	-15	-20
-64	-47	-20
-104	-72	-20
-129	-90	-22
-138	-93	-23
-126	-85	-24
-98	-63	-23
-54	-35	-24
-5	-2	-25
46	30	-22
92	57	-24
121	77	-21
133	85	-23
124	81	-22
99	65	-21
58	38	-23
12	7	-17
-36	-27	-19
-82	-56	-19
-115	-78	-22
-135	-90	-25
-136	-89	-25
-118	-76	-28
-84	-51	-27
-36	-23	-26
15	11	-24
65	41	-25
103	67	-23
127	82	-19
131	84	-21
119	76	-20
89	56	-16
48	28	-20
-1	-4	-22
-50	-37	-19
-93	-63	-23
-124	-85	-25
-137	-92	-25
-132	-89	-25
-108	-70	-25
-67	-43	-24
-19	-12	-25
32	21	-27
79	49	-24
113	69	-23
130	81	-21
130	80	-20
111	68	-18
77	45	-18
31	17	-19
-20	-16	-16
-65	-49	-19
-108	-76	-18
-133	-92	-23
-140	-93	-26
-128	-82	-25
-98	-60	-28
-54	-32	-27
-3	0	-26
49	31	-26
92	57	-23
122	76	-24
132	83	-24
127	81	-22
102	64	-22
64	39	-22
16	7	-20
-32	-27	-21
-79	-57	-22
-114	-82	-24
-135	-93	-23
-137	-91	-23
-120	-77	-22
-85	-52	-21
-37	-21	-26
16	12	-27
65	40	-26
104	65	-25
127	80	-24
132	83	-23
119	76	-19
90	55	-20
46	28	-20
-1	-5	-21
-50	-37	-21
-94	-66	-21
-125	-85	-25
-139	-92	-27
-132	-88	-26
-109	-69	-26
-68	-44	-24
-19	-12	-24
33	19	-25
81	48	-24
113	70	-21
131	81	-21
130	81	-21
111	68	-21
78	47	-19
33	16	-21
-15	-16	-21
-63	-47	-21
-102	-72	-19
-129	-88	-26
-137	-92	-25
-128	-82	-23
-100	-61	-30
-57	-33	-25
-6	-1	-28
44	30	-27
89	57	-25
121	76	-23
133	85	-21
127	81	-19
104	66	-20
63	41	-22
17	9	-20
-33	-24	-18
-79	-56	-17
-113	-80	-20
-134	-92	-23
-135	-92	-21
-119	-78	-24
-85	-55	-26
-37	-24	-24
16	8	-25
65	39	-22
106	65	-19
129	81	-20
133	85	-20
121	76	-19
91	56	-19
48	28	-20
1	-4	-19
-48	-37	-21
-92	-64	-24
-124	-85	-23
-139	-94	-24
-135	-88	-25
-111	-70	-26
-71	-44	-24
-20	-13	-24
31	18	-25
78	48	-24
113	68	-24
130	82	-24
130	83	-20
111	71	-17
78	49	-18
32	18	-21
-18	-15	-23
-64	-48	-21
-105	-72	-22
-130	-90	-23
-139	-94	-22
-126	-84	-25
-97	-63	-24
-54	-35	-21
-3	-2	-24
47	30	-22
91	57	-24
121	77	-24
132	85	-22
125	80	-24
102	64	-20
63	39	-19
17	8	-22
-31	-24	-25
-79	-53	-22
-114	-78	-26
-135	-92	-25
-139	-92	-23
-122	-81	-26
-88	-56	-22
-39	-26	-23
13	7	-24
63	38	-23
102	64	-23
127	81	-20
132	85	-17
119	78	-19
92	58	-18
49	31	-18
2	-1	-19
-50	-35	-20
-94	-64	-25
-124	-86	-24
-140	-93	-24
-136	-88	-24
-112	-71	-25
-71	-44	-27
-22	-13	-27
30	19	-26
78	47	-22
113	69	-24
132	83	-21
131	84	-21
114	72	-22
81	49	-19
36	20	-19
-12	-14	-21
-60	-46	-21
-101	-70	-22
-129	-88	-24
-138	-92	-24
-130	-84	-24
-102	-64	-24
-58	-37	-24
-8	-5	-24
44	27	-25
89	54	-24
121	75	-22
133	84	-21
128	81	-16
104	64	-19
66	39	-19
20	8	-18
-30	-25	-20
-77	-54	-21
-114	-79	-26
-135	-90	-25
-137	-90	-25
-122	-77	-25
-88	-53	-25
-41	-26	-25
11	8	-25
59	39	-24
102	65	-24
125	81	-24
132	85	-19
120	79	-17
90	58	-18
49	31	-18
0	-3	-18
-48	-36	-18
-92	-64	-22
-122	-86	-24
-137	-92	-22
-134	-88	-25
-111	-70	-23
-72	-46	-26
-24	-15	-25
27	18	-26
76	47	-27
111	70	-24
130	83	-25
131	84	-22
113	72	-19
81	49	-19
34	20	-20
-15	-14	-20
-64	-45	-20
-104	-71	-22
-130	-87	-23
-140	-92	-23
-130	-83	-22
-101	-63	-24
-58	-37	-23
-8	-4	-22
44	27	-23
90	55	-22
120	75	-19
132	84	-17
126	80	-17
104	63	-18
66	39	-22
20	8	-23
-29	-23	-20
-77	-52	-21
-112	-76	-20
-136	-89	-23
-139	-90	-25
-122	-80	-28
-88	-57	-28
-40	-27	-26
12	6	-27
62	37	-27
102	63	-25
127	79	-24
133	83	-25
122	76	-22
94	58	-21
52	32	-20
4	0	-18
-46	-33	-21
-89	-63	-21
-121	-84	-21
-136	-93	-20
-133	-89	-24
-111	-71	-26
-71	-46	-22
-24	-15	-25
28	16	-24
76	45	-21
111	67	-23
130	80	-23
132	82	-19
115	71	-19
82	51	-19
37	21	-20
-12	-11	-23
-59	-43	-20
-101	-69	-23
-129	-86	-25
-139	-92	-25
-132	-83	-27
-102	-65	-24
-60	-38	-22
-10	-7	-22
42	25	-29
88	53	-25
120	72	-22
132	83	-25
128	78	-20
105	64	-20
66	38	-20
20	9	-21
-29	-24	-23
-74	-53	-19
-111	-76	-22
-132	-88	-23
-137	-89	-23
-121	-79	-26
-88	-56	-26
-42	-26	-26
9	6	-26
58	38	-23
99	64	-20
123	81	-20
131	85	-19
120	76	-18
93	58	-21
52	30	-19
5	-1	-19
-42	-34	-21
-87	-61	-23
-120	-83	-23
-136	-92	-21
-134	-89	-26
-113	-74	-26
-74	-46	-26
-23	-15	-26
29	19	-25
77	47	-24
111	68	-21
129	80	-23
129	81	-21
113	69	-15
81	48	-19
35	21	-21
-13	-11	-20
-60	-45	-24
-102	-71	-22
-130	-89	-24
-141	-93	-25
-130	-85	-26
-103	-64	-27
-59	-37	-26
-10	-6	-28
43	25	-24
87	51	-23
118	71	-24
132	83	-24
127	82	-21
105	68	-20
67	43	-19
21	12	-19
-29	-23	-18
-76	-55	-18
-113	-80	-21
-135	-94	-23
-137	-93	-24
-120	-81	-22
-87	-57	-24
-42	-28	-26
9	6	-26
58	37	-23
99	62	-21
125	79	-22
133	84	-22
123	78	-22
97	59	-20
54	32	-20
6	1	-20
-42	-32	-21
-88	-61	-22
-120	-84	-24
-137	-92	-26
-135	-89	-24
-113	-72	-23
-77	-46	-25
-27	-14	-30
25	18	-26
72	46	-24
107	69	-25
128	82	-23
130	83	-22
113	72	-19
81	52	-20
36	24	-19
-12	-9	-21
-60	-42	-23
-102	-68	-23
-129	-87	-25
-139	-92	-25
-129	-85	-25
-103	-65	-25
-61	-38	-26
-11	-7	-27
39	23	-24
85	51	-23
116	72	-19
132	83	-18
129	81	-19
107	66	-20
69	42	-19
22	11	-18
-27	-23	-18
-76	-53	-20
-111	-79	-23
-134	-91	-25
-138	-92	-23
-123	-79	-24
-92	-56	-25
-45	-26	-24
7	6	-27
57	37	-22
99	62	-21
126	79	-23
133	84	-25
123	78	-23
97	58	-16
56	32	-18
9	0	-20
-40	-33	-20
-86	-61	-22
-119	-84	-24
-137	-92	-24
-135	-89	-25
-113	-72	-23
-76	-48	-23
-26	-16	-24
25	14	-25
72	43	-23
107	65	-22
128	79	-24
130	83	-22
116	74	-21
85	56	-20
42	27	-23
-5	-6	-19
-56	-40	-19
-100	-69	-20
-129	-88	-22
-141	-93	-25
-133	-86	-23
-104	-65	-25
-61	-38	-27
-11	-6	-26
41	24	-23
85	52	-21
117	74	-23
129	84	-21
125	83	-19
104	69	-20
68	45	-19
23	14	-20
-27	-20	-19
-74	-52	-21
-111	-77	-24
-133	-91	-23
-139	-92	-24
-123	-80	-25
-91	-57	-26
-44	-27	-27
9	5	-25
57	35	-24
99	60	-23
124	76	-22
132	83	-20
121	76	-22
94	59	-20
56	34	-20
8	3	-19
-41	-30	-19
-87	-61	-23
-121	-83	-24
-138	-95	-25
-136	-92	-26
-115	-76	-27
-78	-48	-25
-28	-17	-24
24	16	-24
71	45	-20
109	68	-22
128	83	-21
131	85	-20
115	75	-19
84	53	-17
41	23	-19
-7	-10	-20
-57	-44	-21
-99	-69	-23
-128	-87	-25
-139	-92	-22
-130	-84	-26
-104	-66	-25
-62	-40	-24
-12	-11	-24
39	22	-22
86	49	-23
117	71	-22
132	83	-20
129	81	-20
109	67	-18
74	43	-16
28	13	-16
-22	-20	-19
-69	-50	-20
-107	-72	-22
-131	-88	-25
-136	-90	-24
-123	-80	-24
-92	-57	-23
-45	-29	-25
7	3	-27
56	34	-25
98	60	-26
126	79	-25
132	84	-24
123	80	-20
96	62	-21
56	36	-22
8	4	-22
-42	-29	-23
-88	-60	-23
-122	-83	-27
-140	-93	-27
-139	-92	-22
-120	-77	-22
-83	-51	-28
-32	-21	-29
20	12	-23
69	41	-24
107	65	-21
127	79	-23
130	81	-21
115	72	-21
85	53	-21
42	26	-18
-6	-7	-20
-53	-38	-21
-97	-66	-24
-126	-86	-24
-140	-92	-24
-133	-86	-23
-105	-65	-24
-63	-40	-26
-14	-8	-26
36	24	-24
82	49	-21
114	71	-23
130	82	-21
127	81	-21
107	68	-20
72	45	-21
24	17	-19
-25	-18	-18
-71	-49	-18
-109	-75	-20
-133	-90	-23
-137	-93	-23
-121	-82	-23
-91	-59	-24
-45	-30	-25
6	3	-25
55	33	-24
97	59	-26
124	77	-24
133	82	-21
124	77	-20
99	60	-22
59	35	-20
12	3	-17
-38	-29	-20
-83	-58	-20
-118	-82	-21
-137	-92	-22
-137	-89	-25
-119	-75	-27
-81	-51	-24
-32	-19	-25
19	14	-24
68	42	-24
106	67	-23
128	81	-24
132	84	-20
117	74	-20
86	53	-19
42	26	-20
-7	-5	-18
-56	-36	-19
-97	-64	-24
-127	-82	-22
-139	-90	-25
-130	-85	-24
-107	-67	-25
-66	-43	-27
-18	-11	-25
34	21	-24
81	51	-22
115	74	-22
132	85	-19
129	85	-21
110	70	-22
75	45	-20
28	15	-18
-23	-20	-16
-68	-51	-23
-109	-76	-23
-133	-90	-23
-139	-93	-26
-126	-81	-26
-93	-58	-27
-46	-29	-22
6	2	-23
58	33	-26
99	59	-21
125	77	-22
132	84	-22
123	78	-20
97	60	-19
58	35	-20
10	2	-19
-38	-32	-19
-83	-61	-21
-119	-82	-25
-137	-93	-24
-137	-90	-24
-118	-76	-28
-82	-52	-27
-33	-22	-29
18	11	-25
66	41	-24
105	64	-24
125	80	-20
131	84	-21
117	74	-20
89	55	-20
46	26	-21
-2	-5	-19
-50	-37	-19
-96	-65	-23
-126	-86	-23
-139	-93	-24
-131	-87	-25
-105	-68	-24
-63	-40	-25
-13	-8	-25
39	23	-25
85	51	-25
116	71	-27
132	82	-23
130	79	-22
110	67	-23
75	43	-20
27	14	-18
-23	-19	-18
-70	-50	-18
-111	-76	-19
-135	-90	-23
-141	-92	-21
-126	-81	-22
-95	-59	-24
-50	-30	-20
1	2	-21
52	32	-23
95	58	-24
123	77	-23
133	83	-21
124	78	-23
98	61	-21
56	34	-19
8	3	-18
-41	-32	-20
-87	-60	-21
-120	-82	-21
-138	-92	-21
-138	-89	-21
-119	-75	-23
-82	-51	-24
-34	-22	-24
20	11	-28
69	40	-27
107	65	-24
130	81	-24
132	84	-21
119	76	-22
88	55	-21
45	27	-23
-2	-4	-23
-50	-37	-19
-93	-62	-21
-123	-82	-23
-136	-89	-24
-131	-85	-26
-107	-67	-26
-66	-42	-26
-18	-13	-28
34	21	-25
80	50	-24
113	72	-23
130	83	-22
128	82	-22
107	68	-22
74	43	-23
29	15	-23
-21	-19	-21
-67	-49	-23
-108	-75	-21
-132	-89	-23
-139	-92	-26
-126	-81	-23
-95	-58	-24
-51	-31	-25
1	3	-25
50	33	-23
94	58	-21
122	78	-19
132	83	-17
125	80	-20
100	62	-16
62	38	-17
13	7	-17
-36	-28	-18
-83	-58	-21
-118	-82	-20
-137	-93	-24
-139	-91	-24
-118	-75	-26
-84	-49	-27
-35	-21	-25
18	11	-24
66	40	-24
105	64	-23
127	79	-23
132	82	-21
118	75	-19
90	56	-23
47	28	-19
1	-5	-16
-48	-37	-18
-92	-65	-19
-123	-84	-21
-138	-90	-24
-133	-85	-24
-110	-65	-23
-68	-41	-23
-19	-11	-24
33	21	-26
80	48	-24
114	71	-23
131	83	-23
128	83	-24
109	70	-21
72	45	-22
28	16	-23
-21	-19	-18
-69	-50	-21
-110	-77	-21
-135	-90	-20
-141	-93	-23
-129	-83	-25
-97	-61	-27
-52	-33	-26
-1	-2	-24
50	27	-24
92	55	-23
121	74	-22
131	82	-20
123	79	-18
98	61	-18
59	35	-20
12	2	-20
-38	-30	-21
-84	-59	-21
-118	-82	-23
-136	-90	-24
-135	-89	-25
-116	-74	-24
-80	-51	-25
-32	-21	-25
20	11	-24
68	41	-22
109	67	-23
131	82	-24
137	86	-23
123	79	-21
92	59	-21
50	29	-19
2	-3	-21
-47	-36	-19
-92	-64	-22
-122	-84	-26
-136	-93	-24
-131	-87	-24
-107	-71	-24
-67	-45	-24
-18	-13	-23
33	18	-21
79	49	-26
114	70	-23
130	83	-17
128	82	-17
107	70	-16
74	47	-17
28	16	-18
-22	-17	-20
-68	-49	-21
-109	-74	-22
-133	-89	-23
-142	-92	-22
-129	-82	-23
-100	-62	-24
-54	-34	-25
-2	-2	-27
49	30	-26
95	56	-24
124	75	-24
136	84	-24
127	79	-23
103	65	-22
63	39	-23
16	9	-21
-34	-24	-20
-82	-55	-22
-116	-79	-23
-136	-93	-24
-138	-92	-22
-121	-80	-25
-85	-54	-30
-36	-24	-23
15	8	-26
64	39	-26
103	62	-24
127	80	-24
131	83	-21
119	76	-23
90	57	-20
48	30	-19
0	-2	-17
-49	-35	-21
-92	-62	-23
-124	-84	-19
-138	-93	-22
-133	-88	-20
-111	-71	-26
-69	-43	-27
-22	-12	-24
31	20	-23
79	49	-21
113	70	-22
132	83	-19
131	82	-21
113	70	-23
78	47	-20
34	19	-20
-16	-16	-21
-63	-47	-20
-104	-72	-22
-130	-89	-22
-138	-92	-23
-128	-84	-25
-98	-61	-27
-53	-33	-27
0	-1	-25
49	32	-24
93	58	-20
121	78	-21
132	85	-20
125	81	-20
101	64	-20
63	39	-22
15	9	-20
-35	-25	-19
-82	-53	-21
-117	-78	-19
-136	-89	-21
-139	-87	-24
-120	-75	-24
-85	-51	-21
-37	-22	-25
15	10	-28
63	40	-22
104	63	-22
127	80	-21
132	82	-22
120	74	-20
89	53	-19
47	27	-21
-1	-6	-20
-50	-38	-21
-93	-66	-23
-123	-87	-24
-138	-94	-26
-134	-90	-24
-111	-71	-24
-71	-47	-30
-23	-15	-28
28	19	-23
77	48	-26
111	71	-21
130	85	-21
130	85	-23
111	74	-19
78	50	-19
32	20	-18
-19	-15	-21
-67	-46	-21
-107	-72	-25
-133	-88	-28
-139	-92	-28
-127	-82	-28
-99	-60	-27
-54	-35	-26
-5	-3	-25
46	27	-24
92	55	-23
123	75	-25
137	84	-21
130	80	-21
106	64	-17
66	39	-16
18	6	-16
-32	-27	-19
-77	-56	-23
-113	-79	-21
-134	-90	-23
-136	-92	-26
-120	-80	-27
-85	-56	-25
-39	-25	-23
13	7	-25
64	38	-25
104	63	-23
128	79	-21
133	84	-19
122	75	-18
93	56	-19
52	30	-19
4	-3	-20
-47	-34	-19
-91	-62	-21
-125	-82	-21
-140	-92	-21
-137	-87	-24
-113	-69	-26
-74	-44	-26
-24	-13	-21
28	19	-23
76	49	-24
111	70	-24
130	81	-22
130	84	-20
111	71	-19
78	50	-19
34	20	-21
-16	-12	-20
-63	-46	-21
-106	-72	-21
-133	-89	-22
-141	-94	-26
-130	-85	-25
-101	-64	-25
-56	-35	-24
-5	-3	-25
46	28	-24
90	55	-23
119	75	-23
131	84	-21
125	80	-17
102	66	-18
64	41	-25
17	11	-23
-31	-22	-21
-77	-53	-24
-113	-78	-24
-133	-92	-24
-137	-90	-24
-120	-78	-25
-87	-54	-24
-39	-24	-26
13	7	-27
63	38	-23
104	61	-23
127	79	-21
133	83	-17
120	74	-17
93	55	-15
51	28	-20
5	-2	-20
-43	-36	-19
-88	-62	-25
-121	-82	-26
-138	-92	-23
-136	-87	-23
-114	-71	-21
-75	-47	-24
-26	-16	-24
27	16	-25
75	45	-25
110	68	-24
129	82	-23
130	83	-20
114	72	-21
82	49	-21
38	21	-20
-10	-12	-20
-59	-45	-21
-101	-71	-18
-129	-89	-21
-138	-92	-26
-128	-84	-26
-100	-64	-27
-56	-34	-25
-6	-4	-27
44	28	-24
89	56	-23
120	75	-24
133	83	-20
128	80	-21
105	64	-21
65	39	-19
19	9	-19
-32	-24	-20
-79	-54	-22
-116	-79	-25
-136	-91	-22
-139	-90	-24
-123	-78	-25
-88	-54	-24
-42	-25	-25
12	8	-25
62	38	-23
103	64	-22
127	81	-21
132	85	-21
121	79	-22
92	58	-21
50	31	-20
3	-1	-21
-46	-35	-22
-91	-63	-21
-123	-85	-19
-139	-91	-18
-137	-86	-24
-113	-68	-30
-75	-43	-23
-24	-15	-26
29	18	-25
77	45	-23
111	68	-21
130	81	-17
131	82	-22
113	71	-22
81	50	-19
34	22	-16
-14	-12	-20
-60	-43	-20
-103	-70	-20
-129	-87	-23
-141	-91	-25
-130	-84	-30
-104	-63	-27
-60	-36	-24
-8	-5	-24
42	27	-24
89	54	-22
119	75	-19
133	83	-18
128	81	-19
105	65	-21
67	41	-19
20	10	-20
-28	-25	-22
-77	-56	-21
-112	-81	-22
-134	-92	-24
-136	-92	-25
-120	-78	-26
-87	-53	-26
-40	-24	-24
12	8	-27
62	38	-24
101	62	-21
127	77	-22
133	84	-19
122	78	-22
94	59	-20
51	32	-18
5	0	-21
-46	-32	-23
-89	-61	-23
-122	-82	-21
-137	-90	-24
-135	-89	-28
-113	-74	-26
-76	-50	-28
-28	-19	-27
24	12	-24
72	41	-23
107	66	-23
128	80	-22
129	82	-19
113	70	-21
80	49	-21
37	20	-19
-12	-12	-20
-58	-44	-20
-100	-70	-21
-126	-87	-23
-137	-92	-25
-129	-84	-24
-102	-64	-23
-60	-37	-25
-9	-5	-19
41	27	-17
86	55	-24
118	76	-23
131	85	-21
127	83	-24
104	67	-22
66	43	-21
20	11	-22
-30	-22	-21
-78	-53	-22
-115	-76	-23
-136	-89	-26
-140	-89	-24
-123	-77	-25
-89	-55	-24
-41	-26	-25
11	6	-27
60	35	-23
101	61	-23
126	78	-24
133	84	-22
123	76	-21
95	59	-19
53	30	-18
5	-2	-21
-45	-34	-23
-91	-63	-23
-122	-84	-28
-139	-93	-27
-136	-88	-26
-113	-71	-24
-76	-46	-21
-26	-16	-25
24	15	-25
74	44	-24
110	67	-23
131	81	-21
131	83	-20
114	74	-21
81	53	-20
36	23	-17
-12	-9	-17
-61	-43	-19
-102	-68	-20
-129	-87	-23
-140	-92	-23
-130	-84	-25
-104	-64	-27
-60	-36	-27
-9	-5	-25
42	26	-23
88	52	-24
120	74	-22
135	83	-21
130	82	-18
109	67	-18
71	43	-22
26	12	-19
-25	-22	-21
-74	-54	-20
-112	-79	-21
-136	-93	-23
-140	-94	-22
-125	-82	-27
-90	-57	-30
-42	-28	-28
11	5	-23
60	35	-24
101	59	-23
125	76	-24
131	80	-21
120	76	-19
93	59	-20
54	33	-18
7	2	-19
-42	-32	-19
-88	-61	-19
-121	-83	-23
-138	-92	-24
-137	-88	-25
-117	-74	-24
-81	-47	-24
-32	-17	-25
20	15	-23
68	45	-23
107	68	-22
130	83	-20
133	84	-19
117	72	-15
85	50	-18
41	22	-19
-10	-11	-23
-56	-43	-25
-99	-68	-23
-125	-86	-24
-138	-90	-23
-129	-84	-26
-104	-66	-27
-61	-40	-23
-10	-8	-26
41	25	-24
89	52	-25
121	74	-24
135	85	-22
131	83	-23
107	68	-20
72	43	-19
25	13	-19
-25	-21	-18
-75	-51	-20
-112	-77	-21
-134	-90	-22
-139	-92	-26
-123	-82	-30
-89	-58	-26
-42	-30	-26
8	4	-26
57	34	-22
100	61	-22
125	78	-22
133	84	-21
123	78	-18
97	59	-18
55	33	-21
8	1	-20
-43	-32	-19
-89	-60	-22
-122	-81	-20
-139	-89	-22
-137	-88	-25
-117	-71	-24
-80	-48	-26
-30	-18	-23
22	15	-23
71	43	-20
107	67	-20
130	81	-26
132	84	-19
118	74	-17
85	53	-20
45	27	-18
-5	-7	-19
-54	-39	-19
-97	-67	-22
-128	-87	-24
-140	-94	-24
-133	-87	-21
-106	-68	-23
-63	-40	-26
-13	-6	-23
40	25	-23
86	53	-23
117	72	-23
131	82	-23
127	80	-21
105	65	-20
67	41	-21
21	11	-20
-29	-21	-20
-76	-53	-22
-113	-76	-21
-136	-89	-24
-140	-90	-25
-125	-80	-25
-93	-58	-26
-46	-29	-28
7	3	-28
57	33	-28
99	59	-27
124	77	-26
132	83	-24
122	77	-23
94	61	-24
55	34	-23
7	1	-23
-41	-30	-22
-86	-60	-22
-120	-81	-25
-138	-92	-24
-138	-89	-25
-117	-75	-23
-81	-50	-27
-32	-19	-26
19	13	-23
68	43	-25
107	65	-24
128	79	-23
131	82	-20
115	72	-20
86	53	-19
42	25	-17
-6	-6	-15
-55	-39	-20
-97	-66	-22
-126	-86	-21
-138	-93	-24
-130	-86	-24
-105	-66	-25
-63	-38	-24
-12	-6	-25
39	26	-23
86	54	-23
118	76	-22
135	86	-23
132	83	-22
111	68	-19
75	45	-19
27	14	-21
-23	-19	-20
-70	-51	-17
-108	-76	-24
-133	-90	-25
-135	-93	-22
-122	-81	-23
-89	-59	-24
-44	-29	-25
6	1	-24
57	33	-23
98	58	-23
125	77	-19
133	82	-18
123	76	-20
97	59	-20
56	31	-19
9	1	-20
-41	-33	-20
-85	-61	-21
-120	-81	-20
-139	-91	-23
-137	-87	-24
-118	-71	-25
-80	-47	-23
-30	-17	-23
22	15	-25
69	44	-22
107	66	-25
127	81	-24
130	83	-21
116	75	-19
86	53	-21
46	26	-24
-3	-6	-20
-51	-40	-23
-95	-68	-23
-126	-88	-25
-139	-93	-24
-133	-86	-26
-105	-67	-25
-63	-40	-24
-14	-8	-26
38	23	-23
83	50	-23
115	71	-20
130	82	-20
128	82	-18
106	68	-18
69	45	-18
23	16	-19
-26	-19	-21
-74	-50	-20
-112	-77	-23
-135	-91	-23
-139	-92	-24
-125	-81	-25
-94	-57	-25
-47	-30	-24
4	3	-24
56	34	-26
99	60	-22
124	79	-19
135	85	-18
124	80	-21
97	62	-22
57	35	-16
10	4	-16
-38	-30	-19
-83	-60	-19
-117	-84	-21
-136	-93	-22
-135	-91	-24
-116	-76	-25
-81	-52	-26
-33	-21	-26
19	11	-24
67	40	-26
105	65	-24
128	80	-24
131	83	-24
116	75	-23
87	54	-24
42	26	-22
-5	-7	-20
-54	-39	-21
-97	-66	-24
-127	-86	-23
-140	-91	-25
-133	-87	-25
-108	-67	-24
-65	-40	-25
-16	-7	-21
38	25	-25
85	54	-24
117	75	-21
133	85	-23
131	84	-18
111	68	-20
74	46	-19
28	15	-18
-22	-17	-21
-69	-48	-21
-109	-75	-23
-133	-89	-27
-139	-92	-28
-125	-81	-28
-93	-59	-25
-48	-31	-24
4	2	-25
53	32	-23
96	58	-22
123	75	-20
132	81	-18
124	77	-18
97	59	-19
58	34	-20
11	3	-19
-38	-30	-20
-85	-60	-20
-120	-83	-21
-138	-93	-23
-139	-92	-26
-119	-77	-25
-83	-51	-26
-35	-22	-25
18	10	-24
66	40	-23
104	64	-24
126	78	-21
131	82	-20
118	72	-22
89	53	-22
46	25	-18
-3	-6	-20
-50	-38	-25
-95	-66	-22
-125	-85	-19
-138	-91	-23
-132	-85	-24
-106	-67	-24
-65	-40	-24
-15	-8	-23
37	23	-23
84	51	-26
118	72	-24
134	83	-23
132	82	-21
111	68	-21
77	45	-24
28	14	-21
-21	-19	-20
-69	-50	-22
-109	-74	-20
-133	-90	-21
-139	-92	-24
-126	-81	-25
-95	-60	-24
-50	-31	-23
2	1	-24
52	33	-24
95	60	-25
121	79	-24
131	85	-21
122	81	-23
98	64	-19
58	38	-16
13	7	-18
-36	-27	-22
-83	-57	-22
-117	-79	-25
-138	-93	-26
-139	-92	-25
-120	-78	-27
-85	-53	-26
-36	-22	-23
15	9	-24
65	40	-27
104	64	-23
127	81	-19
132	84	-17
118	75	-20
87	55	-21
44	26	-18
-3	-6	-20
-53	-39	-19
-96	-66	-19
-126	-86	-21
-137	-93	-23
-133	-87	-25
-108	-69	-25
-67	-42	-24
-18	-13	-24
33	21	-24
80	49	-22
115	71	-20
132	85	-20
131	84	-19
111	71	-16
77	47	-22
31	18	-21
-19	-16	-18
-67	-48	-24
-108	-75	-21
-133	-90	-21
-140	-92	-24
-126	-82	-26
-96	-59	-25
-51	-31	-25
1	1	-26
50	32	-24
93	57	-25
122	77	-22
132	83	-21
125	80	-21
99	62	-23
61	36	-24
14	5	-19
-36	-30	-19
-83	-59	-20
-117	-82	-22
-136	-93	-23
-137	-92	-25
-117	-78	-25
-83	-53	-27
-34	-23	-28
16	10	-27
64	40	-25
104	64	-23
126	80	-23
131	82	-21
117	75	-20
89	54	-21
46	28	-19
1	-5	-19
-47	-37	-19
-92	-65	-21
-123	-85	-24
-139	-93	-24
-134	-88	-24
-111	-68	-23
-68	-41	-25
-17	-7	-26
34	25	-23
82	51	-24
114	72	-25
131	83	-22
128	83	-21
110	69	-23
76	47	-21
31	18	-20
-18	-16	-18
-66	-48	-17
-107	-76	-22
-133	-91	-21
-139	-94	-26
-126	-83	-27
-97	-60	-25
-50	-32	-27
0	1	-26
49	32	-27
91	58	-24
121	77	-22
133	85	-22
127	81	-20
103	62	-21
63	36	-21
16	5	-20
-35	-28	-15
-80	-57	-21
-114	-79	-25
-134	-90	-23
-135	-89	-31
-118	-75	-26
-84	-52	-27
-37	-22	-25
14	9	-21
62	38	-21
102	63	-20
126	78	-23
130	82	-19
118	74	-19
87	55	-18
46	28	-20
-1	-5	-21
-50	-38	-18
-95	-66	-21
-126	-86	-21
-139	-94	-24
-134	-87	-25
-108	-68	-27
-66	-43	-27
-16	-11	-26
35	21	-25
81	50	-22
114	70	-23
130	83	-22
130	84	-18
110	71	-20
78	47	-20
33	17	-17
-18	-15	-20
-66	-48	-22
-107	-74	-21
-133	-88	-23
-140	-92	-24
-128	-82	-25
-98	-61	-25
-53	-33	-25
-1	-2	-27
48	28	-25
93	55	-24
121	72	-25
133	81	-21
125	77	-21
101	62	-19
62	37	-19
16	6	-23
-34	-27	-20
-80	-57	-21
-114	-79	-22
-134	-91	-23
-135	-89	-26
-116	-75	-24
-82	-51	-25
-34	-21	-26
16	10	-23
64	40	-22
103	65	-23
126	80	-20
132	85	-20
119	78	-23
91	60	-23
49	31	-19
1	-1	-18
-48	-36	-18
-92	-64	-15
-124	-86	-22
-138	-94	-30
-134	-88	-23
-110	-70	-24
-69	-44	-25
-21	-13	-27
30	19	-26
78	49	-23
111	69	-22
130	82	-20
129	81	-20
111	68	-18
76	45	-20
32	15	-20
-18	-18	-18
-65	-49	-20
-104	-74	-23
-130	-89	-24
-138	-92	-24
-128	-83	-24
-97	-62	-23
-53	-34	-27
-1	-2	-25
50	29	-24
94	56	-24
123	77	-21
132	83	-21
127	77	-20
102	63	-20
64	36	-23
18	7	-20
-32	-27	-22
-79	-55	-23
-116	-79	-22
-137	-91	-23
-140	-91	-24
-123	-79	-25
-88	-55	-25
-40	-26	-27
11	6	-25
60	37	-24
102	61	-24
124	78	-20
131	84	-19
119	78	-19
90	58	-22
48	31	-22
0	-2	-21
-49	-36	-23
-94	-65	-20
-126	-87	-24
-141	-93	-24
-137	-88	-25
-114	-68	-27
-72	-42	-25
-22	-12	-25
31	20	-26
80	48	-25
114	71	-23
131	84	-21
131	84	-22
111	74	-21
80	51	-20
34	22	-21
-15	-12	-20
-63	-44	-22
-103	-69	-20
-130	-86	-21
-140	-91	-26
-129	-82	-21
-100	-62	-21
-55	-35	-31
-4	-3	-29
48	28	-23
93	56	-25
122	77	-22
135	85	-22
127	81	-22
104	65	-19
65	40	-21
17	9	-21
-32	-25	-21
-80	-55	-21
-116	-79	-24
-138	-90	-21
-139	-90	-23
-123	-78	-24
-88	-55	-25
-41	-27	-26
11	7	-21
61	36	-26
101	62	-24
125	77	-22
131	83	-22
120	77	-22
93	57	-21
52	32	-20
6	-2	-20
-43	-34	-20
-87	-63	-20
-121	-84	-23
-138	-92	-22
-136	-89	-21
-113	-70	-25
-72	-44	-24
-22	-11	-25
32	20	-25
80	49	-24
115	71	-25
132	83	-23
132	85	-20
115	74	-21
81	53	-22
36	23	-19
-13	-9	-18
-60	-43	-21
-102	-71	-21
-129	-90	-22
-139	-94	-24
-128	-85	-24
-100	-63	-25
-55	-34	-24
-3	-1	-23
46	30	-23
93	57	-21
122	74	-23
134	82	-23
128	79	-24
104	63	-18
65	39	-17
18	7	-19
-32	-25	-21
-76	-56	-23
-113	-81	-23
-134	-93	-24
-139	-94	-24
-123	-81	-25
-91	-60	-21
-45	-30	-24
6	2	-27
55	34	-23
98	60	-17
123	77	-13
132	85	-24
121	77	-23
93	57	-18
50	28	-23
1	-4	-18
-48	-37	-23
-93	-66	-23
-124	-85	-20
-140	-94	-23
-134	-88	-25
-112	-71	-26
-72	-45	-23
-22	-14	-25
30	18	-22
78	48	-24
113	70	-23
132	84	-23
132	85	-21
115	74	-22
82	51	-23
36	22	-19
-14	-12	-20
-62	-45	-21
-104	-71	-24
-132	-89	-23
-140	-93	-21
-130	-84	-21
-102	-63	-24
-56	-34	-25
-6	-3	-24
46	29	-28
89	56	-25
118	76	-23
131	84	-19
125	82	-21
104	67	-20
65	42	-19
19	11	-20
-30	-23	-18
-77	-55	-20
-113	-80	-19
-136	-92	-21
-139	-92	-25
-124	-80	-26
-89	-55	-24
-42	-25	-24
12	6	-27
62	37	-26
103	62	-24
128	79	-22
132	85	-23
121	78	-21
94	61	-19
54	33	-20
8	1	-21
-40	-33	-21
-85	-63	-23
-120	-85	-24
-137	-94	-23
-136	-89	-23
-114	-71	-26
-75	-45	-29
-24	-15	-25
29	18	-23
76	46	-25
111	68	-23
130	82	-17
129	83	-22
111	72	-24
80	50	-17
36	22	-18
-12	-12	-19
-60	-44	-20
-103	-69	-22
-130	-88	-22
-140	-93	-25
-129	-84	-26
-101	-64	-27
-57	-37	-27
-6	-5	-25
44	27	-24
89	54	-25
119	75	-21
133	83	-20
128	79	-19
105	64	-18
68	41	-18
20	11	-19
-29	-23	-20
-77	-52	-21
-114	-77	-24
-136	-91	-24
-138	-90	-23
-123	-81	-23
-91	-57	-25
-44	-29	-25
7	4	-25
58	35	-26
99	62	-26
126	80	-22
134	85	-18
122	79	-17
93	57	-18
49	32	-21
2	-2	-19
-47	-36	-20
-90	-63	-21
-122	-85	-23
-138	-92	-26
-135	-87	-25
-115	-69	-24
-76	-44	-24
-25	-13	-25
29	18	-25
78	47	-25
113	69	-21
132	82	-17
132	84	-19
115	72	-17
81	50	-19
38	23	-18
-10	-12	-19
-60	-44	-25
-102	-71	-20
-130	-89	-22
-141	-94	-23
-133	-86	-24
-104	-65	-25
-59	-38	-25
-7	-6	-28
46	26	-25
90	54	-21
122	74	-23
133	84	-23
128	81	-21
105	66	-24
67	43	-19
21	11	-17
-30	-22	-23
-77	-53	-25
-113	-79	-24
-136	-92	-26
-140	-93	-25
-124	-80	-27
-91	-57	-30
-44	-28	-28
7	5	-26
56	35	-24
97	60	-23
123	76	-23
132	82	-23
123	77	-19
97	57	-20
57	32	-21
9	-1	-21
-41	-34	-21
-88	-64	-20
-121	-84	-23
-138	-93	-24
-136	-90	-22
-115	-72	-25
-77	-48	-24
-26	-16	-27
26	16	-24
74	46	-24
111	69	-23
131	85	-19
131	87	-19
115	76	-17
83	53	-19
38	23	-21
-12	-11	-22
-59	-43	-25
-101	-69	-24
-129	-87	-23
-140	-93	-25
-131	-85	-27
-104	-66	-26
-60	-38	-28
-10	-6	-27
42	26	-22
87	54	-21
119	74	-21
132	84	-22
129	81	-20
107	67	-21
70	41	-20
25	12	-17
-24	-21	-22
-71	-52	-23
-110	-76	-23
-133	-90	-24
-137	-92	-25
-123	-80	-21
-92	-58	-24
-46	-28	-24
4	3	-25
54	35	-24
96	60	-23
123	79	-21
132	85	-17
123	79	-21
97	62	-19
54	33	-15
6	3	-20
-45	-31	-19
-90	-61	-20
-123	-82	-24
-139	-93	-22
-136	-89	-23
-115	-74	-26
-77	-48	-24
-26	-17	-23
26	15	-27
74	45	-24
111	67	-21
132	82	-23
133	83	-19
119	72	-19
86	50	-21
42	22	-19
-8	-12	-17
-56	-44	-17
-100	-70	-20
-127	-89	-20
-139	-93	-24
-130	-85	-25
-104	-64	-23
-61	-36	-26
-10	-5	-27
40	28	-24
86	54	-23
119	75	-23
131	83	-21
128	81	-19
105	67	-16
69	43	-17
23	14	-17
-27	-21	-20
-74	-52	-21
-112	-78	-21
-136	-93	-21
-142	-92	-23
-126	-81	-24
-93	-57	-26
-46	-29	-25
7	3	-25
56	32	-26
97	57	-23
123	75	-20
132	82	-19
121	77	-20
97	61	-20
58	35	-20
12	3	-21
-37	-31	-22
-86	-61	-23
-121	-84	-24
-141	-93	-28
-138	-90	-28
-117	-72	-29
-79	-46	-26
-26	-16	-28
24	17	-30
72	45	-25
107	68	-20
130	81	-20
131	84	-22
116	72	-22
85	51	-23
41	22	-21
-8	-11	-19
-58	-43	-18
-99	-70	-20
-128	-87	-19
-138	-93	-25
-130	-86	-25
-102	-66	-24
-61	-40	-28
-12	-6	-25
39	25	-27
84	52	-26
115	74	-21
131	84	-20
127	81	-19
106	66	-19
70	43	-18
24	12	-20
-27	-21	-23
-74	-51	-23
-111	-76	-25
-134	-90	-25
-140	-92	-25
-126	-80	-26
-93	-58	-26
-49	-31	-27
2	2	-26
52	33	-23
95	59	-23
123	78	-20
132	85	-20
124	80	-21
96	60	-18
56	34	-20
8	1	-17
-44	-32	-19
-87	-62	-20
-121	-84	-21
-137	-92	-23
-136	-90	-24
-115	-74	-26
-78	-50	-25
-29	-18	-25
23	14	-25
72	44	-23
111	68	-20
132	83	-20
135	85	-18
119	76	-16
87	56	-19
44	26	-19
-6	-8	-17
-55	-40	-20
-98	-68	-23
-128	-86	-24
-141	-93	-22
-134	-85	-27
-107	-65	-29
-64	-38	-24
-14	-6	-25
39	24	-27
85	53	-24
115	74	-23
131	85	-23
127	83	-24
106	68	-21
69	45	-18
24	14	-19
-26	-20	-21
-74	-50	-22
-113	-74	-22
-136	-88	-24
-142	-89	-24
-126	-80	-26
-94	-59	-27
-47	-30	-27
5	0	-27
56	32	-19
97	57	-25
124	76	-30
133	84	-22
125	77	-22
101	61	-17
62	35	-19
15	5	-23
-35	-28	-19
-81	-58	-22
-117	-82	-21
-137	-94	-23
-136	-92	-26
-117	-77	-27
-80	-51	-25
-32	-19	-25
21	14	-25
69	45	-24
107	66	-25
129	80	-21
131	81	-21
117	71	-18
86	53	-19
44	24	-17
-6	-8	-19
-55	-40	-20
-99	-68	-20
-130	-88	-20
-142	-93	-22
-135	-86	-26
-108	-67	-25
-65	-40	-26
-15	-8	-24
39	24	-23
85	51	-23
118	74	-21
132	85	-22
129	83	-19
109	70	-19
72	45	-20
28	14	-21
-22	-20	-23
-68	-49	-22
-109	-74	-23
-133	-89	-24
-140	-90	-26
-126	-81	-28
-95	-60	-26
-50	-31	-26
2	0	-26
52	33	-25
95	58	-24
121	77	-23
132	82	-22
125	76	-20
100	58	-20
60	33	-20
12	3	-18
-38	-30	-19
-84	-58	-20
-120	-82	-19
-137	-92	-23
-136	-90	-27
-116	-77	-28
-80	-51	-24
-32	-20	-20
20	13	-23
69	43	-24
107	66	-22
130	82	-23
134	84	-21
118	77	-20
86	56	-20
42	28	-16
-5	-5	-16
-53	-39	-19
-97	-67	-21
-125	-87	-25
-139	-93	-24
-133	-86	-23
-108	-66	-24
-66	-40	-21
-17	-9	-26
36	24	-30
85	51	-25
116	72	-22
133	83	-22
129	81	-22
109	67	-19
72	43	-19
27	13	-20
-22	-20	-19
-69	-50	-21
-108	-74	-22
-134	-88	-25
-139	-90	-22
-126	-80	-22
-95	-59	-24
-50	-32	-24
2	0	-25
52	31	-25
95	58	-26
124	77	-25
133	84	-21
126	79	-20
101	62	-19
62	37	-20
15	6	-22
-35	-26	-21
-82	-56	-22
-118	-80	-25
-137	-90	-27
-139	-92	-27
-120	-77	-24
-83	-51	-25
-35	-19	-25
18	14	-23
67	43	-25
105	67	-25
129	81	-23
132	85	-22
118	76	-22
87	55	-20
44	27	-17
-5	-7	-19
-53	-40	-22
-98	-69	-22
-126	-88	-24
-139	-95	-25
-132	-89	-25
-106	-69	-24
-64	-44	-25
-14	-12	-24
36	19	-24
83	48	-23
116	68	-21
132	81	-17
129	82	-17
110	68	-18
75	45	-18
28	15	-17
-21	-18	-19
-68	-49	-22
-108	-74	-21
-130	-88	-21
-139	-92	-24
-126	-81	-24
-97	-62	-24
-52	-34	-24
-1	-2	-23
49	29	-23
91	57	-22
121	76	-26
132	82	-25
125	78	-21
100	60	-19
60	35	-19
13	3	-19
-36	-29	-19
-84	-59	-21
-117	-81	-24
-136	-92	-25
-136	-89	-25
-117	-74	-24
-81	-50	-24
-32	-21	-25
19	12	-27
69	43	-27
107	67	-21
130	83	-22
133	86	-21
119	76	-22
89	56	-18
44	27	-17
-3	-5	-18
-54	-38	-17
-96	-66	-19
-126	-85	-20
-140	-92	-22
-134	-86	-23
-109	-69	-22
-67	-42	-23
-17	-11	-26
35	21	-25
81	51	-25
115	72	-23
131	85	-22
129	83	-22
110	69	-21
74	45	-23
29	15	-21
-20	-18	-21
-66	-49	-23
-108	-74	-26
-133	-90	-25
-139	-92	-23
-127	-81	-23
-97	-59	-26
-52	-31	-27
0	1	-22
50	33	-24
93	58	-23
121	77	-22
132	85	-21
127	81	-22
102	65	-22
63	39	-20
17	8	-19
-35	-27	-16
-82	-57	-20
-118	-81	-23
-137	-94	-22
-139	-92	-23
-118	-78	-24
-83	-52	-25
-35	-23	-25
18	10	-26
66	40	-24
105	64	-23
127	81	-21
132	84	-17
118	76	-18
89	56	-21
46	27	-20
-2	-6	-19
-52	-38	-20
-96	-65	-22
-125	-85	-21
-139	-91	-22
-133	-85	-26
-108	-67	-25
-67	-40	-25
-17	-11	-26
34	22	-25
81	49	-27
114	71	-23
131	82	-21
129	81	-19
109	70	-19
76	45	-19
30	17	-17
-18	-17	-19
-67	-47	-22
-105	-74	-20
-130	-89	-23
-138	-92	-25
-125	-83	-23
-96	-61	-25
-51	-33	-26
-1	-1	-27
49	30	-25
91	56	-22
120	76	-24
131	83	-23
123	80	-25
100	64	-21
59	39	-20
13	7	-23
-38	-28	-20
-85	-57	-20
-119	-82	-20
-138	-92	-21
-137	-89	-24
-119	-75	-22
-84	-49	-25
-36	-20	-26
17	11	-24
66	41	-23
105	67	-23
128	81	-21
132	84	-21
120	76	-20
89	53	-20
47	26	-20
-1	-8	-20
-50	-39	-21
-93	-67	-21
-124	-87	-24
-138	-93	-23
-133	-88	-25
-110	-68	-26
-68	-43	-27
-19	-11	-27
34	21	-25
81	49	-26
116	70	-24
132	82	-21
132	81	-17
112	67	-22
78	45	-25
34	17	-18
-17	-16	-21
-64	-47	-20
-106	-75	-22
-131	-90	-24
-139	-93	-20
-128	-83	-23
-97	-62	-25
-53	-33	-26
-2	-1	-25
46	30	-25
90	58	-23
120	76	-24
132	84	-20
125	81	-17
101	64	-16
63	40	-16
18	7	-19
-31	-26	-20
-78	-56	-21
-113	-79	-20
-135	-90	-23
-137	-90	-24
-120	-76	-24
-85	-52	-24
-36	-22	-23
15	10	-24
65	41	-23
104	67	-23
125	82	-22
131	86	-20
117	77	-20
89	57	-21
46	29	-22
-2	-4	-20
-51	-36	-22
-95	-65	-21
-125	-85	-23
-139	-94	-26
-133	-89	-24
-109	-71	-24
-67	-45	-23
-19	-13	-26
32	18	-25
79	48	-23
113	69	-23
132	82	-23
132	82	-21
114	70	-23
79	48	-19
34	17	-21
-16	-15	-22
-65	-48	-23
-104	-72	-25
-130	-89	-22
-138	-92	-21
-127	-82	-23
-99	-63	-25
-55	-35	-25
-6	-4	-25
46	27	-22
90	53	-20
121	74	-22
132	84	-22
125	80	-20
100	65	-16
60	39	-18
14	8	-19
-36	-25	-21
-81	-55	-25
-116	-78	-22
-136	-90	-22
-137	-89	-23
-121	-78	-27
-85	-54	-30
-38	-24	-26
15	8	-28
65	39	-25
105	64	-23
129	81	-23
133	85	-24
121	77	-21
90	57	-21
48	28	-19
0	-4	-21
-49	-37	-24
-93	-64	-20
-124	-85	-21
-140	-92	-25
-135	-86	-23
-111	-70	-23
-70	-44	-25
-20	-13	-24
33	20	-24
82	49	-25
116	71	-25
132	84	-20
131	82	-20
111	69	-21
78	45	-18
32	16	-19
-17	-18	-19
-64	-48	-22
-104	-74	-21
-130	-89	-23
-139	-92	-26
-128	-84	-24
-101	-62	-27
-56	-34	-24
-6	-2	-23
43	29	-23
87	55	-25
116	75	-26
129	84	-23
124	80	-21
102	66	-20
65	42	-19
19	12	-18
-29	-23	-18
-78	-53	-20
-115	-79	-24
-137	-91	-23
-138	-90	-28
-121	-77	-26
-86	-52	-22
-37	-23	-24
14	9	-23
63	38	-22
103	63	-21
127	78	-21
132	82	-19
122	75	-18
94	57	-18
52	31	-19
4	-2	-17
-47	-36	-16
-91	-64	-24
-125	-88	-23
-139	-95	-19
-134	-90	-27
-112	-71	-28
-70	-45	-29
-21	-13	-31
31	20	-24
78	48	-23
113	71	-23
131	84	-21
130	85	-21
113	74	-20
79	51	-19
36	22	-20
-14	-14	-23
-61	-45	-23
-101	-72	-22
-129	-88	-22
-139	-92	-21
-129	-83	-25
-100	-62	-26
-57	-36	-23
-7	-4	-26
46	27	-22
90	55	-21
121	75	-22
134	84	-18
129	81	-20
105	63	-20
66	38	-19
18	6	-20
-32	-27	-21
-78	-58	-21
-115	-80	-21
-134	-90	-24
-138	-90	-25
-120	-78	-23
-87	-55	-21
-39	-25	-20
14	8	-26
63	39	-24
105	65	-22
127	81	-24
132	85	-20
120	76	-19
91	57	-21
49	30	-20
1	-3	-20
-47	-34	-20
-92	-63	-23
-124	-84	-22
-141	-93	-23
-138	-90	-27
-114	-72	-24
-75	-47	-24
-24	-15	-26
28	20	-25
79	48	-26
113	71	-25
132	83	-23
132	84	-23
115	72	-21
82	50	-23
36	19	-21
-14	-14	-22
-63	-47	-21
-104	-74	-21
-130	-90	-22
-139	-94	-23
-128	-84	-24
-100	-63	-23
-56	-35	-24
-7	-4	-22
44	26	-24
90	51	-25
121	71	-23
133	82	-20
128	80	-18
105	67	-19
68	43	-22
22	13	-22
-28	-21	-22
-74	-53	-21
-112	-77	-18
-135	-90	-24
-139	-90	-30
-124	-77	-26
-89	-53	-22
-42	-24	-24
11	7	-25
62	38	-23
101	62	-22
126	80	-21
131	85	-20
119	77	-20
91	59	-20
51	31	-19
4	-1	-20
-46	-35	-20
-92	-64	-21
-125	-85	-21
-141	-92	-24
-137	-86	-27
-112	-70	-25
-72	-45	-25
-24	-15	-25
29	17	-26
75	48	-25
111	68	-27
129	83	-26
130	84	-19
112	74	-21
80	49	-20
34	21	-17
-16	-13	-19
-62	-45	-21
-105	-70	-22
-129	-89	-24
-140	-92	-24
-130	-85	-27
-101	-65	-24
-59	-38	-25
-8	-8	-28
42	25	-27
88	51	-24
119	74	-22
132	83	-23
127	81	-18
104	67	-19
66	41	-22
20	11	-20
-29	-23	-20
-77	-53	-20
-113	-79	-20
-135	-92	-22
-138	-92	-22
-121	-80	-24
-88	-57	-24
-40	-28	-25
12	6	-26
61	37	-22
102	63	-25
126	81	-22
133	85	-21
122	79	-21
95	59	-18
52	32	-19
4	0	-17
-45	-35	-20
-92	-63	-23
-123	-85	-22
-139	-93	-21
-134	-90	-23
-112	-74	-25
-72	-48	-26
-23	-17	-26
28	15	-24
76	44	-21
110	67	-21
130	81	-23
129	82	-21
113	71	-21
80	49	-20
36	21	-21
-12	-13	-20
-60	-44	-19
-102	-71	-18
-130	-89	-18
-140	-93	-24
-132	-86	-24
-103	-65	-25
-59	-37	-25
-10	-4	-26
42	27	-25
86	56	-23
119	77	-23
132	85	-24
129	82	-23
107	67	-21
72	43	-20
27	11	-19
-23	-20	-19
-68	-51	-21
-109	-76	-24
-130	-89	-25
-135	-90	-25
-120	-78	-25
-87	-56	-25
-40	-27	-27
13	6	-30
62	35	-26
104	62	-24
128	78	-21
134	85	-22
124	80	-21
94	60	-21
52	33	-23
4	0	-20
-44	-33	-21
-91	-63	-21
-123	-85	-22
-140	-93	-24
-138	-90	-24
-116	-74	-22
-78	-48	-22
-27	-17	-26
26	15	-27
72	44	-24
110	68	-21
129	80	-19
128	81	-21
111	68	-21
80	49	-18
36	22	-19
-12	-9	-21
-59	-40	-20
-102	-68	-21
-130	-86	-22
-141	-93	-24
-133	-85	-25
-106	-66	-26
-62	-38	-26
-11	-4	-25
40	26	-23
86	55	-22
118	75	-23
132	84	-23
128	80	-22
106	67	-20
69	43	-18
23	11	-13
-26	-21	-19
-75	-54	-25
-112	-78	-22
-135	-92	-24
-140	-92	-25
-124	-79	-23
-92	-56	-27
-44	-27	-26
8	6	-25
57	37	-27
99	62	-25
125	80	-20
131	85	-21
120	77	-19
93	58	-20
51	31	-19
7	-2	-20
-43	-36	-20
-87	-65	-19
-119	-86	-19
-136	-95	-21
-133	-90	-25
-113	-75	-25
-75	-48	-24
-24	-17	-25
28	15	-23
75	45	-23
111	68	-25
132	82	-23
132	83	-21
116	72	-20
83	52	-22
39	23	-22
-12	-9	-20
-60	-42	-21
-103	-67	-23
-130	-85	-23
-140	-90	-23
-130	-81	-27
-103	-64	-25
-61	-36	-25
-11	-5	-27
40	27	-22
85	52	-23
118	72	-22
131	83	-20
127	80	-18
104	66	-19
67	42	-18
21	13	-17
-27	-21	-19
-72	-51	-20
-110	-76	-21
-133	-90	-21
-138	-90	-20
-123	-80	-25
-91	-56	-25
-44	-27	-23
8	6	-23
58	36	-23
100	61	-23
124	78	-24
132	82	-17
120	77	-16
93	59	-22
53	33	-19
7	2	-18
-43	-32	-19
-89	-61	-20
-122	-84	-26
-140	-92	-25
-137	-89	-25
-115	-72	-24
-78	-47	-27
-27	-16	-27
24	17	-25
72	45	-24
110	68	-24
131	84	-24
133	85	-22
117	76	-22
85	53	-20
40	25	-20
-10	-9	-18
-58	-42	-18
-100	-69	-22
-126	-88	-24
-138	-92	-26
-130	-86	-24
-105	-66	-26
-62	-40	-27
-12	-9	-25
39	23	-26
86	51	-26
117	71	-26
132	82	-20
127	80	-18
106	65	-19
67	41	-19
23	10	-20
-27	-24	-20
-74	-54	-22
-110	-80	-23
-134	-93	-25
-139	-93	-22
-126	-82	-22
-93	-57	-28
-45	-29	-27
8	4	-24
58	35	-23
101	62	-22
126	80	-24
132	85	-24
122	81	-19
94	60	-20
54	34	-22
7	2	-18
-41	-32	-19
-85	-61	-24
-119	-82	-23
-136	-91	-22
-134	-89	-23
-114	-74	-23
-75	-50	-25
-26	-20	-27
26	13	-25
74	43	-23
111	67	-21
131	82	-19
133	85	-23
118	75	-20
85	54	-21
42	26	-23
-9	-8	-19
-57	-41	-20
-100	-69	-20
-128	-87	-23
-140	-92	-22
-132	-85	-27
-106	-65	-26
-62	-38	-23
-12	-5	-27
38	25	-25
85	53	-21
115	72	-20
130	82	-21
127	81	-20
106	67	-17
71	44	-20
27	14	-21
-21	-19	-19
-68	-50	-19
-107	-76	-21
-132	-90	-21
-140	-93	-22
-126	-81	-25
-95	-59	-24
-48	-29	-27
2	3	-24
54	34	-24
97	60	-24
123	77	-22
133	85	-24
123	79	-21
99	61	-20
57	35	-20
9	3	-20
-41	-31	-23
-88	-62	-24
-121	-84	-20
-139	-93	-18
-136	-90	-23
-116	-74	-24
-78	-48	-23
-29	-18	-25
22	14	-22
71	43	-20
107	66	-20
129	81	-19
132	84	-19
117	72	-21
85	52	-22
40	23	-20
-8	-11	-20
-57	-43	-21
-99	-69	-23
-128	-87	-22
-139	-93	-22
-132	-85	-24
-106	-68	-24
-64	-41	-24
-15	-11	-26
38	22	-25
84	50	-23
118	70	-23
133	82	-20
131	81	-18
109	67	-22
71	43	-23
26	13	-22
-25	-21	-22
-71	-52	-23
-110	-77	-24
-132	-92	-24
-137	-92	-24
-125	-79	-26
-93	-56	-28
-47	-26	-24
5	4	-23
57	35	-21
101	60	-26
128	79	-27
136	84	-21
127	81	-23
99	64	-20
58	36	-18
8	4	-19
-41	-32	-21
-86	-61	-21
-120	-84	-21
-137	-92	-24
-137	-88	-24
-116	-72	-30
-80	-49	-26
-30	-19	-28
21	14	-26
68	43	-23
106	68	-26
126	82	-22
131	84	-19
115	74	-20
84	51	-18
41	22	-19
-8	-11	-19
-55	-43	-20
-98	-68	-25
-126	-87	-25
-137	-93	-24
-130	-87	-26
-106	-68	-28
-65	-42	-26
-16	-12	-27
35	21	-28
83	49	-24
116	71	-24
132	82	-23
130	82	-21
109	70	-22
72	46	-18
27	17	-19
-22	-17	-19
-69	-47	-20
-108	-74	-23
-134	-88	-21
-141	-89	-26
-128	-78	-24
-97	-54	-22
-50	-25	-22
1	7	-21
54	36	-24
97	61	-21
123	79	-18
133	85	-18
124	81	-18
98	61	-19
58	35	-21
11	1	-20
-39	-32	-17
-85	-62	-20
-121	-85	-24
-139	-94	-23
-137	-92	-25
-118	-77	-26
-80	-54	-23
-32	-23	-26
21	10	-24
69	40	-23
107	66	-24
130	81	-23
133	84	-22
120	74	-21
90	53	-20
47	24	-21
-3	-10	-19
-50	-40	-20
-95	-66	-28
-125	-84	-24
-138	-90	-23
-133	-86	-30
-107	-68	-26
-65	-43	-25
-16	-11	-23
37	20	-22
82	50	-23
115	72	-17
130	83	-19
127	82	-18
107	68	-20
71	45	-19
26	14	-19
-24	-19	-19
-70	-50	-21
-111	-76	-25
-135	-89	-23
-141	-92	-23
-126	-80	-25
-96	-58	-21
-50	-29	-25
0	3	-25
51	32	-23
94	60	-25
122	79	-23
133	86	-20
124	81	-21
99	64	-18
58	38	-21
10	5	-19
-38	-29	-19
-86	-59	-22
-119	-79	-24
-138	-89	-24
-137	-87	-26
-117	-71	-26
-81	-49	-26
-33	-20	-25
20	12	-27
69	41	-27
107	65	-26
131	81	-26
136	85	-23
120	75	-20
89	55	-20
43	25	-21
-6	-8	-20
-54	-41	-21
-97	-69	-22
-126	-87	-23
-138	-94	-26
-130	-87	-26
-105	-69	-26
-64	-43	-26
-16	-12	-25
37	20	-24
84	48	-23
117	70	-24
133	82	-22
131	81	-20
111	68	-19
76	46	-20
31	16	-20
-19	-17	-22
-66	-49	-19
-106	-72	-21
-130	-90	-24
-137	-92	-22
-125	-83	-19
-95	-60	-25
-49	-30	-28
3	3	-25
52	35	-24
94	61	-22
122	80	-22
131	85	-20
123	79	-21
98	60	-20
59	34	-20
12	3	-21
-39	-30	-18
-84	-57	-18
-120	-80	-21
-138	-91	-26
-138	-89	-26
-117	-75	-26
-81	-50	-26
-33	-21	-24
19	12	-24
65	41	-19
105	64	-21
127	80	-20
133	83	-19
120	76	-19
89	56	-21
44	29	-20
-4	-4	-23
-52	-37	-19
-96	-66	-18
-125	-88	-23
-137	-94	-24
-130	-88	-25
-107	-69	-25
-67	-42	-27
-17	-12	-29
34	21	-27
81	49	-23
114	71	-24
131	84	-21
130	84	-21
111	71	-20
76	47	-20
31	18	-21
-20	-17	-19
-67	-49	-21
-107	-74	-24
-132	-90	-23
-140	-93	-23
-127	-83	-25
-98	-61	-26
-52	-33	-25
0	-1	-26
50	31	-22
94	58	-18
122	77	-21
132	84	-19
123	80	-17
99	62	-18
58	35	-20
12	4	-21
-37	-29	-18
-83	-58	-20
-117	-81	-22
-137	-90	-26
-137	-89	-25
-119	-76	-24
-83	-51	-25
-35	-23	-22
18	10	-22
67	39	-20
106	64	-21
130	80	-26
133	85	-25
120	76	-22
89	54	-20
44	27	-20
-5	-8	-22
-55	-40	-24
-97	-68	-22
-126	-86	-23
-138	-92	-25
-131	-87	-27
-106	-68	-27
-64	-42	-25
-15	-11	-26
36	21	-25
81	50	-23
114	74	-22
130	84	-22
129	84	-19
110	70	-18
76	49	-19
31	20	-19
-19	-13	-23
-65	-44	-22
-107	-71	-20
-133	-89	-23
-141	-93	-24
-129	-82	-24
-98	-60	-25
-53	-30	-27
0	2	-27
50	34	-25
93	61	-22
121	78	-23
130	84	-22
122	80	-21
97	62	-20
58	37	-19
13	4	-20
-34	-29	-20
-81	-60	-19
-117	-83	-20
-135	-94	-21
-137	-92	-24
-119	-78	-25
-83	-53	-23
-35	-23	-23
18	10	-23
66	39	-22
105	64	-23
128	79	-21
135	85	-20
120	77	-18
90	58	-18
46	30	-20
-2	-3	-22
-51	-36	-23
-96	-64	-20
-124	-84	-21
-137	-92	-24
-132	-86	-25
-108	-70	-26
-68	-44	-26
-19	-14	-25
32	18	-27
78	47	-25
111	69	-22
131	83	-23
129	83	-19
111	70	-18
76	47	-20
31	16	-19
-18	-16	-19
-68	-48	-21
-106	-72	-23
-131	-88	-23
-139	-93	-22
-125	-83	-26
-97	-62	-24
-51	-33	-25
0	-1	-27
50	31	-26
94	58	-23
123	76	-21
135	84	-18
127	79	-20
102	62	-24
62	37	-19
14	7	-20
-36	-27	-19
-83	-57	-23
-117	-80	-21
-137	-92	-24
-138	-91	-30
-120	-78	-27
-84	-53	-27
-35	-23	-24
17	9	-25
65	40	-25
105	64	-24
128	81	-23
132	85	-19
119	77	-20
89	57	-21
49	28	-22
-1	-4	-22
-50	-39	-22
-95	-66	-24
-126	-87	-24
-140	-94	-22
-133	-88	-25
-108	-70	-26
-67	-44	-26
-17	-15	-27
34	18	-25
79	45	-21
111	68	-20
129	82	-20
129	84	-18
111	74	-17
79	50	-16
35	22	-17
-15	-12	-22
-62	-43	-21
-105	-69	-22
-130	-88	-22
-139	-90	-23
-128	-84	-27
-98	-61	-25
-52	-33	-25
-2	-2	-25
49	31	-22
94	57	-23
122	76	-23
134	84	-20
128	80	-20
102	65	-21
63	39	-19
15	8	-14
-35	-26	-23
-85	-56	-25
-119	-80	-23
-140	-92	-23
-141	-90	-24
-121	-78	-23
-86	-53	-22
-36	-23	-24
16	9	-23
64	39	-25
104	64	-23
127	80	-21
132	83	-20
120	76	-19
91	55	-20
48	29	-21
2	-4	-18
-49	-37	-17
-93	-65	-19
-124	-86	-22
-139	-93	-24
-134	-89	-24
-111	-69	-26
-70	-45	-24
-22	-13	-26
30	19	-27
78	47	-25
111	68	-24
131	80	-21
129	80	-23
111	68	-20
76	47	-21
31	18	-20
-18	-15	-18
-66	-46	-22
-106	-72	-23
-133	-88	-23
-140	-90	-24
-129	-81	-24
-99	-59	-26
-54	-31	-22
-4	1	-27
47	32	-25
90	58	-24
121	78	-26
132	84	-23
125	81	-19
101	64	-18
63	41	-21
17	9	-21
-33	-24	-21
-79	-55	-20
-114	-80	-21
-135	-92	-23
-138	-92	-24
-120	-78	-25
-85	-54	-24
-36	-23	-24
18	9	-26
67	39	-22
109	63	-18
131	79	-19
137	84	-23
124	76	-22
93	57	-20
50	29	-19
0	-5	-21
-49	-38	-21
-94	-67	-21
-125	-86	-23
-140	-93	-26
-136	-88	-26
-112	-69	-28
-72	-45	-25
-23	-15	-25
28	16	-21
76	47	-21
111	68	-24
129	83	-19
130	85	-22
111	71	-27
80	50	-22
34	20	-20
-14	-13	-17
-62	-45	-18
-104	-71	-24
-131	-87	-23
-141	-90	-26
-129	-82	-27
-100	-61	-24
-54	-33	-25
-4	-1	-26
46	30	-24
91	57	-23
120	76	-23
132	84	-20
127	79	-21
104	63	-19
65	39	-20
18	8	-20
-32	-25	-20
-80	-56	-23
-116	-79	-20
-137	-92	-23
-138	-92	-25
-122	-78	-25
-86	-54	-25
-38	-23	-25
12	9	-25
62	39	-25
102	63	-26
127	79	-23
133	84	-19
121	77	-22
92	57	-21
49	28	-22
1	-3	-22
-48	-37	-23
-91	-64	-24
-123	-85	-21
-137	-93	-21
-134	-87	-22
-111	-70	-26
-71	-44	-25
-22	-13	-22
30	19	-23
77	48	-21
112	69	-26
129	84	-23
129	81	-20
111	68	-21
78	46	-17
36	17	-19
-14	-16	-18
-61	-48	-19
-103	-74	-20
-132	-90	-19
-141	-94	-26
-131	-86	-30
-101	-64	-25
-55	-34	-26
-3	-4	-27
48	29	-25
93	55	-21
122	75	-21
132	84	-23
127	81	-19
103	67	-18
65	42	-19
18	11	-20
-31	-23	-18
-78	-55	-20
-115	-80	-21
-136	-92	-21
-138	-91	-25
-121	-78	-25
-87	-54	-21
-39	-24	-23
12	8	-25
61	39	-23
102	63	-24
125	81	-22
133	85	-21
120	79	-19
93	57	-20
50	30	-20
1	-2	-19
-48	-37	-21
-93	-64	-22
-124	-84	-25
-140	-92	-26
-134	-88	-27
-111	-71	-25
-70	-46	-26
-21	-17	-26
30	16	-25
78	43	-23
111	67	-21
130	79	-23
130	81	-23
113	70	-20
81	48	-20
36	21	-21
-12	-11	-21
-60	-41	-21
-101	-68	-21
-130	-86	-21
-141	-93	-23
-132	-86	-25
-104	-65	-26
-59	-37	-25
-8	-2	-23
44	30	-23
89	59	-22
119	79	-20
132	85	-20
124	81	-19
101	65	-18
62	40	-21
17	11	-20
-34	-23	-19
-80	-53	-19
-116	-80	-21
-136	-91	-26
-138	-93	-27
-122	-80	-26
-86	-55	-25
-40	-25	-25
12	10	-30
62	39	-27
103	63	-23
128	79	-20
135	84	-17
124	77	-19
95	57	-18
53	31	-18
4	-1	-20
-46	-33	-23
-89	-62	-20
-123	-84	-23
-139	-93	-27
-136	-90	-24
-112	-72	-27
-72	-48	-26
-23	-16	-25
31	17	-23
78	47	-24
114	71	-22
132	83	-22
132	84	-23
113	72	-19
81	51	-17
37	23	-17
-13	-11	-19
-59	-43	-20
-102	-72	-21
-129	-89	-23
-139	-94	-23
-129	-85	-26
-99	-64	-25
-56	-35	-24
-6	-2	-25
44	27	-25
89	55	-24
119	74	-22
132	85	-21
128	81	-19
105	67	-23
68	41	-18
21	8	-19
-28	-26	-22
-75	-58	-18
-113	-81	-21
-135	-93	-24
-137	-92	-25
-121	-78	-27
-89	-56	-26
-41	-26	-27
9	5	-30
59	36	-24
100	61	-23
125	79	-23
132	84	-21
122	77	-23
94	58	-20
51	31	-21
3	-1	-19
-47	-34	-21
-91	-63	-26
-124	-84	-27
-140	-93	-25
-135	-88	-24
-112	-72	-23
-75	-46	-24
-26	-15	-27
27	16	-28
74	45	-25
109	67	-25
130	81	-23
130	83	-21
114	72	-20
82	52	-15
37	24	-21
-11	-9	-22
-59	-43	-19
-101	-70	-23
-130	-88	-22
-140	-93	-25
-130	-84	-23
-103	-63	-23
-60	-36	-25
-8	-4	-26
44	28	-27
87	56	-23
118	76	-21
131	85	-23
125	82	-19
103	66	-19
66	41	-19
20	10	-18
-29	-25	-20
-76	-55	-21
-113	-79	-21
-135	-92	-22
-139	-92	-27
-124	-80	-25
-91	-57	-24
-44	-28	-24
8	6	-23
58	37	-23
100	62	-22
124	80	-21
131	84	-20
120	77	-20
92	59	-20
51	32	-18
3	0	-15
-44	-33	-17
-89	-62	-21
-123	-83	-21
-139	-92	-24
-137	-87	-22
-115	-70	-22
-77	-44	-21
-27	-14	-23
26	19	-23
74	46	-22
110	68	-22
129	81	-21
132	81	-19
115	70	-19
84	48	-18
38	22	-17
-12	-12	-19
-60	-44	-21
-103	-70	-21
-129	-89	-23
-139	-92	-26
-128	-85	-27
-99	-62	-25
-56	-36	-24
-5	-4	-25
46	28	-25
91	54	-24
122	76	-24
137	85	-23
131	83	-22
109	68	-25
69	43	-23
21	12	-18
-28	-23	-21
-77	-53	-24
-114	-79	-25
-136	-92	-21
-139	-93	-24
-124	-82	-27
-92	-58	-24
-44	-30	-23
7	4	-27
58	35	-27
99	64	-23
126	82	-26
133	88	-20
122	81	-21
95	60	-23
53	32	-22
7	-1	-21
-42	-32	-18
-87	-61	-23
-121	-83	-27
-137	-92	-23
-135	-89	-25
-115	-72	-26
-76	-49	-23
-26	-18	-25
27	16	-24
74	44	-21
110	69	-21
129	83	-20
131	85	-20
115	74	-20
83	53	-18
40	25	-17
-10	-10	-18
-56	-43	-21
-100	-72	-23
-127	-90	-22
-140	-96	-23
-131	-87	-24
-104	-66	-24
-61	-39	-25
-10	-6	-25
42	25	-25
88	51	-24
120	71	-21
132	82	-19
127	81	-22
105	67	-19
68	43	-19
22	12	-21
-26	-21	-23
-71	-54	-23
-111	-79	-19
-135	-92	-22
-140	-93	-24
-124	-81	-28
-92	-58	-26
-44	-29	-26
9	3	-26
58	35	-23
100	61	-22
124	77	-21
132	84	-19
123	77	-20
96	59	-18
56	34	-15
8	3	-19
-42	-29	-21
-89	-58	-22
-122	-80	-24
-140	-92	-24
-136	-90	-24
-116	-74	-26
-78	-50	-25
-28	-19	-23
23	15	-26
72	45	-23
109	67	-22
131	81	-24
132	84	-21
116	74	-20
83	53	-20
37	24	-22
-12	-8	-21
-61	-43	-21
-102	-69	-22
-129	-87	-23
-139	-93	-25
-130	-84	-26
-104	-64	-26
-61	-37	-25
-11	-5	-27
41	27	-27
86	54	-21
118	74	-22
132	84	-25
129	81	-19
107	66	-21
69	41	-22
23	10	-22
-26	-23	-22
-75	-54	-22
-112	-78	-24
-135	-92	-25
-139	-92	-26
-124	-80	-24
-91	-57	-28
-44	-28	-25
9	4	-24
58	35	-25
99	60	-21
125	78	-21
132	84	-20
122	77	-21
95	59	-20
55	32	-22
6	1	-21
-42	-32	-19
-88	-61	-18
-121	-84	-21
-137	-94	-24
-136	-89	-22
-116	-74	-24
-79	-47	-23
-29	-16	-23
24	16	-23
72	45	-23
107	67	-23
128	80	-24
131	82	-22
114	72	-23
83	51	-24
42	24	-20
-6	-9	-19
-55	-42	-21
-99	-70	-21
-129	-89	-22
-142	-94	-20
-134	-87	-20
-105	-65	-24
-61	-38	-24
-10	-6	-25
42	26	-26
86	53	-26
116	74	-23
129	84	-23
125	82	-21
104	68	-20
69	44	-19
24	13	-18
-24	-23	-21
-75	-53	-22
-111	-78	-22
-135	-90	-23
-139	-90	-23
-123	-80	-25
-90	-55	-25
-42	-28	-25
11	4	-23
60	35	-21
102	60	-25
128	80	-23
136	85	-20
126	80	-20
99	61	-16
58	34	-21
12	2	-22
-39	-31	-16
-84	-60	-21
-117	-81	-22
-135	-90	-23
-134	-89	-24
-115	-74	-25
-78	-49	-26
-30	-20	-24
21	13	-25
69	44	-24
107	70	-23
129	85	-21
132	88	-20
118	77	-21
86	53	-20
42	23	-20
-7	-11	-19
-58	-43	-21
-101	-70	-21
-130	-89	-24
-141	-94	-25
-133	-87	-25
-105	-68	-26
-62	-41	-25
-12	-10	-25
40	22	-26
85	50	-28
117	72	-25
131	83	-23
128	82	-20
106	68	-22
69	45	-21
24	14	-20
-27	-19	-21
-74	-50	-21
-112	-77	-21
-135	-91	-23
-141	-94	-27
-126	-81	-23
-94	-58	-23
-48	-29	-23
4	4	-24
54	34	-23
97	60	-23
125	77	-24
133	84	-21
125	79	-21
98	61	-19
58	36	-19
11	4	-21
-39	-29	-20
-86	-59	-21
-119	-81	-22
-137	-92	-22
-138	-88	-23
-117	-72	-23
-81	-50	-24
-31	-19	-25
20	11	-23
68	40	-24
106	64	-24
127	79	-22
131	84	-21
116	76	-20
86	56	-22
42	27	-19
-5	-5	-17
-55	-39	-19
-97	-67	-19
-126	-86	-28
-139	-93	-28
-130	-85	-24
-106	-66	-26
-63	-39	-23
-14	-7	-26
39	24	-24
85	52	-21
116	72	-21
132	83	-20
128	80	-20
107	67	-19
71	43	-20
28	12	-19
-23	-21	-16
-71	-53	-21
-110	-77	-23
-135	-91	-23
-139	-92	-27
-126	-81	-25
-94	-58	-27
-47	-30	-26
4	2	-25
54	34	-25
96	58	-22
123	78	-23
132	84	-22
124	79	-22
98	61	-21
58	35	-20
12	4	-19
-39	-29	-16
-85	-58	-20
-118	-80	-25
-136	-89	-24
-135	-87	-24
-117	-74	-27
-81	-49	-27
-34	-21	-28
18	12	-27
66	44	-22
106	66	-25
128	82	-25
133	84	-23
119	74	-21
86	51	-20
42	22	-17
-8	-11	-16
-56	-43	-20
-99	-69	-23
-126	-88	-23
-137	-94	-23
-130	-86	-23
-104	-68	-23
-61	-41	-22
-11	-9	-23
40	24	-24
86	52	-24
120	74	-20
135	84	-18
131	82	-19
109	68	-20
74	43	-20
26	13	-20
-24	-21	-22
-70	-52	-19
-110	-76	-20
-133	-90	-22
-139	-91	-23
-124	-80	-24
-94	-56	-27
-46	-29	-27
6	4	-24
54	35	-25
97	59	-24
123	77	-24
132	83	-23
123	79	-25
97	61	-20
56	35	-22
10	4	-21
-39	-31	-17
-86	-59	-21
-119	-83	-21
-138	-92	-25
-138	-89	-24
-118	-74	-26
-82	-49	-27
-32	-20	-25
19	13	-24
67	41	-23
105	65	-26
126	79	-22
130	82	-19
117	74	-20
88	54	-20
46	27	-19
-1	-6	-20
-52	-39	-23
-95	-67	-22
-126	-87	-24
-139	-93	-25
-132	-87	-25
-108	-67	-24
-64	-39	-25
-15	-6	-24
36	26	-24
80	52	-25
113	72	-19
129	82	-23
127	80	-22
107	68	-22
72	45	-21
28	16	-17
-24	-18	-21
-71	-50	-20
-111	-77	-21
-136	-92	-23
-140	-96	-24
-126	-84	-24
-94	-60	-23
-48	-31	-24
4	3	-25
54	34	-25
98	59	-23
125	77	-23
136	83	-21
128	77	-23
100	59	-19
60	34	-17
12	2	-19
-38	-30	-18
-83	-59	-21
-117	-81	-21
-135	-90	-24
-137	-88	-24
-119	-72	-27
-85	-51	-26
-36	-20	-24
16	12	-25
66	41	-25
107	66	-25
130	80	-23
135	85	-23
120	77	-21
89	57	-21
44	28	-20
-5	-5	-20
-53	-39	-19
-98	-68	-22
-126	-86	-24
-140	-94	-23
-133	-87	-26
-107	-68	-23
-66	-42	-25
-16	-10	-26
34	21	-25
82	49	-25
114	70	-21
131	81	-24
129	81	-19
107	68	-18
74	45	-23
27	16	-16
-22	-17	-17
-70	-49	-21
-110	-77	-21
-134	-91	-25
-141	-94	-24
-126	-84	-27
-95	-62	-26
-48	-31	-26
3	1	-24
52	33	-22
95	59	-22
123	76	-20
133	85	-22
123	79	-20
98	62	-19
59	36	-20
12	4	-21
-38	-28	-21
-84	-59	-21
-118	-82	-21
-138	-92	-25
-137	-89	-25
-119	-75	-24
-81	-50	-26
-33	-19	-25
19	11	-28
67	41	-25
105	63	-25
127	79	-26
131	82	-22
118	75	-21
87	55	-21
44	28	-20
-3	-4	-19
-52	-37	-21
-94	-64	-18
-125	-85	-22
-137	-92	-25
-132	-85	-25
-107	-68	-26
-63	-42	-25
-15	-11	-25
38	22	-24
84	51	-23
118	74	-21
133	85	-21
132	84	-22
111	71	-19
76	45	-19
30	14	-17
-21	-19	-15
-68	-50	-20
-108	-75	-22
-132	-89	-22
-139	-90	-26
-126	-79	-24
-95	-58	-25
-50	-30	-31
1	0	-26
51	32	-20
95	58	-18
122	77	-21
132	84	-23
123	79	-18
98	63	-21
60	36	-21
13	6	-21
-34	-29	-19
-81	-57	-19
-116	-82	-23
-136	-94	-23
-138	-92	-26
-120	-80	-26
-85	-55	-20
-37	-25	-22
13	8	-26
64	39	-24
103	64	-23
126	80	-21
132	84	-20
118	76	-22
89	55	-21
44	28	-20
-4	-5	-19
-54	-39	-20
-97	-66	-24
-126	-88	-24
-139	-93	-24
-133	-88	-25
-109	-69	-23
-66	-42	-21
-16	-11	-24
36	22	-23
85	50	-23
117	74	-22
133	84	-22
129	83	-20
110	70	-18
72	45	-21
28	15	-17
-21	-21	-20
-68	-51	-24
-107	-77	-23
-133	-91	-25
-140	-93	-21
-128	-83	-24
-97	-60	-26
-51	-32	-25
1	0	-25
54	32	-25
98	59	-25
125	78	-24
135	84	-23
126	81	-18
100	64	-22
60	39	-22
13	7	-20
-38	-25	-19
-83	-55	-20
-119	-79	-24
-138	-90	-22
-138	-90	-27
-119	-75	-28
-83	-51	-26
-35	-21	-27
17	13	-25
65	41	-25
103	64	-21
125	79	-25
131	83	-23
118	75	-21
89	56	-22
48	30	-19
0	-3	-19
-48	-36	-18
-93	-65	-20
-124	-85	-22
-137	-93	-23
-133	-88	-21
-107	-68	-21
-65	-43	-24
-16	-11	-25
35	20	-26
82	48	-25
115	70	-21
131	81	-22
130	81	-27
110	67	-21
77	45	-23
30	16	-23
-20	-17	-20
-66	-49	-20
-107	-75	-19
-132	-90	-22
-140	-94	-23
-127	-84	-25
-97	-62	-25
-51	-32	-24
0	0	-25
50	32	-24
94	59	-22
122	77	-21
132	85	-18
124	80	-19
101	64	-18
62	39	-17
15	8	-19
-34	-25	-19
-80	-55	-22
-114	-78	-21
-136	-92	-24
-136	-92	-27
-118	-78	-25
-84	-55	-21
-36	-25	-26
15	7	-26
64	38	-24
105	63	-22
126	79	-17
131	85	-21
117	76	-22
87	56	-20
43	27	-20
-4	-5	-18
-54	-39	-21
-96	-66	-22
-126	-87	-22
-139	-93	-22
-134	-87	-24
-110	-68	-27
-67	-42	-25
-19	-11	-26
34	20	-25
81	49	-23
115	70	-21
132	84	-23
130	83	-23
111	71	-21
77	49	-22
32	20	-18
-19	-13	-21
-65	-45	-20
-107	-71	-20
-133	-88	-24
-141	-92	-25
-129	-82	-25
-98	-61	-22
-53	-32	-27
-2	0	-25
50	33	-22
93	59	-24
122	78	-22
133	86	-23
127	80	-21
101	64	-20
62	37	-20
13	6	-20
-38	-29	-21
-84	-58	-22
-120	-82	-24
-139	-95	-25
-140	-93	-25
-122	-80	-23
-87	-55	-24
-39	-25	-27
13	9	-23
62	39	-21
102	63	-20
125	81	-20
132	85	-22
119	77	-21
91	58	-21
49	31	-20
1	-2	-22
-46	-37	-21
-91	-64	-24
-121	-84	-23
-136	-92	-23
-132	-86	-25
-107	-67	-25
-67	-41	-25
-18	-11	-26
33	20	-26
81	48	-24
115	70	-24
132	82	-24
132	81	-20
113	70	-19
80	48	-17
34	18	-17
-16	-17	-18
-65	-48	-20
-106	-75	-21
-131	-91	-19
-140	-93	-23
-129	-84	-28
-100	-62	-25
-53	-33	-23
-2	0	-25
50	31	-26
94	57	-25
123	77	-24
133	84	-23
127	81	-21
104	64	-22
64	40	-21
18	9	-17
-31	-25	-20
-77	-55	-22
-114	-80	-26
-136	-92	-27
-138	-90	-28
-121	-76	-30
-86	-52	-28
-39	-23	-26
12	9	-27
62	38	-26
100	63	-25
124	78	-22
131	83	-20
120	76	-20
90	56	-20
46	28	-21
-3	-5	-20
-52	-37	-20
-97	-65	-20
-126	-85	-23
-140	-92	-23
-134	-87	-24
-110	-69	-25
-69	-45	-21
-22	-14	-25
30	17	-24
78	46	-21
113	69	-24
131	81	-26
131	82	-19
113	68	-21
78	47	-19
32	17	-20
-18	-16	-22
-65	-47	-20
-106	-74	-22
-130	-89	-20
-139	-93	-24
-126	-82	-25
-96	-61	-24
-52	-32	-24
-1	0	-22
49	31	-20
93	58	-21
122	76	-23
133	84	-21
127	81	-22
104	64	-20
65	40	-19
17	8	-19
-32	-25	-21
-80	-58	-20
-117	-82	-22
-137	-93	-24
-139	-93	-25
-120	-78	-26
-87	-55	-24
-40	-24	-25
12	8	-24
60	39	-25
101	64	-23
124	79	-20
132	84	-20
120	77	-21
93	59	-18
51	32	-20
4	1	-20
-44	-32	-20
-91	-62	-25
-123	-85	-25
-138	-94	-24
-134	-89	-26
-111	-72	-27
-70	-46	-23
-20	-13	-25
32	19	-25
79	48	-24
111	68	-22
131	82	-20
130	83	-19
113	72	-19
81	50	-20
36	19	-19
-14	-14	-20
-63	-48	-19
-104	-74	-19
-130	-91	-20
-138	-95	-22
-127	-86	-26
-97	-64	-24
-53	-36	-23
-3	-4	-23
48	29	-24
90	55	-23
121	76	-25
133	86	-23
128	81	-21
104	67	-20
63	41	-20
16	10	-19
-34	-23	-20
-81	-53	-25
-117	-78	-21
-137	-91	-23
-138	-90	-25
-123	-79	-22
-89	-54	-22
-43	-25	-23
10	7	-24
60	38	-23
101	62	-24
127	80	-24
131	85	-23
120	78	-18
90	59	-16
49	30	-20
1	-2	-18
-47	-36	-18
-92	-64	-22
-123	-85	-27
-137	-92	-25
-134	-87	-23
-110	-70	-23
-71	-44	-25
-22	-14	-26
30	18	-25
77	47	-26
111	68	-22
131	83	-20
132	84	-24
113	74	-17
78	50	-18
32	21	-20
-17	-13	-18
-65	-45	-20
-107	-71	-19
-132	-90	-23
-141	-93	-24
-129	-85	-24
-100	-64	-22
-55	-36	-23
-3	-4	-26
48	29	-24
93	57	-25
122	76	-25
135	85	-25
128	83	-24
104	66	-20
66	41	-20
19	10	-20
-31	-24	-20
-80	-54	-21
-117	-80	-24
-138	-92	-23
-140	-92	-23
-121	-79	-24
-88	-55	-24
-40	-26	-27
12	6	-26
60	37	-25
98	62	-23
123	79	-21
131	84	-22
119	77	-18
92	57	-20
50	29	-21
3	-3	-21
-46	-36	-21
-91	-63	-22
-123	-85	-23
-139	-92	-21
-134	-88	-24
-112	-70	-26
-72	-45	-26
-24	-13	-25
30	19	-24
78	48	-22
113	71	-23
132	83	-24
132	84	-19
115	71	-19
81	49	-23
36	20	-22
-12	-13	-21
-60	-44	-20
-102	-72	-23
-129	-89	-24
-139	-95	-21
-129	-87	-25
-100	-65	-25
-57	-39	-23
-4	-5	-24
48	28	-24
91	56	-24
121	77	-21
132	85	-18
127	82	-19
104	65	-19
66	40	-19
21	10	-18
-28	-23	-20
-75	-54	-22
-112	-78	-22
-133	-91	-26
-137	-91	-26
-121	-79	-24
-88	-56	-23
-41	-25	-27
11	7	-27
59	37	-24
100	63	-21
125	79	-21
132	85	-22
120	77	-22
92	58	-22
50	31	-21
2	-3	-22
-45	-36	-22
-91	-65	-20
-122	-85	-25
-138	-93	-29
-135	-88	-24
-112	-71	-25
-75	-46	-26
-23	-15	-26
28	17	-25
78	46	-22
112	68	-22
131	83	-19
132	85	-21
113	72	-19
81	51	-20
35	21	-18
-14	-12	-18
-62	-44	-18
-104	-69	-19
-130	-86	-22
-142	-90	-25
-132	-82	-26
-103	-62	-24
-58	-35	-25
-7	-4	-27
45	29	-26
89	56	-24
119	76	-22
131	84	-23
124	80	-22
102	64	-21
63	39	-20
18	10	-21
-31	-23	-20
-79	-54	-21
-115	-78	-21
-137	-92	-21
-140	-92	-23
-124	-81	-24
-88	-56	-23
-41	-26	-23
12	6	-24
62	39	-22
101	63	-22
127	80	-22
133	86	-20
124	79	-18
95	61	-18
54	33	-19
8	2	-16
-42	-33	-19
-88	-61	-21
-121	-84	-23
-138	-93	-24
-136	-89	-22
-114	-72	-25
-75	-46	-26
-25	-17	-26
28	15	-25
76	43	-23
111	66	-21
129	80	-21
131	81	-22
114	71	-21
81	49	-21
37	21	-21
-12	-11	-22
-60	-45	-21
-103	-71	-23
-130	-90	-25
-140	-94	-26
-130	-86	-25
-101	-65	-27
-57	-38	-27
-5	-7	-25
44	25	-27
90	52	-23
120	74	-23
132	84	-23
127	82	-19
104	68	-19
67	41	-18
20	11	-21
-28	-24	-21
-77	-53	-20
-113	-77	-21
-133	-88	-21
-139	-87	-24
-122	-77	-26
-89	-54	-24
-43	-26	-24
8	5	-30
58	36	-23
99	62	-20
125	80	-23
135	85	-23
123	80	-23
96	60	-19
54	34	-20
4	-1	-19
-46	-35	-18
-92	-64	-22
-123	-87	-22
-139	-94	-25
-134	-89	-24
-112	-70	-22
-74	-45	-24
-24	-14	-28
27	18	-27
74	46	-25
110	68	-21
130	81	-20
128	84	-20
113	74	-20
80	51	-19
35	23	-19
-13	-11	-22
-60	-43	-19
-101	-71	-23
-129	-87	-24
-138	-92	-25
-129	-85	-22
-102	-64	-18
-58	-38	-22
-7	-4	-26
44	27	-28
90	56	-25
122	75	-24
133	82	-21
129	79	-20
105	63	-17
66	38	-15
20	8	-19
-31	-25	-20
-78	-54	-24
-115	-79	-23
-137	-93	-21
-140	-95	-25
-125	-83	-24
-92	-59	-23
-44	-29	-25
8	5	-25
57	37	-21
99	63	-21
125	78	-23
132	84	-19
122	77	-20
95	58	-21
56	32	-20
9	0	-21
-40	-32	-21
-85	-62	-18
-119	-83	-22
-137	-93	-26
-136	-89	-27
-115	-72	-28
-77	-48	-26
-26	-14	-24
27	18	-24
74	48	-25
110	70	-21
128	84	-21
130	85	-22
113	74	-22
81	53	-20
38	24	-18
-12	-8	-20
-60	-41	-20
-103	-68	-24
-129	-86	-22
-139	-92	-25
-130	-83	-26
-102	-64	-24
-59	-35	-25
-8	-4	-26
42	28	-26
88	56	-22
120	76	-23
133	84	-22
129	81	-21
106	65	-21
69	41	-20
23	11	-21
-27	-21	-18
-75	-54	-21
-110	-77	-21
-134	-92	-21
-136	-92	-23
-122	-79	-23
-91	-57	-24
-44	-28	-27
7	4	-27
57	35	-26
98	60	-26
125	78	-21
133	85	-20
123	78	-19
96	60	-17
52	32	-17
5	-1	-19
-46	-34	-19
-91	-62	-21
-122	-84	-23
-138	-92	-23
-135	-87	-22
-113	-71	-19
-75	-45	-23
-26	-15	-24
26	17	-22
75	48	-25
111	71	-23
133	85	-19
133	85	-19
117	74	-22
85	50	-23
40	21	-20
-11	-12	-21
-59	-44	-22
-101	-70	-23
-130	-89	-24
-141	-94	-25
-132	-85	-26
-105	-66	-24
-61	-37	-24
-9	-5	-25
42	27	-23
88	53	-23
119	71	-27
132	81	-27
127	77	-22
104	64	-21
66	38	-23
21	9	-21
-29	-24	-21
-76	-54	-26
-112	-78	-26
-135	-92	-24
-139	-92	-24
-124	-81	-26
-91	-58	-23
-45	-30	-24
6	3	-25
55	34	-22
98	59	-23
122	78	-21
132	84	-20
123	80	-20
97	61	-22
58	35	-23
9	3	-21
-40	-30	-21
-86	-58	-21
-120	-82	-21
-137	-92	-20
-135	-90	-22
-113	-75	-24
-76	-48	-25
-26	-17	-25
26	17	-21
74	45	-22
111	69	-19
130	83	-17
132	84	-23
115	72	-19
83	52	-21
38	25	-19
-12	-8	-17
-61	-40	-21
-103	-69	-25
-131	-88	-26
-142	-94	-27
-133	-87	-27
-105	-66	-26
-60	-38	-24
-10	-6	-25
41	25	-23
86	52	-20
117	74	-21
132	84	-17
128	84	-19
107	70	-21
71	45	-20
27	14	-23
-24	-21	-20
-71	-54	-21
-109	-79	-19
-134	-91	-23
-138	-92	-27
-125	-81	-24
-92	-57	-24
-44	-30	-22
7	1	-23
58	32	-21
101	59	-20
127	77	-20
133	85	-17
123	80	-20
96	60	-20
54	33	-20
8	0	-19
-42	-33	-19
-86	-62	-20
-120	-83	-23
-137	-91	-24
-136	-89	-24
-115	-74	-27
-78	-49	-26
-30	-18	-26
22	14	-25
70	45	-24
107	68	-25
129	82	-22
132	84	-20
117	74	-19
84	52	-19
40	23	-18
-10	-9	-18
-59	-42	-20
-101	-70	-23
-129	-88	-26
-140	-93	-24
-131	-85	-22
-103	-64	-20
-61	-37	-21
-11	-4	-24
40	26	-25
86	55	-24
118	75	-21
132	85	-20
128	82	-24
106	68	-21
69	43	-18
24	11	-22
-26	-22	-22
-72	-54	-21
-111	-77	-22
-134	-90	-25
-139	-90	-27
-124	-78	-28
-93	-57	-26
-46	-29	-27
7	3	-25
56	34	-23
99	59	-21
124	78	-20
135	85	-21
125	80	-22
99	64	-24
58	37	-21
10	6	-18
-40	-29	-22
-87	-59	-21
-121	-82	-22
-139	-93	-21
-137	-89	-23
-117	-76	-26
-79	-49	-22
-29	-18	-24
21	14	-27
69	45	-24
106	67	-20
128	83	-23
131	85	-23
116	75	-24
86	53	-22
41	24	-21
-8	-9	-20
-59	-42	-20
-101	-69	-23
-130	-89	-22
-141	-93	-28
-130	-86	-27
-104	-66	-25
-61	-39	-24
-11	-8	-24
41	25	-23
86	51	-22
119	72	-21
133	83	-19
129	80	-20
107	67	-19
71	43	-19
26	12	-19
-25	-21	-16
-71	-52	-19
-109	-76	-17
-133	-91	-22
-137	-93	-25
-123	-82	-22
-91	-59	-21
-46	-30	-23
4	2	-26
53	33	-25
96	58	-26
124	77	-24
133	83	-20
125	77	-20
98	60	-21
57	34	-23
8	2	-22
-42	-32	-19
-88	-61	-20
-121	-84	-21
-138	-92	-21
-136	-88	-24
-115	-72	-25
-78	-47	-22
-28	-17	-24
23	16	-25
69	45	-23
107	68	-24
128	84	-23
131	85	-22
114	76	-20
84	53	-20
40	25	-18
-10	-8	-20
-58	-41	-20
-102	-69	-21
-130	-88	-23
-143	-93	-25
-134	-86	-28
-106	-66	-26
-62	-41	-27
-11	-10	-28
39	23	-28
85	49	-24
116	71	-23
131	82	-22
128	81	-23
107	67	-24
72	44	-22
27	14	-20
-24	-21	-21
-72	-51	-21
-113	-76	-25
-137	-89	-24
-142	-92	-27
-127	-79	-26
-96	-57	-23
-48	-28	-26
2	5	-25
52	34	-22
95	60	-22
122	79	-22
132	83	-21
123	77	-19
99	59	-18
59	34	-19
12	4	-19
-39	-28	-20
-84	-56	-20
-117	-80	-20
-137	-90	-25
-135	-90	-25
-115	-75	-24
-78	-50	-27
-28	-19	-25
24	13	-25
71	42	-23
109	65	-21
130	78	-22
132	81	-21
119	72	-22
87	53	-20
44	26	-21
-5	-8	-20
-55	-41	-18
-98	-69	-24
-128	-89	-27
-139	-96	-22
-132	-88	-25
-104	-67	-26
-63	-41	-25
-13	-7	-27
38	24	-23
84	52	-22
117	71	-21
132	82	-22
129	82	-24
107	67	-22
71	45	-22
26	14	-20
-24	-19	-20
-70	-50	-21
-109	-76	-24
-133	-90	-24
-139	-93	-27
-126	-81	-25
-95	-60	-20
-50	-30	-22
2	4	-21
52	35	-22
96	62	-22
123	79	-20
132	85	-21
123	80	-19
97	62	-18
58	35	-20
9	4	-18
-40	-29	-20
-85	-58	-21
-118	-81	-21
-136	-92	-23
-137	-90	-23
-117	-75	-27
-81	-51	-25
-32	-21	-26
20	12	-26
69	41	-25
107	65	-25
128	81	-21
131	84	-23
115	74	-21
84	53	-21
40	25	-22
-8	-7	-18
-56	-41	-22
-97	-68	-23
-126	-86	-22
-141	-93	-24
-134	-85	-21
-109	-66	-23
-66	-39	-23
-15	-8	-24
39	23	-24
86	51	-22
119	72	-23
133	84	-21
130	83	-23
107	70	-21
72	47	-18
27	17	-23
-22	-16	-23
-70	-48	-21
-110	-72	-23
-135	-89	-24
-139	-92	-26
-125	-81	-24
-93	-59	-21
-46	-30	-21
4	3	-18
53	33	-21
95	58	-23
121	77	-21
131	83	-21
124	77	-21
100	60	-22
60	35	-20
14	4	-18
-37	-30	-19
-83	-58	-18
-117	-82	-19
-136	-94	-21
-136	-91	-23
-116	-79	-23
-79	-52	-23
-30	-21	-23
23	13	-26
71	43	-24
109	66	-20
130	82	-18
132	84	-18
118	77	-22
86	56	-18
44	29	-18
-6	-6	-18
-54	-40	-19
-98	-69	-19
-129	-90	-23
-141	-94	-25
-134	-87	-27
-107	-66	-29
-64	-38	-26
-14	-8	-24
37	23	-23
84	50	-22
116	71	-23
131	82	-21
130	83	-20
107	70	-21
74	46	-21
28	16	-20
-22	-18	-22
-69	-49	-23
-108	-75	-23
-132	-88	-24
-138	-90	-23
-124	-80	-23
-93	-60	-25
-48	-33	-25
2	-1	-26
51	30	-24
94	57	-25
121	77	-25
133	84	-24
123	80	-23
98	62	-24
58	35	-21
11	4	-22
-39	-30	-23
-85	-58	-23
-120	-82	-25
-138	-92	-26
-137	-92	-25
-117	-77	-24
-80	-52	-23
-31	-20	-25
21	14	-25
69	43	-22
107	67	-24
130	81	-20
132	84	-15
118	74	-20
87	51	-22
44	24	-17
-4	-9	-19
-54	-41	-21
-96	-69	-23
-126	-87	-26
-138	-93	-25
-131	-88	-23
-107	-68	-25
-64	-43	-26
-16	-11	-24
35	21	-25
81	50	-23
116	72	-20
132	81	-22
129	83	-23
110	68	-19
71	45	-22
27	15	-20
-23	-18	-19
-70	-49	-21
-109	-75	-23
-133	-89	-26
-139	-93	-26
-128	-82	-26
-96	-60	-25
-51	-29	-26
1	3	-26
52	35	-26
95	61	-23
122	79	-19
132	85	-17
124	79	-18
100	61	-19
62	37	-18
16	6	-16
-33	-25	-17
-80	-55	-19
-117	-78	-20
-138	-90	-22
-141	-90	-24
-121	-77	-25
-84	-52	-23
-34	-21	-26
18	12	-24
67	43	-22
106	66	-24
127	81	-22
131	84	-20
116	74	-20
87	54	-20
44	25	-20
-6	-7	-20
-55	-39	-20
-98	-68	-22
-128	-86	-22
-140	-94	-24
-132	-86	-27
-106	-68	-28
-65	-41	-28
-15	-9	-25
35	21	-25
83	50	-27
116	70	-23
133	83	-24
131	82	-23
111	70	-21
78	47	-20
32	17	-21
-17	-16	-19
-64	-48	-18
-104	-74	-22
-129	-90	-23
-137	-93	-23
-126	-82	-26
-97	-61	-26
-52	-32	-26
-1	0	-25
50	32	-24
94	59	-21
122	79	-19
133	88	-21
124	81	-20
99	65	-20
59	37	-19
12	6	-17
-37	-29	-19
-84	-59	-20
-118	-81	-21
-140	-92	-21
-139	-89	-24
-121	-77	-25
-83	-51	-25
-33	-20	-26
19	12	-25
69	43	-25
107	66	-25
130	81	-23
132	85	-23
119	76	-21
87	55	-19
46	27	-20
-4	-5	-19
-52	-40	-22
-95	-67	-22
-126	-88	-25
-138	-93	-26
-133	-89	-21
-107	-71	-24
-66	-44	-26
-16	-13	-24
35	21	-27
81	51	-23
115	74	-22
132	85	-22
131	84	-17
110	70	-19
76	45	-18
29	16	-17
-23	-18	-16
-70	-48	-20
-111	-72	-22
-135	-89	-20
-141	-92	-21
-128	-84	-26
-97	-62	-28
-52	-33	-25
-1	0	-24
49	33	-22
93	60	-25
121	80	-23
132	87	-21
127	83	-21
103	66	-15
66	40	-19
18	8	-17
-33	-26	-20
-81	-57	-22
-117	-81	-21
-137	-93	-24
-137	-91	-23
-117	-77	-23
-81	-51	-22
-31	-22	-24
18	10	-23
67	39	-22
106	64	-23
127	79	-19
132	83	-20
118	76	-18
89	56	-16
44	28	-19
-4	-6	-18
-53	-39	-19
-95	-67	-24
-126	-87	-25
-139	-94	-25
-131	-88	-24
-108	-68	-22
-65	-42	-27
-17	-11	-26
34	21	-24
83	49	-24
116	69	-19
132	81	-21
130	81	-20
111	68	-20
76	47	-19
30	17	-20
-20	-17	-21
-67	-48	-21
-106	-75	-25
-131	-90	-23
-139	-94	-21
-128	-84	-25
-98	-61	-27
-52	-34	-26
-1	-1	-28
49	29	-26
93	56	-24
122	75	-22
132	84	-21
124	80	-20
99	64	-20
58	39	-21
12	6	-20
-39	-28	-20
-83	-58	-22
-118	-80	-20
-137	-91	-21
-137	-89	-23
-119	-74	-25
-84	-51	-27
-35	-21	-26
18	12	-24
67	41	-23
107	66	-21
127	80	-20
131	84	-23
118	75	-21
87	55	-19
45	26	-21
-3	-6	-20
-51	-39	-20
-95	-68	-24
-125	-88	-25
-138	-96	-24
-132	-89	-25
-107	-70	-25
-66	-42	-27
-15	-11	-28
36	22	-26
83	51	-25
117	71	-24
132	83	-24
132	82	-20
111	67	-20
77	45	-22
30	15	-20
-19	-17	-20
-66	-48	-22
-107	-74	-23
-133	-87	-23
-141	-91	-24
-128	-81	-27
-98	-59	-27
-52	-30	-27
-1	1	-27
49	31	-26
93	58	-26
120	75	-24
132	84	-20
124	79	-21
101	66	-19
64	41	-18
17	10	-22
-33	-22	-20
-81	-54	-21
-117	-78	-20
-139	-91	-21
-140	-89	-25
-122	-75	-25
-86	-48	-25
-37	-19	-27
13	11	-26
63	41	-24
104	61	-23
127	77	-22
132	81	-21
120	74	-20
91	56	-20
47	28	-16
-1	-4	-20
-52	-38	-22
-94	-67	-18
-126	-88	-22
-138	-94	-23
-133	-88	-25
-109	-69	-25
-68	-41	-25
-20	-11	-26
32	23	-22
81	49	-22
114	69	-22
132	81	-21
129	80	-21
111	68	-21
77	45	-20
32	17	-21
-17	-16	-23
-63	-47	-24
-103	-72	-25
-130	-90	-23
-139	-93	-24
-128	-85	-25
-98	-63	-23
-53	-33	-24
-1	-2	-25
50	30	-24
94	56	-22
123	77	-24
133	84	-20
127	80	-19
102	64	-19
64	38	-21
15	7	-20
-34	-28	-20
-82	-57	-23
-118	-81	-22
-137	-92	-22
-139	-90	-24
-120	-77	-26
-86	-52	-25
-38	-23	-25
14	10	-23
63	39	-20
104	64	-20
127	81	-19
132	85	-18
119	78	-19
90	55	-20
46	27	-19
-3	-6	-20
-52	-39	-18
-96	-66	-19
-126	-86	-23
-140	-92	-25
-133	-87	-27
-109	-69	-25
-69	-42	-24
-18	-11	-25
33	23	-22
83	51	-21
116	74	-25
133	84	-22
132	84	-22
112	70	-21
77	47	-18
30	18	-16
-18	-15	-20
-65	-46	-24
-105	-72	-20
-130	-87	-24
-139	-90	-22
-127	-82	-23
-98	-61	-25
-53	-35	-25
-4	-2	-26
47	28	-24
91	55	-23
121	76	-21
132	84	-21
124	80	-21
100	62	-19
61	36	-21
14	4	-21
-35	-27	-23
-80	-56	-23
-115	-80	-21
-136	-90	-25
-138	-90	-27
-121	-77	-24
-85	-53	-25
-37	-22	-26
15	11	-23
66	41	-24
106	65	-28
129	81	-23
133	85	-24
121	75	-21
91	55	-17
50	29	-19
3	-3	-19
-47	-35	-23
-90	-62	-23
-122	-83	-23
-136	-92	-24
-132	-88	-23
-107	-70	-24
-67	-45	-23
-18	-12	-24
34	21	-24
81	51	-23
115	72	-23
131	83	-20
129	83	-18
110	70	-19
76	47	-20
31	18	-17
-20	-16	-18
-67	-47	-20
-108	-74	-21
-133	-89	-23
-142	-94	-25
-132	-84	-25
-101	-63	-24
-58	-34	-24
-5	-1	-24
45	27	-24
91	55	-23
120	72	-23
132	82	-19
126	79	-18
101	64	-21
63	39	-20
15	7	-22
-34	-26	-20
-81	-58	-23
-115	-82	-25
-136	-94	-25
-137	-91	-26
-120	-77	-25
-84	-52	-27
-36	-21	-24
14	11	-25
64	42	-21
104	65	-20
127	82	-23
133	87	-25
120	80	-23
93	59	-20
49	30	-19
1	-2	-18
-48	-37	-22
-93	-65	-22
-126	-86	-24
-141	-93	-29
-135	-86	-28
-111	-69	-28
-69	-43	-28
-18	-13	-25
34	19	-26
81	48	-26
115	70	-23
132	83	-23
131	83	-20
111	70	-18
77	47	-16
32	17	-20
-18	-16	-20
-65	-49	-18
-104	-74	-23
-132	-90	-21
-140	-92	-23
-130	-83	-23
-100	-61	-22
-56	-33	-24
-6	-2	-23
46	30	-21
90	55	-20
120	76	-23
131	83	-19
125	80	-21
103	66	-21
64	41	-20
19	11	-21
-30	-23	-21
-76	-54	-22
-114	-80	-23
-136	-93	-23
-138	-91	-21
-121	-78	-26
-85	-52	-30
-37	-23	-26
15	10	-28
65	40	-27
104	64	-24
127	80	-22
132	84	-21
120	78	-24
91	57	-23
49	30	-21
-2	-3	-18
-51	-37	-19
-96	-66	-21
-126	-88	-21
-140	-94	-24
-134	-90	-26
-109	-71	-26
-68	-45	-26
-19	-14	-26
32	19	-24
79	48	-21
113	70	-23
131	82	-24
131	82	-20
111	70	-19
79	45	-21
32	17	-19
-16	-16	-18
-63	-47	-20
-103	-72	-20
-129	-89	-21
-138	-92	-24
-128	-83	-24
-101	-63	-22
-57	-35	-25
-8	-4	-25
42	27	-24
88	54	-20
118	75	-20
132	82	-20
126	81	-18
104	64	-19
65	40	-18
17	9	-17
-32	-25	-20
-80	-55	-21
-116	-81	-24
-137	-93	-25
-138	-93	-25
-121	-79	-26
-87	-54	-24
-37	-24	-24
14	10	-24
65	40	-24
106	65	-25
129	80	-23
134	83	-24
121	76	-21
93	55	-20
49	30	-20
2	-3	-22
-48	-34	-21
-92	-63	-20
-124	-84	-23
-139	-92	-27
-134	-88	-28
-112	-71	-25
-70	-45	-23
-21	-13	-22
32	19	-24
79	49	-25
115	72	-24
132	84	-24
132	85	-21
114	71	-19
79	49	-18
34	19	-18
-16	-14	-19
-63	-45	-20
-105	-72	-21
-132	-89	-21
-141	-94	-19
-129	-85	-24
-99	-64	-24
-55	-35	-23
-5	-2	-24
46	29	-26
90	57	-24
120	77	-20
131	84	-21
125	80	-22
103	64	-19
65	40	-19
18	8	-21
-31	-25	-23
-77	-55	-23
-115	-78	-25
-136	-90	-25
-139	-91	-25
-121	-77	-27
-88	-54	-25
-39	-24	-27
12	9	-25
62	40	-24
103	65	-24
127	80	-23
133	84	-21
121	77	-17
92	58	-18
51	30	-23
3	-1	-20
-46	-34	-20
-89	-64	-21
-122	-84	-22
-139	-94	-24
-135	-89	-24
-111	-72	-23
-72	-46	-23
-22	-13	-23
30	19	-24
79	48	-22
114	70	-23
132	82	-20
131	82	-19
111	69	-20
79	48	-19
34	16	-21
-14	-15	-23
-61	-48	-21
-102	-72	-19
-129	-90	-20
-139	-93	-21
-128	-84	-23
-101	-64	-25
-56	-36	-24
-7	-5	-22
44	27	-21
89	53	-21
118	74	-21
132	84	-22
125	80	-21
103	66	-21
64	40	-20
16	9	-19
-34	-24	-20
-79	-56	-20
-115	-79	-21
-136	-92	-21
-138	-91	-25
-121	-78	-25
-87	-54	-24
-40	-24	-25
12	9	-24
62	41	-24
103	65	-21
128	81	-18
133	85	-22
122	78	-22
93	60	-23
52	33	-23
4	2	-24
-46	-33	-21
-89	-61	-20
-121	-85	-22
-137	-93	-25
-134	-88	-26
-112	-72	-25
-71	-45	-26
-23	-13	-26
30	20	-25
78	49	-24
115	70	-24
132	83	-22
132	83	-21
114	71	-18
79	48	-19
34	19	-21
-18	-15	-17
-64	-49	-22
-105	-75	-22
-132	-92	-23
-141	-95	-26
-130	-86	-26
-101	-64	-27
-58	-37	-24
-8	-4	-24
43	28	-25
89	55	-27
118	76	-24
131	84	-23
126	81	-21
104	65	-21
67	40	-20
20	9	-20
-30	-24	-23
-77	-54	-24
-113	-78	-24
-134	-92	-25
-139	-92	-21
-123	-80	-23
-90	-55	-25
-42	-25	-22
10	9	-24
61	40	-28
103	65	-21
126	81	-21
133	85	-19
120	78	-19
93	58	-20
51	32	-17
3	0	-20
-46	-33	-20
-92	-61	-20
-123	-84	-19
-139	-92	-20
-135	-89	-23
-111	-71	-21
-70	-46	-24
-20	-13	-24
32	20	-25
80	47	-21
115	69	-22
131	82	-24
132	83	-23
115	71	-21
82	51	-21
36	22	-21
-12	-13	-18
-62	-45	-21
-101	-72	-25
-130	-89	-22
-138	-94	-24
-128	-84	-26
-100	-63	-25
-57	-36	-24
-8	-4	-25
43	26	-25
87	53	-23
118	72	-26
131	85	-24
125	83	-20
102	68	-20
63	43	-21
18	10	-20
-32	-24	-19
-77	-55	-19
-113	-79	-20
-135	-90	-23
-139	-92	-22
-123	-79	-24
-89	-57	-26
-41	-27	-26
12	6	-26
63	37	-24
104	64	-23
129	80	-23
135	85	-21
121	78	-20
93	58	-19
51	31	-21
2	-2	-20
-47	-33	-21
-91	-62	-25
-124	-82	-24
-139	-93	-26
-136	-90	-24
-113	-75	-23
-75	-51	-24
-25	-19	-24
26	14	-24
75	43	-22
111	68	-23
131	81	-20
132	83	-18
115	71	-19
83	49	-19
36	20	-19
-14	-13	-19
-61	-45	-20
-103	-71	-22
-130	-89	-21
-140	-94	-23
-130	-86	-25
-101	-66	-24
-57	-37	-25
-7	-4	-28
44	29	-27
90	56	-20
121	76	-21
133	84	-22
129	80	-19
107	65	-21
71	40	-19
24	11	-18
-25	-21	-22
-74	-52	-20
-112	-77	-20
-137	-91	-23
-140	-92	-25
-124	-79	-27
-91	-56	-26
-43	-24	-25
10	9	-25
59	39	-26
100	63	-25
124	80	-24
132	85	-22
121	78	-21
93	60	-21
52	32	-21
3	1	-21
-47	-34	-20
-92	-62	-22
-126	-84	-24
-141	-93	-27
-136	-89	-28
-115	-72	-27
-76	-47	-23
-28	-16	-27
24	17	-26
72	47	-24
109	70	-25
129	82	-23
130	82	-21
114	72	-19
81	49	-24
36	21	-22
-15	-13	-21
-62	-45	-19
-101	-70	-21
-128	-88	-28
-137	-92	-24
-130	-85	-23
-101	-64	-25
-60	-38	-23
-10	-8	-25
42	25	-24
87	51	-21
119	71	-21
133	81	-20
129	80	-19
106	65	-17
69	40	-17
21	10	-18
-29	-24	-19
-77	-54	-19
-113	-78	-21
-134	-89	-23
-137	-89	-25
-120	-78	-24
-87	-54	-25
-40	-25	-24
11	8	-25
60	39	-25
102	65	-21
126	84	-21
133	87	-21
122	81	-21
94	61	-19
53	34	-20
4	2	-20
-46	-32	-20
-91	-60	-23
-123	-81	-24
-139	-90	-25
-134	-87	-24
-112	-71	-26
-71	-47	-23
-23	-17	-23
28	16	-26
77	45	-25
111	67	-25
132	81	-23
133	81	-22
116	70	-22
84	48	-21
39	19	-20
-11	-15	-19
-60	-45	-22
-101	-72	-25
-128	-89	-21
-137	-93	-22
-127	-87	-25
-100	-66	-23
-58	-40	-28
-10	-8	-27
41	22	-23
86	50	-23
117	71	-22
132	81	-19
127	81	-18
106	67	-21
69	43	-21
23	13	-21
-27	-21	-19
-76	-52	-20
-112	-77	-20
-136	-89	-21
-138	-90	-24
-123	-77	-23
-89	-55	-26
-42	-26	-26
8	7	-25
58	37	-25
98	62	-22
123	80	-20
130	84	-19
121	78	-18
94	57	-18
54	29	-15
6	-4	-16
-44	-37	-18
-89	-65	-19
-123	-85	-21
-140	-92	-22
-137	-89	-24
-115	-72	-26
-76	-48	-27
-26	-16	-27
26	16	-26
74	46	-24
109	70	-19
128	83	-24
130	84	-28
115	74	-21
83	51	-24
40	22	-23
-11	-11	-23
-59	-41	-25
-102	-68	-20
-130	-86	-23
-141	-92	-24
-132	-83	-25
-105	-64	-26
-62	-36	-25
-12	-5	-22
40	26	-21
86	53	-24
119	74	-24
133	85	-21
131	83	-21
107	67	-21
72	43	-20
24	11	-20
-27	-22	-19
-75	-53	-18
-112	-77	-22
-134	-91	-22
-138	-90	-23
-121	-79	-27
-88	-57	-26
-41	-29	-27
8	3	-25
59	33	-24
101	59	-24
125	77	-22
133	84	-21
121	78	-19
94	59	-18
52	32	-19
5	0	-20
-44	-34	-20
-90	-63	-23
-123	-85	-24
-141	-94	-24
-137	-90	-26
-115	-75	-24
-76	-47	-26
-26	-16	-27
26	16	-25
76	46	-24
111	68	-23
132	82	-20
132	83	-20
117	71	-22
85	50	-21
39	19	-19
-11	-15	-20
-60	-47	-22
-101	-72	-23
-130	-90	-22
-139	-94	-23
-130	-84	-24
-102	-64	-24
-60	-37	-26
-12	-5	-24
40	26	-23
84	53	-23
116	74	-21
131	84	-21
127	82	-19
107	68	-17
69	43	-17
25	14	-18
-27	-19	-21
-72	-49	-21
-111	-72	-22
-134	-88	-23
-138	-90	-24
-124	-80	-28
-91	-56	-25
-44	-27	-25
9	5	-25
59	37	-25
101	61	-26
128	79	-25
134	83	-22
124	77	-20
96	59	-22
56	32	-20
7	0	-19
-42	-34	-22
-87	-63	-22
-121	-87	-21
-137	-96	-17
-136	-92	-21
-114	-77	-29
-76	-49	-27
-26	-18	-25
26	16	-26
72	45	-24
110	68	-24
130	82	-23
132	84	-21
116	74	-21
85	51	-19
40	24	-17
-10	-9	-19
-59	-41	-21
-101	-67	-21
-129	-86	-21
-139	-92	-23
-130	-85	-24
-105	-66	-25
-63	-40	-25
-13	-8	-22
37	24	-23
85	52	-23
117	76	-24
132	85	-23
129	84	-22
106	68	-22
68	43	-20
20	12	-20
-29	-22	-20
-76	-52	-22
-112	-77	-23
-135	-89	-23
-138	-90	-25
-123	-79	-23
-90	-56	-24
-44	-28	-23
7	5	-22
57	35	-22
99	61	-23
126	79	-24
135	85	-23
123	78	-23
97	58	-21
54	32	-24
6	-1	-22
-44	-33	-21
-87	-62	-23
-120	-84	-25
-137	-91	-23
-135	-89	-25
-114	-71	-26
-75	-48	-26
-28	-17	-26
24	16	-24
72	45	-24
108	68	-24
130	81	-24
131	84	-21
116	72	-21
83	51	-21
39	23	-19
-11	-11	-18
-59	-44	-19
-101	-71	-23
-130	-89	-24
-140	-94	-24
-131	-86	-25
-103	-63	-21
-60	-37	-23
-8	-5	-24
42	25	-21
86	53	-21
117	71	-20
130	82	-22
127	81	-21
106	66	-16
71	43	-23
27	13	-20
-24	-19	-20
-69	-50	-24
-110	-74	-21
-134	-88	-24
-139	-92	-25
-124	-81	-24
-89	-59	-25
-43	-28	-28
8	5	-27
57	36	-25
99	62	-21
123	80	-23
132	86	-19
121	78	-18
94	60	-24
54	33	-24
5	0	-19
-43	-32	-23
-89	-62	-22
-121	-85	-20
-138	-95	-26
-135	-92	-26
-113	-76	-27
-76	-48	-23
-27	-15	-23
24	18	-23
72	48	-22
107	70	-22
129	82	-19
131	83	-18
115	71	-16
84	50	-16
39	21	-16
-10	-11	-17
-58	-41	-21
-100	-66	-23
-128	-85	-22
-139	-92	-22
-130	-84	-21
-104	-66	-24
-61	-40	-23
-12	-9	-25
39	23	-26
85	53	-22
118	74	-22
134	85	-22
130	83	-21
107	68	-20
70	44	-19
23	14	-19
-27	-19	-20
-75	-51	-22
-111	-76	-23
-135	-90	-23
-139	-91	-25
-124	-80	-26
-91	-56	-26
-44	-27	-26
7	3	-28
58	35	-25
99	60	-24
124	77	-26
131	84	-21
120	77	-21
93	58	-22
52	31	-21
5	0	-22
-44	-33	-21
-89	-61	-25
-123	-83	-23
-139	-92	-24
-137	-89	-25
-115	-74	-23
-76	-49	-24
-28	-18	-24
24	15	-23
71	45	-23
107	68	-26
129	83	-21
131	84	-19
114	74	-23
82	51	-20
39	23	-19
-11	-11	-17
-57	-43	-20
-100	-69	-23
-127	-89	-23
-138	-94	-24
-129	-87	-23
-102	-67	-24
-60	-39	-26
-11	-8	-25
40	24	-24
85	50	-23
116	71	-20
130	80	-21
127	77	-22
105	64	-19
71	41	-16
26	13	-16
-22	-19	-18
-68	-48	-17
-108	-74	-20
-132	-88	-22
-139	-90	-23
-123	-81	-24
-92	-58	-24
-44	-29	-24
8	4	-22
58	36	-26
99	61	-26
125	79	-21
134	83	-23
124	78	-20
99	59	-20
58	32	-22
9	1	-20
-41	-33	-22
-88	-62	-22
-121	-85	-23
-140	-94	-23
-137	-90	-25
-116	-72	-28
-78	-46	-25
-29	-16	-25
21	17	-26
69	45	-23
107	67	-24
128	81	-26
131	83	-23
116	72	-24
85	53	-22
41	25	-19
-7	-8	-19
-55	-40	-20
-97	-67	-22
-125	-85	-23
-137	-90	-24
-130	-84	-24
-106	-65	-27
-64	-40	-30
-16	-10	-27
36	22	-26
83	50	-25
116	71	-23
131	83	-23
129	82	-21
107	68	-20
69	45	-19
25	15	-20
-26	-18	-22
-72	-49	-23
-111	-74	-24
-135	-88	-22
-140	-90	-23
-126	-80	-23
-93	-58	-23
-46	-28	-23
8	5	-24
58	35	-21
100	61	-23
126	77	-21
133	83	-21
123	76	-21
96	58	-19
56	33	-21
7	2	-20
-42	-30	-21
-86	-59	-19
-120	-82	-20
-138	-93	-24
-137	-92	-24
-116	-77	-24
-79	-51	-25
-28	-19	-25
25	15	-24
72	45	-23
110	68	-25
129	81	-24
131	84	-22
115	71	-23
84	53	-19
41	24	-20
-8	-10	-21
-57	-42	-22
-99	-69	-22
-128	-88	-25
-141	-93	-26
-133	-86	-24
-105	-67	-22
-62	-39	-22
-12	-8	-23
38	23	-21
85	51	-20
115	71	-21
130	83	-20
127	82	-21
107	68	-17
72	45	-16
27	14	-16
-22	-20	-17
-69	-51	-23
-107	-76	-19
-132	-90	-19
-138	-93	-26
-123	-82	-26
-92	-59	-24
-44	-29	-25
6	3	-25
55	34	-26
97	61	-26
124	78	-21
133	84	-19
123	77	-18
99	60	-22
57	34	-22
10	4	-21
-41	-30	-23
-87	-60	-21
-120	-84	-24
-139	-96	-23
-137	-93	-24
-117	-78	-27
-80	-51	-26
-31	-20	-27
21	14	-25
69	45	-23
107	67	-23
129	83	-23
131	84	-21
116	75	-21
85	53	-21
42	24	-21
-6	-8	-22
-54	-41	-24
-96	-67	-25
-125	-87	-24
-137	-92	-24
-130	-86	-25
-104	-66	-28
-61	-39	-26
-12	-9	-26
40	24	-25
85	53	-22
119	76	-18
133	86	-21
131	84	-22
110	70	-20
74	45	-22
28	15	-19
-24	-20	-19
-71	-52	-19
-111	-78	-21
-133	-91	-25
-139	-92	-21
-124	-82	-24
-92	-58	-23
-46	-30	-24
5	3	-24
53	34	-22
96	59	-21
122	77	-20
132	83	-21
123	80	-19
96	62	-20
56	35	-19
8	4	-20
-43	-30	-21
-89	-59	-22
-122	-82	-24
-140	-92	-21
-139	-89	-27
-117	-76	-30
-81	-50	-27
-31	-21	-28
21	13	-24
69	41	-20
107	65	-21
129	79	-21
132	82	-19
117	72	-19
86	51	-21
44	24	-20
-6	-8	-19
-55	-40	-21
-98	-67	-21
-126	-87	-23
-140	-92	-24
-132	-87	-24
-107	-68	-24
-63	-41	-27
-15	-9	-27
35	24	-23
82	51	-22
113	72	-21
130	83	-21
128	83	-20
107	69	-19
74	47	-22
30	17	-17
-20	-17	-17
-69	-48	-21
-108	-76	-22
-133	-88	-25
-139	-90	-24
-125	-79	-26
-95	-56	-29
-47	-28	-27
3	5	-27
53	35	-25
97	61	-23
123	79	-25
133	86	-24
125	81	-20
98	63	-20
58	37	-21
11	5	-20
-39	-28	-21
-85	-60	-23
-119	-82	-23
-137	-93	-26
-137	-90	-25
-118	-75	-25
-81	-50	-24
-32	-19	-25
20	14	-25
68	43	-25
107	67	-23
129	80	-22
133	83	-21
118	74	-18
86	53	-17
44	24	-18
-5	-8	-23
-53	-40	-21
-97	-69	-19
-126	-89	-22
-139	-96	-23
-133	-90	-28
-107	-71	-26
-65	-44	-28
-15	-12	-28
34	19	-25
81	49	-22
114	70	-19
130	82	-21
128	81	-21
