6.728196668437392,3.253738337908736,5.295212095888314
4.3162715014716655,1.9652042570787376,4.770574662693294
0.41440703768440007,8.742527744589607,16.47690724017287
4.639465085929383,16.211379507655302,27.474978532373658
10.269734296285959,23.17358038114497,36.186754877906225
15.746180928050011,28.27258005929457,41.49279909399548
20.286029327631883,30.23109441869435,42.62862618654086
23.143077322072024,28.060311452427936,39.33007977286814
23.702856131847437,21.25298147427388,31.473547544870904
21.569258036088915,9.90675475379647,18.879774593415114
16.64660078609831,5.201529605696918,1.9322338959587355
9.237641693327866,22.512357732730578,17.98482771676721
0.1368514556959892,39.6266859722365,38.925957935772516
9.492038471668824,53.7167290787769,57.97997303055815
18.423713854417663,62.24690831493192,71.48118523134698
25.536642190535918,63.35281286575306,76.9811767370066
29.938274752491086,56.127322893249655,74.17197563586474
31.11908967488449,40.89540559828236,64.60434758753689
28.985058931342255,19.14305923999878,50.83682282556461
23.85935615670345,6.683403004831333,35.489863719059436
16.433071821658615,33.49605851665735,20.531550002253457
7.653259484367013,57.94334737167013,6.531148866907484
1.3972625955944253,76.69378085415782,6.578443009999437
9.65680956900911,86.79286034443585,18.763021895464743
16.207724634055413,86.0806620883603,30.366134445728054
20.36545155099592,73.67352841991165,41.38818745127307
21.73503101857853,50.45109816099912,50.762023309415305
20.22139640378517,19.270051784059028,57.28380456186063
16.048097024439734,15.304466198910728,60.78160636159474
9.76329363731363,47.82232397426388,61.984747477398706
2.2211881862120615,73.12173173190625,61.70127833925525
5.4845429894688955,87.46602887940605,60.60992456214128
12.166754079432641,89.24660022048771,58.576993965647816
16.748735366971836,79.01889237205796,54.30115894328037
18.494550534845693,58.99009531089872,46.29904413449136
17.176851487420777,32.294915553287204,33.53352609052048
13.115031192379034,2.4068131733036293,16.076813406763822
7.076809977425241,27.151687270759922,4.259311520098551
0.07737830876794105,52.911764566579215,24.493113565768297
6.824084117257513,71.63693485840196,41.73645711935451
12.669878332804494,80.7677052539701,54.02518297575757
16.680136495481445,79.06133187880347,60.24395486160144
18.28852897237469,67.10359787047192,60.61596237553856
17.200501780916632,47.33594514094658,57.23521814214375
13.475148780580223,23.453988506026754,52.51326982912886
7.605833886953675,0.6414838148328632,47.49650753297461
0.5411650521766305,21.874853545926594,42.08836403300484
6.446413632116129,38.52776562448751,35.89697838059935
12.021793311668466,50.10985385919264,28.87988791754465
15.081498300160371,56.76955719051447,21.612673103433163
15.005771819675195,58.67152923995795,14.771072694994677
11.780641171496463,55.74225292680206,8.48989208198252
5.956495074838515,47.901823394847035,2.3932669333462275
1.5039820751481823,35.56699423645922,3.9376617946776857
9.426581324920111,20.032142208858733,10.615983604706694
16.61622005223375,3.433175119317712,17.100720979141563
21.999889180432334,11.725206641857213,22.045745512482863
24.727576873999208,23.23938048392469,24.253862116215696
24.261897612114485,29.73923828116643,23.701283132916572
20.4650480222525,30.88475728277162,21.246652967071928
13.64488150338359,27.24543158320836,17.87392859397074
4.53438083005209,20.035107653146188,14.556220759824296
5.799917140096389,10.877938821299525,12.528767023342471
16.104713706610898,1.6473929979684334,12.891484727976215
25.098302012076076,5.710837886247507,15.981458204164372
31.623953513983995,9.493297320400952,21.56059403207356
34.77752757684764,8.688078836092926,28.872151084841803
33.998554794434845,3.3901674893111413,36.427357883817635
29.16034331534744,5.051369921674554,42.40767196819597
20.647112626751493,14.314760990404631,45.17234664112386
9.38151088721592,21.764694364922118,43.449316384222605
3.231800079506998,25.233072732151765,36.503494744465506
15.484545922374492,23.60355751702505,24.426707458947472
25.63793626015795,16.995223676029,8.270812368324819
32.2265325895011,6.5515603298904255,10.30673387135628
34.31959940781762,5.978981440929567,29.454487346341693
31.675319536930505,18.62502993037194,47.44257209528189
24.755653775496956,29.413031404450994,62.92751654852087
14.604728249012965,36.48985768906747,74.71909795580233
2.6542269121585145,38.286785849920946,81.4820603179675
9.483564704615137,33.81278935879441,81.8447680939929
20.213145180176454,23.017729866037364,74.68321228812783
28.1377547370466,7.021350904653399,59.753428839248095
32.233307554407794,11.993592698505006,38.420093239118344
32.00202261714028,31.27122014688793,13.47701272963501
27.57920554173363,48.18418457154716,11.808064415735393
19.74755526347128,60.821255952380575,34.52969908578091
9.802153020532192,68.19208199907291,52.60823723105978
0.7170407698656412,70.00317998020259,64.30842074313031
10.34612451529617,66.19392726018953,67.55881192456702
17.97460350379999,56.58011359340312,60.95560138780684
22.976892420216153,40.900198329678425,45.32958475487733
25.172402540965567,19.274531496478026,23.85354008070804
24.681059907590424,7.204778651370119,1.150708907482991
21.77329107038393,36.14018740235524,17.379948676320396
16.799395600950472,64.03957700941884,26.57943456816593
10.221930961352845,87.07124289309633,23.74313223917153
2.705618699586123,102.02589041703843,9.884383399094297
4.837683046609912,107.05564158564962,11.254730639345787
11.3437837431742,101.91706755078884,34.49705686449765
15.817211380757122,87.70722831922934,54.4541440859932
17.58316907245842,66.34742723396529,66.86004278223902
16.467055446567027,40.152558769443125,69.21516781150069
12.81375952535941,11.676887455751642,61.03609333112525
7.344140170556952,16.236652375846425,43.47538999859995
0.9561990155406681,40.484287167303854,18.142844395090066
5.421720709778763,58.0461596906031,13.592064410972252
10.904541557200572,66.64273615487444,49.404685115338715
14.68581828839174,65.45209109497016,84.37956793657187
16.093077161779984,55.5085655993936,112.37816184971857
14.71371164433277,39.50184787679913,128.55891530067873
10.563145381267546,21.007863146621602,130.09888998068024
4.204730941322474,3.4948587212564273,116.60946570191257
3.2785898916850518,10.454947949681628,90.63708889793102
10.505802993048361,19.42616614857551,57.12909657044745
16.127616594953196,22.96194301430726,21.415387223333365
19.13597005370179,21.163556292688344,12.531824608453208
19.05395833669631,14.440774845349988,42.0495884043044
15.948449472196934,3.5400639739611415,65.4631536353369
10.311812348826995,10.240034904062453,81.5911411661662
2.9169961596842304,24.905680661755188,89.62730217516896
5.2790331002348045,37.95899829993684,89.78253114457554
13.183547880097954,46.95193213842779,82.6597228671571
19.639307813147752,50.17232469807851,68.92846214862483
23.56974389326166,47.1201359001484,50.41526877239259
24.18846531462417,38.546317139562504,30.234793323937208
21.207385912287368,26.073379649884803,11.536121858485313
14.937199198059751,11.62170694339919,3.644160086608099
6.225417360876273,3.072131431745128,13.948509340247977
3.724360120840092,16.665629065739022,18.382669114845502
13.57651487321997,28.16236911709447,17.566924687342247
22.06219687497014,36.78289825810637,13.383125981133078
28.097234622124425,41.92281437186247,7.127846040878869
30.84299021207995,43.23101976239984,0.4890185587485305
29.787516618786874,40.73981272410932,8.588248608167486
24.868250469805734,34.91554249140523,16.162695893335602
16.587377992592796,26.561793149779657,21.760720278619715
6.0270144000925185,16.655627861843733,23.60353552933625
5.298446239848864,6.225218890291589,20.781929326796867
15.730143791524432,3.6764874609893385,13.445409383924034
23.81164208872836,11.943173700646614,2.234501779730964
28.562758888324634,17.45797495616755,11.691501329096663
29.672250245785534,19.679909284753464,26.792619749392237
27.439919078238535,18.74782916084508,41.45638750783087
22.545641217509665,15.06071911990187,53.895676948909916
15.888638128959677,9.286765648442827,62.253938378189524
8.449126380431265,2.330990695194932,65.23694205086065
1.1940048892018926,4.784826717075754,62.86204866952538
5.006942469442574,11.105348649694493,56.4509672135764
9.480228401426295,15.912486257271203,47.38591932079987
6.4969587357491445,1.226469839392475,0.7200849869687316
4.605774474733471,1.9784221510912228,4.841979895878401
1.12999720643079,5.368074179773044,9.435607491011892
3.593965645644993,9.077403032486504,13.910223815029404
8.963713579871145,13.233313313950104,17.584391628148843
14.235199295088341,17.633157308792985,19.47757719181399
18.632045049291516,21.604737119035615,18.780819762074493
21.413123741075463,24.10057676318499,15.560382194173808
21.934298347288934,24.064156915347983,10.159941305606946
19.726131411679308,20.79852114614099,2.9168761724808725
14.596183547258136,14.212576113596787,5.118921586560995
6.752986790703967,5.001408020319082,12.785005324806923
3.078985413765054,5.334595370549992,19.553446894807927
13.651568530911824,15.185324191698266,24.909582166190418
23.38117490170078,23.668769218843426,28.237494024847
30.670339994043108,30.404486821684724,29.333077497130716
34.2539125713183,35.07478150792718,28.696972726948633
33.46040971937708,37.35040360322679,27.300025456204086
28.30830538290522,36.81083007124015,25.51556971610993
19.474074684030292,33.233904591315046,22.932701996796354
8.16175860406548,26.902081634234303,19.34371944349479
4.08747075952738,18.61888950450061,14.661702241390246
15.594675611600586,9.574473936791986,8.463028550800557
24.764456099877005,0.938955039002768,0.6766489425805969
30.30839678215576,6.469786055926399,8.121645081862328
31.448136756822787,12.29710033493563,16.955176571683253
28.062148874484322,16.571440863498033,24.363027937438385
20.70913689388309,19.46191463157948,29.24106164373475
10.527523916638229,21.129152392739595,31.35117203503342
0.9625957711583762,21.681081286092724,30.49274953361007
12.097985643552931,21.211455661299087,26.746245413232053
21.29567289014256,19.85998920974029,20.97057563215519
27.253153879255372,17.800211671758316,14.271624163996709
29.11294010502757,15.214687099603871,7.724394735407858
26.59713441033106,12.297911531258856,2.184634844045926
20.091866661289846,9.329361415528272,1.7146941058599399
10.631691664765233,6.769217864042616,3.273701827237962
0.25374276580357474,5.239409073984233,2.181120283617566
10.840867143446431,5.312493234058015,1.1659500076790998
19.562684704169104,7.153063327945528,6.384801539494553
25.28480975992815,10.212213637514258,13.07434655247645
27.44313095746988,13.184739902881994,19.941081322662725
26.024033165313355,14.343638692504609,25.38853390493068
21.440472012583985,12.177823893739495,28.6430912681759
14.384186328128871,6.042743931023695,29.62923165508259
5.729621938300222,3.4867670814470078,28.393735129961406
3.4972984999988186,14.73350335451328,24.68980237014756
12.154540506460645,25.442369776915584,18.055866723555976
19.074473571185734,33.442603561551266,8.108977610666622
23.23737318285464,37.15726526544785,5.213333718100633
23.99436673549472,35.81394550493276,21.033346814275397
21.237111938464338,29.396147075978654,37.374127623923314
15.441550047213106,18.5038557346305,51.64843420750624
7.565487633927008,4.282920504927737,61.23463802757516
1.1596515295705976,11.568839984880533,64.24150123879521
9.469670739876328,26.821326622499143,60.31103279590901
16.25872621179066,38.904994390558635,50.625985595008984
20.676813596205815,45.37283212978293,36.96983761247475
22.179383312411737,44.51098741858916,21.562166557349656
20.566541167426927,35.85399701761439,7.073817843853895
16.017224286572418,20.399360767357994,4.54538520284125
9.1087553055057,0.41784686980923547,12.653484108861067
0.7833292028505352,21.07062681983307,17.417711762533727
7.7520430504032705,40.942882942345626,19.070452917429122
15.201432562389256,56.51475775701974,17.873412447927617
20.411959033736636,65.86934129817851,14.897743848255748
22.578899056230338,67.9806833266731,11.658310584246896
21.37261251279923,62.701550227029934,9.237994811497536
16.977735939726628,50.7026203537558,8.348401929287943
10.044599634254025,33.39701321508346,9.298965252491113
1.5752293625056255,12.820291624587425,11.417452217076569
7.224848117052589,8.585434195128636,12.840102662225195
15.116744938548669,28.281539625429698,11.610689079075085
21.004999624305153,43.96395985509233,6.851478880855047
24.079077453129106,53.87270145139153,0.8405825620191268
23.911489440846324,57.0394039081754,9.497272042330964
20.516140244711504,53.41438810720073,17.01673047930843
14.338986840449662,43.87492750954897,21.71159667576645
6.191291252175996,30.124342657048356,22.120725189436293
2.8494912435858057,14.465667388501426,17.792764958497568
11.575356008655678,0.5490465002567968,9.314525029623608
18.807973959742288,12.551828024469373,2.1664235775827922
23.564225663133453,19.782162272593393,15.022623705346518
25.208818467737252,21.38938955490183,27.207148938189437
23.556048684864237,17.52270808062865,36.21245003539574
18.894947540141004,9.196542604358356,40.24343416821609
11.937462729396014,1.9876412835688015,39.255796551097184
3.6968666407365784,14.161498771945066,34.01534410744338
4.6748316028511105,25.466813448902258,25.214054739625144
12.045270665169474,34.24248420005516,13.760663396397039
17.43555972228879,39.13989863559803,1.3263761149604851
20.130321999825547,39.23441697346641,10.284620746350182
19.765544485640063,34.16589992249342,20.05341428467734
16.392000628826953,24.25842838411067,27.013804266583442
10.49346727338292,10.554829507616962,29.71241953368356
2.940854400463946,5.289939504248506,26.945527489893593
5.1243180446579375,21.2676088764376,18.356326389495173
12.474831948016343,35.35392053325824,4.39304751703927
18.010534035937543,45.82947506584401,13.410129649809164
20.93460176621659,51.49001993307567,31.736693429225014
20.860477104142646,51.71201408999051,46.47108057137332
17.844932872492848,46.43773723067761,54.421591782106916
12.347932834476197,36.14899056921654,54.009290475148326
5.1451001237110425,21.868208534101157,45.312434505893016
2.7846380905084493,5.176220640404893,29.07100978646953
10.395546286646075,11.81871259848821,6.365917113653689
16.725632126051195,26.616720472603767,20.484894322989987
21.04171691955317,36.61641446553852,48.055554488347404
22.95146830166854,39.57450858228319,72.44871967136996
22.444982539023485,34.14458207869127,89.98849301333401
19.832929597413553,20.351193675419523,97.8369546537157
15.611046765822545,0.14528818521594825,94.19030411983552
10.327065814769965,24.139836184263856,79.17864431642062
4.496381031994203,47.382634446854894,55.098554336828236
1.4101259351922653,65.38374308233652,25.175426702390617
6.92440695901885,74.34014953400653,6.9827890564335435
11.543788159723704,71.94511769240431,37.033443566656594
14.757244922890782,57.8374299291897,60.45772249706659
16.161296798873167,33.605310351550564,74.40123954741112
15.605295222402273,2.404497487874984,78.38016509352268
13.286451183846166,31.66906117984297,73.38033224380996
9.73930414534519,64.24648806908728,61.029180552331106
5.697367147200064,91.249912412636,43.00286356569225
1.905636924463298,109.3249443423467,21.05389802584599
1.0313495778265989,116.17138389377396,2.7796974194578508
2.7326962491403086,110.81368243239405,26.33141220739651
3.038682050462364,93.78144380638031,47.44181869967967
1.9690275790570733,67.09975025440131,64.30586080776449
0.29605731415860687,34.02988202455164,75.12958229618935
3.3875322795281293,1.4291426919860133,77.59087677853906
6.710352443429498,35.189748296886805,69.84925146179712
9.475773241511417,63.67747385900071,51.76219834456085
10.831426406237187,84.22418155451261,25.271774180481042
10.077440212137043,95.23455410260514,5.645462286943328
6.8981463511731045,96.17296201191196,35.878459792257296
1.503573752153553,87.4867709945545,61.086711335849905
5.382738049144027,70.56568893756503,79.48454293883461
12.69633252840799,47.709750970781336,91.20999319337213
19.28512351851483,22.01080491092464,96.1384798041196
24.142346789138557,2.9612312571664847,93.53059928510405
26.553571000608443,23.69544481575692,82.96850801587829
26.13173641179389,37.39454078134007,64.9117294675361
23.02177678409904,42.586962156482436,41.475042263240084
17.838286497703557,39.27778983558769,15.90221654972037
11.331726548186792,28.772646824675444,8.716317233976028
4.2968013500083115,13.434068664539879,29.685466072738265
2.4924110354754982,3.784833295044967,44.83631169837043
8.346071607288302,19.90884804963463,53.204288684654294
12.73048052289706,32.47812798484321,55.66361594394565
15.33745684237029,39.93477064172193,54.07228908641349
5.777356723821084,6.17076287088804,6.420618131844415
2.7905153877403475,5.1208388103706834,4.457740970614403
1.5772154527571096,2.3852648741031937,1.070573193321338
6.913514934098596,2.1897006533837904,3.3650586552926067
12.586442601397227,8.296567491392837,8.351118073034222
17.812550761141175,15.114934368954861,13.004296215413252
21.75292720084985,21.42978529516073,16.104856094190563
23.61616811754141,25.89371336958811,16.37259234748819
22.79278850139873,27.372745771407896,13.163766948525602
18.983104024542055,25.214374001101078,6.915689180809515
12.296567696833288,19.36831454961208,1.0919803382542452
3.3479253177868826,10.373166226770364,8.906633208509785
6.6776666037142896,0.7706237412503003,14.202349019498643
16.26394525039832,12.908508793209098,14.825531434244375
24.022719030290848,24.94759752647462,9.5773796884035
28.917030264942596,35.68715907692272,1.4299592679866713
30.36852969034334,43.73141681621176,17.127771327420557
28.344736870136934,47.678699566730714,35.10427468039761
23.276663324499367,46.40137555894711,51.561124415483
15.953758534801926,39.48137346345925,62.41675111162043
7.3897891293115725,27.53570383153684,64.31545731495333
1.3293172691650685,12.211420776145388,55.570625437006534
9.134774253537623,4.131422751754594,36.07029972808839
15.083881355852283,19.025086528062197,6.992564937406862
18.46211594917325,30.506669355661362,28.49690695407563
18.87594544604554,37.494622343959286,65.46092777712433
16.33854978467305,39.80740144863829,98.2942732502253
11.294745920673773,37.87270493537447,122.20643402217495
4.567458871454802,32.40331011764183,134.3257681224482
2.778213425359178,24.225817661027467,133.654673018399
9.609142632666725,14.330997114257945,120.9919072852122
14.912902249920897,4.042489148751649,98.58163443976423
17.953032606737608,4.933789647109067,69.50633755258647
18.339936341930567,10.735075642240249,36.75986921095589
16.038869331112274,11.859746482130266,2.347498033664949
11.32815197197987,7.780725122178974,31.79320459549162
4.733962982007295,0.6575710073007489,63.04913881850574
3.0359386276814013,11.270082996662023,88.92933563155819
11.161676999506538,21.030291494779355,107.66752883866822
18.773707302267074,26.872219389783762,118.47612149882568
25.018650616090873,26.491139524875585,121.25263612204732
29.142577719078776,18.896627544923824,116.344450001176
30.577554228354423,4.619078711999622,104.811363256441
29.012929091926672,14.430373293405353,88.03962948415739
24.45254406506281,35.35326530246544,67.53237142340902
17.250336143545777,54.77809153107777,45.44958048493724
8.099787085429,69.41010942791203,24.506124454423887
2.0180132936863275,76.55375697924883,6.748550882958015
11.936752380723767,74.54076871687397,7.133442343273364
20.473638977227978,62.998030989056076,16.981260626649306
26.61639253768608,42.913639022143315,22.817069182903055
29.67758425811443,16.504587184246834,25.503092201793365
29.38615584385384,13.074436428439013,26.710433407705217
25.896970436290946,42.132205850000936,28.241558379716356
19.743614402853186,66.91269488633789,31.09529635525363
11.760682805079924,84.10724559340325,34.776067891096716
2.991940667053769,91.37952845177544,38.326973931168375
5.401579069622363,87.81069974495176,41.62016098559059
12.258116370900456,74.12267238832338,44.95960286294213
16.57516204781574,52.59114773546924,48.52947473553786
17.697445675349492,26.610432511665444,52.11002889896225
15.491896056374332,0.017488516117473745,54.781846748220175
10.437466115642955,23.83580592467121,55.16163742397475
3.569240913284556,42.281751459101656,51.89408942259967
3.7349700048847088,53.88878153557258,44.85492130146577
10.062934394131211,58.16372878348745,35.61554391403749
14.271303544038116,55.3285581176614,25.585696825285062
15.697427045063582,46.12584027555541,14.921048449892929
14.218493536549405,31.783383350653168,3.5890311522690643
10.176325511675486,14.091030861670074,8.205785004132387
4.242757476296631,4.594641105080444,20.50922624943553
2.706747374734761,21.57082347452604,33.06480909711857
9.686993060351151,34.243380794499885,44.83147195226418
15.69108468663166,40.70266684764751,54.46834084784332
19.793199809801163,40.180475552164296,60.423989045879985
21.276792721775358,33.17084781523948,61.64117647579786
19.78124218181992,21.200476716424625,58.513528351762574
15.41404010656661,6.370388006173857,52.09922419753491
8.772331339833936,9.150383196868395,43.58055909740201
0.8494128151299184,23.48827198699008,34.3826532136856
7.1489000748862255,35.21054453593233,25.34596719606705
14.027475464059314,43.306002185842125,16.223852428438406
18.810189583101714,47.10853439173147,6.136676235204888
20.872606349531186,46.26861862196075,5.232756195318242
19.99479483558226,40.79902505630077,16.726115689015188
16.35532285050125,31.143102683365722,26.695987013095486
10.47391059021822,18.21135112937145,34.01511190234117
3.1345378757013735,3.3430629025528433,37.95747201582334
4.703441004316748,11.83193753332129,38.415317958073544
12.006981809947114,25.601966550909545,35.88528025434321
17.78058328703268,36.406853951259414,31.051986161635664
21.19846586385649,43.06073386697343,25.21453898954742
21.728878263071774,44.89977637173157,20.153318487550415
19.224270781060984,41.826457939453014,16.421698607932058
13.974432188541668,34.275251483899666,12.908474618387022
6.693191200515878,23.121273021728815,8.303988829043453
1.5775298737426955,9.587887271096442,2.084588362028788
9.6288384663467,4.810751524725264,5.036390050412892
16.2857612207382,18.3187535392507,11.34504586112946
20.60745263739022,29.033254631835494,15.434492422537371
22.03238437130004,35.12518494172296,16.74832588094413
20.438750105735796,35.209293690806874,15.183490525002595
16.135821798208028,28.765627399603414,10.853157721250042
9.797937198074303,16.437846425102247,4.051429926438949
2.3590060917045275,0.0461018678404179,4.255829281566401
5.0906843841883305,17.763399318108377,11.99331138251706
11.414846348983296,34.149054080012256,16.756310464174213
15.572593615069156,46.72554360873049,16.927648577026282
16.78834042991307,53.97192837295517,11.933048528700098
14.737747350649613,55.25487207635022,2.140650567803285
9.694603988897663,50.52050043230454,11.566782225031588
2.5668448208933894,39.92301630719503,28.16157529922411
5.232327920226566,23.679119423981728,45.498311982095444
12.079533501114488,2.286191050824637,59.64111716993924
16.52155663516689,23.00342691516448,66.37845674418261
17.621683000029346,49.774957528318446,63.203002098945156
15.160818392008952,74.4392571315448,49.713519811391855
9.631109586814267,92.80189763246955,27.107776179433394
2.0451245494819177,101.09876000374183,1.9004870396413842
6.335745488119295,97.07602036378094,33.052009474584054
14.237625125835152,80.66422503531139,61.14358243278311
20.53123383236933,53.989125857241,81.72126044757418
24.312499868552578,20.75862736442613,92.32882510531498
24.9349674433384,14.663129193904055,92.08959148025373
22.075878440546806,48.075551163100734,81.73956341505576
15.858510964042045,75.87502983364128,63.14897419907178
6.9474998903542105,95.15424186673698,37.896273760321456
3.460046417465019,103.72266989959347,8.17048876928484
13.804121978283156,100.30039058118429,22.3376048130545
22.498342923549096,84.96903726486714,49.56661593191715
28.306161333816405,59.657945000860046,69.90927165275772
30.589487491448224,28.272675650315826,80.88024436242564
29.35066356869065,3.847669817024626,81.66547692432776
25.075054462017828,31.128353251147754,72.91595180082466
18.47100123557026,49.212369401519545,56.2743292634033
10.250827100248944,56.105506990597696,34.38499492327595
1.0534283401179767,52.51788986974605,10.782642859470325
8.47847911754041,41.27584717755449,11.448620670156638
17.56868346815604,26.14770176413964,30.443757576656775
25.267631061409848,10.644314031550012,44.99561281997463
30.561916494401036,2.712585317374043,53.83479116012954
32.60624491238158,12.463918954943262,55.48166858498991
31.190710793646172,18.07773284999737,49.54593444200081
26.824296933253983,19.633281866262394,37.166174027542624
20.398893639017736,17.470283397315114,20.583002323568813
12.975163235888882,12.194848469022649,3.1573289878979987
5.549681866870129,4.7902186948603855,12.103843748127025
1.1112142967145155,3.3537298551140275,23.84067233420568
6.516459963459267,10.639232966958268,31.7662388952857
10.401771049160454,15.671908009457193,35.79444803240512
2.830155824747408,14.889516487085936,11.230919904025486
0.9448228906511829,11.732691448855613,10.533980118496956
1.6698693340419912,5.1212432815932685,7.187764974777471
4.790267669687248,4.567238582829218,1.5936409306031898
8.06801789783831,16.274040710335612,5.061285502684468
11.057193694822015,28.364359180394786,11.45323082173409
13.263722366475314,38.865442644716914,16.914339763911556
14.191872344825923,45.82568388695972,21.568898014324525
13.427131684014508,47.71762739119177,25.595637208933855
10.720808410212168,43.772525403333546,28.66308090980928
6.075676729878442,34.12936206890445,30.00918403350335
0.14022804801008756,19.775443828147353,28.709973160280757
7.112863032539468,2.382061314751264,24.31568451408331
13.761510954394032,15.89927074506539,17.23011284751082
19.061619083867456,32.797389082745575,7.902714647625662
22.155095285402876,46.35250714261525,3.3993118217712555
22.455356997528614,55.113126163641624,15.89761733210814
19.809373010553873,58.15956958809547,28.422289798018735
14.505932300993347,55.13355379829877,39.72632065668358
7.252913575375915,46.297605517269325,48.59786127174444
0.9254297305842829,32.65620439945876,54.02065973270013
8.881812002607898,16.004714273260443,54.93304240675574
15.509253776204503,1.243193427412741,50.187319551732166
19.917861543209106,16.440681516440584,39.025766854309765
21.55611443000465,27.22652784096262,21.703129666466317
20.266515468882805,31.985709622381652,0.1001020333489666
16.305864450523472,30.099269430132466,22.49737808304228
10.296275475151003,21.974375452250243,42.65273647731535
3.1323578086876056,8.93249678051615,57.80897834187049
4.16723153969303,6.9402663048978965,66.68694504635569
10.633796846750643,22.948918073197,69.13753034290741
15.495689222402426,36.02047734722518,64.97638355180156
18.28027446598004,43.128086214596024,53.58739161161893
18.83244596246882,41.920029616019434,35.464708099734445
17.260759629701745,31.387668813825844,12.642910265322294
13.855323099552505,12.312594456644016,12.164388127675746
9.027818000810406,12.739562397580821,35.66995530252352
3.289146789239704,39.9384199445464,54.750165297319406
2.766680045269451,65.05126238383609,67.28461850520901
8.478263070907778,84.32434553951337,71.96728262467046
13.158443793632248,95.09027495785288,68.5314862524397
16.186866379102934,95.99597215481829,57.7658175027508
17.12006182746133,86.93719589542972,41.09059577915696
15.773767764604115,68.88849088919024,20.569000216873164
12.26214103246079,43.76342692159324,1.422627966627952
7.001474160829935,14.293174093520951,22.46577777933639
0.6683328147226983,16.19432253131141,39.96457729022392
5.873270432920643,44.2032546545081,51.48472942488982
11.651316813809025,66.6634177959151,55.267244248785794
15.702407264369972,81.49074577148333,50.79915442810002
17.234402471632286,87.8823346974383,39.374761433162966
15.798272274764713,86.21005083593624,23.517060735321436
11.43225853196934,77.61309021407978,5.795287983499902
4.722580243993839,63.563374662791446,11.317783215344626
3.280256750469173,45.63427517463708,25.38894806647151
11.28165614117164,25.54190676758774,34.96195042459913
18.0144958320715,5.3299508944471565,40.04764508528272
22.47769098556685,12.569481141272377,41.2920479090573
24.076687670526454,25.625090211902446,39.17941198448986
22.641980800185973,31.828553313821946,33.87279350314346
18.375681639502403,30.377768710922517,25.30359225088364
11.781050980331875,22.08172466255614,13.536642806973811
3.6146163226909644,9.253963801252395,0.7980782663595399
5.14587810338244,4.889660133835634,16.529577509309313
13.37595717214944,17.076530543847003,32.41100995311958
19.942353421643038,24.735836648976083,47.404678360307535
23.8985427965009,26.409288747013324,60.493824869768545
24.691637543322265,21.77214993212901,70.21805638554956
22.295057301735767,11.430773335117047,74.29364573263483
17.205645321802663,3.299570772845942,70.29654033081539
10.299628618493312,20.525952669092593,57.370306080802195
2.623222792552089,37.8647636903165,37.08257475338956
4.79975293310474,52.63191506362919,12.616698238531558
11.088222241666896,62.23420642523418,12.671726933226465
15.52920625034328,64.72008305337502,35.80410476602172
17.568827583808684,59.32976633455324,53.7797295922585
16.834293637572422,46.82565845204107,64.1515335544015
13.214444617638796,29.41181874953185,66.17614786414163
6.984628854003375,10.218655571161793,61.04454934383522
1.1066551421283763,7.472514474651225,51.55541934771789
9.859305818994201,21.013826760117997,40.401735885910234
17.778547085254317,28.952746770555528,28.410000630400695
23.349706596853775,31.22121356366615,15.568569361715783
25.35302721904766,28.942057113636807,2.3872004703435565
23.124965085824368,23.96751098851431,10.183583548681876
16.698731489709633,18.320164862984548,20.671224476017493
6.809430867712316,13.695077915290092,27.69941071543826
5.223231952361464,11.131447455705981,31.220067010894677
17.692347117779047,10.895521159687412,32.06006703447511
28.730960833825833,12.558445619414043,30.3911573580925
36.56746498632511,15.209820954881287,25.33541027925569
39.78624100236355,17.72743244360085,16.385084701952415
37.555407166498874,19.051643176122546,4.761134337319151
29.814702000440608,18.408351841657495,7.251565249835559
17.368780306698323,15.43302920247756,17.400054796926902
1.821932260382078,10.210635304319576,23.713337003862758
14.650799861825199,3.2346944025740827,24.950244899622952
29.66850328860999,4.709749965409183,20.827826692705262
41.060375960452575,12.697189863571628,11.704545955990259
47.229372049633376,19.828856818970852,0.8122035981951833
47.39450772492868,25.397775716014532,13.123715731811
41.66518519775782,29.00071846564816,21.16121191026347
30.956396732744416,30.575767562936324,22.42870885508946
16.793217620932936,30.36213842879373,16.321839509193975
1.0609625639789115,28.760126248111042,4.172842822814267
14.250265391814139,26.128133292489085,11.296396913433489
27.293144715233865,22.60570758727426,26.985601651744744
36.58746941534209,18.041281943462675,39.328671150286176
41.19656421633282,12.07975210705136,44.97526817387955
40.83783409074845,4.393379888971832,42.01802299025052
35.90005106221868,5.027521601776873,30.481865709177985
27.354141540653796,15.644120312281919,12.561468236325904
16.57094661499818,26.32738878240722,8.423652336731513
5.089315502997253,35.56845801731921,29.006654977252932
5.604752523102061,41.87653388934356,45.54480320575476
14.25484934583317,44.202413453854,55.04189359735756
19.954957787569608,42.22867949940881,56.340130131162525
22.224550565700422,36.40719253340773,50.01889481966058
21.047174028050073,27.737854953278095,37.526482508149364
16.868903954212467,17.43824994463505,21.41663585941445
10.555234693349686,6.665662123892899,4.86789172379599
3.2715802916825703,3.6004589461670706,10.074282667128532
3.709684582513192,12.49529231782428,22.130568099804954
9.231698535766043,19.144098060295125,30.16651495049027
12.4676663208998,22.624057646726726,33.73648313521532
13.049116798938082,22.09630715008917,33.384377011956246
11.071025062016018,17.085625814960714,31.03963365406562
6.999844885483917,7.7741115723770235,28.764274512934907
1.5257291989233448,4.837524381774253,27.532509919328163
4.567376822059944,19.001058037258012,27.657133729288496
10.480247324188634,32.51071920791194,28.201755906603214
15.44732488966957,43.08246672555042,27.26095990506009
18.785900091947635,48.700381436030625,23.142266450379946
19.972104318020563,47.86353447203745,14.416723678672142
18.73650761205718,39.748321621282656,0.408906784976748
15.142251187449293,24.352955115090126,18.196985375156384
9.59414509568323,2.6522795963606804,39.327431751133744
2.770816441902474,23.287813981429863,60.03110244961125
4.484912062121773,50.3805024688039,76.9031691726018
11.299081336424717,74.89161751848128,86.59988718027216
16.867869134646583,93.0964077229574,87.01884407870651
20.507921534016766,102.07114888295146,77.03228158073844
21.889914155201044,100.66562172926709,56.82675465179239
21.077332161515642,89.57006042267669,28.470454367197334
18.33981317709334,70.68978285294627,4.811494520489472
14.127703682309175,46.814207738722416,38.680402396378184
9.039178997245997,21.159114785666496,68.5385869905814
3.762750274592723,3.1219130187539212,90.68957105243837
1.0210144938269303,23.359891969354223,102.78967960128443
4.7572326675473,37.67842778069216,104.46720255450569
6.899874199159683,6.243245894268412,13.154422840737073
4.744204249736149,4.112113195752943,18.010364687730085
1.0158650059242447,0.280709376979564,19.474485694182597
4.038938050523464,7.038088189551149,17.193513521827896
9.880822504983543,15.529024682068636,11.40600319044331
15.730116290225885,24.386458929638565,2.699888435676939
20.677420074632398,31.77845244349864,7.809698112304117
23.812996040954545,35.83856711438035,18.70431906749005
24.374925980244477,35.14989279299931,28.391034107715498
21.878395899220784,29.06291770121833,35.48876177216518
16.210928675447118,17.811694708920317,38.97871951432232
7.730426368140772,2.502297826509485,37.90920846617375
2.63873167052712,15.04178662637394,31.353695777769495
13.490357074925825,32.79541715765511,19.13168988155912
23.22097093817402,48.986057201820245,2.518458054801242
30.293575666060413,61.92398887353784,16.241617196003862
33.50103557913314,69.90796811421126,34.090351022473016
32.22858057778871,71.48113022932728,47.462661404732636
26.58977700054433,65.66137800330996,53.91425320881483
17.444628006778977,52.2931596403499,52.981756988269446
6.243168666803423,32.29578940157863,45.73715425989209
5.2717094257952075,7.645507445154379,33.44225704831472
15.385536298237884,18.828125786027968,17.042378527155787
22.712619283965594,43.90177243096993,1.5075775057157739
26.367362191826583,64.47372031275728,19.2671389950842
25.99881883615484,78.05941552959885,33.63517378017879
21.75716998614784,83.18906787949508,42.803757345417225
14.23028522187095,79.56836980114619,45.799074084552444
4.392330652944641,68.0560567205963,42.3937337181837
6.450051196791638,50.452758277724215,33.0933467677873
16.762377390219598,29.189989878646454,19.225330274644136
24.989521203372746,7.029643938874712,2.8442015452009537
29.84117310256927,13.23336477272667,13.564760333523402
30.563465372178484,29.063522284185215,27.382748488085177
27.101138328854,38.50239837526648,36.42988247642659
20.073760204853116,40.51934182309876,39.78623191758754
10.590992894423763,35.31056917595031,37.49385753600015
0.019100211885557068,24.40793990294033,30.12894816906271
10.463228198222238,10.47600052171626,18.961095716206543
19.61313889570943,3.2394609709239104,5.340727328974048
26.534002588947466,13.693281343552052,9.650457790252826
30.484657584841898,18.778668894188737,25.039216231157624
30.953678022829283,17.7503600238134,39.9059943675388
27.769978712068355,11.203329896394957,52.71162484665769
21.24850665372721,0.6506626600940515,60.8716651925107
12.278320481254912,12.079154305454116,61.64606019569475
2.255919091449115,25.330922552040697,53.52748033296926
7.157762648338335,37.81208542899113,36.78424822450369
14.387847835737244,48.48652084700326,13.352894159162469
18.287151850633073,56.349133302032804,13.369962543260137
18.34524680923228,60.3133315888989,39.28175056287526
14.732750828420969,59.328314725285594,60.35066704455996
8.206311979766427,52.684790233370975,73.39941983351301
0.08204052887204889,40.34476346487834,76.97391212314886
8.778420211169479,23.10909428256948,71.1849045486309
16.488014730687542,2.534699344927076,57.04438724037454
21.924998633251143,19.35012013960015,36.0189896257668
24.055638795824468,40.38544743280512,10.113071113755876
22.247305408701607,58.53544000127179,17.491169019674853
16.411179796669586,72.0078437370111,42.567150089613655
7.088773144786365,79.30643590563248,60.584369707244974
4.5606439681504956,79.33824189335263,67.67729864860867
16.90124022559476,71.64270096204098,62.14577279155859
28.083031261181336,56.70248258513087,45.31626254287967
36.36970218353473,36.17064283231538,21.082216064422376
40.4523826658796,12.841285244912616,5.546516195904542
39.66865341641725,9.742500044414951,29.948071798414766
34.086495431763055,28.012254038044926,48.65817166051614
24.461340427874365,39.179875361089216,59.65325081944665
12.087479984533559,41.8545569191991,62.324510955233805
1.4248064239749263,36.29555761127121,57.37915472418506
14.385283383837065,24.226112287419756,46.29928458475029
25.22542141395974,8.337032915343727,30.203269112705502
32.67204559878878,8.290630204130712,9.738283228207175
35.89369956611814,22.670643443696136,13.449877702019561
34.60440058868344,32.23492503236176,35.98783066651007
29.119981671615776,35.05192103353011,54.34911127211713
20.339538670330285,30.049253036514965,66.29703598134334
9.618186302436314,17.289433197959635,70.60331177755887
1.4655765559529832,1.7780809243869824,67.21491479857458
11.399422400975977,24.267011958478253,58.039145956301425
18.996241266870705,46.19354276028183,46.40739659474758
23.54923682604243,63.23447419265305,35.24111306641338
24.851547839325782,71.71573380552951,25.60886468062419
23.085398948807033,69.54025302963713,17.001069540368555
18.658470142197004,56.71726492286727,8.512033330200637
12.087433080878858,35.28899110142585,0.5148701069852233
3.9659887312445803,8.755732782082527,10.334352761535799
4.993605553399269,18.739837178621503,20.567112924007947
13.900659706086012,43.18450647422745,30.356835612948174
21.69548267734578,61.225934677361934,39.12716748403149
27.27413555194826,70.46107928677938,46.68120329596421
29.6973928959184,69.60633046689394,52.65324177833549
28.40215992111558,58.66524205182175,56.21411149369912
23.34019227412305,39.07592423609354,55.9527677350735
15.015112807887235,13.695212495718852,50.178520204879874
4.4145646785602,13.542308162849922,37.863778676531346
7.134714965798933,38.34088743724555,19.674731029152312
18.138775442943395,56.96220090497022,1.658221872623563
27.115672336959715,67.0250551985202,21.911807133972296
32.78639699681317,67.87851196538907,36.65949373005424
34.274117754452256,60.43615412431876,42.85644241783368
31.2830257685762,46.62366054264777,39.8783520459656
24.212689508014893,28.724930806034614,29.32000530236042
14.154350205280164,8.923642629162345,13.869048198154088
2.723345989873434,10.818735885147458,3.6782398114115504
8.24304485638786,28.665692280950715,20.72541075252101
17.039759256922643,42.83776952522124,35.13515187189656
22.41747710582265,51.75145300287252,45.03941523456078
23.78649057428382,54.35628511864318,47.54730189573931
21.253749586247547,50.50222316711987,39.148354585596664
15.522830592504214,41.10768254801695,18.972620399674035
7.724112211146018,27.992061124773247,9.488814785233874
0.7763285337918915,13.431936524533436,40.08141623365208
8.579294259154382,0.3513930389447768,66.02516516534646
14.457157248026018,11.54493898808749,81.19481335834057
17.536565365127416,18.843050263983333,81.75953052456335
17.423330080753185,21.3868072360963,67.45339909343977
14.242495667885889,18.733074499513727,41.59513590723867
8.583505124232113,10.99271716202291,9.834462167170933
1.3493837535110986,0.8940386689103204,22.303386259873285
6.439074831136032,14.941832798418277,50.95031543000688
13.814316654544117,28.194719734829548,73.45916549017882
19.964942792941667,37.23972409352438,88.02159069357451
24.25428135115041,39.09225020304658,93.42218554336296
26.199603869674274,32.13947031054779,88.70929008431108
25.472500771670287,16.765473329489964,73.7807374286878
21.93987015237151,4.603143033132213,50.17146805309937
15.740390831282035,28.06830942329049,21.67809231464303
7.3670790077413155,49.24055015648092,6.297905231971008
2.3050283159827822,64.27986125370313,29.670004115795894
12.100205493713247,70.66794191700372,47.43128457593891
20.732036517448233,67.545894839141,60.39038365067274
27.03871552828588,55.636916802695694,69.76132807547124
30.17815901040235,36.907182614035996,76.68786050152254
29.745406436171237,14.143165604909766,81.55260759044037
25.816792899509608,9.466760902598843,83.79209536811376
18.925617417238282,30.737921201041235,82.1296113079334
9.990088879148809,46.90750491712296,74.80621776394531
0.21609089831022338,56.051727606101764,61.1983475279659
9.031440570391577,57.41755720982381,42.74877532060072
16.39763911498423,51.562673777778016,21.723605744910795
20.92664778734472,40.37047074635171,0.5004368726056269
22.23090132219172,26.59429282672735,18.63268458740407
20.3896216310033,13.02811660731779,34.18448279263522
15.95027798726123,1.8454506383997322,45.31687423812898
9.834048258568428,5.812872036632868,51.32711582616809
3.157495713381162,9.886752865174977,51.91283952074105
2.9892295589660227,11.11724837589901,47.479627378529145
7.752806972302938,10.583778379289338,39.230119438419
6.881104522602199,2.0960701436537206,11.380212936461989
5.43207014614041,3.3802201743267264,12.383065232684206
2.4583421805985384,10.587529051659992,11.143031889449233
2.0809956306831467,18.049948492743244,7.331449239656146
7.929439734950235,23.847841651494623,1.3704714698188856
14.475401533372025,26.150349174581365,5.138097193752611
20.788346863262767,23.756486958061107,10.35807255747003
25.747840940519975,16.453288871294504,13.354407930267953
28.25426391184551,5.068377539213732,14.373428261174375
27.454873070476573,8.789546385620607,14.708898739912955
22.94081424072037,23.14779306647919,15.793229203460779
14.895057883562817,36.04772093182092,18.145374558245702
4.154719968005505,45.750908736455116,21.418844697992146
7.967504566266089,50.84232660445571,25.347712771091455
20.011839167539552,50.36107652999219,30.00088071481464
30.534624906568418,43.92977069802397,34.54253613703271
38.22372213136424,31.886305000868674,37.072323979815394
42.06683406081721,15.377111420461588,35.80385956429375
41.46544790156847,3.729999668939986,29.31074866780996
36.370827710554714,23.12495855045573,17.049936942980928
27.372490923375633,40.486033822898186,0.23057060255507075
15.662377107515173,53.92724410639597,21.56420489914299
2.888385226275162,62.2566878692124,45.94011121850809
9.147779913603276,64.9968826988199,71.02681642197516
18.84159857281659,62.22203694407164,93.03906960796868
25.071133233595955,54.34230676479098,108.2489710362501
27.35905205386834,41.981854388483825,114.12538886449494
25.874333837465805,26.005199141366703,109.79564874934529
21.313422882655214,7.645148331528066,96.29399673482469
14.711281430895802,11.419924898118873,75.6614970969071
7.254810615854594,29.15792390140596,49.63578278208693
0.13113299563549013,43.45620650527047,19.615986499389077
5.6036896116923085,52.5178192966604,12.286359866937035
9.13439761353768,55.239287445208674,42.93462681299715
9.987998694861458,51.44350420989722,69.51358095108579
8.115272706660582,41.93448953325483,90.42449277330951
3.910286820155288,28.39564623179398,104.74788948141624
1.851852088318939,13.173500173519626,111.73726359440506
8.156269810695035,1.0444124725667379,110.60619584109983
13.93440662028426,11.671273466899242,101.34006144546962
18.24028029616169,16.74682209088909,86.06333621200316
20.377381742350373,15.446992436263463,68.10556276113306
19.960772339121316,8.395029382487,49.98832881074331
16.930444150561282,2.4071137169257506,33.135856259558885
11.544091693119965,14.07046184205209,18.411520539576582
4.358725035244558,23.612970742786583,6.206248718262876
3.802076640719817,28.7681596515229,3.6967010223790466
11.913405014291982,28.490983168729667,11.982952816901898
18.87045373908239,23.00690198534504,19.54518164898371
23.661665500741986,13.446985942293274,27.517152569502066
25.55253798681527,1.2955860441616864,37.129694294247095
24.221747061126013,12.044979327478515,48.85630703629583
19.82370768082552,25.397856758798934,61.453719195790406
12.972746499034873,37.71487536315683,72.11115118469547
4.645437205692733,47.93044812755112,78.07646095692084
3.963352247103303,54.95693737119623,77.91425335552854
11.604837550662564,57.89426548432163,71.02719546300811
17.150053353512654,56.32413003480287,57.28186787940818
19.743610153113746,50.45977873494263,37.655812993531434
18.934768943824345,41.01507411066248,14.083626451997619
14.771945650120033,28.84772502829581,11.403594014748991
7.821676308950769,14.618535621258134,36.518802402008816
0.8975750780796443,1.279742018443699,58.64388358637994
10.066010019198657,18.450226945706323,75.48126732772629
18.283261706145456,36.02540670605604,85.05227820016935
24.310698664930296,52.320799571539354,85.8220161643837
27.274699893223058,64.91391859709427,77.0835889454481
26.783686468013222,71.21417236207822,58.9826374624964
22.941592263747342,69.3108533936809,32.85926957518599
16.272900129623448,58.73868677624427,1.2987055268990984
7.606270861859665,40.78195773911925,32.13923816286529
2.045494876929591,18.17743891740506,63.312719669709466
11.593785774216098,5.574839084229818,88.39524242705001
19.968671277189905,26.982706463952756,104.15293805862413
26.224015777424803,43.14593898553423,108.23064483035911
29.645114087407983,52.01831936076758,100.14114986132235
29.84722368492814,52.46201494301945,81.05255131440478
26.862620695614982,44.301499458669355,53.16749533470796
21.155072595079755,28.475200526486613,20.282859340164094
13.543775613781625,7.192257411015053,12.538231953823118
5.075204246758564,16.14601287215791,40.91964755396434
3.142807698212312,37.42645761721269,62.14675384234865
10.10608679910062,52.665173747844314,74.85937053819367
15.030942409370695,58.962604067568606,79.1032787708141
17.418698952211884,55.20800301179448,75.99848019819761
17.087990423797844,42.2538171061502,66.89393888352718
14.192741467510572,22.524997892098018,53.419377279192474
9.223466328134403,0.7046962841364877,37.6745565553542
2.9789790449652513,24.043689455328376,21.800490629678947
3.5122190356347356,44.47739811152045,7.683439424332199
9.13631163809382,59.57081963691425,3.4093088532277394
12.889816809312538,67.53738350934997,11.322769843312045
14.080697501078339,67.34384880022144,16.750721033634413
12.462794497041312,58.905856213282085,20.2708147424703
8.272768383405433,43.29502259973853,21.9559222051225
2.1837645964664474,22.756683890281614,21.971071852222774
4.817504678250831,0.39218673649327035,20.835095244000016
11.596022483148005,20.45889614093731,19.212171651540576
17.030280785129477,36.92488317048993,17.917067330524088
20.161852821403393,47.11524511136976,17.468768415210903
20.33802306201473,50.287919403098556,17.674760611729223
17.328298176412332,46.72161345179313,17.80136509115639
11.385596797719142,37.45157838653986,16.37395998610415
3.239236638260842,24.040302358045185,11.21202237124511
5.994400064291479,8.455999839184576,0.4634602178111929
14.978931813267808,7.035916118123157,16.037022006906692
22.3603951456555,20.107807700838304,36.14816152015538
26.965199819426847,28.76241136158457,56.24242179808873
27.96525816713416,31.767983074315882,72.0199903557108
24.99179378029418,28.949284593641647,79.03973444926181
18.200044305838773,21.190018021841187,74.40891471876567
8.287517744078626,10.135948844569414,57.80042963811764
3.543817721391525,2.2566079076494043,30.658892735888273
15.708634471021844,14.10815580855822,4.09098722409081
26.460119401881208,23.788279628288404,41.81201826391443
34.180968177575416,29.919013899549643,76.96555908425813
37.676051050321114,31.389064862765185,104.31238167085021
36.388235236464254,27.509616625776744,119.83686300170027
30.482428410861836,18.311251946547845,121.28512646354535
20.783943393134987,4.823395545367571,108.1869769276792
8.606757535823311,10.906579751131604,82.28469032155142
4.459204501354733,26.178236901926674,47.97692282918494
16.75659331054826,38.29325690381235,11.277484622694994
26.746400434420057,45.24125178005904,21.933781745378067
33.17453973800973,46.108065646674916,47.236073523310814
35.23245181502771,41.05768102124541,62.55308403439827
32.692956273798686,31.000679401954663,67.8925211013716
25.981746395587237,17.200327747000355,64.42316667063123
16.142795151274118,1.0413278641405572,54.33749923060769
4.6738491007936025,15.966006978968158,40.53868606162
6.744485718763713,32.085099710909255,25.85373879488767
16.551661390630038,45.37633994124659,12.922974319342384
23.5388318983204,53.95891722245061,3.609914991979203
26.962297724357423,56.464751697559855,2.1025772510234297
26.56210696734264,52.47183550826441,5.618267408780825
22.513160190842743,42.6679150499616,7.929053702885258
15.366508975040036,28.662331900560233,8.521930893883514
6.025874993362895,12.54840870790458,6.241848605469764
4.287884746425061,3.5710276302880897,0.5764078673800095
14.144803546573987,17.889071780305837,8.401432128568647
22.09640327732205,28.974468711125287,19.653349407691863
26.929842465126086,35.73318685993935,30.60481631430848
28.092370334101737,37.767882818389786,39.2857443654324
25.74196775650596,35.42682233261989,45.30520358304605
20.472412555682837,29.46047505058885,48.40561687617295
13.20379746259373,20.988118074369023,48.37370764028082
5.028172026978397,11.38753446484447,45.60395995032318
2.956388267015132,2.082954174051912,40.84010845505666
9.790784362545807,5.72709713723877,34.545736985277095
14.763393527118199,11.292761681613324,26.8645520690365
2.310256344798879,1.3333241303217127,8.079536316031103
1.0866482239496766,6.675959104623034,6.924868912421851
0.6808821070143533,16.05836846797129,2.577359768082665
3.0287151518366366,25.09783769176525,4.604033700525216
5.929791778324492,31.85329232339707,13.339355254317262
9.217796128944896,34.55453935055828,21.302559325606733
12.534903786677424,31.98542524921005,26.28886000258104
15.32563390525888,23.74071745325285,27.295798066694523
16.92193816410303,10.344944508107627,23.70759466524993
16.6688508389344,6.816023015438484,15.039550708598576
14.081323059905685,25.7007399763126,2.1599060437720734
9.036914562778122,43.80486416837952,12.986201961690844
1.9191808416648086,58.313630981283865,28.707594829168144
6.520153384200752,66.63717572065103,43.302284731942066
15.420380144701346,67.1758968678158,54.75409487165785
23.81568111453213,59.53488885579796,61.32947370140688
30.656891064003037,44.445892955757365,61.39207737023748
34.9710902876915,23.65317053622638,54.2102412554907
35.96891542883416,0.46935689188577057,41.17506680921417
33.215793956357636,25.267235751038633,24.37785790497432
26.77685377848388,48.110639264830155,5.507672530289612
17.260264084812697,66.7128436638037,13.783319176751604
5.79455240284661,79.31135447413281,32.03733702434485
6.147648587468303,84.81970062890075,48.24822327260008
17.002095592239183,82.90459340856714,62.287355591201255
25.392111792363274,73.9674799151972,74.14219090338487
30.385099721256307,59.058412915133225,82.55468305922224
31.632282103236626,39.7016681316126,85.98365040607156
29.394309354100038,17.709496168066995,83.48376607902681
24.43731460015355,4.998376469663129,74.00331669187962
17.845893008094198,26.527967964455282,57.07125055256506
10.818180672736045,45.09520151439075,34.39060228431755
4.468653739273934,59.12718853299713,9.15669370121267
0.3207832618315859,67.4057828175279,15.516500383923594
2.9977454540026116,69.26710314286889,36.903951442044225
3.391833505679038,64.78464906303115,53.3209450417637
1.7284111661282275,54.84764845438732,63.99823113968451
1.403348719047389,41.08749875077731,68.1753469665346
5.1406307535143245,25.610170142101204,65.89613448041331
8.486069471276378,10.602226254160005,58.16082273479604
10.491414311589645,2.045424938101604,46.36738611582314
10.446717249467664,11.00248588182628,32.51667338711375
8.013261042208082,15.602810757910932,18.770679921471267
3.283347502872449,15.804376076375137,7.205941979818579
3.24097093545773,12.093632308077614,0.557013585943567
10.751887322986988,5.399486334146536,4.263677821324268
18.277891326510208,2.975689632327338,4.728487231399025
24.819334269051677,11.455148587540934,3.11441051375416
29.467771550186868,18.35977847442972,0.71032756992227
31.512242220097665,22.158294530557914,1.675947690452651
30.530653916440208,21.756777309033648,4.6199987920984995
26.464220373168505,16.71813855316228,9.427230733081332
19.65940348853563,7.32363471307675,16.25777923931634
10.84219285764148,5.515813994379801,23.907907838592923
1.0216403335270037,20.41243170327992,30.881850706522176
8.661213260292085,35.64637834622857,35.89346782387836
17.110591142160096,49.29910643264392,37.795581793621515
23.421898567913974,59.39579095638074,35.63207417868478
26.977488283453503,64.12720349207144,28.94551577387051
27.491802444107115,62.19448093853302,17.72096713372886
25.00529920222013,53.190793298345895,2.3949986680880198
19.87139858661203,37.87189169710244,16.019363413615167
12.744690409076139,18.164052643029862,36.153073720088415
4.532945887390716,3.1608079687768096,56.363899712652426
3.692199596598028,23.057593710184634,74.84374938477612
10.832859420616122,38.817399247349286,89.83096500291566
15.95144844821399,48.484113926451386,99.7078351371457
18.446850042130418,50.99686822064886,103.16065419717037
18.1523942343538,46.13750020314892,99.47774632872128
15.334924078788788,34.43332588269597,88.64102865313932
10.59888743037633,17.165219641516984,70.82686214822924
4.7347073886747015,3.526081148812214,46.4320884664497
1.4165449883568941,24.613838451498772,16.976627427776503
7.0579313409832265,42.44168100329964,14.767921351836147
11.495959873109967,53.3497223835614,45.71877887225737
14.180190671918357,54.538557614503745,73.24617399500691
14.763994294801247,44.880586949312885,94.85178757963519
13.175973679044848,25.357631106508695,107.88711782364209
9.665029779309469,1.0781448099205158,110.4942270706567
4.798282303564153,30.169525997797066,102.30778666111003
0.6204885315556216,57.28281346551192,84.51382339901899
5.701490093031618,78.26930673701874,59.814129219806404
9.628015743151531,90.03578972861033,31.707914391633764
11.788694378447913,90.79740678181919,3.651322491498655
11.858800930816033,80.13975196203172,21.374157983479787
9.806181784369143,59.04803040020901,40.867026586511166
5.856379027825849,29.92791689304929,52.5305287659308
0.46603206502066874,3.504725516162264,54.87241775720894
5.693413818165702,36.61575759906844,48.297418276652785
11.765410715147244,64.59811474540429,35.29032290324956
16.781117223537436,83.44564996727598,19.415415428940427
19.78908963620331,90.83725110611795,3.933994718739623
20.03414292191606,86.6046546967934,8.431559265843818
17.147465215903395,72.60214181076272,15.077802106702153
11.276953691194846,52.03953149768643,14.329042580131599
3.1061980637288906,28.581831179320627,6.913650816989211
6.246630457148607,5.558379330696168,4.117323229266835
15.428162535719698,14.497118376980648,15.117569235818012
23.08893978327937,29.932522212278627,23.05015568932676
28.100267562421976,39.84425042970762,26.206279900868534
29.71391038137435,43.94369211928525,25.087785015335697
27.65400157045139,42.52349880486476,21.58332293051874
22.149041276785095,36.472959766806326,17.094250338418057
13.907927981642063,27.22213464684219,11.797927660400285
4.0384610409752675,16.519428037870245,5.2135828795846875
6.094072839563101,6.0758902214242445,2.54915558077685
15.06520171507817,2.7733834797001315,10.860330094016359
21.626739899754373,9.247579319387034,19.12527312187062
24.928405580427288,13.060161543387283,26.360187035784662
24.658282984309476,14.18722519097198,32.00465722443696
21.072170416613748,12.656469995633612,36.714651484215885
14.910901392507153,8.501453354271668,41.414060945321665
7.228627099957678,1.910775748306238,46.43703438137293
0.8052235709420733,6.532850229083117,51.115271984442124
8.079533033200267,15.7236478630352,53.73254903570212
13.67045167430744,24.136232895674084,52.280197439316254
16.92010116831639,30.11954023993804,45.271228364600724
17.489427024109467,32.25785121976897,31.75594725460287
15.398857480225951,29.665190141895582,11.675965688982316
11.037675290793137,22.118670115662855,13.168155814090644
5.123068509109403,10.073331816116992,39.37754170068781
1.416433948503237,5.335532391906924,62.9754299325703
7.628395862285043,22.26833106111777,80.60313102414744
12.730228241404161,38.18492601550585,90.37411797964668
16.237141060612924,50.0410942391437,91.16807026764612
17.985117025707538,54.81085417471476,82.61872477709132
18.046424156004186,50.26227343796839,65.84986922539622
16.58400833607462,35.76721847119694,42.83772787792595
13.736928786055387,12.810203828642956,16.225086288665597
9.604738605015502,15.096459052849394,10.36160726711729
4.331849153549652,43.12051755224821,33.083919884869786
1.7612509315577594,66.21786023555958,49.03243412005049
8.09384710767675,80.25081406676337,56.91027690960636
13.866431844709796,82.73446928568305,57.01987878477479
18.23406367731483,73.05178442219264,50.637000284718546
20.53741816558788,52.25005221066936,39.06984839871645
20.48350006112906,22.664049724465883,23.687313150891615
18.2065577883288,12.434737725863211,6.325527607566382
14.19183890597083,49.08786627770351,11.293801774241194
9.115756554392073,82.90945399237611,27.363157392772827
3.703700972714073,109.53914344245847,39.82621016380248
1.3376672708061492,125.33181113887983,47.21981982569076
5.411711471785104,128.79371922978234,49.357738266664526
8.050603731915048,121.04855111855683,47.38117427722628
8.908026090622878,104.92661382294621,42.89276120096191
7.870421306213954,84.1395823494658,36.966431581553366
5.1557157749334195,62.31019118916915,30.064601827897317
1.3356546516408765,42.181805512172716,22.60172411729929
2.7625032263123828,25.265521817295394,15.050661879831772
6.261029963755926,11.970492466954488,7.716795818491199
6.5826545480539105,3.258259303613324,18.98804668057539
4.749395232603684,0.15020577264313917,16.678859705129497
1.4496246667660038,3.8439990492477323,10.550985306533981
3.064828434341073,8.418922947339675,0.8769135791070594
8.306117754052995,13.137108676044738,11.589777762735668
13.622170782063344,17.41722645315615,25.846616734883774
18.275521720709072,20.587546507648266,40.22395740973583
21.51181241564572,21.995539050485586,52.61476843676613
22.64515036623263,21.155650868357338,60.9078614314554
21.160668602942838,17.839204381641263,62.95978139931346
16.825539443733824,12.094399502340037,57.472968910683434
9.80492273629214,4.286979772842369,44.62741675625474
0.7584238647070327,4.821725996093208,25.57390494654988
9.216494981009982,14.240173091973793,1.7050797667539217
18.805464285852747,23.069271120727247,24.9322269334
26.6983875126608,30.486691475000356,50.75065281767546
31.807198333866925,35.62421143617654,71.71756915379088
33.436093780039876,37.6419374924257,84.51007047558262
31.319336786267364,35.885081096003674,86.74697972912504
25.614024365848454,30.18073176024484,78.02176899363437
16.86610381022057,21.090691074519174,60.11009179283647
5.971476413666814,9.913999937083704,36.005730454088095
5.842628803767596,1.546481396540093,9.021677575492978
17.09583912095883,11.432450512532002,17.69955085307558
26.21179611985621,18.2707777271531,41.22641252709174
31.761505202519846,21.255226603512618,59.14643504761922
32.76081037082313,20.325734151083143,69.54243485369611
28.919776112503435,16.04924019422254,71.0030280206888
20.7666356050717,9.45095767553602,63.29874101977845
9.593692945152393,1.865944810721346,47.452759543599655
2.766406348632579,5.188871676943959,25.578576816990278
14.283736418117162,10.152815233406042,1.098707972960915
23.115339221466286,11.639914552971229,21.75689891250228
27.929541966713973,8.753441305053196,39.56648690135303
28.107205706360848,1.4186013787848808,50.610588551066755
23.80380443676389,9.428863833456266,54.48891543653037
15.881653943777263,21.935608740149945,52.08755449803617
5.732209309177492,33.725710107804595,45.46582862403423
4.965187815240011,42.482393794376954,36.8304203166516
14.497542545738522,46.511018595980865,27.515312442038283
21.363983518818962,45.09161774105585,17.970956811987865
24.491758935269207,38.50873523389189,8.649095002871777
23.397075295749513,27.787828889205553,0.5462009497064279
18.269967857667957,14.319107561834612,5.335349388836573
9.956404888921321,0.4411682599638307,8.737085933658241
0.17551003865365947,15.097724082555876,10.30816735528525
10.471936380380983,28.289257412366073,11.670163935256566
19.298129193844943,38.64072877601088,14.651312492798265
25.343484166794603,44.832155374905795,19.82843639831202
27.832370848541053,45.82177932873095,26.535893014061465
26.57641594924382,41.16816451190978,33.37052272993362
21.889478239651513,31.318296029435608,38.4327395708781
14.430970084683413,17.700512551049144,40.36043491962588
5.036734175196653,2.546096023766476,38.85210403314452
5.390948576696237,11.50773792124169,34.38275325551429
15.901659690832263,21.917867745222996,27.791010341040174
25.474489428652884,26.700074287877584,19.934532361731804
33.03379635246792,24.77131891168776,11.864184204872544
37.5594762597685,16.151606620486756,4.48523172998094
38.28531553733772,1.9929516891258585,1.9125298577066685
34.91706578982975,15.576316156574295,7.304077938541995
27.777697940998827,33.763770416876255,11.799733820401258
17.79308991970176,49.550952928354285,15.74088040078019
6.309919452174014,60.194523637973745,19.424374386376037
5.186036024836176,63.682978418699484,23.019942069046785
15.360086537224312,59.043476768197706,26.694235151912526
23.223405564231133,46.44554946287269,29.862449867851534
28.182329522087926,27.108476796710534,31.109222520336026
29.988076259620478,3.091754934260823,29.505735253490464
28.678703265959975,22.960897770670762,24.435455076828063
24.560332298769346,48.133965952720196,15.34711017060837
18.21532759937635,69.60150450386104,3.1142942167650802
10.513649430627213,85.01171041809282,9.865323389456654
2.567409031617334,92.83661173642508,21.04112143360755
4.430455794527056,92.54757480711082,28.895681887192914
9.453576504259921,84.54738011745697,33.057884732563885
11.882547162185471,69.90056257606693,33.511916194795
11.645766188030741,49.980119085144295,30.53327746206975
9.201702957742237,26.244741094205967,24.778779005171454
5.364055021725308,0.27469359605019844,16.802457191741905
1.0486928117230707,26.02315545328061,7.181860872947309
2.9422123696486975,50.25586519285005,3.289340443586605
6.036898616140598,69.65583308822652,13.855305647933125
7.902888357078325,81.56710267433307,23.614113569355368
8.380112572621316,84.17118592567792,31.746726390304083
7.430660009285305,77.12121032188266,38.16174292019877
5.155430128169903,61.7655932224501,42.49661054856628
1.8478642278298238,40.8301830954254,43.509892004289206
1.974540847902531,17.702077468292874,40.6938384711906
5.616717941310733,4.354156437489706,34.67445534710918
8.328458002281,22.75733463554497,26.053359389455032
9.47900444480775,35.810369940903804,15.070155721227357
8.733571990160593,42.63103521632957,1.9551028429211128
6.137499306260955,43.03707077738282,12.513557283228554
2.0897946791262414,37.519193398602255,26.7268898844545
2.754239190568517,27.290997661321466,38.51097156725474
7.622515365561368,14.261046404006763,45.81827517028136
11.743027084876555,0.7681033774239273,47.84284401036469
14.409843932821925,10.905217829339563,45.33442339946802
15.045214424041331,19.060293323016523,39.467038150701455
13.282245921652105,22.908715223714612,31.185104806939737
9.05112339384548,22.549079158854767,21.439004562194107
2.6500000122034546,18.638926286701093,10.868524016658379
5.218790789938517,11.982955163504647,0.4094211199078569
13.503056046906066,3.2927274734791845,12.522492389120604
20.965563692631292,6.762920137350929,25.521561101272145
26.401440260498095,17.299969490108978,38.59322132347667
28.86522636891181,26.994886455318795,49.546875538660814
27.865791144111157,34.09117161867079,55.37744921953481
23.47996636530136,36.69247172147264,53.591494917433764
16.356843850614812,33.26962960263096,43.16734068092695
7.594255576152215,23.179223676690743,24.83250892679899
1.4864896224277062,7.010787545228936,1.7729876212445566
9.610267300958185,13.336884105779705,21.12744846090658
15.793376937756486,34.887122949176145,39.992929647078995
19.483770637624453,54.054710440806744,52.55484932580001
20.572644613254887,67.26799344338848,56.91586042013082
19.314453620155316,71.6590968399262,51.73579870734827
16.199566618130383,65.67256024757586,37.59261959573532
11.838457796394755,49.44755365912685,17.407227990240994
6.906547895042997,24.866136261018227,4.803506871300318
2.1285493948858174,4.765800530815061,25.279305136770592
1.7641946317485135,35.31567083254962,40.49168892397748
4.137706364510468,62.5216397359763,46.89556326061889
4.602901806118476,82.61626852499064,42.2570731902884
3.1416797303773194,92.81223184827938,27.256113986013794
0.1267286858120852,91.65752430620213,5.644537774738391
3.7938601675477477,79.27320178986173,16.946128723658216
7.896422505818881,57.453857825933255,35.34447552785665
11.567514310932053,29.531582594218925,46.035334907826254
14.377843621058178,0.10478503084696791,46.81003925840804
16.013169466367174,26.84173641179534,37.607729648443396
16.146713021250367,46.831481977334725,20.95566306180672
14.385075769136208,57.80469682939989,0.501630204034143
10.354364177740138,59.421673207641625,20.206006850884684
3.916185182791318,53.05148667111798,38.093157319117054
4.602688231449396,41.12279151837217,50.388706310191274
14.323934242640563,26.381809704400286,54.656802181164174
23.93445590082983,11.367013130329156,49.751329366811284
31.98135700498502,1.7933248230831025,36.1424080710385
37.22489949334121,11.375525622057003,15.145214948609844
38.88672194608033,16.063516751435913,11.093595415837662
36.909598780270755,15.39835047081582,39.192178354275896
31.86638324472766,9.929932193030647,65.17682497548974
24.595169732030882,0.9407336347353803,85.72629400589089
16.036993788355623,9.691859098210113,99.13266307186737
7.137837099846346,19.854539431988968,105.18705852497862
1.1960344307762187,27.701520891080435,104.20160679683272
8.14197531588382,32.11483038635691,96.79177576165792
13.046431591096852,32.910017268292734,84.37061562756446
4.795600146704722,8.470301448696496,5.084044966645049
1.9699123695842136,6.2540008819821535,1.320075692721355
2.1663048247654695,2.141681890658565,9.472233317944278
7.18556250760527,3.9625070374525,18.135051602222994
12.463052988093592,11.687210344744955,25.831834758006828
17.251075548695503,20.123179836850287,31.47189859877281
20.754412512647356,27.95713705011826,34.45749220889067
22.216883730036294,33.73749224779761,34.34483883350387
21.039907814298555,36.216608355969754,31.088833459237826
16.90198456430677,34.599172556145156,24.793233470697032
9.864180007091305,28.66515996290621,15.380168800019772
0.46312982951320514,18.870379616805476,2.6759107616410147
10.22573278353565,6.399750787149141,13.249236333106795
20.736276280163775,7.190279976154508,31.220576703652814
29.558807646884524,20.480656533046673,49.252610323921374
35.387911326657985,32.18685646615681,65.22945048725228
37.2985815586434,41.1184217151905,76.42032327514822
34.89504536570574,46.36794792871322,79.42920949235949
28.335718551296335,47.40152347690791,71.45345992709261
18.32453115239506,44.20356108970988,52.02088260117761
6.052592964804835,37.317908788428845,23.20173862769934
6.94445524762009,27.7044252491234,11.279126142471473
18.982317720340514,16.596502273043967,46.505422721734135
28.48280311850867,5.320369196167584,77.42088232739724
34.218574936212526,4.825008341529205,99.49279089317784
35.501164626235195,12.680849176598151,108.87470649401288
32.25777272691508,17.42252306706235,103.1775338469002
24.98492616253165,18.780593677694835,81.63292797832067
14.645942766103794,17.232903500614245,45.55110306674222
2.5476510235330063,13.975202616160702,1.0020654462100453
9.763614764329814,10.581617211298338,51.50066432824752
20.62075767241785,8.458413558552444,97.71018544185773
28.420024135923846,8.320642546485262,131.6734791843643
31.858610723707432,9.969667547149454,147.23344881008262
30.219584543223817,12.504763003712922,140.4148760999667
23.623524529627474,14.868977208280516,111.26681078763451
13.112848878512462,16.397619431631757,64.9582804876347
0.48888291018020225,17.043446989878618,9.762492302479552
12.076567781183693,17.18022450132166,45.70049321477511
22.526519392472665,17.13550496658573,94.1992844277416
29.342191823359634,16.79176135826664,130.9652230043314
31.779774695227083,15.556297364886422,153.5319917702637
29.883103544081827,12.73056573929165,160.3244607221679
24.32097864916086,8.03149772740677,150.56257788019388
16.142566597884773,1.9039073662204957,125.14413648335528
6.553482167229588,4.6166159155577855,86.73446327825071
3.234572388933034,10.42871831182214,40.022651149314584
12.08507295822017,14.935902318894804,8.693641745620845
19.000169295350744,18.267744670024502,52.919789468394356
23.216819779280154,20.985391810074248,86.91219252396243
24.32208332628644,23.459745090153124,106.83091292131996
22.353239975824728,25.335437940779876,111.52611671027692
17.83470486572322,25.466706615365986,102.75187668980783
11.689901698514545,22.444744509184037,85.15455228017154
5.031304922402181,15.438172750288256,63.980566841034765
1.1057797221307832,4.850605892238241,42.902560785590616
5.9894181119563275,7.572937796767983,24.58822430972315
9.286634752315074,19.264776065063035,11.08858825637061
11.007638044581434,27.71587043982879,3.7623320881043405
11.341383179905907,31.25331665816204,3.4059729650258945
10.471889681572945,29.381530786683154,9.2442446322069
8.485116096175645,22.65270261307481,18.408198459179825
5.420513058867428,12.272846758061604,27.288353142046073
1.4291438595254853,0.25479773800112937,32.64586147588652
3.060571526725605,13.280694196110918,31.69819368664919
7.291733302116011,25.013091165400212,22.654027294487705
10.318454726858324,33.57424136516978,5.444334034000518
11.291694233320614,37.27750983551854,18.282681597544197
9.769479227683219,35.089582509822854,45.407559523569965
5.91206944949943,27.058440220601856,71.79359713217055
0.4558905084399345,14.451513804132258,93.0729095423089
5.518678275992465,0.5220374403123985,105.82953060740638
10.898155706826724,15.292953516425099,108.7526925721417
14.79080028519209,27.540971667028376,101.96903734513477
16.649496727531044,35.5667621667881,85.88666319207364
16.257776244501564,38.360201594330825,61.98298130341662
13.652188735187966,35.49236215850421,33.663599523251065
9.073205367585055,27.028790953670843,5.287468145360141
2.9743702612015146,13.619309140357489,19.677986113613382
3.941070104135748,3.307039342114851,39.61865257214179
10.729844111690575,21.467350208131766,54.251731023638385
16.333118792335835,37.9510787504584,63.386551269216696
19.80111300927402,49.792587371737675,66.35904250527433
20.531647134125073,54.69775949522477,62.958338243364004
18.422090376364597,51.613436325933755,53.954947956445494
13.86992989272571,40.90767159136572,40.28498087540188
7.634629433487522,24.12679188941204,23.06697210058895
0.6398127377034433,3.514406854043653,4.4690394985604245
6.188838174218816,18.45674330980376,12.480333470853193
12.00383557483831,39.3558706228192,24.914469620397853
16.062153295344498,56.86851119262799,30.63787867547396
17.760197093323328,68.84275271040224,28.530351461150147
16.71517510070257,73.4861380363629,19.17465364814428
12.875411369697238,69.77054564474778,4.619064282384294
6.609434520019495,57.88688282981077,12.609599801813014
1.2879063945558447,39.48379732137459,30.57990480826666
9.702350041293476,17.474963608022662,48.033499949038045
17.378695603072465,4.627375619904071,63.31059407745663
23.101068679420056,23.628026167409246,73.98730056950116
25.841167070542966,37.46083350355686,77.45606986932079
24.871106457003293,45.58062548004254,72.01929997434212
19.85398291355158,48.77665235366906,57.82287573721419
10.952094489380562,48.52757561432966,36.82795911015691
1.0595908543591206,46.221120056069736,12.5407449739014
14.75235885569515,42.6011321616341,10.475174076612863
28.15163820969661,37.67316635195612,27.652783614950977
39.0520783166782,31.04719800854521,36.27606433462682
45.47804266175945,22.48275567238575,36.955458648527504
46.128342954620585,12.30672738765255,32.8163065556115
40.66542411656568,1.4660325843306576,27.837693334675787
29.74646164865425,8.80306895883567,25.493221089249282
14.820558677494226,17.489207685828674,27.7690517575963
2.1836062002312526,24.18350420517709,35.143101622875704
19.172374830774466,29.090919321671336,46.69352626289378
34.1151020331062,32.67651750603722,60.553295999885286
45.19196445230821,35.183457278041196,74.70422951452355
50.95829353253577,36.34912420928044,87.1755099128498
50.569807852790724,35.520752619549576,95.93139809347265
44.01138576167254,32.13681883647576,98.62158230957425
32.22555042224407,26.26963148758754,92.8242171379106
17.03845853047124,18.83577017622322,76.86061156053525
0.8227774513863737,11.287774399667931,50.78588638448577
14.012123323751071,4.912691816597062,17.082517794042047
25.51912194970029,0.12914334300929242,19.9431938421427
32.53926364850075,3.7723641732064777,55.18738155254352
34.74432060808645,8.24067722224093,84.07702993021482
32.46066988475422,14.612977105735698,104.24691816211272
26.431530270602746,23.270042092806737,115.5554631305126
17.630085176472644,33.26073877663853,118.96035136979488
7.2013422097814175,42.60310543979524,115.7457735542259
3.5222555842169783,49.07863023195878,106.979390579248
13.070624646313998,51.06411772161577,93.41165345995998
20.009157659754145,47.97893160631569,75.71878401653359
23.219219648093812,40.192831116830014,54.6266927284908
22.193185574021133,28.580521882992745,31.127600533483466
17.186601003378907,14.091136355465988,7.086131070952357
9.149116671138392,2.382365500520752,14.885099002150579
0.5210991402067586,19.798714676398507,33.023453492211196
10.303140880516185,36.66573165501697,47.44905190571928
18.83759069653823,50.970420810614236,59.54250656561885
25.077697787216852,60.49223283128453,70.87313177523667
28.320642551829536,63.39468407049505,82.07302954243288
28.38390818056578,59.1191187475265,92.42306355750445
25.57063818165891,48.58255287291952,100.59220863164714
20.436337159640345,33.64748602417947,105.53955641436801
13.749693134146682,16.67231642582744,107.03717905953951
6.432986418860771,0.024619965320959787,105.4514405455276
0.5452376450912705,14.57482814378417,101.25727154746002
6.3294024214244855,25.725329920754547,94.80960941882677
10.336189345929323,32.81036465502136,86.18361166550753
5.790876910229989,4.612674996901204,14.172286420539466
4.772283140387116,2.417682342080843,8.400496427214524
2.5498137834761487,0.8487501334665236,1.3848830931047216
0.8190691488810947,4.822233490649835,14.08267199002451
5.047730041227612,9.044613255674955,27.948482572934758
9.652588413470095,13.02384787660406,40.584306767545634
14.03014704839492,16.21423100542386,49.44613410846682
17.545655296389494,17.96479805401236,52.743096010704306
19.61511672311126,17.555596886986415,49.22933692114648
19.75790024776612,14.364182230832878,38.10707656003956
17.633406123950635,8.15229366625737,19.67440299339112
13.1157032309449,0.6125118234693339,4.360014779236636
6.423942088269657,10.602539907416553,30.80412744929802
1.817282572149646,19.909165834073676,55.12557552594428
10.642631054840122,26.647425507284698,72.25136164099976
18.842029861078753,29.474078858336057,78.04926055753191
25.142328275603354,27.92572408839489,70.72818363748563
28.485207694812924,22.47609393850768,51.360544193536725
28.26926252532044,14.206819461191007,23.854966043939886
24.502941933696736,4.364570641341959,5.705030227362247
17.8016190196545,5.95832348146898,31.037576006240492
9.222575271191998,15.87857562777915,48.022994402535225
0.02962695427636596,24.52536369072991,55.24956851156127
8.54172430260151,30.851927006193783,53.034039337724316
15.440567647046402,33.66659926457406,42.8170367281771
19.86129408422784,31.975161277550814,26.481058334103075
21.262736341710042,25.478412296593845,5.964072261909556
19.4042455584975,14.913742893226308,16.08494808768141
14.421801088164282,2.023101948453429,36.284896852226666
6.911520493041376,10.910908180486484,51.37656593833481
2.0481420368152468,21.758731329000852,59.46348164158655
11.015795216637262,29.111769733054487,60.648299169068174
18.455620036248625,32.45225654971165,55.80844918530684
23.070479146711683,31.920464994459017,45.82326028145951
24.07976466708074,27.921036322115416,32.18507986752284
21.345799382402525,20.855213470256626,16.677214411698383
15.326221642220656,11.162671800451653,0.21178124359615555
6.90292988555509,0.38969122200497514,17.32345550953287
2.8174979148213843,12.434518478765103,35.91222426246024
12.657292602844272,23.010197484479942,54.540158129874655
21.453437279617237,29.9688155280864,71.35206245599508
28.109323821420933,31.647911755498406,84.17067262081844
31.674196077333242,27.47568218369824,91.2142363240363
31.479774016744944,18.19844398574901,91.50619633000325
27.316688117693896,5.623026792990937,84.75566581727944
19.580202902418208,7.9677424630142255,71.21643247103826
9.291845186854864,20.42696628234249,51.7105344178308
2.0477432347292543,30.10879385797327,27.581879950715127
12.744197135112524,35.914236753957624,0.6177149667725474
21.24509113155601,37.16934281401525,26.539608429848688
26.425357245289987,33.5474970192966,50.827194625979985
27.741227512569917,25.177946432970586,70.08613481119174
25.239344443391307,12.878740732324033,83.35200695164343
19.475199948556043,1.7210526480843007,90.55535690328877
11.380989980984927,16.37509785659941,91.8736282874524
2.1153809478851295,28.751235155632482,87.63085195876808
7.075719423285785,37.08956244102317,78.7217876268935
14.996452449923526,40.67629466500316,65.63230616387482
20.642487506242894,39.89242345482863,48.53882565896201
23.333153495652944,35.80986334943363,28.716113512538534
22.809671818888273,29.573858721770755,8.16231404499507
19.268101923363048,21.917775175502676,11.14526676072779
13.317890814873184,13.06221013068457,27.86265031395803
5.88076276767672,3.0050984339108893,42.04792600998923
1.9568513921839037,8.032791400470085,54.43409676100973
9.112719105895193,19.29985840876055,65.28566358555678
14.656784256113925,29.527743365564334,74.10706622839062
17.9307178324261,37.24580800396242,79.35820850569245
18.637478133035913,41.187615860054095,78.81488093663287
16.872672858753795,40.578578790670925,71.2268190985088
13.095725598466464,35.217490931996565,56.76609329057613
8.046187840557531,25.400537305497505,36.24216242386476
2.6077264228001895,11.841947351743313,11.52967787240694
2.33829233276113,4.29433053659573,14.569913828436636
6.0239775591675855,21.303265947829576,39.33487400885466
7.872943638396449,36.94770879994269,60.388418640103005
7.562955934442532,48.694741449838205,75.9135397565694
5.07109977896659,54.20679494555595,84.07233732450447
0.7046887823251756,51.97236927685831,82.58723924464174
4.886271757413969,41.82651434696148,70.30179881654787
10.755037684038419,25.148514785423455,48.379984340410985
15.796287402017356,4.653329475944269,19.811415287241346
18.9612667545037,16.17343625694254,11.047184528860216
19.4860321447171,33.81180594283609,38.98695578972033
17.054389570415932,45.42134874060696,59.41993794982774
11.844189425148963,49.38488068859432,69.32140138612249
4.45217651491999,45.56938186982867,67.7279173152806
4.2540638067531535,35.2706083209419,56.31700717341776
13.289312580706634,20.865130919306885,38.275291112470825
21.66089674594417,5.249064372651863,16.704535778842825
28.424471612647775,8.79013737676968,5.702258677146831
32.72700938600674,19.10459732444585,26.88111962744511
33.8846384687429,24.4941756385395,45.422422244243194
31.512171563217514,24.747143416241517,59.62189883983463
25.67407095370692,20.46331469888206,66.74936908524923
16.968647954961515,12.787535620227073,64.20225146375289
6.484704114259407,3.167433129542949,51.1794192988098
4.3682563150639995,6.8399597542537345,29.009210795084343
14.116722467077164,15.741415457185969,0.8839351300971168
21.481848392632596,22.29968034290096,28.819046201822115
25.565325665430617,25.740143631417663,55.61019565978934
25.938237973476692,25.886946037106103,75.77253814544243
22.655805627122827,23.133892312343647,87.08035220190574
16.250534263700814,18.229699233143595,88.6160358563708
7.704600364888876,11.961585461457213,80.00044143343185
1.6382114947852648,4.907267343337573,61.58984369404261
10.23631503113972,2.5978708392614744,34.895559442032564
16.592975447852847,10.279730957989921,2.352652331888947
19.541565778770018,17.669839917450602,32.45633020608592
18.494482714140535,23.969515851010232,64.67719590078603
13.576833201605565,28.173884265571175,89.48916379501786
5.603411242769582,29.401742763673425,103.5412881538972
4.088382106682106,27.236874832499595,105.55301369066318
13.898960912310113,21.903444048681735,96.41078567247415
22.237137988318572,14.193223917774718,78.64623440321253
27.743573204264518,5.229167594951806,55.8946970565751
29.462961364821666,3.754006314853868,32.119597598431625
26.97325594910383,11.5022738717423,9.901614323562494
20.46826387983592,16.751942346708486,10.16578218848911
10.770570238594871,18.311069037891617,27.92886630246728
0.7457735369024854,15.327494458219654,42.60637583061187
12.347540085491977,7.706678100152002,53.16425944206638
22.25258649429969,3.543606869428485,59.014819164459546
28.968734612753558,16.308217253851378,60.853774746711856
31.545591818949028,27.81694430545417,60.24320804526103
29.69371237391127,35.44973857080307,58.166445811541294
23.762262560775106,37.54657040246338,55.0476742992494
14.604461773540422,33.84730253033235,50.95988607637873
3.414088744516544,25.387521015377327,45.251082488271585
8.414259314341306,13.93091661791689,37.319790547450054
19.4010857489674,1.2811043863668539,27.250432772490658
28.089764482901817,11.168719400667333,15.393963782017776
33.18692220374281,22.514472874911064,2.3265142755083583
33.759421013072966,32.13774740724645,10.576513188196625
29.443830316493134,39.45622792344812,21.06303798400359
20.59767662439237,43.85502658877681,27.07678006210473
8.322525132644033,44.84939199396842,27.830903745776094
5.6852815177738805,42.32633265117856,23.88117246718842
19.427340434094113,36.675762076474676,16.675303268455544
30.961463471063816,28.73256059214844,8.082785856806044
38.72931312124483,19.570403422041732,0.07402716668283643
41.762387038443656,10.276649121400464,5.397355292593966
39.92475898939749,1.4815071192818057,7.107586807911353
33.83384320325614,6.730154762344323,4.82636594385611
24.535907526416445,14.33464443334053,1.1902183903678434
13.367388090798132,21.05699161989043,10.272251141661307
1.8048093543392296,26.29192723686941,21.2598615156315
8.710381403007904,29.295903631342036,32.644082270173854
16.96983325123054,29.536185822925535,42.96230789515057
22.17625430039051,26.992922914234423,50.74358283506446
7.870360577414116,11.468446818218675,2.7008912610711913
6.260631728991589,2.956829502210462,13.75902810187251
2.933517657683905,8.520181549957789,25.239330297793796
1.9126483676354276,21.665962189610237,35.2509430925513
7.772851757118694,34.880759926256715,41.863717202878355
13.928047576370803,46.35145007335038,43.36557923008067
19.561286654564515,54.1166138993376,38.252365451382445
23.849488202715897,56.20961973996892,25.720325895292174
26.034242508204755,51.024966852082265,6.773266340241954
25.491964682482887,37.820790606018605,15.604532925396214
21.822697289676125,17.187545383613845,37.34001539112172
14.989132626065324,8.640912697029872,54.30271394243303
5.487803579646832,35.796124989932785,62.63117703405497
5.6343794826363345,59.602735374803196,59.69590754213117
16.958065037835535,76.03575617244532,45.854622242576234
26.901069083927535,82.68247421474076,24.25968714694226
33.9991514747731,79.03300011141576,0.36105809937831573
37.20862888185685,66.31118997224019,22.328061051204063
36.05411845078151,46.83092400313403,36.3978851934429
30.662973284389636,23.39679627334715,39.852170213632945
21.70830688924289,1.0700400336468612,33.05007765843758
10.293135085862358,23.75081447376718,18.204443036376162
2.15433777553891,42.04808972794532,0.7707391663104838
14.011169245149715,53.87972587001917,18.64403994664872
23.633839176302,58.08448704931846,31.222871273568433
29.594320809800575,54.747716096006826,36.20374427143972
30.955954261899617,45.24380740679759,32.813764510499176
27.49391173473972,31.845190645198194,22.067928918918145
19.77836806909936,17.071536590963724,6.887117850162606
9.08070634890262,3.046554693052145,8.292026317082557
2.87870875578147,8.854011536785979,19.325467040929116
14.272064457981239,17.946485407760797,23.71021401416915
23.471967782523702,23.940377111505068,20.22194140280475
29.252155936491167,26.656247360244336,9.234837933243147
30.893119086513053,25.962407896705734,7.103528741168282
28.212498981806107,21.944223994697683,25.699607332021305
21.56109775908635,15.146201612363837,42.5970952673972
11.804258694812143,6.650841103691414,53.388814428440405
0.25240135575057854,2.1231135605869595,54.949359237001616
11.49805650136612,9.797413500606742,46.18201025921053
21.81794997689394,15.386350744374708,27.5733296118301
29.33632148105373,18.426641953934116,1.5423760804857427
33.1793911603703,18.830321989078968,27.78818015771307
33.08322919926441,16.61860533572755,56.51431160528427
29.35282879855795,11.762308684110367,82.1503231835158
22.71642255397736,4.280261234827847,103.3229162595754
14.150648999435422,5.434406539604773,118.8272433293442
4.732128443979956,16.283327076500626,127.13339171195703
4.458610791773381,26.392593023881677,127.23432098768332
12.401838304578712,33.433291614640645,118.81734682056037
18.213558340840788,35.26013971654349,101.50532746778408
21.252421163945595,30.62080879107874,75.47928169463955
21.236919010793105,19.627605006688853,42.20447405406623
18.315585135937035,3.805276853066082,4.23341981017681
13.045910291540185,14.284506528765998,34.92931527401744
6.292840249032825,31.679927931400385,71.52049769041517
0.9189716682605646,45.65636746880142,102.29413920004195
7.563326337071846,54.168372920384975,124.83444562126424
12.730294306374144,56.05032451942961,138.00092074271598
15.69470190398051,51.028360239486574,141.73753403507342
15.969269885949036,39.64135465567246,136.52695386794008
13.371467036029633,23.167718586574228,123.13981051634822
8.107330832699914,3.5562318148351264,102.5783512001244
0.8238420034586494,16.726296379116913,76.51197155101147
7.425222637200287,34.97343156028561,47.41591512641966
15.32098631967472,48.64692299094083,18.276353616103496
21.517989536648766,55.85278172682615,7.707576261104588
24.91702017045189,55.724642329011836,27.752978465947034
24.88195441964421,48.58661503586124,40.30485276511122
21.343828504523945,35.849652169184886,45.71222288482962
14.784449860582031,19.66553477484721,45.783351348225004
6.123226774031204,2.451426337944229,42.53983882067646
3.4331885240865327,13.571119547390882,38.069111648761
12.532082961501263,26.699795689731964,34.479725759835986
19.83044212519122,35.87503909222326,32.89458331457537
24.1748621917544,40.631657301304436,33.320399060041765
24.788982580358777,40.94173705464348,35.40149683699324
21.466026250755505,37.01806262041874,38.53679061904935
14.705160742869955,29.167914244679757,41.5110007602043
5.7038912115860425,17.76395000457945,42.202320429853636
3.8354986855214466,3.342402337685428,37.98595576444723
12.064305900413064,13.20342621648779,26.691013370044722
17.40322556492329,30.41400340523323,7.224076111051337
18.886298533863158,46.19114605608748,19.784133608147084
16.340243243174605,57.99168507169153,51.37063924542991
10.351907771096922,63.29647169378593,82.13151014185198
2.0621988368095336,60.269895491458044,104.84521995905894
7.1137677890894215,48.397568433326455,112.73541752041585
15.747804090159802,28.826340500222532,102.17576213005786
22.5784912864789,4.24749412109021,73.40575244009486
26.60567256815559,21.661906434010863,29.70398552132691
27.14438587525405,45.04122694635549,22.78656067173284
23.88502049482003,62.58859138906776,75.47787476390077
16.969864982456805,72.03082527933375,119.89724242181286
7.0461631189059055,72.29166193053639,149.54688861311678
4.754320539145483,63.467805968086644,160.27906331257225
16.95163406081554,46.774000838640106,151.17612223258186
27.962025877869003,24.52341743943941,124.56243803317054
36.36724688665895,0.040516529169318354,85.72849216425541
41.11907829640522,22.68233751107258,42.059346785391405
41.6270520657597,39.70264257092026,0.707536141252233
37.74137234281341,48.09630277804115,32.50430266812311
29.696984581514908,46.82075820266276,54.302418936173595
18.081689234399953,37.08325039041526,64.73848982979973
3.8562193744779987,21.988455394794354,65.76596227259814
11.607056733757767,5.5476983351036475,61.051609241201106
26.55329205618737,8.549258133835304,55.267616092700365
39.01558457823521,17.88474083573507,51.893974469095966
47.13204582582006,21.662059702589346,52.70352169442926
49.53554345001556,20.451329312854668,57.66819731646567
45.68550993645323,15.59505198374868,64.85052063208902
36.020576652713295,8.647034033328968,70.9218507514863
21.88801660241654,1.0597676048385904,72.21443241964343
5.283789365110936,5.913803936863347,66.0539302604069
11.505154429472297,11.255731890725201,51.30591192974946
26.24290229890266,14.31132999955784,28.46573312746346
37.01298572600579,15.00239098584257,0.35535220574380444
42.42466313431435,13.930892963285412,30.84429375996801
41.78567638514347,12.197005916174401,57.089376195248896
35.23834808060471,10.91223783307613,74.56124102738313
23.814954705359103,10.630208818082195,81.2799068164199
9.352596458617453,11.042831606007955,77.8368414594507
5.7791706885246725,11.122457869556797,67.1611594668548
19.1134620127576,9.656288500627353,52.18811911611782
28.570945053793075,5.903997669176897,35.05987473428742
32.854018800892604,0.003565353606581716,17.73055320025227
31.641152200800004,7.117445161879669,1.784461870198261
25.543268933384706,14.078533951392574,11.364582000924397
15.871817762426764,19.614720461911535,20.693885604060757
4.323882544448615,22.856099350370414,25.725709266846028
7.320515875829279,23.37956957714862,26.450790947309635
17.4392198133529,21.10855615050788,23.465324862575255
24.733860280791816,16.26643939453895,17.477580005407376
28.33750486203708,9.472556060692396,9.36678839362119
27.887726613204027,1.881500131707337,0.8782446095625542
23.56511634590217,4.844886064017145,5.491706112267725
16.080838642598163,8.87967428259639,8.062057044375411
6.5890326440495,8.816158061794436,6.997962409967643
3.4843122362723884,4.240456339325583,3.1174915227813633
12.670358743881147,4.003229725508116,2.6604725036505577
19.70861517603552,14.00013908839878,9.191395785670958
23.76537399052628,23.281470037416664,15.675345420320657
24.657972346516864,29.867626329360572,21.244250972048828
22.78271528706377,32.794413972686634,24.706655675942617
18.825404978905834,31.880924851187775,25.315542301835087
13.600019986320152,27.58291483534374,23.04335408536387
7.9158027008773155,20.732763413255128,18.337449239046528
2.4812481531808173,12.321152163695094,11.920566721777798
2.1539487283070393,3.403950288933664,4.7204490926365565
5.6228943447345054,4.915879928671496,2.3831860631343704
0.7869024757468277,23.615533484037012,17.34200918345112
0.9706364292200108,17.09649300698935,5.830321624615298
0.8171059508872827,4.680852472891078,11.711456415273117
0.00453975609002085,11.929651499625585,33.65630652211742
1.6084178716003579,29.8826398457692,56.330147498161246
3.8483361032208396,46.00604155872207,75.20927578804323
6.233348380332265,57.59986335278324,87.00763431610997
8.105917505534215,62.89509233481382,89.76754415735806
8.836865114149356,61.121370985506005,81.89366366457422
7.998401111726924,52.33303370645877,62.582722599837254
5.456886489829357,37.20669980540036,32.8138087066569
1.3981242400581362,16.994544992469557,4.182575252831442
3.7131967872408116,6.313866993214851,43.2847205260817
9.279086025860531,29.81717455717068,78.91165548925485
14.677454225273909,50.00144907720735,106.33518869636141
19.178104688299612,63.637143034122296,122.21333987470955
21.912943559860786,68.74182301228716,125.23998332894783
22.0399959357366,65.15399466071376,116.54768179634854
18.975833063677126,54.47685410914297,99.24686672457392
12.668857175668702,39.36723750026476,77.62809933304267
3.7549720498967187,22.585179785192462,56.026563618293174
6.528840350378865,6.26801784702944,37.47678251495428
16.608764041574695,8.29305896519814,22.683219425260784
24.94267963132551,20.375960668941417,9.66892685257952
30.336392698612343,29.377348281386233,4.6774833966807865
32.10290464888488,34.55473203073469,21.623104428781716
30.077836828723136,35.14084699106145,39.973221501615214
24.545353526814562,30.717751997032266,58.29755226334912
16.163531089005033,21.58716662912006,75.94272332435072
5.914902051658752,8.901672888781338,92.34632149399076
4.951540383657702,5.53594299305694,106.81572054409274
15.037299175057504,19.657638371332304,118.4052621836249
22.99293107275069,31.48991132305435,125.76024779580482
27.74968937327115,39.387096058679084,127.11083746928331
28.72127867149246,42.152054448793685,120.06134538370986
25.906782216673015,39.1237335017822,102.47846393261837
19.848345568654455,30.304880479266828,74.12278531309346
11.488500385435886,16.51512334167181,37.28171023723607
1.9982775574243956,0.5710209066610831,3.662725463198743
7.38125346166061,18.629608029020957,43.89437498272699
15.458612894065894,35.12975254461905,79.85519328151337
21.190556643641855,47.870841326816425,109.31423180906705
23.78663158639169,55.412174232748065,130.95036872658835
22.816844598242938,57.2480559667599,144.22114637434188
18.305457849374992,53.70052925534725,148.37293442582606
10.777607045483588,45.645633349864354,141.65786174349014
1.2311165888006266,34.23267170140538,122.83161660991675
8.978223599082078,20.6786390699987,93.0084245826314
18.322143448458196,6.149549190645339,55.935046273035454
25.313086608670538,8.309375150082994,17.22562483183701
28.71729981850817,21.82513661860852,17.430233500310564
27.757418027882206,33.705264321954715,43.71794364853442
22.293605119776824,43.366148194515745,59.53740916807552
12.932514896510503,50.197661833072864,66.41241475303683
0.9974014247802095,53.46254267419741,68.8295252113424
11.661067188824687,52.34923478475924,71.20104191217503
22.99734724988798,46.2292936920182,75.71187832180455
31.17020202538295,35.051810756398645,81.71163395296794
34.889910715817756,19.680227095398973,87.00854282038216
33.62564281061116,1.9496986280164794,89.70210353701158
27.628729216204338,15.644918180227942,88.26737979270418
17.797859982507095,30.53319238577377,81.48502009759716
5.471594813771232,40.70209372556639,69.03771286413755
7.775741995998314,45.12324583175049,51.03293573057656
20.30420303622885,43.83012018952223,27.11328372296962
30.561066170571042,37.70592931731306,2.864628355724633
37.24849966267572,28.166193982663508,37.368086448375664
39.51449031091328,16.899653321477857,72.75001203969023
37.11804392726891,5.724240371059324,104.14556888194456
30.50106349468216,3.516000261876619,126.82955417121947
20.7255800915287,9.154371140268278,137.32994738781844
9.254150487020075,10.06186223168656,134.72049542342987
2.3659377947758906,6.048241082796234,121.16829374401291
12.797889255426696,1.8841255372508001,100.52134983989117
21.099502613908587,11.612322234322846,76.48285982901794
26.75265323018703,20.379237160444955,51.463069062041086
29.58340005972818,25.54180842242262,26.44601321711809
29.65799356838028,25.294631533379867,2.1838924508143043
27.216664931635705,19.130853248750334,20.11179882731435
22.67152897987654,7.89901384291464,39.144924481724416
16.641953295986838,6.519570849683731,53.589948622504636
9.961067740744202,21.74862848655221,61.99271590690215
3.5931823342359586,35.45998718705052,63.56368768996896
1.5387220284795453,45.7641143304177,59.3976444375413
4.7607983589873815,51.40931495776693,52.1622900330083
5.805788459824468,51.82539425943617,44.70576223814289
4.85735305056757,47.078191052670114,39.43179156550253
2.4832113292545603,37.80014404804611,38.03356845283483
0.5225494916762807,25.128729728747672,41.127187635602226
3.329687635329776,10.638451137667566,48.489702766082445
5.2215631756599326,3.769094802108549,59.724911223812605
5.684291754661621,16.04836464372653,73.4853660143244
4.430877685582017,24.30612372583728,86.21503534251728
1.398206022752114,27.183188118918494,93.38311072924596
3.245075662002329,24.20206733379625,91.26425538895884
9.09118037608045,15.977147298404589,77.55841838162341
15.490956128508,4.1944106627392586,51.79937296985938
21.58866083324322,8.714459251293166,15.234924960286339
26.415421494600235,20.127424882436223,29.17064415706966
29.036079427628323,27.816777741578083,76.94743810031949
28.732527704411932,30.372651852106408,122.67401796059679
25.162932523825223,27.345899797616056,160.00357484457646
18.463721378852547,19.12164390646476,182.61957899865226
9.27170690214612,6.657971515061832,185.91292423288021
1.3557895472548172,8.742252621411915,168.46104370417686
12.099588859852759,25.53700246177798,132.9637161821629
21.58032158109972,41.954388977564165,85.37388651812842
28.563255516800897,56.00255832461553,33.02446945054018
32.13813425818659,65.63264111082879,16.77480684106584
31.84298114878269,69.11772602015606,57.65556615888176
27.71399629385571,65.5190167292496,85.29127657455594
20.27669622211237,55.04211524985203,98.09998930709727
10.475138934097155,39.095432442653454,96.69346669577506
0.4388643840407996,19.966042358286156,83.23009605305607
11.037384439626406,0.22536093518162445,60.98206843678253
19.88922655608175,17.89433383931906,33.99226721460868
25.747781667221393,32.89236908282658,6.881044832725198
27.737488709793602,44.01870357898085,15.681575434101655
25.52582053601251,50.99331878901865,29.264922560381258
19.422695812576062,53.653701822441946,30.699414339044115
10.378927161421206,51.782343833770476,19.83128929297092
0.14968751454316578,45.2436979870134,0.6021198388036976
10.473363393665085,34.3431500562598,26.292689827109637
18.98989244769335,20.1701433266167,52.52043220374481
24.471111841251766,4.675811180010608,74.99100204712045
26.243626624914977,9.65166497630203,89.93776256610916
24.223134795431093,20.435329454575008,94.44579437661173
18.82939818103497,26.08194858186592,86.99318039940955
10.855701464715345,26.151470820040736,67.73192980265374
1.3563030827072036,21.28441007752549,38.76118425758326
8.430928667154026,12.773372241557409,4.099710796591246
17.15255939639147,2.0585820765960374,30.86577320461859
23.46337647294299,9.538776155684705,60.669474005870406
26.24977708051806,20.74185532855062,81.22626685535884
24.900666606661083,30.066738428583726,90.6289449455403
19.524338215033804,35.70477620634473,89.15686331047858
11.004718401414264,35.78405687882167,78.86896043115388
0.8249107004565731,29.011806971445587,63.09916176838843
9.292584122719402,15.419744803541802,45.2122013635707
17.79196937680398,3.223618873169307,27.5817081710604
23.575827247619277,23.656080159433138,12.155159102824495
26.08958155571514,41.98807637249946,0.9057371016619675
25.353711851997396,55.26996920097554,4.965019174756581
21.81866429287376,62.2222351409087,5.856679974122562
16.129664417489273,62.88514258474106,3.647757588610081
9.064078814548827,58.299439392592184,0.7303819634009341
1.5043785885648364,49.96505010773489,0.7910111771284263
5.605245691602913,39.35597910773891,0.4353527774913077
11.360733574590625,27.697623977238297,4.656465777710032
15.061162838312095,16.018902518107506,10.994581453714128
5.65130421453299,11.553728023069862,11.688219351748273
4.215198405262737,9.285926909615629,9.40966216016838
1.6016536294943817,3.787019815915352,4.505273008533166
2.056943559251374,4.903649062585071,3.137041262544886
6.479408968868689,15.891241983210513,12.367174334484844
11.23665475172673,27.598404770416526,20.91875207185294
15.74717896516121,38.13960788552639,26.854120338041096
19.295351246787035,45.691332705335746,29.399283185185208
21.11486194357635,48.75783030423259,28.476617799674795
20.53322332950682,46.26781307666775,24.220693480538877
17.14783554010506,37.623178345359044,17.667239687985898
10.991120524694624,22.873760000065914,11.66941794019363
2.639243777279234,2.9919360612762205,9.68860480328367
6.848779846704651,20.1057302048681,13.36438363767198
16.172004187711583,43.794925799833116,21.72430709169406
24.038111065336867,64.9442298832306,31.74554923786056
29.384553374656278,80.401510942493,39.08187073969318
31.547681392557227,87.75472546128985,39.37881989968326
30.303884875109205,85.84369961850061,29.79897081490802
25.849532541495115,74.926342401205,9.68192503847492
18.75811552976437,56.444877809024646,19.57648855246128
9.90562718923949,32.5451062769676,54.89731264540576
0.37010856437233886,5.699706074051454,91.71581432171965
8.714466926249765,21.465009057411088,124.2014447827738
16.324350904451148,46.17358916003791,146.5051302855931
21.685959696007924,65.60776577499196,154.5096255148897
24.34499406446685,77.30399738643447,146.38911930647137
24.15910947352266,79.74679752414266,122.03532087209862
21.258488759424914,72.92664581532138,82.86140616391577
16.01853668245543,58.484334526921764,32.917770531295496
9.07322037205089,39.27166101856528,20.375188141701038
1.329983464587139,18.526204409695467,68.29948315225575
6.078160712987364,0.9552028762801763,104.09609423836035
11.946510946349655,17.254531706085356,124.48916876533607
15.256856525447933,29.251083561906338,129.5642175872455
15.447296546626053,36.22911113230928,121.97568691148552
12.576187190688529,37.57355480136768,105.48548804065284
7.303564968803573,32.86902166585234,83.43239982174232
0.6917266390449153,22.369419019496778,58.673687213329565
6.072983222848232,7.478333051919975,34.91708691663788
11.903064044452389,9.162071477955394,17.184820692820708
15.917996933271425,24.181376396765017,9.801326906885627
17.46776926769063,34.4571061626384,14.218669778286985
16.133503935125827,38.07557475389742,28.628538337132603
11.782381438128956,34.79859368498563,48.034111659589364
4.697477085825237,25.870553578524778,65.81500428575941
4.304471636389484,13.338848150551637,76.04749275283127
13.880628679973016,0.6936488511569381,74.19575419778319
22.36860260827365,14.487890122399607,58.11008837674619
28.16086584716518,26.650469307049924,29.01874970623663
30.109215154112434,35.904405298324995,9.072622902785449
27.806639486487214,40.99562163173024,50.87521777615874
21.63972607900717,40.90821499679674,91.41479444956705
12.615831355169023,35.316011333544104,126.51069135428008
2.069474177999075,24.992194854741555,152.75997282321723
8.627455324417806,11.852294589109826,167.3546794200667
18.253725941323385,1.4749804770805557,167.72272489537372
25.812472028927015,12.36542119799175,152.58349312551715
30.553091126476943,18.86735092539872,123.6591436283962
32.005175417215845,20.054227529281395,86.2101417099674
30.041194795804095,16.011893406056544,47.24653692978789
24.92945163788598,7.600619946694717,12.480374347690375
17.335681214195446,3.7836863584529175,15.301044826443439
8.250563737392074,16.34322668639041,36.29945915036244
1.1580255436547295,27.987266696638653,52.18819200531254
9.725289798888793,36.5442560624541,64.41358450284592
16.45046534472978,40.13917116940251,74.46773019452442
20.614563925779905,37.643951124498024,83.83826173649449
21.85841800488872,28.982851154709483,92.7004957135091
20.221452621987698,15.123228085634052,99.62853619815195
16.127579816770325,2.236127026676266,102.82846622983594
10.323280539429499,21.08558999332807,101.16620907966463
3.7624955687666,39.405292993385586,93.88196304122
2.55838065885902,55.24626736949541,80.75518514357162
7.756645315916295,66.68633880867027,62.6765032051783
11.16759056565095,71.89225285143058,41.16541802140378
12.391114497007306,69.45353169102833,18.023362382669923
11.295447630172745,58.91979947052727,4.791483782605422
8.012263178270366,41.26722762564245,25.62475715904338
2.9387596690099635,18.97541314918179,43.39655870152325
3.2588172350113918,4.434418479949615,57.52956948559956
9.673757963579757,25.259546456368025,67.49284265251009
15.267534581660374,40.5151160887648,72.80080293871575
19.055503547809288,48.519698710613476,73.43270600383163
20.310345826667184,49.0191737090848,69.71467323445405
18.71069148002111,42.947081905136486,62.6797234251919
14.384842776903396,32.06569173501942,54.282990768064806
7.841111570939942,18.679293975716465,45.96410111712921
0.16691406759045424,5.424016021573507,37.99541910428336
8.752601054851052,5.011246033624062,30.447535811250088
16.951943732856122,10.350590609325598,23.437471197981456
23.764481310238306,9.326816808801372,16.663295315628968
28.22314397911608,2.172068908455734,9.403979368225462
29.52114317936487,9.29078759924364,1.0620586796359552
27.19454021340605,22.084028404465553,8.622519606369067
21.296410331039738,32.89573841923442,19.94720410039433
12.472225624001078,38.95300515185158,33.00328015846995
1.8874532442746916,38.60466243190298,47.045757631206094
8.976079285580623,31.480001629520352,60.52859912983572
18.583587190837047,18.320356574613516,71.08522542714067
25.596228680174228,0.6797992617837684,75.69655495912838
29.064906820434878,19.331856184709075,72.01613694250578
28.535109631525476,39.24988595390249,59.2946682679521
24.078057055944605,56.52291839011685,38.34595304031148
16.29487192591279,68.91848244225446,11.96940431518654
6.275552479132751,74.98349513653963,15.75501245388324
4.513355460823047,74.34816780479262,41.70944603434504
14.41512723359306,67.67858226244238,63.603089935973195
21.849401371805214,56.26486502079571,78.41218672529926
25.611962961457557,41.44709390309631,83.10582865662974
25.109766204208313,24.213302698948333,75.98850722099834
20.46221171254401,5.192172154961206,57.32632636862863
12.465048165280091,15.000744965343003,29.652555652776083
2.440384188136069,35.32897036152414,2.546011055618266
8.005171877568865,54.16396105341337,33.33526495104048
17.26300925253447,69.53767540517347,56.74614784851374
23.978298807028587,79.68065768904985,68.85949375099715
27.23831382927021,83.53047231231548,68.92839003669596
26.678239102621372,80.9344256964995,59.31616336683685
22.494216472475323,72.50243257788269,44.198039597168226
15.352486838085051,59.28958493079188,27.659496376501252
6.235035417378651,42.567362432609734,12.378470568881882
3.717651530110966,23.817675734721085,0.5346080043086685
13.347408761399596,4.853409801615746,10.915111538819174
21.57615758290329,12.188178566990395,18.73865619149344
27.466434187790238,25.190655417886525,23.52200677906853
30.288009053869736,32.682596886663696,25.027461596923622
29.6010408079614,34.43108114226985,23.967848965252013
25.358282114836076,31.637625044717566,21.49941525914189
17.993396566096003,26.534870614148584,18.919434465789003
8.433570734871186,21.545555196637032,16.933567958967863
1.998253213662717,18.418548155737597,15.11458134228228
11.80151654910391,17.752851717297336,12.749620432888278
19.572845096958364,19.10972725543799,9.268466021202856
24.240608876584854,21.550391010584036,4.588979747665099
25.22108759278893,24.218249218152884,0.47218008388024396
22.48398049654632,26.6382382549558,4.803814755185733
16.53294762636203,28.63076049590469,7.334323878368396
8.322605480642771,30.00980248782683,7.1720319914828545
0.8755861601139124,30.35134765375518,4.324307995680429
9.638968040907848,29.034115571081102,0.16065578548703888
16.576601534185567,25.526044452539107,3.1386552669133017
20.70041515555856,19.94520633143115,4.188689851509006
21.58927361823708,13.20195738058855,2.800055223260672
19.309115399116102,6.553149635472399,0.8890920901449627
14.424323189912325,1.1394983232032743,6.603085552688893
7.905647273020922,2.4362306533678404,13.587826049321126
0.9378861036687893,4.266334417095794,20.688446062561994
5.330127888318775,4.952077170560853,26.916431762325693
10.014638804011705,5.209056369960532,31.240599055870295
7.743451052390508,10.241440189113474,13.137770982702362
7.403925487857169,6.644437715901929,19.324850783421127
5.51135815645227,0.15048846223707307,23.456789514686243
1.924097668694989,8.631471072642384,24.798965344656587
3.1572994859238976,18.513804890380456,22.994720840645755
9.182056864396838,27.96138223074541,17.95133302779284
15.328763453086358,35.3570698830271,9.508866147449023
20.638517725419266,39.22810708312232,1.943076436223694
24.180399486775702,38.41793620116798,15.067290190492661
25.213670074455532,32.22410055223787,27.92978913218709
23.314720072385132,20.535650513473026,38.67079801748873
18.471500755587147,3.979829829475262,45.88069716484766
11.144029555088391,15.930058504318502,48.378221615993205
2.209512638613434,36.792377244617356,45.770164469739875
7.20306634338115,55.62546548225637,39.06998791480736
15.875018919687848,69.38309222395607,30.19639462367354
22.67954486789137,75.53106103220361,21.42746764431318
26.781123864603213,72.58465733159206,14.631394619196708
27.763627101005653,60.43011353618888,10.051436305461193
25.682574171673288,40.3498192209593,6.32042324254375
21.030496999641706,14.770171826189348,2.1358306230088875
14.628247710521853,13.190741168473446,2.827916430334821
7.4834621447742045,40.224516888020005,8.469859812952551
0.6369737579627494,63.279763514253915,14.433061677862531
4.970043914503062,79.89710344206384,20.628230459678694
8.613928839384872,88.40879732022525,27.736998063436292
9.88290953054725,88.02995021107006,36.43240875265919
8.730734217658219,78.86756130403191,47.10104578531272
5.489214518990014,61.869598534454305,59.661208347108676
0.8263493202203179,38.73371280838134,73.12658206696084
4.3459102298318975,11.791800681214625,85.69102463093988
9.012248998257407,16.152830198989232,94.67964771520012
12.213529575467817,42.077660721032814,97.32712907112195
13.191784958755143,63.08349874925536,91.90712455576164
11.516810512070442,76.80182449842484,77.65469804453265
7.166292415362999,81.77889857223248,54.533316110275436
0.5526826241848704,77.72534783872426,23.50127447535108
7.508032373626323,65.57095781297384,13.359564619862175
15.902377162403306,47.289979990395715,53.05748705788281
23.3748998219459,25.536840088171353,91.9109992649406
28.71847181500166,3.21226329395063,125.80657248883168
30.9789481635934,16.93210626280237,150.53863451725076
29.626796721567903,32.59086556385511,162.31586777403905
24.65698937301351,42.107753323719464,159.0822519933354
16.594357316669107,44.62013740375081,141.2909626559404
6.4138040205212405,40.165577127071295,111.2630564149611
4.611102880023039,29.752980654958296,73.36202294941181
15.099359434859103,15.344814414414273,33.879029322736265
23.74909611931015,0.3366842785046311,1.0880070997271545
29.504798505051056,14.215416377895753,27.173248884183714
31.682549142171798,23.44281859963332,42.5435637764761
30.043214052456218,26.02324156986035,48.471853679984356
24.81548661713896,21.294906687757642,48.22521202449363
16.65349070563315,10.123630547623288,45.60359211674998
6.539148600884771,5.256159143179155,43.949267606265686
4.349072135755044,21.73234999241065,45.35230449592785
14.772208490411003,36.004661603886376,51.115969430565656
23.541591889758994,45.2645291242291,62.17334061904622
29.61567870747475,47.686281605950974,78.0308137349722
32.19712428923163,42.645807688456394,95.99839142979015
30.831108440191585,30.69023240022053,111.56325984627514
25.504430262693266,13.342102419422407,119.54300702621765
16.72317149676295,7.170658312879475,116.08141679926375
5.519521452644815,28.173048778984136,99.69431611598989
6.656029918309338,46.7801168975385,70.4212838524956
18.142244636223605,60.181262305474654,29.768335145430665
27.336963843705554,66.01654243235193,18.16265960779474
32.97982402939132,62.820735003118195,67.07472550346408
34.35824899239509,50.43222651307078,110.05899769678864
31.389555545499846,30.201859940905074,141.23232318628496
24.593093138950906,4.860116494666318,157.66081485668374
14.979547447448134,21.976868303634166,159.52338234794405
3.9041159506604544,46.55415866892976,148.35692470546542
7.08706951757917,65.75352237951202,126.414763739106
16.438341047986984,77.61834855960713,96.7963862894435
22.80917688804643,81.46243434576212,63.15864152757381
25.321538491274147,77.58866827394797,29.841502048447033
23.7786106205173,66.80852891909404,1.1088388733129113
18.760101732819564,50.02936817604605,21.21945031264231
11.518795316770676,28.129739083826042,38.92097633366932
3.688630986986205,2.1808599411197793,55.50942734171856
3.1240415240712474,26.15928681571618,73.02509774781217
7.731163364465181,54.379371570662734,90.78969049339233
9.587621753258457,79.2227527745598,106.72135814281948
8.808933143706025,97.22774011851176,118.50934103183555
6.016916647560656,105.52126406300201,123.65557210020044
2.0851813013733262,102.55489289768119,119.67748866179859
2.09124540518048,88.4923070572069,104.83138510807055
5.728605424402337,65.13124257869465,78.82534623790401
8.203713965575167,35.47744381594787,43.642138764225514
9.067454080495196,3.1878602664065525,3.4608414060555415
8.072245590960245,27.92769781922432,37.207905477304685
5.221629178947159,54.25668528627555,74.56943186791966
0.8073832114609293,72.66926338833943,105.14793458450379
4.613857707862396,80.88692715549422,126.16393978312796
10.325106690838222,77.95247171050951,135.3900670783116
15.592115107617875,64.65365067534839,130.23728854315908
19.77985470984707,43.650546047535755,109.03266471947272
22.40957550954632,19.084420991497236,73.28541232196186
23.151077913691626,4.342311114107924,27.783891630260463
21.77866949743348,22.534095667158947,20.880392392725625
18.165161360010384,32.979451747543834,65.69251831003962
12.344582661626086,35.172724586217036,100.61743979759444
4.602888260903537,30.364615899527063,121.88507516334973
4.441451096349683,20.833867681186895,128.03379450186148
13.831522083192112,9.064924845180139,119.17113657277861
22.387705058704114,2.8137331837522934,96.64187271676848
28.905601855776474,13.200650264443102,63.075542559155025
32.38738493563574,20.929354614124804,22.183490325640214
32.2380947155748,25.14251536161046,21.61675073469637
28.37073619226828,25.303493394003155,63.11156615793234
21.234948925416333,21.35840590033377,96.66581950380595
11.765980266221094,13.900095180625613,117.56874866753917
1.2591400968896744,4.154449489055913,123.03414995893532
8.800322809354418,6.276669312197502,112.72030832009547
16.960633933128197,15.804964337878564,89.36085195045045
22.054185290964735,23.177050654109376,58.61266824281147
23.405389712213694,27.594031869347162,27.06505505548168
20.953785619031148,28.62345129931376,0.08499664154975486
15.259231478510554,26.03806995373969,19.188666772879618
7.374954724996144,19.78040786168147,30.48727598582154
1.3624382989585289,10.119543144781058,35.75232964390596
9.563199711218736,2.106385661087684,37.73399793319543
16.00166890810733,15.341610348189922,39.3282147343354
19.777814117287928,27.41982405744854,42.521922848632656
20.403255250188398,35.955919161912455,47.651249075322255
17.839892258218555,38.90232864710652,53.69209071010938
12.48400327047422,35.07331237000083,58.57553028662558
5.0884881814282545,24.46657925185123,59.69969622974197
3.35325836823935,8.323338107638216,54.779762186608245
11.759182398110466,11.038724904444821,42.84203926034695
19.107687767402396,30.545420315744263,24.482465330340993
24.539101309458296,46.800543345228306,1.0691713160596037
27.41374741468314,56.63060665867797,25.442742577742607
27.337041107207472,57.69447079394544,51.76745041961628
24.18569496963182,49.050268160486084,73.32977311970018
18.15490939732076,31.50554589732122,85.39094403550415
9.797149405224467,7.590161095147203,83.8549185400532
0.023777223531545637,18.883300762340458,66.25643107406283
9.970799293028517,43.574461304772974,33.75157546143333
18.878703563527974,62.475216081873285,8.119486719828771
25.4946847284665,72.62333887977289,51.00642964331697
29.138011357322615,72.75017159045345,87.1667455150927
29.729697143055613,63.3086974418356,111.54895932066287
27.527192850425262,46.05196024713336,121.7923302105386
23.048169769204595,23.764434465698166,117.98243402279667
16.983541716832168,0.1529357580410742,102.13443582630187
10.12215555393723,22.2023312315818,77.77240424561762
3.2856509954509625,39.36670199424328,49.01909705422079
2.7422445206775357,49.65178584773133,19.664729958231803
5.597371237892981,15.4815092796067,18.01373023838136
3.525537052687607,12.760630909247666,16.2071830004362
0.23570434668762588,6.42091374233314,12.60540582586146
3.9787461666446404,3.58207543142845,7.14892068486932
8.661366746393085,16.426682404711446,0.3005731048045115
13.270210802279873,30.39512692925785,10.180280240386287
17.237531596469037,43.132321012921004,23.07018983744987
19.99216860821149,52.14499598456211,38.60438539636179
20.99056204472598,55.41964400247546,54.60679640270148
19.77061360897852,51.89399753146194,67.6164701026516
16.055955842864012,41.64197305225461,74.10017140874044
9.92059787000808,25.812011750791477,71.4820122180495
1.9465717811942649,6.4194026203470935,59.10701240057707
6.8600330653761254,14.140961285031633,38.71045108885137
15.365969243159944,33.61143718959733,13.949027417106008
22.494864225877162,49.93117284242207,10.786738183312975
27.375848469650514,61.261124729405694,32.149147843097644
29.497548163806457,66.22060374632235,48.63347800014784
28.69921558390964,64.11792765397549,59.57105697396465
25.11417993733921,55.26132697779686,64.47710442935612
19.119845169127238,41.098254640851664,63.40555856647148
11.305628582446058,23.99177450974605,57.101647950081116
2.4947860169447256,6.721053643285401,46.965496860565395
6.272432170383114,8.20440743050746,34.93796484588284
13.828947215416738,19.06755581877247,23.2106964589886
19.070987034785475,25.119997963719317,14.031803163542756
21.21458465242478,26.420615548982468,9.006911716987833
19.999522973103865,23.472941721802034,7.997300608000195
15.760597626930085,16.9702616843935,9.163053225857967
9.329456917989189,7.77788078161163,10.246293046628667
1.8273506942138988,2.899359711000794,9.922058991495625
5.559120745173375,13.37777295065879,7.934424993550118
11.749580655370275,21.60762213163086,4.572526580326163
15.860891149392895,25.57998472342697,0.8271082479568199
