0.3938227508828991,11.005255889880187,3.9787742616675303
2.6558680323777213,4.271834724279825,3.9497004466975363
5.752416145683679,4.891112035874265,3.3898623281095928
8.009907307207683,15.822161688841998,2.245176431910018
8.819974029389588,27.44442870375352,0.5646088588416479
8.044224996050994,38.24869847270529,1.520683817077012
5.975873767924298,46.47173025946103,3.8552650807882887
3.1305917760572264,50.413559628957344,6.245999421845305
0.012490899670748307,48.893067993900864,8.411006850875333
3.1566130875878655,41.582874602826976,9.995791411314649
6.175274923605509,29.13858450429733,10.684990571203878
8.975619870605035,13.243336764344035,10.308805151950539
11.30798030261489,3.472686473393004,8.908153201616654
12.617945231421222,18.297003891802156,6.747394229919431
12.286775030804876,29.646400294216402,4.167827868915454
10.226561288986222,37.170068510046626,1.4815441979690043
7.094646881575075,41.333346105985605,0.9819824144477348
4.013307715206247,43.12361617395251,2.9042102524694946
2.0891401865998005,43.54858599719985,4.058585831335257
1.8340947608166358,43.405700992701206,4.394243217829405
2.868998617701897,43.20032827092119,4.081310930973448
4.0479996021808144,43.024552168189906,3.4103963645506297
3.8934303676706046,42.5639609112861,2.6859613320279405
1.1987197237955318,41.05093495893363,2.164180689456295
4.535339118884305,37.39386175499449,2.01206211448102
12.957366931940362,30.50648507647227,2.331788472792485
22.99771602138943,19.71998890764091,3.1417743560335087
33.15927759149917,5.235786027298388,4.319044589321224
41.77905906344722,11.66834832294757,5.63331140070739
47.23859549919098,28.75076036141579,6.842079944306435
48.14343397910446,43.26330391450293,7.729855916787132
43.53692943218897,52.661572414361096,8.121145038439574
33.171714308505244,55.305136230853755,7.944279792086024
17.728534709908963,50.960313299381745,7.229372459848067
1.1455580963548255,40.92510053765015,6.055195073595421
21.08020293892558,27.756619587165023,4.541142692740537
39.472943695534255,14.693040861875058,2.793311538983278
54.05897370880827,4.914257367552366,0.9067107052241138
63.351210201638104,0.8346039605018198,0.9639622796046016
66.80368121927066,3.564360019824029,2.6664483815968016
64.7132892608265,12.655453204850197,4.104312648685841
57.979286907659045,26.151040537457323,5.186828268555062
47.866293373199234,40.90945336219889,5.8263634277020255
35.84333496504452,53.17820527671759,5.985539486474228
23.43570169807009,59.32143660092253,5.71012897795208
12.02735794963169,56.58845896802317,5.0961820223848555
2.6034457266793045,43.76758631912174,4.239639483817382
4.496890666329934,21.539344614344905,3.2515130796644365
9.633761783579237,7.591564731894242,2.267347501306343
13.630448872153334,39.80244795189573,1.43876226811231
17.35015568376655,70.74838845372363,0.9125837698804884
21.304840643239224,96.38218610229455,0.7709399425585938
25.53095081907067,113.54181813574611,1.0207168420584098
29.807324598952277,120.19326764690686,1.6127362080894314
34.04550064384298,115.3959780322586,2.4397014596023605
38.54585822477071,99.16875154283045,3.3398472564570865
43.868054522611644,72.45430170527762,4.116067632524209
50.31364844343208,37.22083633657754,4.624311306982217
57.310371700466405,3.434790194465407,4.809264009197676
63.117229414824,45.38828708542776,4.638143609041937
65.1410847678888,83.9509296849466,4.130275960297529
60.803426412973906,114.61833168243258,3.3822800858760114
48.56729066560547,133.84436510121355,2.457279997777349
28.64016343638064,139.56331744211752,1.3204595019437464
3.030351671037113,131.29900622238424,0.0721816659072928
25.02178643944329,109.94256867282651,1.6564236222262962
51.90570704023181,77.45692775033211,3.250307776415159
74.37538723060034,36.732904031898684,4.628817474768265
89.91368805984015,8.386183300802756,5.6353089349152965
96.78990317207055,53.13303696094013,6.232920963224123
94.06613750307406,92.18935257959015,6.439278610202432
81.76521693954118,120.53184013092032,6.295897726614567
61.17191617194909,134.57091068188362,5.857600598289603
35.00989147854964,133.1341761096524,5.173400345995189
7.212914585941864,117.8171561530636,4.336095339654243
17.807473418775544,92.49704251469818,3.484885812471158
36.191113851279106,62.2142176339538,2.769840314446649
45.54110567625189,31.882140151299335,2.3324448913893856
45.356757905701784,5.313326888095797,2.2444885421148073
36.87967794771471,15.17041132387046,2.4453389313407032
22.565635487234925,28.649826595063175,2.723494137165038
5.540349985620177,35.33499877376097,2.817303765732809
10.749959657912733,36.33658062481868,2.568344852307193
22.765140284093693,33.531985870476525,1.9708153622505211
27.218604956714774,29.387446932208903,1.1388562818197276
21.708842625191497,26.57281849765475,0.20254833735501016
5.555039907244199,27.372954877747638,0.7939354859042598
19.52317007052913,33.10320939153822,1.8886459808128693
49.341537424181965,43.790264812833776,3.1176775550944966
78.0275687895259,58.248897464546225,4.431399156862333
99.44641323674637,74.46699736889076,5.724633439250232
108.72080835589828,90.03379438563859,6.888174728002238
103.25960402622833,102.38202676916949,7.79329301657233
83.02351482993075,108.83508092193516,8.347097268829142
50.16077935175633,106.67823755104979,8.553517478839803
8.41298836814604,93.52531368639355,8.45317448195688
37.381498918964716,68.01374994805734,8.060921426560823
81.64801656658567,30.573228632874674,7.413811637429935
118.52206066350331,16.12450295752411,6.582420053057297
142.6676430963035,67.37808739824156,5.543729150321074
150.46905013097512,117.31908269839207,4.202695601113027
141.17351789815186,160.0357949803961,2.5577848048560488
117.35589254235225,190.50530816953037,0.7194025959166506
84.28402847502758,205.04631088584966,1.1402177467084829
48.308953626673635,201.35783875068276,2.8753818019198727
14.927358163300337,178.51860045023798,4.451143498809649
12.624007566670372,137.25446181038518,5.892355664727798
33.651749783461085,80.46332623823758,7.20420527430412
49.17704058976249,13.654946461279149,8.315221164418933
60.5618688773724,55.212384561023065,9.13780805375592
68.40282251493218,116.82588185995235,9.697097789792423
72.23605804697817,162.38713529980754,10.047489973928295
71.05806148975542,185.64262882212861,10.15063864516348
64.23262800726657,184.30095967340625,9.923231724255976
52.20433761831049,160.31550231231904,9.276205197384968
36.67708684687447,119.04016764628676,8.105574712169057
20.276293613068976,67.71837995336574,6.367284268094926
5.946799984880263,13.938933334050839,4.175921792311226
3.6137789987195266,35.43774591366068,1.7314290830582804
6.368223398451339,74.79748476292114,0.8056317644492843
1.277728620891657,99.99484888178922,3.2982438394265055
11.366857820874747,108.56431122467315,5.592498799316269
29.692153212778397,100.06749673437548,7.476641084479157
50.263183549954384,76.44975910469265,8.639995731660083
68.57539972826322,42.061240734524105,8.766680353898243
80.02383335828112,3.0901909148328524,7.736033354922895
81.07716536764289,33.59809953973234,5.743991457850805
70.22635165821883,61.94662151879925,3.17713732918273
48.34980065170112,78.03219837779186,0.40771665453235006
18.39327989805981,80.79086166074073,2.186135458346581
15.447395880625965,71.9319948566439,4.161222793078243
48.69990916531521,55.11765649176102,5.128708504561399
77.44510939277396,34.75895752497996,4.863261321669739
98.86809460762203,14.84930980363311,3.3315210733413907
111.56175970322226,1.8314488755091625,0.7125963518573729
115.62745866578065,13.968322603365978,2.615419257552505
112.53474221829316,21.517121485662173,6.1411655569109485
104.68842711149941,25.302677565567066,9.327357753052897
94.71575108164645,26.600344826729067,11.70846936241157
84.63740846778914,26.82418404971508,12.98011540076865
75.24781355499186,27.324418747911785,13.041462921516043
65.99754347041763,29.199903212376878,11.948579737128862
55.80884354883243,33.05399682156283,9.978350139071091
43.753790479445776,38.89912229001643,7.592681758027167
29.36450994864723,46.14747244303747,5.183638560418485
13.138152706005965,53.60744737682597,2.948001858979078
3.444737809381311,59.705240687257664,0.971574657448074
18.381134263231043,62.90125252804588,0.6017106016334375
29.824861729072243,62.164880863947104,1.5824511864596567
36.65240057334065,57.318464992618175,1.9281180593887202
8.149109103978924,7.783698767222141,1.3392565039084674
8.071278451229402,12.66500214154613,0.9503828207597813
7.947122775582522,17.49131318566735,0.5049091050649256
8.01283031259373,20.654166352712178,0.029331538417969
8.202054142273433,20.536646158179344,0.39877598391361846
8.125491055753114,16.01672256778444,0.6633207611190037
7.165472519434869,6.827333866462621,0.7005983215224257
4.60461979265449,6.306779907251657,0.5521958180620293
0.271742789101175,21.794477285566092,0.3339061182411182
8.08359239770412,37.459012322434404,0.1794158107856441
19.189565246697786,50.87802370374796,0.19984787249666744
33.40410439446863,59.73229901036218,0.4623336474829804
49.71129554100635,62.101027160177026,0.9980157393049417
66.07941113909162,56.6484800082735,1.768499408991282
79.47372968186266,42.892597514161245,2.6448009612098535
86.2904895627437,21.69763036192063,3.506356799099747
83.23758228980759,4.423631619644285,4.290753295568764
68.36569233674025,31.499316865684364,4.9410753493920625
41.849278513207274,54.781979999925326,5.425499931613958
6.167585113684706,69.89440115380711,5.7818521642015055
34.37436282757308,74.03061885843658,6.036740818482315
74.54596350267477,66.77011936404989,6.097893718716927
109.16616142180716,50.197554012817115,5.793888273741294
133.85040557664715,28.178129418750892,4.988488632756699
145.44991420675265,5.126476262494065,3.623671621826539
142.308813007558,15.245983580175547,1.7007481322312208
124.48513408440067,30.772431875317928,0.7403528262406173
93.93474663916186,40.95148194322027,3.6066650773631594
54.5107470214181,46.41386933183302,6.71771879307309
11.582787952387603,48.1061991379963,9.787667179565718
28.844204037434388,46.64877723339754,12.43020375303665
61.319940458258685,42.15556888647369,14.20832997853144
82.04320690110461,34.50909143480311,14.717043657470757
89.51081564022728,23.802500485382513,13.703798280796423
84.52015265216525,10.573892531103773,11.207200281445411
69.62398531573054,4.329083380354161,7.551867109747123
48.35455360022258,20.137407020511535,3.235294021045932
24.51137451598978,36.47868990131446,1.1362224645797565
1.6654873558117638,53.312148303374364,4.942513556052092
17.15577319502058,70.43492123799315,7.688177620477419
29.72779594950295,86.82373862572364,9.081326591216369
34.88480923698137,100.2946339997343,9.061339870008931
32.69679340161897,107.86531240190281,7.784285193339086
24.43756819399614,106.76221334261207,5.5705922049795475
12.253031442097807,95.61658083682688,2.8405586438521966
1.4257593981979688,75.24023061832459,0.0459064557082558
14.485556947906042,48.508343599756905,2.4077626542646278
25.51676537026866,19.33162810684105,4.243175000983188
33.89422136681514,8.774158405019728,5.338417235656694
39.56658617942897,33.81474432959981,5.683338675380429
42.741287663418866,55.643641589988015,5.314741262462516
43.694766665774836,75.39807386759165,4.3262108220251925
42.7376722328731,94.42472709002678,2.9093922705950135
40.24456852262911,113.3078377190469,1.2619340013342462
36.64175596205497,131.4297490256736,0.4732882392210551
32.27227368037363,147.14762150700872,2.150118594000823
27.195744135454245,158.33276846167084,3.6190567688320603
21.083790671382722,162.9022008955493,4.7405020425252165
13.32309538647168,159.12564241276363,5.420134438703891
3.3355013777646105,145.705039535567,5.680635781300458
9.02096840940836,121.8213351963786,5.630782163060069
23.211186651619467,87.34503623346293,5.38886198179427
38.07588767002382,43.2096067842266,5.045028213999716
52.129374361262286,8.214675216608953,4.624885494634025
63.9102408894481,62.998074275528865,4.084792409139444
72.13348632326921,115.95633138812005,3.399278862222582
75.57730402048082,161.35781741033728,2.615304469419922
72.8879121284636,193.8592136230283,1.79399436289555
62.560576667051286,209.41739227089735,0.9841437578596511
43.32076138423972,205.97690095650785,0.18842267545024471
14.926265112878228,183.82257886662313,0.6471895897455334
20.939935970252737,145.54878146144566,1.5175058293321715
60.205220075161655,95.68647260595567,2.3475242082795997
96.76960933151366,40.058993286289414,3.074743199306721
123.74453455233116,15.024319818739317,3.6501398245107364
135.1935903413727,63.576403109483394,4.022096459104754
127.71839531787263,100.60250994170704,4.127524716284563
101.2934330198764,122.55162795171547,3.932352952789695
59.10447804118943,127.57054457710525,3.504464208805675
6.5821546525723695,115.63613507412279,2.9698012814801005
49.849705495582064,88.61289792134014,2.3787217210296245
103.80758791419255,50.19222668991268,1.6859993047265658
149.55493581565986,5.588776857254576,0.8258231601301528
182.29485397918432,39.10000453309659,0.24250383085884278
198.4485226474547,77.84130931995762,1.4576706196450786
196.11273880628326,105.68661950332194,2.690774967331241
175.5791629759915,119.53370589242071,3.8658996961225878
139.57360054193614,118.40719064026423,4.862831724888958
92.88826609046356,103.22993715414191,5.46574263293742
41.339189699916496,76.31344633018472,5.525802567206379
9.605501545924106,40.88301676976827,5.018744352115849
55.92116404736649,0.7998011252062359,3.974177296959189
95.37409685543956,39.57098393923964,2.424743987073013
127.05188204424554,75.58201423341141,0.4495974567748489
150.44825041395148,102.85336424231187,1.764561823302984
164.71767690559713,118.12080419592478,3.9763600351549684
168.57966013720946,120.05006739491625,5.92984145988716
160.92476424597382,109.61492796985979,7.33022501017557
141.73923004957663,89.781305799281,7.902710601983454
112.77746747329508,64.56848669604626,7.531323566893716
77.58147532869,37.9360063776447,6.32916349634586
40.81806902062291,12.990084575420424,4.579175117449065
7.235670640968952,8.229415266663366,2.6075543135725763
19.312921283523508,24.45460016622343,0.6864241493914486
36.451364924519865,34.78842174690322,0.959055046050125
43.420143700745655,38.59133356990175,2.1311591265900485
40.94405389634362,35.75377212306369,2.713641375443172
30.989766119126774,27.133484173902083,2.7008312214243086
16.492562934521093,14.754447609036232,2.161201026013314
1.015947228895873,1.4865368105265107,1.193318419566765
11.76302007185008,9.735070456623783,0.06095955208283645
18.704346465112746,16.784536443999134,1.358084938147651
17.80028900188717,18.86539415066412,2.3904929093824228
8.512052530520645,16.428511533276453,2.9311335378244197
8.259404642198355,10.601423852820442,2.886732487012053
30.501629353453602,2.5273006397002735,2.2435174696945825
55.5320923461742,6.993594825536726,1.066021504300164
80.36082276739758,17.395776336926385,0.4865266824482017
101.90876638544917,27.91938179503266,2.2042338493342375
117.1922874324643,37.24874290223816,3.873981275916934
123.62745720029939,43.537958219153616,5.290329945448506
119.49150059934513,44.88606817250828,6.27749969651765
104.41394542443798,40.080665468661586,6.763757002332664
79.66459824934124,29.2438337132821,6.781438775985245
48.0249630834842,14.048594020186153,6.3986375155638076
13.212367708689934,2.612520919383947,5.750968781519525
20.940340803546892,17.36603984459293,5.029876794889645
51.23916689127706,27.203356115723405,4.347357738392161
75.55524067760543,30.152425725219288,3.634245398962332
92.83627337065923,25.59325218370528,2.6513524584191903
102.8171454668542,14.209574916712215,1.152126959243244
105.6615658386663,2.298670666642797,0.9589759361663898
101.74994180802284,21.590788419595548,3.5515734529194622
91.66220568527048,41.012719337614115,6.249581027150213
76.27263438339938,57.831581224088524,8.597468998337677
56.82401547122257,69.43316454972161,10.266076314436003
34.85204409938787,73.57018147483707,11.096559823529843
11.975328762929788,68.70344526996867,11.047458955028949
10.335290391646666,54.3912230168802,10.106997381441818
30.909915885456854,31.590229764182553,8.227706283651969
48.88826256662419,2.693034574117429,5.39546851569718
63.60445182118469,28.794768489316628,1.8330427619751382
74.39414547165373,59.041444223541966,2.0289581830713765
80.51089352448138,84.78047466775249,5.721435441221879
81.31659582074607,103.80697078563287,8.777450857296811
76.62516284839016,115.10223548635611,10.815600871139335
66.9926579254294,118.69423827206069,11.639779893091598
53.785101307609544,115.34868558706134,11.299830373097445
38.972941339472655,106.24478829867611,10.093634839682613
24.70628392787579,92.76506072785834,8.430182306556336
9.09428633294288,1.8233368241016399,1.967659523566077
2.6748781199117637,2.5150694347499525,1.3654824242429884
5.1003580158505395,3.7137946235314963,0.6470706238290057
12.790311508732362,5.4544372996358375,0.11379337497965585
19.07008269363784,7.400217339967187,0.8892214646546314
23.1675531918261,8.707723641445817,1.6265260497164582
25.090513869203317,8.094921381151973,2.2200092776867484
25.502545731102188,4.186143785324985,2.524793971723746
25.367153522598,3.911626762572902,2.4595831074214405
25.456859613668065,16.026977257302914,2.095229638579251
25.967616838785393,30.62601227468488,1.6068070419949465
26.513709204037546,44.98355500951874,1.1767513872671391
26.48453206511156,55.81732434871158,0.9911175770879117
25.115508941963494,60.16864276887204,1.2033126818015982
21.277152576428122,56.08855154346367,1.8109462488272323
13.764246603617892,42.895315322047395,2.6909193439335892
1.6955524712501144,21.181232296630117,3.715276575068303
15.233195517739864,7.335872221405692,4.781586329168831
36.31268849982934,40.01154164114712,5.781529274657331
59.599264071191655,73.35074688799658,6.537044930402736
81.99913280735163,103.11260976506958,6.864460106620291
99.67407367249696,124.68082616465364,6.6336007398513965
108.86298411906164,133.82123465531922,5.718806925851904
106.7734952507727,127.77021048162051,4.078410913445428
92.33051335231956,106.24742774672538,1.8301113156866664
66.48076030035827,71.89774685877622,0.8070202201809775
31.946603617295672,29.85166895936367,3.5725472325357606
7.353319246700352,13.545101585597333,6.2128510059321265
47.035442340667686,52.3411478089117,8.54169651613399
82.84665938732292,82.28835373783238,10.479124196398528
111.04757950305813,101.39924672799357,11.96046263422086
128.6761908538217,109.68936313620189,12.837479995046662
133.7736680857223,108.44405864580763,12.940209412716165
125.66565057923526,99.52351826234765,12.168851179442965
105.20776129410456,85.03824564068724,10.543945588491741
74.82896886499555,67.35682002258753,8.233882937433425
38.24543703850905,49.177191223523394,5.557950256846847
0.15219641033875939,33.339287399637875,2.889114389299348
36.02840141638984,22.229389593731057,0.5097048818239008
65.70928181182325,16.99634230839218,1.3794602369857254
86.51395358775326,16.995268441081564,2.6783421609208
96.83477500229777,19.81505121100533,3.4407599237550612
96.1439811835522,22.001150905694878,3.7150163135873586
85.0834950686239,20.214174969045974,3.492740821413605
65.63299748255625,12.351146213722537,2.886689149529113
41.123205242714874,1.8143643821669204,2.1697470291506415
15.844006900252587,20.694637744635735,1.649790399795281
5.803092091964888,41.54638266039281,1.576739498599899
20.422046959451084,61.40024392380603,2.1199646357057
26.570630812477347,77.86100166471965,3.283351586142827
25.090825270649383,89.4836605343335,4.813888244977215
18.65337587718997,95.68538879846173,6.3190487005798515
10.711323431860327,96.37879139600138,7.469269950838524
4.347033813753395,91.62526693098354,8.09768697959097
1.4884129764419676,81.53580793230839,8.206745907472621
2.710651040590913,66.47948211623364,7.897726953143221
7.5232678265150135,47.46127154564372,7.239789244274183
14.81982491630531,26.35287817821331,6.233393276149646
23.209906423096257,5.708951648713963,4.934062643226848
31.15754309252482,11.885656545322774,3.4362289833662167
37.05591290632365,24.71251489879895,1.7674486342981066
39.450665157526,32.60885481942162,0.016583877579213754
37.475060166192556,37.038941737610315,1.6262072172555355
31.317170596098837,40.41362321736263,3.0319171741946342
22.405893483257277,44.930736117871824,4.123988229212919
13.093780620680414,51.49326130638114,4.847927812963433
5.875795590148575,59.2549236344971,5.229093298840364
2.4489551428300866,66.04592841047372,5.310921629381953
3.0400459870726575,69.42470186683157,5.058158770770261
6.311748084770768,67.77960912474146,4.334768789911175
9.882292418038938,60.90236868426643,3.0143629534685537
11.20719574776619,49.77256896653949,1.171312275619258
8.446423834995773,35.80373953109553,0.8715758363029857
1.0260104977224296,20.055864023842044,2.6048818586804674
10.236101790536102,2.908108075603178,3.4528162032907583
23.392058871525045,15.607716701083422,3.0123962794153627
35.87629643782457,35.112540981555995,1.2437855073282391
45.155532718774964,54.34096989184899,1.5277633348486113
49.39033071295421,71.15893791137198,4.7434672235057
47.96847415402389,83.1829041891924,7.798307181943981
41.769460155130446,88.62551746704001,10.18675954478238
33.00388446045779,86.86278185081126,11.523710657296885
24.600867277571997,78.3910917531898,11.531466656019102
19.309033620719042,64.2345959744237,10.098403501841505
18.795808027657262,45.22989045749808,7.287543628714685
23.08772766600886,21.67089441143181,3.2892984029334897
30.564910864306224,6.43582104662999,1.5507416119477462
38.483623854542216,38.65784339701818,6.7057207021363086
43.81818919796392,73.41169557046834,11.5156574679797
44.09323609202282,107.68331880708001,15.305470727591043
37.94603949364125,137.40507389790324,17.529098999961253
25.366834313802038,158.31646386567974,17.8597052947843
7.673972612329882,166.9227340860587,16.287105352142692
12.708830910218756,161.1623891171253,13.148327329042349
32.63459234036121,140.59118416960837,8.962272341319427
48.79028721726453,106.21559818578302,4.251183208518462
58.41439691865977,60.231144974457806,0.5528475545779106
60.031079424708615,5.858586125030793,5.12893970890256
53.96869725497108,52.692636184315,9.158535235366317
42.4193025164448,110.32253585299745,12.256575977457164
28.904722199664466,161.4110981228233,14.094943264233768
17.296023256046368,200.50625271456923,14.545995242043725
10.739141301813046,223.17501433873636,13.676711578010725
10.838051821065312,226.73834687422092,11.696770958709948
17.356182072089883,210.65773892263738,8.975837700895982
28.476009836843495,176.51117778223988,5.9797468417384465
41.431101727094514,127.67761918998069,3.1450433442593986
53.25790293118783,68.92427328905951,0.8920249755208626
61.42881452225066,6.007430444562568,0.37581375201787415
64.24905167643553,54.74874675321936,0.4421748073773232
61.05684609002375,107.01392381804061,0.5347063223532802
52.2789649215712,145.2258408781744,2.042380611081132
39.334068881295416,165.48871819950497,3.428010417249513
24.35606282546586,166.32949297433487,4.0716659247368225
9.724855894253357,148.99894499078266,3.5456403715519738
2.5274350991128074,117.1687550898268,1.7272729046967563
11.273389363524853,76.14051010979799,1.2984054843364101
16.62105455906844,31.85580368401058,5.304267846199633
19.86566342151626,9.976048876296199,9.86820282894923
23.053052254614634,44.44791255140824,14.444810442762611
28.32578309347534,67.79463766232553,18.508892470835548
37.29469952055577,77.69519694467803,21.554531736688073
50.61610348893794,73.61897536634642,23.073705384577913
67.82534873000445,57.11355869478624,22.688485624099787
87.37061370354893,31.775915693589553,20.228898892315005
106.73802804269587,2.668934340930552,15.736712045770764
122.61372483912307,24.78895084232827,9.55113299190576
131.16622220980042,46.101840824156284,2.3504645074512767
128.59160965837296,58.63868029133572,4.9627556394703305
111.99578030673446,61.89193052249605,11.521050088606588
80.51189472382751,57.04560561357065,16.692403159419474
36.27264241912829,46.18165586048496,20.102362616349964
15.295982377447526,31.598311131743884,21.609100296152086
66.2148726737358,15.527932733010289,21.222703562921012
107.68698980838094,0.1753196446899093,19.075731178756325
132.3415457905121,12.25871733592203,15.53176476892949
136.2092717041774,19.86902608690785,11.179984789570195
119.70480085428132,21.64932715260585,6.670629806109579
87.26876910451753,18.071380008068154,2.584923473923747
45.88801718233038,11.174566998772743,0.6209991614617651
3.166158044280188,3.935081507620574,2.6804221970733053
34.31687620880227,0.847945990393977,3.5825024579372404
61.662141535255316,1.5838868293523218,3.4864884497067963
75.75422257546128,1.8257419513623598,2.657906115458026
75.51166846891545,8.28498708355188,1.476508954724822
62.06434168210829,16.031545076600853,0.35970130483392965
38.67144992854909,23.34845896348615,0.3479237032796204
10.268870479070408,29.085840804235193,0.483068458197317
17.416498735492727,32.77576159810718,0.09698741533750165
39.107601429402166,34.38697273981945,0.5910661901798234
23.55474013560553,7.022140088786909,3.315809837160867
22.26499618958294,12.411399872471359,3.3224472797881517
17.336306843015862,16.10759899467019,2.939724301147275
8.1295877527091,17.36536994434519,2.1319017480861437
5.342183629967963,16.22780358001301,0.9083612235163897
22.169490771415973,13.24183286208758,0.687830008328515
40.57634181874111,9.005491731659749,2.546639935010066
58.17171734132582,3.834098413678328,4.434738682405095
72.34640559492576,2.231584158918337,6.042273451670931
80.6587754864477,9.17653069696166,7.092088062141705
81.16533502322865,16.715705962606425,7.41111551548472
72.82147925654404,24.080752021423784,6.931505839083666
55.97141678883213,30.007232113318416,5.674747116641577
32.3848458132828,33.240661435130306,3.812976070405483
4.723999280266371,33.3336189334613,1.6930723807268868
23.814344290125007,30.80170445426243,0.282879955987271
49.78766727546997,26.611133875198654,1.762771944231513
70.0622009173057,21.511625695701376,2.5193396068878577
82.32693849359941,15.510321879125902,2.4879016948557755
85.52929508586425,7.959322642393941,1.6902594507051565
80.04915231203267,1.7993756209168774,0.2710495159349227
67.4655999124938,13.717121230397982,1.3802771669126281
50.11247513318518,26.67285375673678,2.7584122755278337
30.531918580408902,38.76420188390244,3.4586565167836025
11.052414197112759,48.04070156501048,3.199383796503607
6.441106276932826,53.23859990492022,1.8554411148738679
20.61680769693605,54.1167368285149,0.41884544061189566
30.678115185735184,51.23661906841918,3.2293079187286056
36.27314270595053,45.464728079060386,6.080668732547326
37.32033683882291,37.53973579061594,8.499904524555108
33.80332949907559,27.948319970475005,10.209866533318376
25.662259059353612,17.11402871137326,11.129981384838143
12.872502346272526,5.612090345734067,11.20852803443986
4.22999336225628,5.862001969440717,10.421641955693941
24.523670009289287,16.801237008719923,8.848241241105324
45.86914691670709,27.228735527025375,6.670333471273769
65.2977827584517,37.73500635653607,4.141191413194846
79.65287902608196,49.04527623371109,1.5061450431122658
86.43708408909578,61.275099671118156,1.0534166584184315
84.46999783138018,73.29903355361326,3.4490189911093374
74.05087712129983,82.66503459385794,5.716244668056737
56.599539688997254,86.21137234492119,7.916181954057234
34.03592167798022,81.14165965301918,9.978760079001896
8.264334305198952,66.0533374526807,11.72112610165364
18.98524961018639,41.437955927886804,12.913719402982734
45.9957215684961,9.475813815020592,13.275349779803522
70.8807891229085,26.63819792375036,12.57417186002282
91.67268088852286,63.385634313806506,10.725990404517066
106.74006780019413,97.29258318658353,7.840218260223544
115.32601326361834,124.94923727267198,4.324521387539187
117.83161953911335,142.94556996070543,0.7541934734919101
115.58234973632436,148.09040217293972,2.429572407324183
110.13567081918269,138.0748556484794,5.001040942029216
102.49829139038549,112.35871120926548,6.934320329522531
92.71329820536559,72.8218660135911,8.378221330187948
80.05869431290522,23.73541863146833,9.56341391309381
63.75316642620519,29.06891104365188,10.703968806070112
43.76806476642766,79.4943959427243,11.844614377383238
21.26500331472741,122.37401562440216,12.796889371355121
1.5957994120383523,154.09527519977397,13.293590596354433
22.386161608372166,172.5470288392685,13.114860219587367
39.299195405258665,176.65914923929844,12.081805155338847
51.758160211027786,166.00263789638188,10.045782423334352
60.49033523941524,140.81806251798005,6.900624589212952
67.06522719401872,102.44802971361726,2.608477109405628
73.15663246297028,53.81620978671724,2.7056741296731905
79.8879678932796,0.4766915602480008,8.686288023391128
87.49239399752324,54.66747989049489,14.787579997664746
95.34577688000539,102.81732370300249,20.29169336273608
102.25430373697348,139.87922760525188,24.35721170834287
106.77817818014623,162.438399467588,26.210998607538613
107.45972150109354,168.96342840923666,25.378075327875152
102.95773597299377,159.66973699457233,21.80641448830045
92.16135791977081,136.2019056127007,15.86318996604037
74.37869695970053,101.3555292161434,8.292501075639095
49.64377387306513,58.86938890391035,0.08992189074092176
19.068345604878893,13.136050631530328,7.7418394187390644
14.938822608211646,31.25119421480839,14.372901670763321
48.78204311203808,70.06071874358972,19.206843600735233
78.20132424452036,99.92226258729424,21.892797189613123
99.09933130464886,118.58457985604355,22.303549960815026
108.44255545390283,124.90295184996117,20.528457864191207
104.96338295106165,118.69132847569551,16.886930797232086
89.43617456484115,100.64803317898601,11.907270894098
64.47390014268488,72.44924536392234,6.2359959862536725
33.96578960585719,36.88852838603526,0.5538139296863623
2.3563894993699726,2.175262357125496,4.441006588153433
26.05146320334615,40.23773437204717,8.140172910231982
47.67695101789686,72.88702544468495,10.22475480800346
60.09897991120092,96.58442831631237,10.719753250120352
62.332550593965095,109.13567042832723,9.867505499469956
54.92414988644042,109.70701252718814,8.027993956007498
39.82268491712351,98.5748155044852,5.649150510519269
19.981256996018196,76.92066033195641,3.1513493253711498
1.2509768224671483,46.89769332213378,0.841132823310965
20.791875495431388,11.904069703348117,1.0812199962143927
36.37414276340896,23.33502050965894,2.550838854702496
46.83549997914599,53.29296541531034,3.565379110863434
52.11246579419053,72.86128197809423,4.047559671189796
53.01856609263164,78.87400169057926,3.9333605268005503
50.920555085935575,71.22678694869558,3.333691707072077
47.41332682001201,52.967818892618695,2.4518155486181326
44.04182161783727,29.24843541807089,1.4326625196536698
42.05179137951284,5.652685005111432,0.3947944323815327
42.157697749845056,13.290979969386571,0.5031546537336169
44.356891520749464,24.820005026866664,1.1287000693190679
47.84941640583194,27.78356139857004,1.50696626071418
51.13196711962652,22.070634691607882,1.8159677634943754
52.28618453412194,8.24969098140613,2.262154029106837
49.39618581955766,12.271412858674902,3.0288484534667015
40.984303482759124,36.779999900487645,4.20150342688738
26.344604130975707,61.0579694999979,5.6622045513284744
5.679829893026012,79.94602492542778,7.10619524449096
19.94550587536853,88.67327948310195,8.082667386561587
48.74177943041714,84.41484480302589,8.123635640495602
78.35626591134577,67.308105443051,7.024150640587782
106.0456529396797,40.38401331059226,4.907848971140174
128.86570478970995,8.466980057593144,2.0173873648869476
143.91238670081455,23.363734797924415,1.3674128137440023
148.65797987443216,51.009120873681624,4.861051160590505
141.37516333323563,71.81532778009974,8.040703253276885
121.57437024209513,84.3318609269516,10.6051342878195
90.33769532643977,87.86644176593579,12.426850687316785
50.412714761481645,82.3386097175903,13.484891237118658
5.9705228295488535,68.54664408660558,13.780023562050983
37.966247539353326,48.573394063738725,13.313683126012373
76.3097445410928,25.86501185271276,12.076541764373113
104.70190068198661,4.670521047923086,10.097844278726173
120.13700939852609,11.021470411550593,7.551010449216348
121.32472951833415,18.579508986017377,4.667135055189681
108.77540802225604,17.359042350333294,1.5814567401893371
84.67074953596628,8.610306047572916,1.6567273508278875
52.58063496624004,5.183849647523294,5.006803370667044
17.01670757088386,21.12583046828239,8.304408752145655
17.18266968964077,36.476400688914296,11.1427364546005
45.58614291116588,48.81741707717707,13.035883400904849
64.90883578744368,55.95623381554626,13.78728100496918
73.57577271999934,55.86850328586708,13.604780722105705
71.90390968540397,46.90175901489344,12.884646010243191
61.8179397104105,28.26827508619353,11.970324464766817
46.20687862314761,0.6393458825709425,11.0155991603386
28.137483272511304,33.464827888023,9.96661996533544
10.492022030883179,70.12640322030484,8.893862568517308
4.373375173327998,105.13093524893866,8.03052133821406
15.068019922442964,134.790493405402,7.451227261501202
21.169989835057894,156.36416400192218,7.040482188057062
23.053136143657223,168.2245431486228,6.59871133671803
21.63882666937576,169.83927537291353,5.972935809148791
18.135319791787825,161.6872842884059,5.072294934076495
13.795871399735024,145.17310860686126,3.8347496696208165
3.204028203594191,21.743261680976218,7.935640001260798
10.047892588291939,24.523226194327453,5.666021652829901
18.04231843092818,23.346936017946568,2.0067102938374
25.854372988064373,17.86229981482291,2.678355752223881
31.895910367340967,8.383380371211167,7.802626984875698
34.61434523471901,4.249623889154533,12.677658817800316
32.77196788331047,18.780967559445667,16.660997927609504
25.640192417876943,33.67248263107085,19.26382716707672
13.174640279494998,47.157294012530315,20.178118466164523
3.8728716233311085,57.41131417274323,19.27435559373303
23.932823969644538,62.751221746362546,16.612863240616367
44.68068291836796,61.67585719524924,12.485881547833438
63.269713087224616,52.97915942812677,7.486518433721255
77.02547800092721,36.65971696364334,2.3704141197994875
84.17375924301109,14.614399659488422,2.231814239448009
83.9015276389784,10.24518090255132,5.922495150954301
76.23211930034131,34.76919388817297,8.557483812861529
61.882446804156956,55.747723391112906,10.219126558259331
41.89623947076124,70.40389237364167,11.092323027634418
17.50161203776264,76.62724738746452,11.441490543664951
9.82869409369338,73.27125656282288,11.626083392117918
38.23529685567642,60.561297280260234,11.939249918568837
65.31724528598528,40.140905552934136,12.40265803635509
88.30687515415254,14.959717830479484,12.815491128516744
104.53322334288258,11.242554990315865,12.948727688540137
112.03322880203376,34.628196643978136,12.62675136028754
110.06320229301757,51.81487309821782,11.747736050777824
99.1997062391494,60.28988419421486,10.253256210874783
81.0366875996556,58.56056786123103,8.122387016241236
57.65787652540796,46.28339833334169,5.473010662300966
31.196158699580852,24.457427955198625,2.5537706677460332
3.6714247980744186,4.385884170692491,0.39518320028213977
22.936622494310125,36.14758167286086,3.2037826872388435
46.56166043058431,65.60057794884342,5.762781285369215
65.12931564561704,87.30787491257935,7.994827470713092
76.92080234844838,96.8282732852699,9.767809817929413
81.05551248791961,91.84456920506148,10.865474546173722
77.79333917008296,72.74123056071448,11.071892885021802
68.43270468147121,42.44822612987312,10.294480739585104
54.822276731935006,5.660648092455574,8.70626688760441
38.73637036755649,32.24612122291099,6.670826574304378
21.48213270445109,66.21470037433478,4.4562265809302835
3.939692256280526,92.18040630341075,2.214650380182376
13.039553992441899,107.38550459814948,0.13936304623186652
28.160165958638267,110.45524778687559,1.5813228002628736
39.52460098047736,101.39573178529663,2.8353457822020256
45.0046050913983,81.57207996125913,3.544980382263878
43.0345278978706,53.60701025204341,3.633390646408228
33.46738633171114,21.105948999055112,2.9864780109253646
18.034111940046504,11.819630600832363,1.532460693001789
0.11740605802115711,41.173253797954125,0.5604727542106966
16.106012755687917,63.69315290388372,2.9091068310646864
26.8355760769693,77.2728232683149,5.048954231728978
29.689209585681883,81.078652188751,6.496112220184978
24.236577348970044,75.3793854734777,6.952319130003052
11.905049549671569,61.1825318230134,6.458483570320644
4.569928814393283,39.88838798761768,5.272694950016551
21.856895035071403,13.140472849709264,3.7256731142155486
36.65259932398568,17.07608501633344,2.1145201244659195
46.111404024126465,48.14929446919122,0.6128279753512119
48.14886331084502,76.6460950049378,0.6807351122373665
41.72733725273787,98.52287611682809,1.6760095035608396
27.13849992616975,109.82148444306357,2.318685431011172
6.184384281667226,107.68491702033958,2.601523591488715
17.947181756781244,91.29667102501475,2.5699122679201145
41.25659459378837,62.29264481398438,2.3904003478366573
59.87698608251991,24.420706849311383,2.3436371577042348
71.10870207718756,17.41178238801109,2.7040381989028113
74.13604679415538,58.250824884190386,3.6233415088651393
70.08627624971443,93.87728559831507,5.00932169707141
61.399194144044394,121.01825577189177,6.533604258466072
50.79333463696903,137.1516661647529,7.7483370935889795
40.26550311591231,140.3722049460601,8.148386598446152
30.530267038023627,129.69203144097253,7.425034434467395
21.093339794935762,105.72398939161025,5.689753685872284
10.816516201169437,71.28085067619101,3.258270656970381
1.3786565813180902,31.292889349275608,0.4348761285606751
15.975545590066238,8.252654925946445,2.4828793708619132
32.66332377668069,42.045174381186804,5.182765927250882
50.4494714464768,67.02121749598012,7.321156826626169
67.90494598140637,82.89613484192701,8.609759048340903
83.38831649931366,91.35278620110581,8.918448096430081
95.19420077863955,94.37591043660991,8.279388535403326
101.67357180422019,92.75671001794129,6.88349820739297
101.40177147866325,85.69402956584887,5.054228897668868
93.40728750408564,71.69311753285375,3.2106925998046205
77.42514563201452,50.15034476559191,1.7578101760530311
54.111618238906146,22.560913091038593,0.8853222799457945
25.15603859320603,7.483698026165003,0.4636108562212897
6.7390415143910465,35.51398085490771,0.1097704978152246
38.01252346198268,57.849752547183066,0.6059725384681358
64.58609346209607,72.68412479761751,1.9653770046732275
82.46329486863225,79.98117372830478,4.0011242958828195
88.55708362443194,80.4472837321201,6.443456696742705
81.5898414435902,74.456542020526,8.805846659556298
62.75146165170743,61.79953348022667,10.572406385720663
35.74910288475421,42.48749486049742,11.351564142066886
6.076773972630988,18.01245765927886,10.942425784594166
20.35096107684792,7.957653522853438,9.342556224436654
38.732088611503826,30.181101606200183,6.817813581991382
46.4891624451368,43.67088160382911,3.867499937075277
43.559225574493766,45.87427899651257,0.9544836155963373
31.85740284934282,37.98716861050956,1.6490158174636875
14.318598659524788,24.637845709355616,3.7729524860119343
5.9613993574429855,12.12881594374999,5.244956152564535
26.153084957590664,6.121032350466201,5.9070471529394135
43.718411965972805,9.818030537434137,5.790937802480808
56.36274425687579,23.328912545384913,5.199896091446091
62.25843305495104,44.14057732441034,4.525862401348066
60.6242530973512,68.13179345664282,4.080689912583291
52.332650472237425,90.53647948276051,4.063727074273584
40.047562380692874,106.60093309438103,4.58314957118148
27.58950789943799,112.10397570467163,5.645934787290595
18.625738922162007,103.99041983628886,7.046958140706327
15.2518380342193,81.15010701788898,8.375436265231556
17.180761142878026,45.0666929848713,9.209095063974589
21.97988870620742,0.12052610457831511,9.25672364402931
26.255324995728024,48.391518569792424,8.434278122047283
27.139362159454652,93.2524068730346,6.896835470759819
23.305374134414567,129.22443046563217,4.930908828621991
15.038856490602663,152.84921406303783,2.7402576245532204
3.446484568592432,162.91521900414187,0.35475821999577856
10.583115724045657,160.03159240343766,2.237738467147773
26.945475832257834,145.99540146225283,4.987418136300407
46.057219356353066,123.31204167288062,7.773805598034836
67.96175749299292,94.92914841659633,10.42759834146268
91.39667174907588,64.02163826997689,12.754661360537803
113.45234004587122,33.627613103854166,14.464024260733996
130.11792898757614,6.142037379470508,15.213590936593185
137.4723678449605,17.101036281808074,14.787160252586174
132.92936197049727,35.86612138460915,13.141702877735659
115.96365781577123,50.56714485254702,10.385874430811851
88.07528819603702,61.59862121314981,6.728392259912034
52.188749245119844,68.89798975051168,2.4764322964947922
11.908584637395231,72.0467266989677,1.9007457636168943
28.996950318628038,70.8737389612531,5.8631876047810705
66.78817268619794,66.15116391382665,8.953315357554644
97.84586321555321,59.85372237238471,10.880826482993918
118.95093801720249,54.70071430805863,11.566528323288281
127.85550440988527,53.15727924379974,11.090735788463814
123.98253163810215,56.415339258403144,9.612882756367448
108.86772141065046,63.874659872103095,7.345219317633606
85.89774837090091,73.51080494942276,4.577413613401407
59.411074309433374,82.80408243818907,1.6696272729340376
33.62528877861092,89.60514405825879,1.0027535311604874
11.724811341701846,92.67340654948902,3.11097389821891
4.6230837645968,91.72603453868396,4.454517494531152
15.208763700453382,87.10792160498332,4.98288529390085
20.80198128636276,79.38501659993034,4.7707623924955875
22.550745119220647,69.13594428317278,4.009469751381129
0.73561945466263,1.6288314738434395,3.7524566684742973
5.360233215369962,1.4929247114068844,3.336599970834621
10.32218806911557,3.709571247609266,2.3302094358990555
14.519149227599716,4.788109179634622,0.7214475916498537
16.979875300884746,5.236500401675319,1.4297894933389244
17.20901393650126,6.026787896841613,3.9140769697441713
15.378994110677766,8.048524099281824,6.3941354264456916
12.240462480917653,11.549539259722707,8.47570038615109
8.758874443958305,15.917785560965378,9.768599225236985
5.599766229524539,19.825416454526945,9.961220336232362
2.7143612152866665,21.685753793207883,8.893887778598796
0.6803122573543694,20.321632902673905,6.6050700171695995
5.637618125457511,15.536700406575216,3.3495514130346082
12.89099765080229,7.92559480041981,0.5029051988784133
22.431210138886275,1.736071387281842,4.515965172187768
33.20891377859403,12.503037809635073,8.108198297002428
43.184770128319016,23.180216689123757,10.649923714034303
49.85278840342975,32.43239626564919,11.685372192362781
50.95440157696331,38.769821617651864,11.053552583605912
45.18017502720265,40.858853635749895,8.856920847262801
32.62040946218082,37.99353505490315,5.380352749620599
14.794200565311302,30.430930576866942,1.0789570501696402
5.663619082833665,19.499645496116525,3.4504759034546777
25.54679723152277,7.2096733560220265,7.563321758401044
41.69323129536487,4.391156930458352,10.756869115057993
51.52994975825333,13.859262131116802,12.784048330407359
53.46986736183851,20.740293494437545,13.512990716303253
47.12907037216555,25.509015340316605,12.850304937240313
33.39081525517325,29.242091908547778,10.823905414118457
14.323912093704958,33.15254763365739,7.635457901417624
7.041040900606848,38.17175537754047,3.634399780325744
27.063319628330188,44.657648168680396,0.7602579531847494
41.96257319789997,52.14691298199421,5.078058695398898
48.42273427648925,59.18231223093433,8.874660109046506
44.28219089347964,63.3165164421394,11.890068392706647
29.140615050265303,61.4689094160166,14.031444888639157
4.707373943855156,50.71844639826855,15.245727273804436
25.309164840115173,29.370427841945034,15.470345498815702
55.924532217932764,2.0773066443568773,14.6762093062208
82.05912823935343,40.52797788570791,12.928904228055023
99.76025110277382,80.70837849081207,10.41053043323741
107.01482921799614,116.33356685278012,7.367412685820953
103.8234137879242,141.58807665738007,4.036624299458997
91.53089720539317,152.38675355923743,0.7146630891295496
71.82923238462152,147.04878787841855,2.2226966946949607
46.018020559918384,126.31918275579231,4.5244180668647385
14.933409948141206,92.96077973640928,6.182173256768208
20.458629514163402,51.19527375695799,7.32563027527279
58.26121767176942,6.116644866780994,8.078381651423602
95.25308123866218,36.9227692810514,8.51938202609222
127.2842058143752,73.01208845721926,8.690815680303617
150.35208344596623,98.47523225097999,8.550831129243345
161.76587620579636,111.54825441798937,7.985243444624882
160.7545173259426,112.60794231561785,6.92022965886614
148.25176216515217,103.7828332311383,5.405138597561069
126.04112872879284,88.06657620673965,3.5987920628831715
95.86311946279852,68.3195153448742,1.6774243778485844
59.13384402933551,46.629919233423365,0.24073351543361796
17.404858315682144,24.295227756540516,2.0207151333943485
26.848763741458296,2.333635902728054,3.3972929424098197
69.76471520190428,17.890603660501792,4.083967475346673
106.48456542160197,34.41536925136388,3.927184170553263
132.3758249237624,44.99495771829381,2.908781520764743
144.4955376403167,47.81529241757779,1.2130630003371385
142.5455954590545,42.213371707366726,0.7222994641640565
128.80784769562487,29.00070324929945,2.3638577433101218
107.11847285702483,10.282179104383902,3.259880160320354
81.48372661175165,11.020493230971852,3.148942913051196
55.05054277487224,31.64122008568295,2.0559529194122486
29.856909530956226,48.265103088263714,0.31400377941839996
7.258755397199967,57.71750392250054,1.545268078471291
11.499608257295424,57.30188347217799,2.9867880050056024
25.093555427656227,45.4628832463947,3.638116701869815
32.464244417019074,22.6438230238218,3.362109461212476
33.4512939789656,8.09206160142971,2.225646927428344
29.23324536248283,41.18650009290031,0.39354495404430995
22.19261927949752,69.69292495159625,1.9542413661815023
15.213018678319388,87.09993323043794,4.616297951394207
10.785588001657205,89.19924095088535,7.286903263036904
10.386923033476771,75.24565001247608,9.530184461800074
14.405226080725967,47.95973542058167,10.887463033924163
22.512648669462155,12.474906222032885,10.973472226921642
34.10525231569372,25.197104876943804,9.564057152316066
48.46379733708726,59.50310612724733,6.700482496085348
64.5061013032722,86.07692453519896,2.653743916040647
80.35066930489401,101.88061269222092,2.1130189951635323
93.10370650402555,105.09013294849755,6.943413923789286
99.16122322674606,95.07894381867354,11.20070141836918
95.07678750008586,72.60807454219425,14.482893068588924
78.69359426776826,40.02379166997211,16.59562116789456
50.04564217102258,1.1512689296397354,17.438858221079034
11.66550381792529,39.27502805624549,16.954251590269024
31.82356096710359,76.50221118765835,15.18798362081285
74.66784099044149,106.62316297168405,12.34634990946147
111.14053512564567,127.0671532195892,8.754037930080788
136.54675950429592,136.5643838935602,4.780913778458552
147.8691032557134,134.77809739641515,0.7646631691885544
144.03188888672867,121.97921485349727,2.9983918596739314
125.85594427051616,98.99803849911322,6.235739894952322
95.81222781199976,67.45761665903103,8.715589034884022
57.657323521370856,30.061989513639684,10.287466895543655
15.963852514229867,9.42280626561439,11.009771109034254
24.43308249442126,46.66736573241363,11.167936628621705
59.02594285239808,77.60522675589722,11.073039245168987
84.18934044591842,99.27032696297891,10.86677847220771
97.63490945857843,110.30606298495691,10.436499224730456
98.70603266685748,110.96218382744792,9.51955988932638
88.42767842422002,102.67932043241963,7.934101205155925
69.31146358693287,87.52938680504822,5.731995467082823
44.93404006009264,67.77423050415186,3.182667419766585
19.297928263403453,45.66189821430263,0.5616623198722529
3.8969820755577773,23.37490460541871,1.9932075697825182
21.91024243365085,2.971281865560438,4.389292308194438
33.390777277416205,13.79284039002117,6.5059010970705105
38.44489143012668,25.77782527734989,8.21068994278428
38.336821821666454,32.76334590580101,9.372056912318286
34.944506637967464,35.5310745704464,9.885685055594612
30.168925323546517,35.63662976238094,9.698999105068184
25.485878470781604,34.893737242302706,8.81238082220639
21.73669523772535,34.73038541195064,7.259502307140228
19.145374004141257,35.69802728800461,5.14785334139409
17.455297663465107,37.336908382497846,2.7221767235263234
16.050023840426352,38.43346191656737,0.2729138946552928
14.008260212032742,37.54992286933349,1.973761820968278
10.182757644226655,33.55724440811532,3.8404875527115947
3.3986360251947274,25.907236954140153,5.199999890641247
7.214482208777925,14.555709427023316,6.000372742271409
21.785359890229447,0.3195729848590232,6.1871975708935345
39.319271476634775,18.50363757599146,5.6851757303163115
57.60423318595652,39.58793350032234,4.613548593544448
73.52159665882354,62.4645392287961,3.375508638156802
83.7272492044858,84.76745532644158,2.4171641503475048
85.50094464571588,102.74838317473132,1.9808349877084208
77.46176562487064,111.9186843834977,2.0234124721535744
59.90149211827014,108.36941313816858,2.2890093434300236
34.64639274388934,90.24275307243872,2.485017836277149
4.54307267136563,58.639983368057614,2.4234062323290497
27.196415127022593,17.475084205081547,2.0434901236802823
57.51572483044161,27.685279162992373,1.353918549650678
83.76007890274514,71.18619967651541,0.3999599603157775
103.68710640936808,108.4582481344555,0.7433978787192842
115.41447116623232,136.3206665959715,2.0104043202034902
118.02738393657027,152.84988928239534,3.3201442389700264
111.96646887590066,157.35222514844702,4.528068682677965
98.7416798901664,150.31640643528132,5.463001716502335
80.71709068274998,133.36009444293435,6.005251039575326
60.691475385906955,109.2175083376662,6.090578809791955
41.35284415043324,81.5697566402141,5.703302980541037
24.768788844681808,54.5296245431239,4.9542969283156815
12.075763025907603,31.772483368576996,4.054269301133574
0.8530353020357396,21.78279787199747,2.6643424849101747
1.3768813980864862,16.48860189458272,1.6982313700039355
2.8084112183775267,7.338843226199703,0.36424363271497007
2.6953288518115452,4.054754385961708,1.1834948465043658
0.882120739374193,16.143977226515755,2.7740531565398525
2.146369752323962,27.907798542318574,4.252246653145051
5.485667364211632,38.80069093383223,5.49523570907092
8.150182516668911,48.37211614743902,6.360589520465919
9.356322587295754,55.80771247104588,6.640903070201894
8.637066425359148,59.80669059909389,6.131812229937074
5.835015300792341,58.80857885211524,4.744469419126034
1.0433506215818698,51.3757247999636,2.589668794947505
5.485716574417752,36.74221035944096,0.0360730496872062
13.412138393196953,15.708996935249681,2.41926483408263
22.11904380282671,9.17541305415491,4.343979185260938
30.40684165772874,34.88752270244063,5.374011530967685
36.643458177537006,58.88530186914415,5.295201085108209
39.28298413186242,79.1502641515738,4.1795537217856635
37.36877975235604,94.03680952635833,2.2791347144320855
30.85821110849119,101.8805925024899,0.14291760429208958
20.540103356735603,101.0344439869315,2.859668351833121
7.662808352576891,90.4576190875688,5.637644846751633
6.431818579985077,70.32910629193962,8.190102403793503
20.503916479202708,42.46667637363549,10.108693677901485
33.343284820544426,10.071343193596109,10.79161664038097
43.5987952392773,23.02728075570298,9.59069748555279
49.75737703558259,53.194268353885604,6.1793436824665235
50.4288301489396,77.60524574181835,0.8604171629589349
44.89604036710626,94.38947081221393,5.495499672774196
33.64834177573391,102.5229886566016,11.798480232851741
18.600305845629205,101.70815893189726,17.012352708526812
2.7986419997969416,92.36642760962165,20.322816306685834
10.334873651338226,75.70767064167077,21.239315719099956
17.939899051677365,53.63026335462535,19.628003007614165
18.48759053490606,28.37959934478199,15.740721457553649
12.114843280655428,2.067114963675558,10.167923705401382
0.47188683602798953,23.66449754611131,3.6372401529085976
13.784721119831824,47.58573923886012,3.1692312848674313
27.628976614116926,68.49597815072313,9.534977566019831
38.219686182482235,84.81267073293738,14.644627329448527
43.2910944596902,94.54974380236504,17.779720577834155
41.403760053444614,95.86609831242521,18.488534233806327
32.11892397712156,87.95711506140049,16.73765600365785
16.118713367539467,71.78810595748423,13.040839580223517
4.778503737101907,50.14413247858124,8.301947675799282
27.78912037061673,26.827647457235134,3.438154495115972
49.587629454114676,5.331363476937964,0.9741363864296071
66.94902157391262,12.391614582053942,4.7102945142487345
77.4455562038656,26.462315136323486,7.603389806829127
79.9570916064552,38.65044078190728,9.443711802847572
74.80087371581722,51.22069600270215,10.096749029129302
63.43671657886522,65.63507407882705,9.555308012826178
47.8752914468122,81.68456483620852,7.950472866020087
30.062532921245246,97.36204727449051,5.529702007047619
11.505949561283911,109.43506573832221,2.574672673186785
6.752532572328505,114.41024289029912,0.5779235118114151
23.891521052842958,109.52721413782861,3.5000234382317568
38.992992244787445,93.49057064327485,5.833044986341682
50.876100760526484,66.79007160354531,7.40462101398814
58.213980709903645,31.601638940923564,8.126169861343268
59.881871644278974,8.63348710164927,7.883161107515614
55.33811986653262,49.80399537121521,6.565144133744737
44.8573378782365,87.75733163726751,4.200706812847457
29.52503217910551,118.80567654504038,1.0611169645817728
11.022879805548987,140.03993463017707,2.3272495105595663
8.645800274172926,149.5225389058474,5.273206184959587
27.363118501677462,146.47206468705915,7.170394551040804
43.0135960540426,131.52140766459317,7.762166555113483
53.57340938341081,106.93955597094647,7.1405064406264955
57.28830164361261,76.53291220431791,5.539204284628955
53.01124377541391,44.99056879491153,3.25956463998889
40.635403018781375,16.66735995343214,0.672515576312287
21.441011676067866,5.8044167758640475,1.8583693685836395
1.8411278443274215,22.3944697350215,4.003211949992333
25.377583072218282,35.46954797656957,5.539568949739288
44.9832480835405,48.405101344350285,6.415893722318218
57.09701994837918,63.59085661098038,6.614071126312727
59.705117224186274,80.86883380118658,6.072290236148089
52.91149821111624,97.28685000024984,4.774149683567076
38.94797275819651,108.34407364063397,2.8397303893866934
21.62313330950394,110.09472378095877,0.5268437665457167
5.362072306053779,100.98808604521403,1.8415245208838498
5.895535735797739,82.44684499787505,3.921311898542645
9.618957184630636,57.955258229047104,5.4047240447403295
5.200161109775101,31.338126775192293,6.076984476579089
6.0360207822424705,5.3322790040193055,5.8101246902256145
21.247968921321263,18.717763571710208,4.578395644431657
36.72960882349777,40.01516907568231,2.507304642263914
48.62780825715623,57.1177928968227,0.10453157600645223
53.61580674717044,67.42657571838474,2.879780031472248
49.474153094917824,67.91619240069072,5.497423832758828
35.554655956982124,56.807016119142766,7.703550845676615
13.07412162067644,35.15105841575918,9.282729667825837
14.901994504289606,7.275736478158539,10.010301579980142
43.94947568915462,20.313785020039486,9.618942290748638
69.25572975804222,41.088626500937984,7.887734129435546
86.85042197594784,50.62888516991052,4.736022083254735
94.68303804244279,47.7558872498893,0.3070714689734035
93.11109764577628,34.34131890356106,4.935488168011997
84.5797784382337,14.190251225389986,10.212639353095016
72.59193363901989,8.225712730472125,14.595953014125135
60.388450347876784,28.593587937704594,17.322541789240308
49.903643110937374,43.09291464378822,18.052524452946567
41.408103301842225,48.603683204217916,16.869644029802522
33.91079182394397,43.18248987889484,14.11952935455503
26.0086346534512,26.82807774647884,10.210769044216612
16.696194432239842,2.1024623259726676,5.479316099035553
5.764575368751059,25.95853761943484,0.2471121100968857
6.306651610112261,50.904389077072054,5.08010345887136
18.772611710344773,66.57825922850597,10.038103395617894
31.03982862099509,68.757311864509,14.158388513789156
42.8338695533926,56.042618005475624,17.02802660224809
54.09406231291695,29.751934707355723,18.330592980711135
64.76098070910018,6.855402694478453,17.897843891868884
74.64518692391889,49.428474820354026,15.810615228816145
83.43715947497552,93.02234021657995,12.42087685632591
90.7598866388396,132.26372587258112,8.269431063358464
96.12960162351372,161.5832086858141,3.9145821884471186
98.7821488460948,175.8968987243255,0.26084882765631096
97.48222829353222,171.7519276158255,4.1024697780988815
90.55414746220401,148.4630929503157,7.580203965392612
76.29531274513838,108.57398982387522,10.60527968358241
53.708897674468304,57.27049839914235,12.92652377520656
23.278088991162864,0.9553727717379157,14.217075628341796
12.619567574552658,54.32088345148517,14.256050592572556
49.93680917057172,103.83775169851091,13.046391489429523
83.7691043190418,144.24896385570733,10.782778965012369
109.4469038813587,172.96920047120156,7.7978467864101155
123.49216681984727,187.61740961437212,4.563753915401215
124.13679384136493,186.11227516025116,1.5881212691141517
111.41294178921169,167.5116356842201,0.774357841511936
87.01049224368424,133.11765678710233,2.392239731383306
54.09697077085653,87.08701619987174,3.2951181031622627
17.162965415522986,36.02684175209345,3.64365817136754
18.302271724714846,12.409348224840253,3.718354038224982
46.552543711051996,51.37358330065633,3.814806391454222
62.763633918388884,76.33655608238037,4.152950709471789
64.36583919293467,85.7209873476716,4.82012841802857
51.973855273459684,80.60713963107777,5.704716454209317
29.39754636436137,63.89754328894494,6.5596933957846115
2.60427685304895,39.45551848781107,7.134200364796809
22.019248954023297,11.530536191570672,7.173224591628188
39.960402868698836,15.843965066166696,6.509257246686322
49.234357476953114,39.127292943159745,5.11885320154235
49.59648480742964,55.36938208584201,3.0446345773590875
42.153707692534,62.740308969877454,0.42108346762704785
28.816005750782427,61.02430901276714,2.492357406958948
11.857031367943904,51.75259290310249,5.315657284747603
6.293844422994867,37.81650104063523,7.635519141779287
23.141768563728828,22.644449661697735,9.153894183711117
24.786870156783447,8.907913844716628,3.2379150961158105
20.31070722255445,8.922773371355913,2.383009487189447
9.152346818652275,7.250615318586995,1.2762012888520837
8.685974017491024,3.6347222819489806,0.12199102428610581
31.33565063246462,1.8876497289089291,1.8158492779167228
55.345484948217624,8.975480466053876,3.722223903213048
76.51984385700989,17.021390384255476,5.681958881608649
90.89396789754073,25.193875742165666,7.496827091275161
95.5496492961192,32.45959931561938,8.977647598290288
88.9459074122194,37.615565952000445,9.925929541358634
70.88435104037873,39.39600195557668,10.174977427499284
42.49678765666125,36.70027236568487,9.695400339177276
6.340378933840648,28.913715854031963,8.643925033666763
33.99915381300358,16.180777853455144,7.199703624077955
74.40619029509494,0.5401601204676949,5.424648462784758
110.04895428584996,19.651331512540462,3.4000705744174398
135.80326802369362,39.19936615813267,1.2160034814445846
147.57881989949092,57.16036334657003,1.0828482769298426
143.39830067079393,71.62858386628196,3.385863579521362
124.08081265058395,80.8827590896596,5.590921018750289
93.01259460290845,83.43190707888841,7.694812558750051
54.999364605601365,78.16740297144545,9.792494687638714
14.97113647935482,64.67347165095659,12.009394282449566
23.06330678990205,43.58454453000785,14.306904037386127
56.30937603718096,16.759388598665947,16.42753017111349
82.85786264210564,12.905780626879372,17.962246023603093
101.21528923230045,42.0600092100203,18.462763871813998
110.03387485391238,67.67247397345076,17.557721214804243
108.35878836139146,87.62497450774242,14.998293907920637
96.18747799420377,100.83551905277461,10.763194896344691
74.94965102963552,106.89190764170729,5.0931751734946005
47.57218628457485,105.49344583835305,1.5852226794761726
17.988036226066395,96.13737117467956,8.70382659086501
9.691016074835897,78.33548835914956,15.584650766757255
32.00931811277232,52.30171185331509,21.43942076483338
46.68151752741138,19.68762531004854,25.47067399471443
52.67726434500049,16.146910265839068,27.067321239926414
50.041577957903456,50.60904813580542,25.887314271144113
39.66950505140938,78.96049587717528,21.930348994494345
23.196582114575502,97.50504841483455,15.622676351577471
3.0212574382567907,104.31940541630316,7.814561097878546
17.697022798374935,99.26494680805993,0.34675562572975094
35.28943457987795,83.45241502869459,7.714960752962991
46.18788678514917,58.64556059984189,13.396277950070502
47.80123358154157,27.058879246069843,16.853126248372988
39.36753470807114,8.332258237737335,17.94946332924277
22.40385048577247,43.320665333281646,16.88002474813672
0.5168910226657808,72.44138910708745,14.063560235845394
21.453339267624234,89.77563105357962,10.048939138288045
38.72529763549775,90.49716620707785,5.446915076025941
47.84523717128014,72.60255572086336,0.9431151079523721
47.502809342709426,38.027937127784085,2.8002529315503444
38.63558970657347,7.400380914000827,5.324251035383118
23.85579635061754,55.19601786266239,6.405999423164867
6.528167389646745,96.15149255835004,6.0408388117611445
10.098087816196767,122.3020182644197,4.474406829933441
23.41738385654736,128.3855270490908,2.1999208638492562
31.596081190367475,112.60993841435555,0.14564739478943806
33.48034510072902,76.83744192221741,1.9475927567090214
28.5748343003189,26.370305519417197,2.7912782819750093
17.24425639658138,30.646830478597238,2.5901692956751945
1.0091217805858228,84.31864315912318,1.544656476439784
17.361337445873556,124.63790095541492,0.004616234027344751
34.25820266139808,143.52035048543354,1.6339287272686367
46.178750136338294,136.75458089872282,2.9905860571568406
50.854876394457804,105.18751660766442,3.7268966343256418
48.080733652964405,54.657908526909786,3.6336383402654926
39.80609624676074,5.3548168862236585,2.7313711906585403
29.336589406675873,63.936940456245544,1.2621121126234218
20.00343673527742,111.08222443446606,0.35109028407326653
13.928552935828847,139.5081255803289,1.6224730331278885
11.418839615037244,145.62570393180536,2.1555630229658775
11.200396709289995,129.68021419425085,1.6748205847313646
11.247024066372195,95.29411458096529,0.13735463405555046
9.70281764736265,48.634670747199095,2.1155273916395663
5.447889612779816,2.7264449785311586,4.483578565726289
1.8618911969149106,51.19205661734937,6.352620155324694
12.08872988590187,90.56809931085607,7.18095946428327
24.876253905671163,117.21115758578411,6.507075939925202
39.630969960332465,130.47397197786572,4.100898647189626
55.259678541167766,132.22356458084573,0.17302252157224846
69.94833034863998,125.61275740809067,4.667808112921439
81.28942231407862,113.65514234526759,9.602441403022981
86.84413103799493,98.25818990201849,13.704296358464502
84.9292595791598,80.10899396642118,16.109109998551524
75.26271745535676,59.32467487202559,16.24355886950321
59.1406517354159,36.34441836982555,13.91737342966829
39.04433860693852,12.472088232171028,9.350369795572293
17.879360738707252,10.247379274751104,3.1717140369137216
1.792944774807878,29.692159828964588,3.678997474975829
18.229631077134524,44.394854846689064,10.090200293298597
30.59073016300536,53.909062817696395,14.961626619705012
38.73702608979297,58.65616663053613,17.467496383348397
42.92729905938311,59.46500271487979,17.25873645415789
43.60269555174048,57.23860665911348,14.49923174946641
41.32497337067448,52.98334034655916,9.777334352835004
36.80398871348247,48.08012965348943,4.001662256943856
30.928991133061054,44.441504919657866,1.7248037177025346
24.731349085656543,44.21314106442207,6.4130369623403825
19.261030179245143,48.98151774348056,9.454465840186748
15.413619187216655,58.84495143478373,10.586251698380092
13.760433274382391,71.9243283548443,9.856717425709446
14.438089472448011,84.68289260337028,7.6551798034188305
17.123461894803693,92.95761610857569,4.544699543976196
21.109765463558897,93.24045523925284,1.0840108737220417
25.48718755641566,83.60421263091803,2.1467183924794693
29.371670323342677,63.92871085426855,4.593537350766722
32.08826727028212,35.566432111845735,5.931797093331301
33.23879737071359,0.8433369746379697,6.1452508936072885
32.660079216394166,37.21224814084226,5.465611781621537
30.34138594166832,74.81351733593937,4.277439732935727
26.392722535925664,107.3383720370351,3.0114545072556234
21.11296716826916,129.6609176064667,2.0176763211954656
15.082372274778917,137.12545515533512,1.4365019273894188
9.151507072312292,126.95707060881762,1.2160812108990338
4.229958112537093,99.49257609214449,1.2059458657755726
0.8945810081032631,58.59245361663707,1.1973483431660732
0.9727569130571049,10.925004120855258,1.0076023485053778
2.282936065009474,35.67801442029788,0.5357917661477376
4.447849964238083,74.1490125002376,0.2761542283385797
8.786104770497653,99.65370821586184,1.4352536832200602
15.94817591228879,110.15583057261931,2.8397872992312045
25.642278667370398,106.09419913517141,4.330302679444354
36.77588937410045,89.54580340231142,5.812459149653393
47.92300576374013,63.37191613053299,7.211856000295991
57.792075609356374,30.68147333754022,8.377051646995596
65.41360498823558,5.367284667571906,9.153427758173773
70.01723969312751,41.58508800531367,9.473708574701398
70.7962435789224,74.79289769383465,9.339624651947139
66.85571999733165,102.023174014839,8.734486840677247
57.5052785162179,120.82495020944407,7.577585996994998
42.76730201540053,129.5348986254641,5.750133227593155
23.75471795903164,127.43131699256324,3.1403451806471256
2.617783069696541,114.7352386996496,0.23607217272278547
17.99520498674562,92.5091788720337,4.116453865474034
35.712019370795296,62.540568212492154,7.996870321087019
49.01001932387934,27.230941327541665,11.274944623694003
57.29132166123278,10.506723730146835,13.45912666124184
60.48721363356092,47.35487898163265,14.274666434742427
58.52440686387502,79.7665466885992,13.69093231635085
51.085240825452495,104.26134005528868,11.91722388717894
37.868101441397876,117.86251801920669,9.3028121865699
19.787527058799387,119.01677274220187,6.264060242093352
0.9692349760665082,108.22822484617528,3.2444278938769835
21.976037347449093,87.93433657619747,0.6105172895554474
40.936394224152934,62.07452431231013,1.387808222250922
56.10498335766568,35.24372053058022,2.5812409468423563
66.56391714348028,11.653436292648816,2.902259625561515
72.20570954272856,5.777117701764736,2.452326433713692
73.4377512913849,15.92624124261568,1.491103346958087
10.448201487479842,10.710762781765082,4.188056733825306
3.0403864792749746,15.308099694715656,2.2394529092685227
6.1049500035634265,19.46633675898442,0.4606895680817678
16.37894058974447,21.582341831566133,3.594107151162812
27.024494531666022,19.9396449784076,6.783754488451546
37.035593499661346,13.41419795410151,9.609144869441238
45.160814549145954,2.0880660436942557,11.668960972643912
49.99543567411582,12.589063079989968,12.664162650336129
50.317156576556236,28.167355018692792,12.417184777754532
45.4044691901656,41.9629752342562,10.875096749771503
35.31498294352593,51.84471939409423,8.139564803226511
21.26814747898279,56.665392647682275,4.498149396883498
5.85672680967648,56.26373016701285,0.46610509061895816
8.123700494684948,51.313559515596275,3.3200866379154403
19.2170383538735,42.97275301159065,6.356991670571205
26.982752142771687,32.3242046117483,8.404930866292394
31.41661373407692,20.280148160174534,9.493183036977745
32.96838004938289,7.837670413894574,9.810278709406726
32.22760567836072,3.923456691119641,9.549701571682267
30.054033154865458,14.090694312480032,8.914393621060277
27.728098892906733,22.419606160726566,8.098764768305509
26.73209441487553,29.742782395602987,7.192933749855554
28.481805904378348,37.78496758493147,6.203224052762844
33.71607823469541,48.36713237335644,5.1024741526478605
42.03675703574212,62.240962622921096,3.837311014761994
51.79549400905686,78.17321910092937,2.358685765728563
60.370064017281145,92.85412509416733,0.6653851387677856
64.91815971099486,101.78257751530766,1.1933349713529444
63.16186428997251,100.8536692326233,3.095588727606834
54.005076749350145,87.94860150403001,4.8159674467589255
37.759107677223234,63.846238706334326,6.117156833317476
15.93079748902251,32.087200265645365,6.864801591816547
9.198234119063128,2.077910641027386,7.042942863714927
35.04871897893719,33.147795893361796,6.703325821166551
59.08996065439732,56.70648377871528,5.930514899954686
79.04964749442706,70.19980437168968,4.867045872718796
93.06116020686596,73.05367687344742,3.700543910517679
99.80889412339747,66.3621043301053,2.6058061587272743
98.71583110536865,52.42703003223505,1.6832881597907892
90.08429096755053,34.36525023918123,0.8996665180055308
75.09160233863373,15.816516060624119,0.1417975856960327
55.61357299317548,0.6195685050665757,0.6618271866352949
33.93512674178995,7.694110747334852,1.4970924964722714
12.43907779665037,6.60997887397697,2.2682927292240462
6.6676743415441235,4.620339303532264,2.847095902403751
21.557825521779122,24.495630458451664,3.187656269531115
30.942382337772827,49.36043782482013,3.345670392762037
34.24706343376935,74.18556346555573,3.3432154900906657
31.80999016666163,93.84433128946088,3.094572902236711
25.005789509198735,104.43547590602815,2.4500186280258203
16.163753924333047,104.14257897006414,1.3239200759436187
8.176423485145822,93.35037473503174,0.13380315475986718
3.8274951749646973,74.05955601993465,1.595485912676228
5.019263384801829,48.9444052837486,2.7665184069386135
12.136075272352405,20.558706202547214,3.418967546058869
23.783093516775565,8.957617404039592,3.3280802008379404
37.01959579654595,37.68035407325802,2.318550369626953
48.05436066554398,63.53242034890461,0.42832770343339766
53.23668153999526,84.15498801201404,2.036612667764723
50.03142194334547,97.24619512132654,4.638750666589454
37.70361369195089,101.23544756270462,6.945193013368689
17.544921677004726,95.91707070230922,8.608110862046454
7.425198389141431,82.6684881029539,9.423504994265517
33.18384726231543,64.08020650708913,9.328501371959542
55.62826289998573,43.190435422713456,8.284186531932729
71.41085951921309,22.735858663888674,6.242514092602647
78.48609075795572,4.7530111770902,3.2869671096873545
76.31640567073151,9.379252126084587,0.31664198748151656
65.76487989864916,18.66546701872107,4.112023168482351
48.78723343213305,22.30657411014762,7.532091617384511
28.022738035635594,19.777303541588676,10.148146869401586
6.330710682940638,11.099550531001974,11.732739854764542
13.69633112172747,2.9376471381751577,12.202026105237353
30.215926455091132,20.82057965844594,11.613569773468376
42.49585366426935,40.60791297588377,10.133841402009068
50.99441956738087,60.265085773705145,8.00881719739515
57.06011894505528,77.80396134539154,5.5092984038500425
62.25865288527715,91.1746142982957,2.921269120240332
67.5658447198049,98.09937172502232,0.5301982834735985
72.78900909025745,96.18061069505977,1.4681575406154928
76.50451224484924,83.45634154285146,2.9591256521328546
76.59252635238558,59.23895785973608,3.867011059998576
71.16636588362617,24.821209002477406,4.158455836245871
59.49575016897611,16.400329643417948,3.8917092365024786
42.483379332474854,59.55683886569243,3.24416101545989
22.48006426763661,99.42562800068396,2.4589083746637708
2.560420093034227,131.5141168520507,1.8363272311057464
14.426929609894994,152.67184325962387,1.655066642283433
26.64299472818473,161.12511171685637,2.0432071214628054
33.61024101862055,156.21761202022543,2.9706531104906015
36.10821449120764,138.2829650328458,4.24363666590766
35.758337621625145,108.83332436305258,5.530888904467749
34.53790201911741,70.8891246046875,6.4458231907619545
34.36892925701839,29.042146453355546,6.622354956591372
36.78083493129063,11.10876648586569,5.79994733699751
42.62240280029233,44.10262908349715,3.8802155425711593
51.80644017004786,65.89451035959165,0.9921697361564078
63.14001010144933,74.70939539796846,2.5025900646786328
74.37671452035246,71.11284553377516,6.1068232559977265
82.59534985913727,57.39470437406563,9.297850256796773
84.88118897583557,36.71613865944908,11.67835605803869
79.13950960704169,12.486708619609608,13.04365597641171
64.77814338890394,11.846824041674651,13.293649718395436
42.98913008667792,32.80914314289537,12.315075271323758
16.50628795953377,47.085641835471726,9.955621769337968
11.058392584859169,52.09375724344545,6.174779182240244
36.05891907466018,46.75219244240976,1.1727788821163239
55.552185408637605,31.998672573737274,4.568247695237419
67.71906185458839,10.653642260806109,10.278102665249323
71.93160126937649,13.406161316341079,15.103120825864568
68.5540915978473,36.339519194349805,18.39914503941323
58.64272855815294,55.119769406711455,19.906904997019716
43.68691470759838,67.6907557091858,19.696277521615137
25.420603071292607,72.66034903032887,17.90521233634728
5.683106519295,69.02762605606499,14.675099187299667
13.699734225907006,56.37438896293534,10.27322416191471
31.049632455296894,35.5201463035726,5.097764466181483
44.95119903054547,9.158013407901734,0.4080477801850121
54.297535241255744,18.186824120389655,5.792860738697394
58.276852856607526,41.199352138248216,10.509683893433312
56.329678454805915,55.46894087350784,13.936356965786917
48.14689830589321,58.994246302193666,15.635405748989175
33.78861173285203,52.68598438859363,15.627578300763005
13.904711630690008,39.59401789685692,14.439364889968898
10.054618727902124,23.34796468358272,12.80197353093509
35.79188616223931,6.753015822391555,11.30491995873266
60.40791529768012,8.720278733931401,10.225509916959167
80.94024089955937,22.479646534714448,9.47010475647345
95.0288559301817,33.97319909669272,8.72519657534589
101.46405279750076,42.284175682417676,7.6754983661922465
100.399033325493,46.600556403116485,6.138492620756244
93.12933552798607,47.24031024659885,4.123936301592746
81.54045714555215,46.34058741401769,1.7213680113921435
67.47176100268145,47.43682148873308,0.9723811680095857
52.26534550835947,53.864750751811606,3.7715125246738173
36.666266745918584,66.74464452246018,6.41207594003169
21.024134982297475,83.72963941743775,8.66653190339872
5.601455971841599,99.38185987953955,10.420717910969316
9.217113030086958,107.1284990830279,11.619176354861777
22.954736853812943,101.79678689162353,12.1882169535768
35.27822887840935,81.42824133946927,12.110017265543902
46.262477887504744,47.588691402886184,11.505443612498867
55.83073186788104,4.489546729004775,10.625787201470779
63.470858176974545,42.47888977907773,9.71308280255566
68.64506420758616,88.04915289033546,8.867413213768945
70.86576007105461,127.68262725839747,8.088221259734937
69.833371339315,157.71072851274778,7.3371909438665694
65.59226357434443,175.33976961196555,6.584708272507962
58.62665244321673,178.87972886944567,5.814751019473838
49.82915384420139,168.27112688147966,4.969632185968684
26.74391062200741,17.723550981638905,3.991037676191859
8.697100151617372,10.563144698513149,5.20349768394955
18.277746973801747,0.09551611727274024,6.106459376756515
50.730924804645994,13.0686578177906,6.311786637451924
83.32770192926392,27.16031718456331,5.526926387341399
109.93590627473618,41.245720853254994,3.6196355024398965
124.95868974485668,54.04223974306853,0.6541554386122744
124.48052989265251,63.83046049560985,3.0894203650994667
106.99163384265368,68.45331594638594,7.16505551995271
73.53937091615073,65.73161157180996,11.086572365348095
27.429355990893622,54.16632295069831,14.38926211909485
26.169938718639745,33.66121819640367,16.660285059696406
80.52535616261649,6.013313502335962,17.641052080082453
128.210262009878,25.187866234003824,17.23056607489716
162.6936959844598,55.52133554767852,15.381867757378075
179.56990756541114,81.03948649448893,12.137819301667566
177.32736891811686,99.0790244521739,7.740761343624165
157.67820971328604,108.32275357425677,2.6411008774966245
124.95350217209632,108.31894630166931,2.5725639659887896
84.93922035351072,98.9502235444091,7.326385861910818
43.4682115840421,80.35353931988485,11.20199204204296
5.145563518502234,53.34955349626164,13.962435137760451
27.2508638580458,20.02046987903185,15.54743207693592
52.72736564435909,16.07473157562535,16.038395667605958
71.50581487767919,50.357446736526526,15.58366452099584
84.3091333938838,78.24526423411622,14.325042821834293
91.90647576936026,96.26734730779563,12.350469794358107
94.9974597898222,102.76412042255431,9.774595075831158
94.34875379025124,97.92740890165538,6.852947986393594
90.8800869592909,83.31237483249309,3.9122622740002524
85.54643046478135,61.21494976397293,1.2252092267977672
79.04753955385738,34.293842841813856,0.9769254682332986
71.53943540653411,5.549948908536469,2.4875708314460367
62.63747587362133,21.543948401194285,3.2191140192181322
51.78873166351327,43.152705396523466,3.2645293643189017
38.838613970825776,55.68084084353401,2.870942616362228
24.439427198176816,56.779280503084465,2.340212901949711
10.000977426363296,46.35554513507129,1.8487068297985132
2.835243995690931,27.031180464872556,1.4081550206169182
12.93401708403816,3.6685096116311957,0.9872987007844762
20.18450118482073,17.964202135821623,0.5734794952632034
25.477005342546704,32.90579960523871,0.24389813297128382
30.136813951644363,38.4122195320576,0.19871871101606123
35.15111112100734,34.48694861652448,0.6189976588164795
40.65700275203304,23.368779487762644,1.5361099732636248
45.98340092647573,8.315685649380717,2.795042216169597
50.21279192998467,7.677724393669643,4.100177867916226
52.8811320025774,22.63387361447711,5.168163535596415
54.32594972554531,35.58872383764963,5.795462590173616
55.4343171317734,46.05950031316841,5.863008750562709
56.906049575691355,53.47095862649655,5.466933835583616
58.48841718573105,56.9871739332937,4.944419219146119
58.72050403876228,55.867498169280346,4.6452448174052625
55.4294656238949,50.0470047609941,4.686721355512237
46.78446996003785,40.45828895794205,4.863144369342874
32.371051882123304,28.767684422016004,4.774473516504394
13.69462249816652,16.58626232935581,4.09366778037613
6.1866969902264515,4.638836250760488,2.6874459936241712
23.734434889835548,7.523358423767271,0.5578210802875502
36.1680568542017,21.016435899160953,2.1806299250130508
42.25508013177916,36.5569681913162,5.316530737855388
42.3202558723281,53.457088662290275,8.55818142808608
37.61831590442844,69.35223103502683,11.492018477218837
29.541798654355166,80.92878590700482,13.651450935464586
19.152092425974967,85.32797457258556,14.621492187676822
7.277928526393496,81.47018025519431,14.066361314475001
4.986857665571313,70.56335673664252,11.807760243262301
15.86236271003484,55.52211178571393,7.880664885269504
22.962056835166987,39.63966515229319,2.6051753172860233
23.968485038528012,25.253538789246495,3.319567811524797
17.613812397950174,13.084106051938301,8.923960142988225
4.418910724569918,2.4882778726328914,13.221926480663615
13.2678922110517,7.66977820982415,15.520358590418022
32.016327553421405,18.113270632941926,15.648311161643266
48.52439860812586,28.71659873510774,13.896323113140339
60.724476476195136,38.68718682281182,10.810657902557798
68.25865033490983,47.068038938724165,7.023184642616798
72.13725223041314,53.13193136395277,3.1174194052004918
73.82847412858861,56.42059304487747,0.4228127752460074
74.28123699012798,56.47706612518431,3.2019123519766612
73.3612098747296,52.58953251266863,4.986863226470083
69.93025564803455,43.870268419021265,5.764165953961192
62.440081767545,29.76602861300567,5.660641463309588
49.685239765434176,10.782572901864327,4.88700098299765
31.359713195448727,10.990249095036567,3.672663571810574
8.210249768939184,31.917838788549595,2.237244748751089
18.180829761636932,47.544622948423026,0.8429239924821367
45.78287943625575,53.76522701476351,0.2603962314529614
72.46310702328793,48.02365776174263,0.8454894584397865
96.17432794393312,30.139796916862547,0.742495467925072
115.01314964739906,2.4989334769362026,0.02551581193727416
127.27407121923477,30.41441887775225,1.0152236812035107
131.6138489385281,62.985053764094445,2.0466147097566996
127.33587943842478,89.65421232008221,2.800512461015698
114.68543650306842,106.0215578952413,3.144221158251765
94.99306093109944,109.66901510045696,3.013484207529781
70.53228330730283,100.54140632362238,2.3698318711722623
44.071232821025816,80.80889541215849,1.2990787805633903
18.239728689809212,54.299211414923775,0.03609670444767507
5.04449802257488,25.63855609703682,1.1381934168909795
24.84739329378514,0.7261308686150364,2.006798949986778
41.11019153087861,21.414022712439028,2.451054403876138
54.25497068494401,34.74071806669455,2.3999737006887076
64.7123845242866,40.99622144197074,1.7848593217420237
72.60435442273622,42.310545409337784,0.6006849877572725
77.70627245984132,42.10940669407524,1.0677156763690436
79.64829665450947,44.243329168545365,3.0960311891637367
78.18470931984007,51.92781939940353,5.251150984440578
73.34673318902676,66.72797789712857,7.128375933282302
65.40766592709112,87.8770168305775,8.243935192279695
54.75192488030066,112.16458336768146,8.1992712343449
41.80178091251313,134.50312118894152,6.850054590328424
27.072801636192004,149.0723299917695,4.344084792577284
11.321254476025796,150.7571268174587,0.9986379087134609
4.360848748481201,136.4869731668433,2.799184077810543
18.652617639115135,106.08937509391609,6.609539687916075
30.310151661178416,62.42229629332593,9.989279593655152
38.51938395135825,10.78424783326994,12.565937229837912
43.072248097626684,42.18476089000441,14.046480325014317
44.22404360074172,89.80648695374659,14.159834934513476
42.31678935913189,126.53758426033492,12.650590180427999
37.44303445775002,148.74184080401298,9.437166855472462
29.419169108504654,154.95587771819223,4.743227042605936
18.133229220544496,145.70068202002122,0.8932816281062266
4.081056288635571,123.0363598027527,6.593180924410345
11.271715131931668,90.07713385822751,11.260302450696834
25.609129359876803,50.62166497920357,13.943349321854393
36.38203783840522,8.943321327773498,14.183999116596885
41.63370089789026,30.388848627747567,12.12877192790368
40.592923082071984,62.82200430876547,8.376346728429008
33.74710973632009,84.3447051308133,3.7269177034113965
22.42917492484112,92.16578162386297,1.059804896366429
8.199751545000039,85.33320253440033,5.3722801133298725
7.576478913010986,65.04357719998112,8.724586068684966
23.745271046046657,34.47916440933618,10.800633805841654
39.09765371599127,1.7991549694585791,11.447280071577703
52.13176619684259,38.6923615423074,10.596431552259642
61.14034711291484,71.3771891497011,8.318044913969258
64.69233696613749,95.9023663343811,4.895194461369421
62.2476145853682,109.53226929237209,0.8392980457898567
54.49446274348345,110.93225788437863,3.131976129957657
43.131938424184845,100.2922880344818,6.2835875370172545
30.405297459131248,79.27449326114039,8.173319262634104
18.479274615100756,50.7927732470947,8.78674021057785
8.787443044586121,18.73938705174644,8.416277241016545
1.816978384606274,12.496471116254856,7.436388378691336
2.6951707100297595,38.77406165562293,6.1348287704499995
5.336515008761074,57.010240175323325,4.704008218204783
6.63685770738161,65.78060838002293,3.2804327029821927
6.914370628009521,65.50477611366998,1.9407228664502818
30.331657658364197,6.18064223848937,1.6483516441468655
36.981381477662154,10.320559948485846,1.4555653435107891
39.087421864411326,13.253632298801964,1.4129367773276502
35.07031987513173,14.313106807247935,1.555252360872219
24.338204099325583,13.679141170924167,1.7778212708423118
7.427560457309659,12.23483852095383,1.8552879245949612
14.114424711109393,11.005652918965888,1.5102673193412801
38.09195576845478,10.479927052473322,0.5545036580672333
62.057563273305135,10.211852990194938,0.9966166378416329
83.69099137735276,8.948799329810766,2.9227779948587176
100.99012038813173,5.202606514766742,4.88044783443484
112.14364209375857,2.019055236681846,6.536409137484291
115.34291373416768,12.66647202381954,7.692098411587035
109.21426015979561,25.649025834329915,8.29134156796682
93.33766352451974,39.427869796791434,8.354933855907388
67.9277390945567,52.66720462282989,7.926912407997656
33.70138690689291,64.41446694259817,7.021066317365233
7.778700844716251,73.77168517495916,5.639023622175966
53.955031418414855,79.36136506280538,3.869155818053267
101.10326388833529,79.0888097672515,1.9294990697789909
144.510753306079,70.56322822459757,0.10949131293681022
179.12254713335182,52.092602319372865,1.3497966983941143
200.2970740582793,23.800676081112947,2.370832911279093
204.66483591471962,11.759715785584284,3.0753476074517843
190.73343384552345,49.91136140887893,3.7191157674945137
159.13907300018843,85.00696645511297,4.5651679151944125
112.59844821830005,111.9618947522721,5.7574394221998
55.572551750972934,127.51363996055524,7.235440402946263
6.177470366599453,130.73439557599923,8.741863383835883
66.18606633420275,122.7469684890312,9.919062076522247
118.04537652470728,105.9470298244433,10.436805541109475
156.28948915963355,83.16393267661837,10.103702653982383
177.2943705198185,57.087537736049995,8.870320318915327
179.93010690922486,30.044454065295284,6.808828742012639
165.73544277681034,4.000790932793518,4.173742319298121
138.4699982301792,19.390516731871863,1.3845421661333974
103.13997565647297,38.80387178199365,1.1151464916808649
64.8154939932403,53.290507126227304,3.009838854588896
27.644285770163386,62.27439015164733,4.1736003212777515
5.598224924103867,65.47480788217928,4.622566717461
33.400910873065996,62.8230310278378,4.477074630414139
55.08681684044016,54.459094379088846,3.9569898829489647
70.36637290858597,40.887710150314824,3.3498291555033175
79.1170432284987,23.257330477394063,2.9200431318328777
81.42890808479088,3.578316344688927,2.8145868093409736
77.77556020062981,15.270156190087121,3.0279433278696213
69.10828920471299,29.83532789046708,3.3787520624524245
56.75448454936557,36.70817203169335,3.5535007747803746
42.180233109666794,33.311625702034654,3.218963775842074
26.77087117707575,18.638384426143563,2.12911129707377
11.74518517461209,6.265699664585004,0.24429002973422828
1.7950619681777897,38.22394467644766,2.250616524099044
12.794740111551873,72.28902989054251,5.005429711742765
20.289626529789054,102.4863992547849,7.535009689549585
23.617380812761372,122.81531391976863,9.300321714064278
22.704290775529113,128.33684342367798,9.821560262243102
18.23967200884206,116.18541184937402,8.797728821439602
11.598523525515612,86.32721062503597,6.204726425243669
4.520963920204714,41.895513582038994,2.3214315926794566
1.290108882823972,11.03642435805625,2.299425698904466
4.452545780664964,64.3255406640784,6.984928565974856
3.973622383204571,109.20771200764263,11.149134696372952
0.8368554226589521,138.0772457729497,14.36055819243781
10.413799512045596,146.17757806466412,16.34726546463341
24.762804180114905,132.72275265200906,17.045241356706498
43.06123704623118,101.06420410301604,16.56524667729319
63.236918787336386,57.763793474043176,15.108824008933135
81.85547860087733,10.864838634904128,12.956757935514043
94.5712509661411,32.02065146535844,10.377453181820833
97.13643328427209,65.19240453037884,7.500943911819254
86.67767593450026,85.5079628262094,4.369649449735134
62.75758371497883,92.19328661469073,1.0020673663985218
27.76861611395948,86.20310118511836,2.6128403451843347
13.536374322933357,69.59930016416652,6.482686157773431
55.204607936302246,45.219314044488065,10.544760343768681
91.46323309147971,16.570260186924923,14.57734026091937
117.82931532584445,12.352735384982589,18.187216050209567
131.66700641712993,37.57940305293718,20.87644268421907
132.18683993719696,55.9791479800735,22.148909179011675
120.11897301633412,66.01923118635837,21.757087303699056
97.34992996280273,68.03035951190495,19.82841326664475
66.69905172062165,63.7810427811742,16.664387155273907
31.771033510162145,55.53827020478598,12.630339089936033
3.3375998472601056,45.12944930015542,8.199593721739994
34.59863660734235,33.53396205983751,3.8058081284928496
58.79660951799241,21.18769755801501,0.29394683433817753
74.19101179455782,8.725448455563779,3.945099133339303
80.76274578325204,2.422427793364542,7.058110768165871
79.86825409681752,10.040785335529844,9.632187533724622
73.41716976806862,11.821878094492492,11.70253932374078
62.96103519025215,6.415072300054318,13.30677604376468
49.17081829170163,5.756054935132215,14.49393287133092
31.98404543572471,22.33968761838983,15.304368759788273
11.324034201540982,39.60072030761142,15.75608281094265
12.041932532350607,53.3844491302449,15.778954137024279
36.02396357675008,60.051832644771274,15.1670342828939
57.40274341605875,57.08528049986828,13.691517492135837
72.63719860771558,43.357230437563416,11.253121261819933
78.94630245249364,19.216022092050714,8.007818378471056
75.19830587273238,13.4607693139787,4.340251826028481
62.254925950634494,51.27342500696466,0.6579574748688987
42.715286588950754,89.55166654947516,2.6873730473461497
20.258128299922898,122.98655588975237,5.385149031175663
1.1510865997320874,146.59504947176438,7.230169496858519
17.98854969597856,156.74127220036416,8.20858486405313
27.73626596860056,151.84943320798027,8.528987057632083
29.260080461660646,132.58560891929503,8.529320096772334
23.009224498673085,101.5223634997978,8.577490446433229
11.002242919795247,62.49999098026713,9.008474842914811
3.472550801895659,19.961336230816322,9.973071787674458
16.461514135512544,21.560259959383842,11.296812266373207
24.16260384694969,57.82182590324534,12.526335216655536
23.767505483618354,85.24628761531791,13.156276648002834
14.118654594875894,101.3325516471803,12.8246384854044
3.999754172859595,105.04494270553234,11.349712160099578
27.995456971251173,97.05234104010577,8.692413289930434
53.956183792637056,79.67302730757787,4.965922098978116
77.3882202256175,56.499985913014406,0.5071650479704349
94.06532493664153,31.79396976384046,4.18919019150776
100.83735121731031,9.775170970406636,8.629708644877224
96.25888601103179,6.06388347010947,12.357217498260972
80.9054420470409,13.542786621320447,14.968290524841834
57.28270239330823,12.188348363771217,16.150799542470878
29.30111986280321,3.33298970034047,15.76992039750075
1.4278180894070822,10.159362353134394,14.040819226194662
22.25979592806127,24.548497961871433,11.51479151460623
38.89250529377944,36.10478930851499,8.850949052182095
47.31618972647771,41.91641392041815,6.554650324935617
48.17921484536324,40.34607502884989,4.744720424817655
43.612374802694596,31.05487362154254,3.153742531914883
36.61155567837368,14.72966923169766,1.3971189930972947
30.25692114995676,7.20342313618224,0.7712880515237996
26.9272745198823,32.65046108006713,3.359577088347561
27.696808267319373,58.73664029396679,6.1622709426798705
32.0696115185732,81.79858627360264,8.882275645876767
38.150184565418115,97.7579972341498,11.206140634580724
43.23612050623773,102.94447439027688,12.771669353542789
44.66674035022971,95.15095446020925,13.267087851756552
40.66901545144316,74.4286628268005,12.593701731492805
30.917729561359064,43.19607505375164,10.808880749642453
16.63312638160849,5.608885453392376,8.040905365372272
0.224913324495121,33.48562005744408,4.531507142301648
15.588311339122631,69.79365531263598,0.6178979056787984
28.27689385811324,100.14626166976238,3.2585799570900162
35.70306624021159,122.33142592347028,6.557324016332897
36.65398158851172,134.94323512514993,8.807361725534104
31.163676059264198,137.29656905742232,9.793993185000465
20.541345567002228,129.56168408395774,9.63741912918697
7.096518392639841,113.04308631319263,8.676997995677178
6.379003673217817,90.33093658805147,7.27506278919941
8.006295652244185,10.122518244202379,5.790356573384551
9.168130182711066,3.4388308984375886,5.00966792253691
8.867914245680874,7.79015372455101,3.300898563574131
6.724794452270095,21.775494096496338,0.6941886810677488
2.661929143136299,35.51981049970572,2.6003718931492323
2.9917640534086054,45.66181765506164,6.271422765860862
9.481240856445902,49.41650738715011,9.958675227295549
15.730108574085587,45.25553739574227,13.240105205538175
20.54861946731333,33.12072533116791,15.678027360150574
22.945784263582688,14.239235695356118,16.79097975881343
22.418653810949408,9.248744062311378,16.110132559349598
19.06614268867302,34.624801991391465,13.423962131763087
13.516698266194194,58.743479567741375,8.950704090025681
6.883235876547619,78.03808984522624,3.273877408448086
0.5282365866505246,88.73346863012725,2.844132054814503
4.573440450517718,87.60162563510123,8.578465083874837
8.18348523026339,73.062043866646,13.16287988056255
10.661940941227467,46.165854056068326,16.069693897948536
12.675524443920708,10.966978186684264,17.132855270135288
14.751571773055025,26.131966148909925,16.48056459336684
16.970321184889148,57.947495075228844,14.318875329419598
18.945382657041755,78.46682636372513,10.881554741993675
19.983138088514423,84.4728947713564,6.430350622652287
19.38391534586289,76.19176538699206,1.2459972872733072
16.6958433567873,56.792414156581636,4.175435932123951
11.873914601581763,31.04433703826642,9.117954972141806
5.33031193198338,3.7629541376396713,12.865330297433129
2.1225557441803873,21.27719300803461,14.852792320089222
9.36146747504825,41.641016105369744,14.862120757650638
15.125783281579285,55.86637724787104,13.050378994857233
18.280737585676423,62.89146216754228,9.757293478806963
18.14023498455961,61.793359672327874,5.411860624718426
14.739864501761348,52.077317014007875,0.5085246302850043
8.911984927876667,34.348300846093146,4.473336933957232
2.1162686469928604,10.859247506830378,9.1265140522819
3.984534440607303,14.580137385326557,13.107670431672139
8.032326988596294,37.51151440131649,16.11533862152942
9.322218883187196,54.22413157851864,17.865220146224424
7.901905139185444,62.93851582366822,18.158080745539458
4.437499997092656,64.16852889873117,17.01249777287787
0.03939748088563792,60.07527831952799,14.652208953789291
4.36161506830476,53.174065000158045,11.453399195861753
7.357952704310415,45.14584034425135,7.85920130375605
7.944461974856336,36.37814964426729,4.17186778090909
5.306389006726841,26.39764212243863,0.5235132349035961
0.8249685539686397,14.813384072669097,2.9880983036939277
9.906005761084554,2.0613598946835396,6.2364067746376675
20.48941968514812,10.552353209145021,9.046660337706369
30.475156853953035,21.506092828696953,11.22793540961683
37.68344864277923,29.937750400169918,12.641003803737549
40.522047808653014,36.10066976204454,13.202352921844877
38.42061052832452,41.05453656044958,12.830493155047202
31.809596422935012,45.748465194377964,11.507372500993439
21.694662591099533,50.08486892628013,9.414581682637554
9.079012567950963,52.59066472092378,6.899330599335264
5.421243218930647,50.940476002625296,4.355361207621741
21.541381354757995,43.066900542623976,2.1569113404129148
38.98808981291019,28.24125640631348,0.606477546485465
56.99582094082524,7.59416877075335,0.10675179237362503
74.10386467694235,16.100941384480087,0.07380069931303909
88.29328065644908,39.1754278974438,1.078253407253157
97.42102327881352,57.91583309021329,2.7173044189645608
99.72264627416628,69.21598495293867,4.701430355759462
94.15721930101124,70.96153872411547,6.712268670545779
80.54084172096734,62.2511756919315,8.49204040808053
59.53676427993683,43.58132724390365,9.869246937887414
32.585476345126324,16.95213281392393,10.69696654061243
1.8317944750177682,14.291593341392705,10.820249649398004
30.00111854545415,46.02263511337314,10.088911946610704
59.90229396397021,74.18219008882451,8.361941786163497
85.0287573854196,95.59790006894208,5.599046796697911
103.1940067156531,108.4259292518127,1.9022094791437907
113.20083776625013,112.03639309682711,2.5939014067010437
114.88392116949714,106.50869185175486,7.717167340146742
108.89215944110401,92.13345177094688,13.165410757960538
96.37423616011574,69.27811150570662,18.498478891759483
78.7498844195189,38.707132521006336,23.176844096164757
57.64408312928346,2.084631976418577,26.61420698111008
34.893950321959,37.739879266724124,28.268893841316867
12.464715801700713,76.92899389072034,27.80786505138331
7.822151496292647,111.32878145094564,25.16914934590337
24.661088183096826,137.285349372636,20.49267808644382
37.495681538655994,152.208742706422,14.11123876444449
46.4352295283289,154.7180789133376,6.5636774193219445
51.87250856348545,144.48118535846044,1.3879502506441976
54.03693470959916,122.02815290422663,8.824712589313336
52.799683788544925,88.79311473469905,14.856527651407553
47.91071263322876,47.36586476058543,18.768478121848474
39.57093722973471,1.67211632574698,20.20521470691468
28.947002453791136,43.22092303503066,19.25398792073642
18.219724043547178,81.83500468097404,16.32586510779359
10.014185736052058,109.3964086605143,12.10496004478652
6.397637702148254,122.91007508704087,7.468411358296325
7.955239361342229,121.79259467633119,3.2699284479904005
13.448364287878883,107.85756502331027,0.09611881668293303
20.238330514254077,84.69663202904681,1.8644731573033784
25.274317982232457,56.747605251455035,2.7524784684180417
26.15075520894379,28.38686567276729,2.883649485776086
21.764885559215006,3.2639513637480007,2.5010033500602997
12.378318509747022,16.041441628329082,1.6809607881010424
0.782101016775794,28.120050055752653,0.5131909527256372
16.017365014918397,32.71044897281388,0.8138096084121579
31.462746565466073,30.608120621808542,2.0281988956773658
45.17652116127473,23.53422960348266,2.9285435782393074
55.178105519175055,13.937071401643996,3.5660919512506255
59.674155979596804,4.680801460574408,4.141328032660427
57.5475212386102,1.3871902156674834,4.858834781597512
48.913304469785714,1.9880067870329818,5.803248219466512
35.397687092548125,3.9815251560479563,6.821294424540674
19.881476780211994,15.970349885182854,7.6179140729295645
5.6940332536843945,31.640087181535094,7.870200306174963
4.466528871683585,47.22115768627054,7.251779215668924
9.399547279274323,58.38098673609187,5.544815945454361
9.682529678477827,61.40306282704051,2.8245303380017335
7.291833053398567,54.27226120756311,0.4851055944263939
4.75764289574024,37.2669060181134,3.7651229013753067
4.269999446079874,12.851266847889104,6.427386864797049
7.094466273692002,15.037781946406115,8.137673131913026
13.42119195667919,41.9802107788522,8.907728418632582
22.58414675155237,63.96164767227449,8.973033964908954
33.42303493964893,77.91632612027907,8.634020782895059
44.58274477274656,81.93718259330208,8.141525075247504
54.68805934427232,75.34306502559346,7.659017484056585
62.42337343346418,58.763310909462916,7.279448845534262
66.61965768522,34.24386815321067,7.006360077213427
66.4131052385501,5.207991470509636,6.797367912883362
61.43920309743537,23.950882380918625,6.602993669506515
51.9675726142918,48.72127153198395,6.2880895038152715
38.879135193303384,65.54487424525558,5.670832305858522
23.4593576271814,72.67625949796117,4.688823447399648
7.077504011162365,70.44374381808358,3.3901737666307983
9.11055007008831,60.77404056928244,1.7777252617577515
24.326795491581066,46.2309891274074,0.23327738677507895
38.15364564127874,29.064281072378602,2.7247493928161073
50.34034074020682,10.72825565575214,5.657252538074275
60.55527499709968,7.948311070255582,8.76102566863418
68.22105555779335,26.16578569145948,11.573305475491122
72.50857299572907,42.57672162532296,13.634599950854884
72.53864028396424,55.14583903278445,14.62245980364658
67.73062439009165,61.61115801559714,14.393514023599673
58.15731879134319,60.31777702182183,12.9596900122516
44.75931735294065,50.980102611715274,10.36679213951862
29.021421561946525,34.93274263697409,6.764826267994021
12.591562314549364,14.453941910160157,2.4629433554384197
2.8502427381937476,8.063162995749982,2.13465165989518
15.831502623335819,30.41640475284813,6.552657365861143
25.285982305910327,50.682128164305894,10.365509938324655
30.683269807383603,67.16545619363428,13.249531175120607
32.06303890113729,78.37826051618906,14.940215510019694
29.97371397396321,83.178479982026,15.25636497018508
1.7439316625367616,11.65533264135801,0.8031604879472858
2.476279534138537,14.186484958366792,2.183542775414204
6.890328245948823,14.344821601634708,5.364673539043349
10.60968790796498,10.898789264418516,8.06260334015483
13.070650409838226,3.6872553989341554,9.604739246784698
14.157632062637218,6.109456206549956,9.509439171882576
14.116214845079272,16.270095913275462,7.678318774236419
13.335600847306015,24.26050930188603,4.406021984967204
12.137078560145646,28.153800961447377,0.3014541897090959
10.662206949470932,27.27218064724538,3.908395736709687
8.88551224433598,22.346171908653403,7.553583667332309
6.720694926392083,15.25380648180322,10.037382912378892
4.146152786733009,8.420480616658814,10.811447268812492
1.1092097992288243,3.829511895798659,9.577889420942029
2.794229605771191,2.4174744285912606,6.52313302840543
8.359278479413861,4.48970613025782,2.1678852465505623
16.329085238902827,10.002651889259038,2.7426903473439284
26.717668514942385,18.348864095292292,7.23855959012494
38.2084054214142,28.185067007026678,10.395689381988536
48.0739641393862,37.218071224096335,11.62635837114996
52.8471175861236,42.399082160328355,10.871532222785229
49.53021610617074,40.64861928748343,8.55911089334787
36.85388289784398,29.780973390710674,5.326045558996651
15.991447453521848,9.423791531833738,1.8454285117006954
9.611119822614265,18.607047701659493,1.3152860477643784
35.21197982560888,50.58710895708646,3.7887867690572907
56.086284631899474,81.67708511609467,5.41375395216543
68.58659907823125,107.01463809357267,6.235013682265078
70.62309121457454,122.66186222913488,6.372132405525357
61.588673508051336,126.21432534991864,5.922796357361301
42.079953892155984,117.00188655431435,4.975579814986395
13.818634584949411,95.96751052821203,3.5842168173614812
20.122399838560685,65.3919133002905,1.8775903044838134
55.05873229608091,28.5237581851669,0.19509123819275676
84.8813068540116,10.809412073475494,1.011893449895549
103.04321881270059,48.57421302311253,1.3572322092507896
104.2457522346478,80.88385370094275,0.6723826626568937
86.21531599008851,104.33327753301863,0.9356104733204428
50.77294860310868,116.33040493890746,3.197605192823708
3.655133155520807,115.4362184928331,5.784217859987543
46.931409125011406,101.71352128191263,8.277029228672955
92.46796207056104,76.97938812589705,10.149505243817579
126.11481732121796,44.802894459580386,10.862790289378179
143.8280773444093,10.109961463619479,10.027161169218003
144.41557239567268,21.644969100657793,7.553373544080418
128.8732732006677,45.55557268608163,3.6730981400971308
99.61040240784268,58.254809082974425,1.1598230253428021
60.00811174777018,58.502331998331904,6.320159132442813
14.36633158199135,47.20818240757463,11.107016370361805
32.0761845836426,26.979253110427887,14.885341606011675
73.51021018552605,1.455163007149901,17.125218970185948
104.50244001470858,25.294246727476462,17.538208169100884
121.2569711375445,49.20938476440313,16.24954286674988
122.64246093420977,66.59897896428943,13.71947918795782
110.45459103708541,74.55594268789004,10.548331928681797
88.71996918482037,71.48900783787003,7.288425827920992
62.326355710307084,57.623279006736766,4.2812801389308515
35.57852688479489,35.17785115691138,1.6492426040682853
11.252569562053978,8.0017657449405,0.6323309140015609
9.559569031564948,19.31165597637319,2.734110549409107
26.925068099600843,42.55709322584335,4.88813857150112
41.293986575652106,58.872933734131365,7.181357387428724
52.894915676699014,67.16811943712061,9.48552617883675
61.49868802786809,67.947321135015,11.529510560125164
66.51977543025386,62.75219897163003,13.032848010053566
67.26013559430115,53.54476734109499,13.83386008917535
63.108024295165656,42.26665601810847,13.83458075008129
53.649755203115674,30.623087624881816,12.934846436772938
38.78974977062632,19.988800392127292,11.101769718821961
19.003911897818572,11.321809512179628,8.381240138384747
4.322173170596124,5.066859356291826,4.908844633865139
28.683283751502508,1.1436251783247722,1.009220326295007
50.57993932847759,0.8827602173716014,2.7909723302355456
66.11138155490444,1.4998647074671303,5.9144162035602825
71.95459083838992,0.9868056427089076,7.939096203930756
66.39773597470916,0.6155142177198574,8.726575751457464
50.04844720848176,3.239337159798018,8.404819067009555
25.926145765278463,6.390717368895349,7.245272978194184
1.1262707320034488,8.906308972410475,5.584460823200938
25.479241006867685,9.098226275868566,3.8190191890353176
41.878131256514855,5.27383139157395,2.3393452736655824
46.46752498968977,3.595310255331584,1.4307138401692476
37.51372295153659,17.36215856222916,1.2283973516773719
15.78008360852966,34.601276791813554,1.7176252950855102
15.448789936952734,52.91770935000234,2.7932688385263194
50.71720275688827,69.46504853744389,4.277627390689551
83.17819101338509,81.4457019180666,5.902264189725814
105.81861167423602,86.49743972302994,7.365790379078451
112.97015119905406,83.02651955553083,8.350308890759568
101.73771395488562,70.55228910573629,8.55430152807265
72.88588497878517,50.03677100361347,7.8075970992417245
30.835401691119674,24.03683823600713,6.114805668060896
17.322432079586008,3.5518025393145702,3.6318350325552773
63.532979469930616,28.25964869194835,0.6005183052632659
100.6556290492253,46.15635493119349,2.7023800496909947
123.93584366894143,54.91540068953009,5.947157071000411
131.68437969001465,54.398771175839585,8.737256905826452
125.0853577721666,46.51671714848966,10.691949546137366
107.38110692537188,34.46098367598593,11.637338838508983
82.83446630177629,21.703893562903517,11.68553555703603
55.80124496617899,11.15598863498472,11.13296662785113
30.069930624711954,4.697032762638805,10.334279971132297
8.481652015172227,3.084598967081393,9.560993871177052
7.24199305711984,6.081439789928095,8.893046976815862
16.5433392440485,12.665375865518303,8.232548636523337
19.940496281237436,21.293316297155215,7.4311263351474475
18.772633456661335,30.266393658836627,6.422221341577883
14.803510519477518,38.20336368864585,5.214075544517025
9.779342989616323,44.453527043570794,3.817813422646958
5.083758804299749,49.20584986795163,2.211180532037579
1.5918947771854028,53.15185698484677,0.3186803830273785
0.2707249765072953,56.787096220294096,1.9699047896227317
0.34192749255725435,59.71376560192014,4.740661238106076
1.463323538976077,60.372333620485314,7.952787694338324
5.2152629955471825,56.42212945759915,11.348650601171922
10.892044729469623,45.66329380497864,14.496804087837294
18.252475327408217,27.07823080328959,16.956229882021724
26.73456839381943,1.4652726757341585,18.425103092383097
35.442568042849544,28.63089919732409,18.772755104956868
43.243360136878024,59.59871825551561,18.002190846605934
48.927045049764246,87.67680611375036,16.202271609200757
51.406597800716206,109.6616133569577,13.475978627315813
49.92565573008346,123.1657517379033,9.89819602779203
44.2337607642178,126.54517297557588,5.5654756741516
34.70193953358817,118.8082862648833,0.6608210139896229
22.3282498566446,99.76959925979237,4.503737828869967
8.609143608304766,70.45660037674398,9.47247960691723
4.714768283833728,33.50053672425641,13.75165785152138
15.985059055676913,6.839690060029885,16.939453112524774
23.89877458347244,45.24401070771451,18.76184348494999
27.64922850700879,76.4007203130419,19.093372358039446
26.95357008107433,96.17074239086885,18.00505781899412
22.019413360612532,102.39698205315163,15.745335627713185
13.489266141932612,95.10744146413298,12.619719672122415
2.3911745520790566,76.13272219989751,8.984532255746485
9.918425684869236,48.43083473575946,5.274554139892159
21.89876009941575,15.485734069855525,1.8515682120759447
32.07812245283114,19.025718099532718,1.0645097494078084
39.31914105613924,51.33479348887472,3.377506608025172
42.951608634946886,77.6576956239103,5.151800455272622
42.693654762765696,94.48754782552628,6.534390442810229
38.41256793602044,99.19979960121665,7.605491644778337
30.545760485826968,91.2207284702872,8.391466042780946
20.26360537085351,72.29131012055768,8.921700341850334
8.963276759630268,45.74014107354624,9.224790256346932
1.9366680072109272,15.897194469205454,9.302068453221155
11.1857213635255,12.75517417914563,9.113759783478152
17.863279324009014,36.45525439721167,8.628923179216054
21.515618295282977,52.791717582930836,7.843686958688738
22.23138633683517,60.93145488944188,6.764339952165784
28.308989431146536,6.94703654293615,4.731617025211394
17.609018807927068,12.257570181997645,5.340502487717153
0.20212012346841188,16.31460426668077,5.52348680480756
22.43609493641546,18.47326032282985,5.068609715662168
47.94737706176225,18.4550661352325,3.7357649890990943
73.3048396031704,16.180027381821358,1.4117311087784905
94.96194417883608,11.616178107914806,1.7797387227020478
109.03067879925426,4.739729145721968,5.5068712430170645
111.68280227459374,4.2321349263738846,9.333310104709247
99.85440643168769,14.563766929237177,12.796854424231231
72.15538682913198,24.823157968903608,15.491963779751696
29.814611340376754,32.8245640563533,17.14782414266227
22.63211476990831,35.912442734463774,17.608621031184178
77.66780257225903,32.17900175426553,16.769887916760382
126.48654190201293,21.7628528534703,14.600377603123752
161.10764159510353,6.669731919378484,11.21990677973734
176.0686973097693,10.023086127193178,6.884926382309236
169.40355063241276,24.935002457922252,1.9200670479112716
142.64030987200775,35.35267384704777,3.297110279213952
100.11145183865557,39.611716836713654,8.352965705499457
47.99171068560533,37.02428737870123,12.798158408758399
6.714947244843862,27.69837816506593,16.186193653347406
57.046422400999624,12.29571392712693,18.287625314239477
96.91121150172931,7.860480499772161,19.221886473969843
121.92251700508285,30.557175724982805,19.274041219382397
130.09523251851957,52.586886738358864,18.672607339676812
122.19283234550348,70.02161477458134,17.546513514582735
101.47485307149742,79.06102065745496,15.949538608480854
72.8298101332827,77.08290200624586,13.848595890407505
41.522096900847224,63.525815187670275,11.161698301229446
11.96948044834625,40.170844331770304,7.87511837811358
12.998241110535535,10.618368556544274,4.05796951973881
32.2135380610446,20.7640540413575,0.17014662629335178
45.70543530854746,49.98762246377316,4.61143293455321
54.02717262569841,74.18801319009435,8.988319905595208
57.710363408979866,91.74330457850131,12.93742486620483
57.051327249224514,101.90494731478498,16.07874209261794
52.24113498078808,104.29557932658896,18.138084770705348
43.642208858400416,98.66444230869487,18.95964304783887
32.01369168496416,85.04058668139551,18.48290985280178
18.571300971158287,64.12707220369636,16.72120589976416
4.860194458259405,37.63721213857777,13.795504445702388
7.4871132370627285,8.309797015001797,10.006704593075547
17.046454038501498,20.477400151311148,5.809636262077089
22.889546457330948,45.34612191752733,1.7390818752071846
24.820100255160618,63.52388882158231,1.681402407644868
23.505586331239282,73.21439856874508,4.046329797961245
20.390738731938185,73.71046822722438,5.199572148477822
17.363523035180897,65.35063854833474,5.326877039607326
16.237892455591137,49.440571336933154,4.854191075134064
18.182213916159878,28.198028704209264,4.296429387607271
23.315094625183555,4.673010147663023,4.15765335439306
30.632998644319184,17.496346355060478,4.773290380954519
38.28793710506981,34.56719252111428,6.160577774854238
44.100567177407584,43.34253734031031,7.984131719137591
46.11127878795219,41.831346696873034,9.696768348608977
43.008588088198486,29.715871972117576,10.825991283725577
34.36895478776271,8.466679796116146,11.148960380852461
20.725718629328274,18.917945975543873,10.621463665907914
3.5060123639888006,48.44718907434549,9.288827432328812
15.143798112384925,75.81495815167833,7.245759361273468
32.66601803406332,97.0851061376693,4.5592558060720725
46.556949474717854,109.25992165931613,1.3201428328835991
54.909755765946166,110.65945367781366,2.257327880961848
56.88284436465091,101.04508697374517,5.897962732794698
52.90518319186249,81.47763578390652,9.324164377112044
44.48389997615779,53.98712790167708,12.263745862540059
33.699210869568745,21.15818020703459,14.505383312795624
22.623783940642912,14.20432936399071,15.879447701364239
12.909996797714605,49.235201642883005,16.192767029558023
5.680449499180038,81.05634073234762,15.322353058868993
1.6562906040229948,106.81095560233139,13.287954106647055
1.3219477312859467,123.82611286808526,10.160147818023924
4.9131994781117365,129.99806845805736,6.068240888680415
12.157065526300183,124.30043649855631,1.3193779885366033
21.92612156678746,107.2207173761504,3.515585071295726
32.0987238658161,80.93057001659125,7.701375390430614
39.84993040901415,49.04777651602001,10.664689298156459
42.3590827877839,16.023516884257266,12.129055453071448
37.68568012860781,13.656280973026993,12.059869366434205
25.453928191002955,36.24373033625163,10.679014616478643
7.0302310533564745,49.30582286867551,8.363242605811758
14.879492713184744,52.00864213402843,5.537274468727612
37.018970951369575,45.11836597610613,2.6846510295059467
56.41871467838658,30.789374404444665,0.28303486437890124
70.965929633528,12.199680942031513,1.2843086227314413
79.58463183702749,6.903078394327115,1.8046320786158696
82.09968873450984,22.697911409894495,1.3734338408393907
78.96296666108437,31.81692219835373,0.4178984113347212
71.0069075671487,31.878293812721633,0.5247128433442805
59.2922493589811,21.98630457455598,1.0115159692840796
45.033866406180564,3.1132223604956715,0.7855831785448304
29.540480393063977,21.78800909835106,0.0970397075971865
14.124444416195987,48.09483871347441,1.2505570611939523
0.0025346456238801275,70.33321986138884,2.1111842621830386
11.764794186736196,83.39053232007808,2.1974367866095568
20.28073483379685,83.79239231140883,1.3776031506848354
24.845331474320265,70.63732905505597,0.16665788122084108
25.097072178825762,45.824256146505945,2.1282844389075914
21.25126373113151,13.443369101037062,4.14982769156715
14.360409823491855,21.411070577652254,5.889793600969946
6.424289044563815,53.900960487150606,7.038717399409272
0.18257437553389505,80.2821264087824,7.364912071616586
1.4364600751970378,98.08868783557874,6.823390591382917
3.897165933799358,105.81757526474604,5.474164461217525
17.152597608201678,102.52968318662772,3.3660905364671185
37.47185468654581,87.76688742614947,0.6409849144681495
62.151510339505734,61.89847177604039,2.414069703480686
87.0863144491943,26.668584230191954,5.487112586709021
107.51552764939017,14.485775691867811,8.254963850442582
118.87809577201156,56.696012088211084,10.409799135610518
117.65469041440967,94.52298806212093,11.816907527594786
102.09800533717743,123.09910221916475,12.52111732160671
72.75769224888745,139.07389425146056,12.65130968961038
32.67619667423046,141.02886925600848,12.311496904219625
12.896889207814302,129.336367840185,11.475235529103967
57.37743313411416,105.69260333320183,10.081259242522753
94.21686090781742,72.67299230895482,8.148974692352
118.4065407563694,33.503382860857414,5.744712787038731
127.62602868668172,8.023442217675912,2.966993892582504
122.5978578050322,47.67741241186616,0.039918651304509986
106.50972620855042,81.1599116063742,3.0783408142585893
83.78745684100465,104.74358058376694,5.908850844551406
58.743262044655886,115.98524828453198,8.341306752069896
34.65133548846258,114.24230424798225,10.315157308226656
13.517011540945733,100.80461733026345,11.838548813663637
3.6043964441823735,78.58879324810167,12.921211305809432
16.111118297386774,51.49608607787541,13.601448341873215
23.610271379568985,23.63763412116556,13.91545192532704
26.09567405391089,1.391762369180108,13.8585319046174
24.322824537703532,21.060342967585267,13.399967296325455
19.986923726435023,34.1591214658272,12.4680761646442
15.414065918506642,40.7245991033642,10.946977470506418
12.811150498194781,41.67100936608719,8.693655879848325
13.43650687220806,38.27466147066991,5.60210070230491
17.151001383515215,31.71585557304904,1.708072869135322
22.643471464092052,22.884239971639857,2.7631444190503087
28.21988063251141,12.54038151539253,7.415955808012858
32.69356214745284,1.7058435694415428,11.738520144897088
35.86586982355667,8.035745798352332,15.126883548430397
38.34132061143255,14.612406669284098,16.964064580078148
40.82270709810086,15.991264471266875,16.83844039452065
43.20135477764844,11.349857182402353,14.736779177241438
44.60422085726156,1.3599411965582875,10.959469023267392
44.168508157353386,12.38349231303938,5.959155496268691
41.53012176241499,27.62869628880222,0.3254666046584065
37.12224243791995,41.97016792847826,5.268450211081478
32.06348545836981,53.392858680382076,10.161461389929569
27.647631951927117,60.63172341908638,13.78015276822536
24.707830662759495,63.235617596563486,15.744441024375401
5.68152054362597,3.415026452752125,2.762889917552091
15.820261044453774,8.32545463264087,0.3753074667393646
26.222079675980655,22.708306859604,2.5378997520855004
35.06654442437985,37.981182981076806,5.488702921721863
40.44043025676621,51.86631349400403,7.931470668761395
40.626945430400276,61.90941418591496,9.420588070524904
34.43660624679357,65.90767971214842,9.745879693482056
21.467989144366115,62.222471950543316,8.875240327964306
2.399454839382402,50.06427443814804,6.920719725438855
20.929714261086122,29.570694380710925,4.139997215714295
45.61356454729085,1.8273022001150483,0.8479961620701174
67.76152800913891,30.879370733313277,2.5893990637420483
82.77462045868414,64.8091866378565,5.627879758506771
86.75149587948674,95.68913633876507,7.641332838808475
78.0649926294005,120.05624370447566,8.219063377747228
57.22534629061486,135.16909122480456,7.300194237756953
26.441557809754716,138.93005546554647,5.18802628109778
10.4674587836086,130.358286807669,2.4381399278572986
48.66075480701502,109.5444656295661,0.3380732685803733
82.66721772659551,77.7566706178662,2.5832759890369945
106.89151611490612,37.43713337485091,3.9553912684571144
116.4729151672248,8.074792500907781,4.41880974328477
108.14508334359499,54.69489665564587,4.150809378701685
81.26946081481852,97.99042916839929,3.4189220003996463
38.47274651066756,133.63480929624063,2.4066589350042142
14.386663609650029,157.98665792825432,1.1677512048476406
69.0104384263006,168.75919924995125,0.2244601901404995
116.25266539239999,165.39573201445933,1.634705034003925
147.92283211326165,149.12355633207855,2.8869408143184763
158.37414891065816,122.5393517780538,3.74844373776958
145.45358179948545,88.91340922650488,4.035870095633137
110.63308059347399,51.57586888875891,3.745403673682466
58.54848540548155,13.591953130220356,3.0608711242020776
3.834894620379824,22.2013119273135,2.27504917172643
68.1730371411351,53.07204798631975,1.6040956138712823
125.75152497361655,76.46974490395588,1.087839803998226
168.6280230161318,90.44696078924993,0.6951949348531528
190.8892348762024,94.31811654242915,0.3705023941934067
