14.972292395781414,8.1482225877404,1.3557209767682608
16.175496236889966,7.199919746279553,0.1717476593924528
15.177853065829156,4.467325038832714,1.9810839819820705
11.50307989871815,0.14197071636345807,3.6928571145737235
5.003095389300795,5.232860890415346,4.6242609747731915
4.1375378770682545,10.901291669870906,3.9753730605781774
15.389453820709345,16.032908124415773,1.643240181333148
27.832858482623692,19.828691788019025,1.5257648301852644
40.14297212477441,21.61501367675191,4.473171388439067
50.656018037464065,20.932974956874133,6.376941501014135
57.57375311795903,17.640443885880934,6.663522001744752
59.31867430379914,12.00730695466418,5.130371520802223
54.93547735079869,4.744841028685224,1.8271919295021566
44.312003306879724,3.0944857908174,2.8744115660081206
28.215929517053468,10.312603539950338,8.074768877218897
8.25266357578184,15.78494478804263,12.748818131620952
13.414156669686527,18.718739049298037,16.048617834683764
34.48241736810738,18.844973622005817,17.328510227822026
52.82273698569674,16.41617633638229,16.32034249886334
66.69623034027397,12.069097681698585,13.121196199766718
74.86053463389767,6.639755356548211,8.05976062983494
76.62803203842596,1.017081981773515,1.6681740661299067
71.95877365685187,3.9359003130639088,5.247271297333483
61.52445764586532,7.4469198022473675,11.619491062114662
46.690652280147184,8.915752570904283,16.472998542395604
29.33932897252926,8.023722794029828,19.338280215802357
11.555898515859976,4.820484538761549,20.199665358638665
4.71146294597303,0.2725429291011916,19.15427909293499
17.93727424743273,6.538680420197082,16.524415822838954
27.155160589826192,13.094834902237288,12.945586057092019
31.949191193942067,19.004869392424776,8.938587584764658
32.37223212022352,23.331349705150288,4.795028677482918
28.85891437271894,25.1680333209907,0.6782019750057026
22.180718998467462,23.72885234200358,3.3860419199527643
13.422956879101605,18.545213408152026,7.467012752695964
3.948214054118149,9.74025557521552,11.619136363104072
4.66471941125524,1.7759012928076927,15.538181272205042
10.73064620644839,14.357866586232305,18.56084597334263
12.656260086016355,25.96074736334222,20.04839732184553
9.23551636838696,34.67489673558198,19.54246677765792
0.014168449113572451,39.24572138915943,16.811897686895033
14.357919528136012,39.31663021619787,11.941667581075297
31.943112083766767,35.31354796126397,5.543139090483124
49.65378332342745,28.0924022727211,1.3836107619757056
63.77545241529788,18.568645963174667,8.003726237489701
70.79422071933257,7.529841537190063,13.763542835882236
68.2969116586198,4.321780639885157,18.16601727197714
55.645645539304034,16.210259517845856,20.703024559935766
34.195291357430555,27.20130529344357,20.936988595738658
6.9942299381505215,36.316668129660606,18.704032049855698
21.89990861454932,42.79989592068247,14.295367587732866
48.22995770585258,46.359041471534404,8.284263795701136
68.24563308178028,47.195361001650994,1.337762331994431
79.20658869839832,45.73519316789985,5.554606640094919
79.68466737800924,42.1817087290987,11.225723932308728
69.7365216677586,36.16932859676983,14.856005990689775
50.98360006686848,26.774672625914164,16.041850733919798
26.518472881847334,12.951017697181399,14.772868433504476
0.5243295838712466,5.764502739994209,11.522264015658745
22.429634457070073,28.596429024741628,7.124676328409938
38.31863203480595,53.26688603460357,2.4232066417743265
44.56312872677003,76.2937570560369,1.982667695154406
40.59595679720108,93.76695609475264,5.5705868505605425
27.91834750334296,102.31809849051946,7.8764100532294234
9.667751146699425,99.95253817405106,8.797447689230589
10.137648783205908,86.49131681439472,8.589905624881695
27.435857901951827,63.53913534214274,7.544959800292618
38.81583616094257,34.07685041350606,5.806580385514186
41.97915719878372,1.8637427599959184,3.535784930455423
35.98915827801282,29.170783782006854,1.111415544007401
21.368091788783772,55.413135929241015,0.812840597310605
0.0630099169290781,73.9078806206374,1.4777173173953082
24.770842183710947,82.6277382608573,0.4147533771639259
49.19849844207693,80.72348091407392,2.351496373130954
69.1120739313506,68.73812108411155,6.279645266381553
80.92319363074877,48.7027007185267,10.39745972906361
82.17753100419739,23.997712832491576,13.596142652402774
71.95041555166242,1.104648416994065,14.913215584000957
50.980326831225184,22.196123832471432,13.727594679437953
21.561259677055936,35.62248275637369,9.843973139984172
12.745850849228473,39.24441324928462,3.4875763353544755
47.528819757460184,32.825079779169144,4.772018870971532
78.06220847964711,17.93602891167151,14.13861443525256
99.96916234542283,2.551234649649036,23.597038788023227
109.93842078549285,25.160403442837907,32.00448978108449
106.3525611407074,46.42803755746334,38.279938561281966
89.66363952348517,63.28239288406646,41.457309614085155
62.378270700610756,73.18717238750374,40.86379384839594
28.607742838180773,74.21597128018017,36.39430584951157
6.716111013950931,65.25303341891214,28.56526310423716
38.73368471081024,46.371010571207144,18.467042686124874
63.42645776805611,19.219948375887764,7.483779806312975
78.13091841763752,12.864871901474753,3.154350765519691
81.77489884188932,45.26311597916003,12.52074745814216
74.89977563591341,72.98451128346856,20.006867907916718
59.539220589394844,91.8332440083267,25.34309513342635
38.965858727706376,99.37140503414267,28.553296043097205
17.257994832295942,95.30182356355446,29.97480799305183
1.3574679758173325,81.18535754570402,30.128467154004674
13.32613314111679,59.71339390448952,29.341688407111665
16.58594405844115,33.935556856104675,27.628706005430697
11.139145522979467,6.78849797669792,24.93513300509634
0.8717180453065542,18.990002830588647,21.257074017454393
15.660042498581626,40.767564642584674,16.69533159181804
28.74024906595904,56.08360827287886,11.53808428743059
36.052805310499735,63.055833155032865,6.136532082156165
34.91836868232048,61.0010471274876,1.0009235530347602
24.564376945250103,50.915591970566716,3.0971697508681775
6.1505060377444485,35.42826394352561,5.534976667178844
17.628505096316616,18.10002870629254,6.103414178660818
43.166937546288665,2.333049253043641,4.94910225269231
66.6024492457715,9.607223825959093,2.564922345449218
84.41044827413164,16.981176406158667,0.270354049296179
93.91759281309751,20.231869677540853,2.8234429325650745
93.71198170308018,20.206412415987113,4.668131238547999
83.90781010829392,17.46615203895164,5.423125232039445
66.17474094816903,12.121298498106244,4.47845013087734
43.43870613796758,4.273054574891665,1.2459575325935044
19.26774219195866,5.2948363873349145,4.309261567365947
2.920033980809714,14.723340408719602,11.624844920270277
20.59913169758425,21.343309106384375,19.851684704399688
32.590412582278596,22.566255397983163,27.774843341304447
39.10764150216919,16.970024352211944,33.998289822085226
41.44744344750671,4.982579124508766,37.41657361199804
41.48985952393837,11.198348414897918,37.32974822350052
41.20201258079018,28.36101804112188,33.667856403058884
42.246046930898046,43.281449490366505,27.24618154257071
45.68213426850174,53.467337254257174,19.357184663472342
51.742544574666304,57.36812231983054,11.014775069632424
59.68237331079971,54.16290837676599,2.9533635731854377
67.76144138111634,43.49821065187909,4.140090169436851
73.48357698893528,25.53740619879197,9.955886126082115
74.15307558886299,1.3878730923127178,14.481602500386616
67.63307571243463,26.409196857154097,17.826496096739707
53.08374443257665,53.783924858395416,20.309896375003667
31.385644482609745,75.74922981523696,22.212483858260796
5.041864882485292,87.66539686572531,23.76084106574599
22.38770992795181,86.68539332074681,25.19816674577952
47.106805393158616,72.75483835644837,26.655830337577385
65.8847483484942,48.73193131658058,28.011383849417687
76.61279534871584,19.581528906921545,28.674565796500126
78.55046407359391,9.0073890532532,27.868014696592223
72.15146566075467,32.47765770674377,25.184661016968278
58.86553846916014,48.06734101641484,20.65604393172949
41.03172650204713,54.430690079413345,14.608857151631652
21.551174036531304,51.62519947729341,7.6877330002860855
3.427051433874393,40.95197587729058,0.7670564353767161
10.789874294247078,24.729209817091252,5.4551166298905045
19.521070576569194,5.994901021131839,10.485501012978395
22.47547198216794,11.929835945538455,13.853653200129989
14.051472403611625,9.077552398666741,3.7439957392027066
14.956339068965912,6.289223215361389,4.869901190489202
12.62209508457935,2.281425620400077,5.433735362814908
6.684626835197564,2.753930351475241,5.199002008823356
2.369747989369387,8.561467890457983,4.074119630456586
13.27052117351716,14.82623142757235,2.0914889168719335
24.243769720129496,21.150612283637795,0.6089939154309679
33.412438867578544,26.976640184860603,3.792725454388178
39.174373139466184,31.595496950009505,7.154277165129514
40.50122256753601,34.213951113353374,10.341000549722397
37.08083519951599,34.13787030192378,12.937448814480232
29.275041022869758,31.133577085572167,14.465290027213037
17.970771037601303,25.765240179380903,14.451178453095267
4.551751338854023,19.0132062725564,12.568133348805242
9.17966978523948,11.559493774932161,8.788619214729902
21.444104680585976,3.7999328442333544,3.392912892432983
30.896334460275064,4.101558919451614,3.0146432803128094
36.832286298236106,12.339303601570471,9.452538878554966
39.29705064413258,21.209929370177978,14.867002424866808
38.91600505271472,30.895257708170384,18.47986899663352
36.59008027995952,41.24346254682148,19.74321603126754
33.20125956144347,51.58272188167499,18.282942824697027
29.378220205394918,60.8237933914305,14.039332247235059
25.43610720669881,67.62286657636731,7.456412214511917
21.41465501958514,70.64615617733635,0.5109063881534107
17.184255737757425,68.80777665430287,8.663484336671926
12.559247357677204,61.39986658319626,15.77842555259516
7.3669034582361315,48.23191115513917,20.703076816994404
1.5203821848497903,29.741787084659826,22.53251685775149
4.914203642822793,7.122922428686122,20.87949533451223
11.642714349147495,17.654148308943576,16.03412147690488
18.11519495179834,42.029913754542214,8.87025256772054
23.624891579348837,63.246040150281296,0.6238353765115456
27.542200643014453,78.91063523397395,7.37619348362392
29.64782561192669,87.52131543936913,13.919888915951253
30.4082216558994,88.74603670545457,18.027457298091942
31.025571956992707,83.36018243832483,19.148021382018285
33.14151215733517,72.88414443404213,17.285468320749803
38.19978451542811,59.10365558414967,13.034179763364076
46.71205018361093,43.64098307414473,7.586674080866082
57.74831609989085,27.713854723295256,2.2726573982080427
68.91860704080689,12.09233642681094,2.0066218838753884
76.92396857264777,2.84035785190385,4.748444589967869
78.47345061898939,16.99321858566541,5.656143866011808
71.20997763441338,30.456897562096295,4.672509831157936
54.285381368351004,43.35462553327204,2.073322516087422
28.397327872431518,55.64521698462823,1.4422910141860394
4.605134962670375,66.91562742437065,4.969700976278251
42.246222889709465,76.26319975704634,7.816134268699694
81.78119935243795,82.38122603976711,9.5301910785506
120.26022292234269,83.85215599762446,9.786301359335445
154.41872036394804,79.53213756429787,8.461691331760054
180.67053656517726,68.8770028661584,5.816733099368368
195.43669362499776,52.092373576034255,2.4634106457063174
195.81481829496238,30.08589363481653,1.0972002282229247
180.3297131416247,4.3097281401205985,4.6181569048434
149.41228473939591,23.384733612446016,7.812695141894066
105.37757544127786,50.83244917135523,10.401581912896273
51.93954763467025,75.64461727519672,12.254561367823385
6.465995737932292,95.39592592750574,13.259074234739389
65.23692124448105,107.95546790604436,13.253798920812534
119.86751637637276,111.91321378779001,12.285595747795782
166.0161843664014,106.92662845927015,10.826592475942336
199.63617891757426,93.79096613739127,9.475460466788732
217.34181616606566,74.18140082284025,8.588587201772535
217.0142791172258,50.20603825166463,8.179144980488982
198.44533165236365,23.997283381196254,7.8580997540451065
163.69649904402863,2.4751443971672793,6.834733076763842
116.95941789222475,27.33863346270683,4.131831686260949
63.91481065442179,48.684382067292425,0.791656549405206
10.785445191229368,64.61155227110096,7.618599880736355
36.642701519359875,73.54530884482351,15.30095565052757
73.80357387349567,74.73159094502029,22.28776227986246
97.83648485534125,68.63152138764245,27.191525309795423
107.80610751885864,56.92318407381561,29.273988112851324
104.67764213820148,42.04343883957442,28.0925025438605
91.02926208575954,26.46430079714984,23.44395723142557
70.50534435021824,12.05703791571032,15.64203127658855
47.06876263521809,0.13918011657933752,5.45870491937967
24.24097170657875,9.67991416400837,6.036823586171216
4.5585245776421095,16.227197031462467,17.571445612076538
10.596125298225784,19.185134173487054,27.7414146146346
20.770343483090873,17.761079801850023,35.25706379495828
26.034358700946502,11.452552496848023,39.166783796259615
26.669683248935883,0.6548073665618623,38.89394271200012
23.09650316851069,13.015695913759853,34.51819281261892
16.020083843401714,26.937865842059146,27.053849780744667
6.612465033836803,38.212358010402205,18.030451487731032
3.5007421103082565,44.573383294637644,8.628616751554434
12.532074668742752,45.04125559562899,0.5465792819046481
18.986413646240663,40.042694126698805,8.971152320254507
22.065805372393772,31.013899483994297,16.059804463374086
21.826031608204758,19.761484287345333,21.347085693046107
19.021573051221164,7.946118575817425,24.5143128258152
14.775905390617297,3.1324342826086395,25.47684666299462
10.270857647704377,12.490258335997398,24.36401892109797
6.582642950826141,19.334789533859176,21.4762028055497
4.6562481415959045,23.09012668581025,17.57701333737436
5.276668242625195,23.63619313757933,13.884896775451539
8.930858236748753,21.609911525605554,11.434266572479867
15.569687903902901,18.514502277944317,10.599615757671586
24.39308112379655,16.436634137582878,11.192070325455548
33.81858046581465,17.405870135499413,12.723985566198696
41.702623026743,22.64190931059826,14.54084220245459
45.769178840072854,32.01982117948189,15.95037733312033
44.087211156677775,44.007475410103005,16.355213270575263
35.44222619481401,56.09449683269048,15.245612637625458
19.55207677439267,65.5333918738344,12.219652358849894
2.849860861567417,70.0845764128245,7.15288569463721
29.998417261055657,68.48907393864548,0.3527967205201472
59.140217396790476,60.58609868364216,7.480066028046854
86.69624459217238,47.134841898949915,15.504731854491407
108.60955421878606,29.49757580402253,22.87669200483571
120.91136016690443,9.323497684442824,28.720797958086845
120.42948089452287,11.704258002565165,32.31413330904289
105.49681253011225,32.023462706339075,33.44174119443914
76.4769314497215,50.27645890406113,32.552709692155894
35.95175393119237,65.3414069952202,30.423967833515672
11.469549955888985,76.30892550775684,27.643671235198386
59.71849196281771,82.42376922353759,24.367906257723906
102.15138342924405,83.03057847160918,20.287933837934872
132.64753957649387,77.60793194925837,14.888082765991134
146.7811319727049,65.92817325885014,7.990221768648662
142.77987717116605,48.315403441719205,0.055212296290840256
121.95163832997787,25.91364974511138,8.110569066291887
88.36849092355563,0.8033054057548992,15.61104512829514
47.80965267816231,24.13467522048696,21.36666314076782
6.3076398650143375,45.6156794829285,24.41431605830132
31.170945519294186,60.529963210757735,24.29480056340144
61.463532260431485,66.53974019323576,21.109407032777767
83.1920552226061,62.54931298304669,15.648741430292628
96.18477052647268,48.957144197923526,9.280190207619107
100.80106832005261,27.679363779197274,3.434202351422075
97.58982612515156,1.9608386929351302,0.9629725340463299
87.3767379755765,24.045862601111008,3.6142403411674002
71.53108696032427,45.929052874535,4.478262610787914
52.060693575903194,59.83758122595423,3.6312967675844723
31.290294399532637,63.321065476870764,1.238417659591242
11.206072732705511,55.95311432913205,2.471836941744752
7.126588196953514,39.492479116164255,6.925908846832776
23.660644326527922,17.447468109209343,11.245178123271213
38.8420375464409,5.851117193825654,14.671283706678002
52.502753473811644,26.470938782868494,16.850882925477425
63.444422912426454,41.57832817096688,17.70494236583661
69.99091737636353,49.610391299254765,17.31396106552608
70.7048018506545,50.38341295339569,16.06953567428749
65.19885550483366,44.904766046052856,14.477405714493566
54.59040206371304,34.99533140871849,12.959594496198244
41.312337512309526,22.851917928056167,11.843075221716179
28.308869586249443,10.648281658427768,11.152332713499382
19.730609285616755,5.243918219897401,2.097878667688737
18.801377993054444,2.5771436439143502,1.1892376041282073
14.864321273135213,13.098973215386453,0.07964361856690358
7.24051651565753,24.403882949418012,1.3270023571347611
4.147181408883391,34.08960898223769,2.436930814496365
18.565013458642532,39.83374629855985,3.5292298134575946
34.498001800536606,39.89057943573781,4.9367031666019665
49.84153255409749,33.40857419176691,6.792105728018494
62.276259404978134,20.556082204842863,8.832134964517426
69.654874995192,2.5090164240649537,10.938079506166282
70.39180841849833,18.659916718447455,12.965309443324694
63.94119619409596,40.15236881971676,14.187495438930865
51.17946998974067,58.65664538430306,13.739651403283682
33.94136581516854,70.70538994674438,11.178761066915808
14.144185206216989,73.40300655084398,6.452824079014931
6.2921042998187255,65.35261825198117,0.0851870366505877
25.505619924019094,47.24891787409532,7.793499549155425
42.07293145629805,21.907745136212146,15.969106178143901
55.055251393353224,6.276523502175704,23.790069294251357
64.0347714162092,32.31956909916272,30.477921578719553
68.99554517820663,51.72919499077882,35.359743171130475
70.06295736047974,61.397804496532544,37.62926259367602
67.43694436913094,60.12528199873717,36.60219460033597
61.36019412924738,48.71377773814849,32.03757458641861
52.23415795516426,29.7093704282033,24.20801838526397
40.724341998712625,6.8578339914607245,13.942873864097097
27.696011825885613,15.612103905384501,2.316504689799559
14.084930926695183,33.74618094502695,9.44109946808993
0.7321326214466709,44.52945451883095,19.742279724435335
11.620382754716237,46.32160837223628,27.265506423377133
22.17957250676249,38.99216596571991,31.65768102283913
29.93353185407554,23.75648510584195,33.14313243632239
33.62252684891197,2.832225055418114,32.06093957320757
32.03980637380386,20.934957383374694,28.971223012560962
24.57025314020079,44.39484345245103,24.559724723797515
11.713585654899724,64.35697089133834,19.429309048076597
4.684738504354858,77.887284905383,14.124059528497627
21.658698075256087,82.69369056963711,9.08953712921952
35.75025551271987,77.54925508988605,4.633817676371223
43.81305246916738,62.61533417696423,0.9821433088994842
43.66180288935994,39.47747687079356,1.6827561664874449
34.41014723714037,10.820063202338185,3.301066977276096
16.528514251385946,20.14235825586536,4.047738279459961
8.275202549790828,50.2322172588085,4.1785125978842945
37.22350231283631,76.64874617300676,3.8837237751524656
66.68264088231265,97.01628988966733,3.3269928366073147
92.5019933669076,109.27830487610352,2.604707858351588
110.54606904939357,111.6952873699771,1.7007822718254184
117.41317266041412,103.11703411421603,0.6081752336003023
111.16670143915675,83.47618186993668,0.3840771095252266
91.83373844894648,54.25453137083547,0.728836562400155
61.50152661087437,18.58828535259003,0.1288847379512757
23.97337281174644,19.181130196059307,1.4134784947600127
15.884519620602935,54.402516694012505,3.860103635859397
52.88800019414923,83.11042072706643,7.0044616510932824
82.23248982788806,102.72534438258306,10.460390583504294
100.0925757588813,112.24227295694054,13.744039509656675
104.10234009867666,111.94885466963376,16.251944628415547
93.72033193000782,102.91290020611994,17.457559158112137
70.43344607722136,86.56053247897262,17.048425359487318
37.66791853708129,64.51400139345628,14.985036970272784
0.3164162290971405,38.61391474611413,11.567094246018165
36.07498395066051,10.94684995584182,7.401853388963389
66.27289096307666,16.25796123700397,3.219530196524673
86.21712682428628,40.89424232137616,0.5747398081553109
93.57907131734068,61.31180340566254,3.849509885464095
87.94424600855083,76.5418878200001,6.152383597987537
70.66374271193088,86.32165147110773,6.964811057362982
44.48615705671052,90.94444909263738,6.490027900363253
13.080955030947855,91.01953168341606,5.383745640116062
19.481920245334287,87.2622888160917,3.983486244322489
49.28348452799904,80.36392953710703,2.4389357190830108
73.1083043349512,70.90995505232652,1.0164256601924468
88.90278483802979,59.3311671657309,0.03656168654939798
96.01264772727377,45.891828605020244,0.5315689549410859
95.12686102986045,30.745827900035682,0.41968087951754485
87.95585419009522,14.071545668653624,0.24287444238719483
76.73878001643716,3.7650059974701304,1.4301723684186203
63.72663816452492,22.09129656691894,3.004855994715711
50.78562354153033,39.92706044655539,4.730884893937966
39.17340696676927,56.12746014322007,6.402311155800684
29.467607205578535,69.59218744286011,7.807601418990259
21.606058130759,79.41537516588436,8.673954570447322
15.011612232386788,84.92692901640683,8.687670764985281
8.780513032654223,85.66728457903143,7.813722459258435
1.9096890206271073,81.38897954969181,6.523114470751069
6.4543971714065895,72.18422417391821,5.356294939199726
16.804514429946416,58.71028667085681,4.510175928577758
29.16921134703384,42.35180645855558,4.01559199001268
43.122476377932614,25.157716059429106,3.87264883995251
57.87017107769134,9.45242600077995,3.9390336289301935
72.35715974904525,2.791826842570994,3.8812313084476537
85.34992496315142,10.533255128461647,3.1750448930443937
95.50153340181383,13.905187119004184,1.4062039402381774
101.4582375351147,13.992441740915043,1.324350831613277
102.07315566385485,12.264693641323822,4.525994443259305
96.72134147898082,9.999871316614389,7.737229586863012
85.61018814374599,7.987989895639286,10.781830954858066
69.93918841971949,6.6343856943035355,13.562565697417714
51.79096652205325,6.3420250413399915,15.635395574050467
33.71231091403025,7.842657020985205,16.26169348295466
18.09125096016,12.192150247014528,14.837465631908882
6.5278630268407944,20.379878064360845,11.338917357111235
0.6372313611070536,32.73102448354491,6.340949762351027
4.49377131507471,48.43754894422252,0.6156922221579457
7.334547217469229,65.50833476629339,4.92501593512032
12.076320282559857,81.16919136109583,9.250028407991932
21.48281107744634,92.51957294264878,11.64634003517135
37.37526961955897,97.14699710196948,11.920143221257199
60.02429311917464,93.45025962401209,10.192218771313561
87.89729469150136,80.66201608496654,6.928919143287371
117.85279692131923,58.76086185774495,3.0597034614566496
145.71533753364247,28.488185022516248,0.5217378002892794
167.0722275536396,8.432116213925863,3.4340165154117104
178.11135108923435,49.01343354236713,5.605103090425983
176.29864065072357,88.99509337715172,6.927961373906066
160.7654786139643,123.31862738974371,7.1107486130826985
132.39467859218544,147.063964323695,5.953865322333425
93.64032083794675,156.6003265240192,3.758298473302918
48.1260088585594,150.4938217189596,1.1959098966764763
0.0974125945398406,129.7800990709783,1.13738077196782
46.19344834586364,97.53706438203069,3.0184100392651736
87.0988040924992,57.995627954968185,4.451641146830455
120.04842957268772,15.613505978504266,5.49168558524392
143.73951042779152,25.524950603757546,6.430092179793634
158.00037500248132,61.884931391766585,7.706531823188007
163.41761895531837,90.41053773017941,9.433707393728382
160.8888425065611,108.52476462786657,11.187493381013697
151.28150816727353,114.41361352307774,12.391168234263565
135.33619789166812,107.52010887013556,12.629337062210489
113.8136674771342,88.96065064234658,11.484836979133835
87.7416868948355,61.56851216496612,8.656592903670736
58.60939480795161,29.40970311313343,4.177457215133811
28.42301804359548,3.0728227854602954,1.636434522758587
0.4110143575436641,31.904433128290247,8.077701406649402
25.333253821280852,54.109155921915715,13.970073538697905
43.942435730359904,67.80011329403042,18.097244771833005
54.35458950610649,71.95560852195715,19.901070256442644
55.59082386657516,66.18598128892313,19.45302280982231
47.93099100960313,50.72213649039486,17.033009529031407
33.12970980630648,26.659438989544846,13.176544622220234
14.329533262554893,3.7550306651629146,8.51953045166389
5.2826017868798125,37.02867007360185,3.688177238393917
23.213105425846482,69.05453696423359,0.5661949111532737
37.34382883013,96.08234814635716,3.526922677088121
46.195756381755416,115.36526807483772,4.815423832716998
49.11783742285903,125.56311501177522,4.608844299230074
46.34885629643198,126.7640443982974,3.360459954579722
38.92261939433692,120.16900957052088,1.468120296340967
28.448344566808547,107.61848654061421,0.6014280750713773
9.718909679581104,8.58638857022716,3.967190410464599
10.727843557448818,17.242417119450714,4.152206062868848
9.170063464387532,24.995532530145468,3.9110227490422997
4.9244129963135626,29.667798220388942,3.131649381429702
1.4143256777438034,29.40775642723152,1.6716895832383933
8.83521124928655,23.161546788501703,0.49275161219569535
16.30314790264944,10.956443188907471,3.1861008671063678
23.041856957628713,6.0926646814944805,6.10203046119974
28.587291687267207,25.90171552574174,8.844596581400053
32.62619345456916,45.69592439517492,10.981115386627735
34.74234269921345,62.34247773115562,12.087417528406313
34.21512312488719,72.59734205046381,11.8276086750286
30.00923225881507,73.4168272598584,10.15258247907476
21.109607505703927,62.91835929993753,7.4363994738592964
7.147355105218364,41.418607138175844,4.33775466180891
11.154653341768238,11.362848124442497,1.5136877904651869
32.02171901329623,23.138204749859163,0.5903073013274284
52.9937833428249,56.882084960538315,1.9394056940648405
71.4306116056485,84.68596202132852,2.8721090832485774
84.96050998790574,102.3495058098682,3.7309263848388974
91.74969009714539,107.37101512485653,4.714379378063586
90.65582545701439,99.34459624177794,5.909056809588279
81.28729653543265,79.80991165288107,7.2826404402031155
64.01202959686141,51.88320822927192,8.738180908432955
39.966765860511195,19.654302225273316,10.072977049703812
11.026468192583794,12.493602605950105,11.048260276228403
20.28705323183624,40.50791199827689,11.569165275439891
50.979270777825604,61.28408353639867,11.618349659082778
77.88523447225842,73.10240287182314,11.166814308818815
98.12858065680585,75.85207686974326,10.174161229671695
109.6672605736185,70.94839809761649,8.572876770581905
111.7633059293573,60.910301665862086,6.315503122690403
105.21714688461817,48.72977429867432,3.503661812567398
92.19727605557958,37.15479927741503,0.47895070004663615
75.62263958593836,28.100221470059196,2.2886992876804264
58.29475771429336,22.324639664078745,4.54752935346315
42.11147387781175,19.421527757922632,6.583873128476514
27.7034146348476,18.106607888367048,8.950308891198606
14.622055165417075,16.683711754642765,11.887480334836805
1.9317875253705108,13.562524999715803,15.308417587653675
11.096460100524448,7.683347988795291,18.966061496680933
24.558287725419795,1.2548478305908348,22.40117916348453
37.92785316401247,12.800393039300687,24.93988609052474
50.37705334324077,25.96908739586926,25.724409965666
61.15001920477845,39.56885584236291,24.00385734890271
69.73801040173801,52.481544282937314,19.513322652208572
75.7706748686721,63.79361660036331,12.447629654402466
78.7932835049239,72.77929660591509,3.3531847001417665
78.17833228417125,78.80378545787512,6.779974341700812
73.30651638101979,81.24361636969681,16.599838305261446
63.955000708941405,79.53161515753813,24.890223993302204
50.675336004171776,73.31478573523859,30.913794368241906
34.898135217281755,62.611790143602796,34.23873977511173
18.654354125846016,47.86570491917447,34.52446355031077
4.056410882999923,29.86329990506366,31.74894871575976
7.187866603640257,9.57335961174616,26.586181759397256
13.998788969654195,11.982888299936615,20.0354682071217
15.86380103703954,33.725992190712645,12.819346758955396
12.67096565803535,54.41177982322718,5.467768279131271
4.663208771470188,72.5536396884756,1.471328900460444
7.367124569895783,86.5017958509813,7.36982444832385
21.76596755770942,94.73283397972709,11.656934257497975
35.85645874623303,96.26752010664404,14.187646729403106
46.15642076394022,91.04470062464974,15.290475352456317
49.040944837591375,80.05188366298343,15.418324251354228
41.65140611322899,65.12564357650078,14.924228317764806
22.724778719472383,48.51880382304027,14.241831547592938
6.904729068024479,32.40226318216975,13.718417546994592
44.23805183896418,18.46322451564778,13.134232426783148
84.4454352559457,7.709526037961257,12.023930357614699
121.52079587055687,0.47924718761821555,10.154898326579907
149.17606617555546,3.4475939839283294,7.517193004061065
161.91726892640847,4.722241678967974,4.2701132351487825
156.21038118658205,4.292599955931576,0.7190059132355104
131.51458220452395,3.271709806706641,2.596549662987265
90.86042396133334,2.801150015238038,5.071775367413431
40.635864709056705,3.8878755669678955,6.42722054479724
10.554493138219197,7.264071868782657,6.798707090173679
53.71922263674182,13.29455005714341,6.6122263722686645
81.49421967127152,21.91550234019129,6.313022110306268
89.7519423211153,32.59944706120197,6.233324990496214
78.36381467208187,44.34112780735788,6.424829052717776
51.01101677357696,55.707755310930416,6.464801149340087
14.240146533836409,65.01623404480237,5.746369183637992
23.894318085017023,70.65274235793234,3.7181264191753853
55.29753505226012,71.46423031534891,0.2590103234632117
73.23815679110525,67.08040827141166,4.097322493048567
73.56425985054727,58.01761747372809,8.787972014858736
55.55128803721074,45.49052203792153,13.264848167473925
22.1355702484724,31.023524299182377,16.739450927210463
20.65230862839239,16.053619231263866,18.59803204111739
65.02881830508785,1.7211340408571525,18.608120816680707
103.25544675819306,11.066216474380411,16.794953653087813
129.3329436671811,21.415056082797932,13.124246483379645
140.05069714723697,28.279125941663864,7.513189011199291
135.13331863369345,30.530706853541627,0.20047669689568912
116.61677659649008,27.31490289070822,8.183115898198468
87.89983902136632,18.529321687561985,16.548334296416055
52.94212835345385,5.19865445309694,23.580047273703588
15.841159846902281,10.470074326485816,28.093923598408914
19.283321984669314,25.417171545949145,29.303322849012083
48.40064031498622,36.30513285377102,27.247971198461336
67.94140198492285,40.132725427899736,22.52196558830248
75.40418279965502,34.75444709873227,15.914702855339362
69.95291147799551,19.274171066691967,8.424737470196023
52.71361788823082,5.6819391444374725,0.9867288454562618
26.588469300415362,37.81810489554774,5.533013767745526
4.3295435275190615,73.2186429807131,10.489991483395132
35.46200588204709,106.730263712556,13.725310052498575
62.32506093759365,132.74469562145185,15.186286312016861
80.91872385255527,146.28164045639645,14.73508324068748
88.02796555891108,144.0816688150152,12.328712046729779
81.59066461545339,125.35867600307287,8.261880223717604
61.19223763824514,91.97525619117677,3.2024983692515785
28.522838840712456,47.99865659864528,2.0581741262238564
12.517960469046724,1.1418935655723503,6.663672023556379
56.28501393281588,49.57038696622916,9.885748888045628
96.41002632100152,91.7600858624246,11.37444537649799
127.12582187347513,123.13042839213693,11.107913894386272
144.45238270201236,140.4764172452925,9.413291585087999
146.85814962955038,142.33572342390613,6.921930461018561
135.25751569308477,129.25329744901808,4.238022951226414
112.46719451558357,103.76655576613135,1.7432850316299806
82.39228062717986,69.99102957756975,0.4617402102673494
49.20456577985925,32.830861189326576,2.6984103955068908
16.687486537893076,2.9750224130955107,5.450253613906371
12.190025286673059,33.629375414026065,8.936642996358856
35.502029050861964,56.62038065541231,13.106951126527726
52.43008023610383,70.61838840539222,17.723217101672
63.16568690362633,75.14828417197921,22.393271624011376
68.66735960158815,70.35971726600242,26.62313120668228
70.30781698357936,57.0782572463263,29.86734153599072
69.45545413610228,37.06349931116783,31.593312387187158
67.08780057808744,13.197371866684305,31.2686284562867
63.57205303616451,10.71679839417792,28.275822299039053
58.67146246279136,30.64489751426538,22.153295602691248
51.764607269179315,43.272711026343714,13.22554880502764
42.23008122005704,46.832704091228926,2.586561949253051
29.85331718007222,41.475227657087245,8.441313588105093
15.079477646917347,29.05144574006331,18.52393561626448
0.9840435450424807,12.469145315794318,26.687396762001665
16.837038889158137,5.061669736003562,32.49871041013583
30.979355233322,20.773041910801204,35.73222849579059
42.181250628554764,32.658271036134124,36.49057577249786
49.634812354962676,39.445291298609945,35.2037051184879
53.03865313378745,40.64726945719656,32.295806082957434
52.573489437080745,36.59518654058238,28.22008685874974
48.802127033392104,28.4312068069453,23.474158277803564
42.53422883668054,17.969236879274433,18.6241053052821
34.702853601427606,7.351154657372381,14.24350929242564
31.89555659928169,1.843052085855217,5.225002215341636
30.161766431834945,1.782776722494892,3.06305227410685
21.224843986062382,1.9136372610725532,0.028620684254945877
4.649878300415867,1.9340437457482524,3.567273239197414
18.349200203814007,1.2596883584326475,7.354058175146107
44.91624373019295,0.736226668052082,11.015767732996052
70.97993410525167,4.394980461301276,14.215049166380993
92.0332946075139,9.517608473478555,16.498641651740332
104.04288869430216,15.33399134364068,17.396892264987216
104.24842943273474,20.682802835704553,16.566072505838513
91.62689668879197,24.31018185798825,13.878595646614004
66.93906551906586,25.174959456515726,9.588625511097876
32.53359217807504,22.656586512254776,4.435737823161663
7.885259101686647,16.56509276588685,0.7500297677804713
49.66162326241821,7.0591905223155536,5.416656133973178
87.83825103873082,5.291095254141452,9.096711683788396
117.75536422997807,19.398424084741983,11.427608373934195
135.58700402367117,33.65136877089694,12.294022930929343
138.92593788673048,46.02766223095918,11.768514051354312
127.27148433994061,54.447244573414075,10.354243638930717
102.32465478982071,57.27141382567762,8.809299090284318
67.877795438943,53.71018075546358,7.490930625715741
29.131796953971456,43.98000597499962,6.4039219566765295
8.382905753563051,29.14145973920883,5.557943480729527
39.96718705263786,10.75612692346952,4.9643647888140645
62.57204822217694,9.410060645070038,4.547252030260458
74.99302130061646,29.49165638391622,4.123610695592371
77.51604865485254,47.48252225452817,3.590697835288003
71.3009261006337,61.23807534454531,3.1168354347474816
57.88234219045128,68.68049984974898,3.0413231952948276
39.036560933556515,68.2565358269909,3.8000726796089133
16.953632360197947,59.47531480025288,5.573663046407659
5.585187612074205,43.21853280001597,7.825140779862256
25.35213163864033,21.627836633900447,9.749568021940725
39.25323054926984,2.3876953030295778,10.75960384810161
45.14741677101511,25.78199446708772,10.347224112018312
42.49887527246759,45.862179030171305,8.174151624838105
32.517287051140464,60.47792285408827,4.11488530756106
17.696183981614062,67.97697097346978,1.9143518414720742
0.9649502773822851,67.18347508303489,9.636442499841076
15.108957996388058,57.62005713996824,18.018939283394126
28.71477462260523,39.93101731823072,25.6841119871784
38.73233321703887,16.220851995079745,31.457192372694703
44.42209733201757,10.00882716184139,34.35938522056855
45.22786800284392,34.509104516405394,33.74398018096576
40.93201511889641,53.38109874080907,29.525470721869404
32.10932105102496,64.15438270471213,22.262554195747587
20.57659248152237,66.37950949193012,13.188458761751471
9.45294915638188,61.495925450203316,3.953249513754982
2.582648567484441,52.06577624091811,3.5910381543755054
3.3932300098727652,40.758033326611695,8.060060477943304
13.587349003817293,29.53051037689688,9.291500602605895
32.21151246539756,19.301825191885307,7.947675025752488
55.53558651081817,10.086771427224123,5.338048439034782
77.8441705659843,1.3738339828691954,3.5444104108659773
92.8665960687515,7.445379056144807,4.3699799094643135
95.35833528693432,16.754454439337575,8.302995949815532
82.3268665338252,26.537036878417602,14.647222301162596
53.585199804237476,36.271088741797534,22.10430482090104
11.619626711690037,44.88718486819766,29.233968235933443
39.02717415684247,50.86751197793355,34.83275460755979
92.56976814315931,52.56913768630833,38.165842062340694
142.78021807076627,48.760901069190176,38.79831275595661
183.73104333126713,39.202975875219416,36.34266990777856
210.5225730043973,25.017981027846474,30.621182652139307
220.00638380634697,8.656713421942937,21.802079951147302
211.37259247122438,6.5843121913127005,10.202257685171302
186.35377877422593,17.35857928333664,3.429130361843915
148.8373819591345,21.123825597474006,17.53908975689172
103.85435910191448,16.8012333588155,30.322661825316896
56.21774817152043,5.085391538111344,40.19845096822743
9.361073235382458,11.632715608885439,45.98114758917731
35.09440565129337,29.68363440952346,47.359469314639945
76.85736413792908,44.810216369207,44.95533685067236
115.84054844304987,53.07365983000434,39.76738541857054
151.01953943401304,51.82716608683387,32.43575514119908
179.9570671263473,40.48475272911292,23.114231868580493
199.32575764305966,20.8306251792645,12.199768265648984
206.1981889063875,3.30990922540623,0.6179004276446788
199.4373016262065,27.035014034334353,10.548788115998496
180.43586305451745,45.68157701225054,20.139421124269703
152.77314681637688,56.05733376365836,27.01766027134501
120.94850217186487,57.15948926744701,30.50985731426347
88.85027982564478,50.17608952615303,30.426623922399507
58.70411279699269,37.90179055716382,26.988626456259887
30.91427836562132,23.865961938000986,21.096981529533586
4.70341641340307,11.496332601857588,14.031107741747256
20.934464439481538,3.5165025034241966,6.892130490381144
46.5373350774341,1.5785059775089791,0.5955840580467285
72.03397042899793,6.055356537542803,4.158793835428601
97.01288835725893,15.953902203344919,7.026545336099187
120.99909201158825,28.995774897570122,8.048699088463323
143.39572545378374,41.972082075999694,7.662222723849943
163.06161368649484,51.42214813673927,6.478960261760922
177.88137831878174,54.50101598228705,5.072959539356181
184.79684216097206,49.73133787370169,3.949076419551494
180.5265825120332,37.35877200013733,3.2986007798964048
162.80919625332714,19.180058930478562,2.977617692514005
131.64325808935584,2.0525144195635123,3.001500409664298
89.88048093589953,23.345947211787948,3.5847966043743553
42.80312657523408,42.01638293585849,4.768814034843341
3.197178778448606,55.935281503726664,6.317247849194985
42.32014308785732,63.55523380369468,7.767239734660658
70.79262699201551,63.945342815547185,8.611845673810578
87.57790060743093,56.95372219533348,8.45984485570291
94.24472750789089,43.4484142618289,7.214548694585674
94.19895934266674,25.460259838928984,5.1565988058358565
91.61710728299214,5.992193460282844,2.719795244361357
90.39259916092652,11.571057698521578,0.39761642115905627
93.294547289203,24.258578585279885,1.3732181901993656
101.41009511757412,30.212469955558582,2.3409645942585815
113.89346629032781,29.02132640128172,2.5564164633347084
128.0719213359922,21.582409116997667,2.5750691662575487
139.93868696293117,9.647246632785068,3.0001590678666066
144.97206735856,4.684499338565531,4.073274387499951
139.12374953810232,19.313930146468874,5.937034267468543
119.75277431067363,32.260734455539115,8.68538488827465
86.29107103406145,41.66602832547181,12.343287339226785
40.51613010863316,45.84946730278926,16.760571094076784
13.595248010898898,43.51689873042677,21.389169717801405
70.38002940323868,34.10994714397496,25.453559371705786
123.28413517623878,18.16195950519338,28.082987569255664
165.88380320720316,2.5193733338785624,28.412397204320555
193.0308241239511,24.95060910206967,25.81553473024993
201.88868159526777,45.349551908154695,20.01115031074806
192.56930894352317,59.7441045362878,11.30091562184704
168.1028521843266,64.71239435173634,0.5914357396949601
133.64683016130553,58.09164069024741,10.9990795959563
95.14303214087461,39.537479407915434,22.251866403672242
57.856871561042695,10.8112027286909,31.823500667166076
25.307430047095117,24.3144897345458,38.53430501805956
1.0738522651378153,60.54093859026912,41.59990479745906
21.565283942849995,91.85847259197782,40.58869238513626
37.353296233284645,112.52049185233285,35.60058736896937
49.71460106038605,117.99270603760124,27.671335147665953
59.516360394372754,105.76074662681123,18.578378652435916
67.13040326149647,75.8921785741339,10.044818074264791
72.59914764162451,31.30298615573089,3.075925629191805
75.83661362577087,22.344750839225913,2.1238404557640385
76.73205876539504,77.25564553325052,5.714619475379176
75.12597126658274,124.68154678961336,8.10051961668644
70.77315579039016,156.55627435299388,9.940300698861972
63.63643203082156,168.2161042689701,11.714388569167713
54.062738701286186,159.2283632205654,13.708110477815785
42.71541600308743,132.2769279347345,16.05956907417632
30.593757089604335,92.59764335808336,18.62030154970289
18.89266686221079,46.91027377768115,21.218740822172656
8.73373450000044,2.103316836004416,23.667826250191258
0.8855273312725183,35.99578034899957,25.606895378717343
4.385536683856993,63.46429936100397,26.598556654649265
0.2119736402600764,0.2190036971616984,4.262332603579143
3.3049346228595113,1.4827779613634622,3.992421382768606
5.989593277093587,2.317962102940047,3.0335010707769783
7.292498971426104,2.602763768062012,1.5288294772830977
6.759419494259112,2.9371775413029924,0.1785988128926286
4.8227406326040745,3.8963954475337075,2.0005633179600792
2.7735123525502137,5.784071530888201,4.003541991030542
2.2480072890963294,8.474255981876565,6.1639647400519415
4.40413702005626,11.462999957954938,8.425305229976939
9.139443142076741,13.958763742806966,10.701290079811763
14.788621849328836,15.028363051119667,12.749158702793775
18.549333339576734,13.959776565441835,14.104323401636886
17.526202666952145,10.664425420487373,14.383586908799858
9.848594200034633,5.335582195161323,13.533758800870146
4.5756476297193815,2.0526188318805576,11.522323593521678
23.71751018080703,11.150628440596213,8.28641212825296
43.70741522828973,20.718770122089435,3.9908591072086197
59.712411707768204,28.842539398522394,1.1084755022544637
67.00185998963856,33.263202857713,6.703032197924291
62.007862312998654,32.11266661267263,12.286731475101973
43.202661323672395,24.579904866988407,17.359635003597532
11.663075640329374,11.129528480053258,21.48428553108354
28.73704285449092,6.551327234702586,24.075741282821678
71.67357950682222,25.989294757566196,24.623120507051
109.3188073972628,44.38854941576351,23.03731499131008
133.81258907355587,59.02500154117924,19.537816739392255
138.97623027804693,67.58999647651014,14.495844509460674
121.81392382711114,68.42187532521147,8.48856242441048
83.36211382971105,60.78915774885275,2.2413151172890795
28.58013612942853,45.108177054746385,3.555944101235775
34.66901835019281,22.98059563384412,8.350585415178227
97.20456797792879,3.0153642318222778,11.65714664384345
150.24470204321784,29.806982744153636,13.17288228420528
186.84739775028433,54.402539170111716,13.117771462494545
202.84277827364224,74.37553697279903,12.071138187310874
197.20197491453996,88.09702093273071,10.616962397262249
171.8779951576446,94.7085825448012,9.32775779409155
131.18970123636544,93.98393051481897,8.599599279867665
80.86825804767791,86.2320963852698,8.525771239022774
26.946065182650177,72.33394691524296,9.029943271663226
25.267847826814318,53.83252356270717,9.895502419634173
71.85594408263457,32.90979982774147,10.827780781681016
110.44171010142999,12.125267417999092,11.48731523658035
139.8626678931468,6.1063703956646975,11.434693027938334
159.6261924020016,20.143517294766323,10.24041411862038
169.48201280436834,29.587434497816485,7.607202193148616
169.33252801413303,35.36366957719545,3.4787950285251354
159.48170913393096,39.34753111089454,1.8417156643909285
140.98628737379468,43.67466486675957,7.731506761324705
115.81522978226394,49.99368938258154,13.426721228798955
86.64409814211294,58.926600353566876,18.131493079490276
56.33819039232599,69.88863429346912,21.00634269161782
27.382796200378394,81.2569241720431,21.433206799850023
1.5070621005524394,90.77805747373645,19.386676635717446
20.37645610423161,96.04601645094442,15.346607809471065
37.972207212443024,94.91844088110871,9.996006933370657
51.346398608746696,85.83788190771537,4.085885575846691
60.76676270531925,68.06647656637674,1.579973203788394
66.66131328475115,41.85429830084283,6.263671611828599
69.61314987127741,8.545054855685288,9.486625232621993
70.28509487340132,29.42451658845935,11.125069534128459
69.26794559887897,68.69264991018363,11.37343818394861
66.92657918715456,105.34945320886446,10.436308216139532
63.36547557540909,135.49781364083955,8.25086332387
58.57596640602316,155.87538169256996,4.6380904196784165
52.67721415751296,164.3669823231843,0.34732450907752993
46.09078967910994,160.2676527167149,6.288100446337727
39.52169993564658,144.22728531045703,12.577672552874768
33.7566908624676,117.91026586856769,18.29280065295082
29.412226472311236,83.54089767685613,22.036637210623788
26.80378839426588,43.54438224030429,22.67127284195305
26.015661348926432,0.3982586288929719,20.015222640593343
27.037127269774153,43.30371275997156,14.617119540471025
29.761742649663024,84.7171027576029,7.457397781423161
33.73703399580527,120.75246137964118,0.21822213078670985
37.73696953529027,148.33954307650689,7.508891925131333
39.47368729755952,164.92789719381588,14.183722309605042
35.81561323456115,169.04204349542792,20.232262950085296
23.666540419889145,160.63821174735943,25.63385939220339
1.2890159751516728,141.10964123668955,30.21442748231488
30.492994293618317,112.95723510309072,33.30136725706188
67.82307434169854,79.29026124367785,34.25178245229037
104.39844823084421,43.365356348591376,33.207825970379204
132.9735367201301,8.288242836360702,30.6626518483593
147.22408536687595,23.137117006187953,26.858567241961506
143.29822640409688,48.53196801368021,22.03713037377808
120.58491191312949,66.15864367683535,16.67694698198543
81.63206177515282,75.22362777959351,11.185252914988302
31.494486122441185,76.11202975157657,5.46256958903156
23.122380545850245,70.36877841533239,1.0344313437304036
74.69214985498927,60.34856832254783,8.58282997439338
115.70175815289797,48.6284513355022,16.891121334629474
139.66202426384947,37.412248331401315,25.38052669605173
142.31714894187658,28.158533767521057,33.20529789971389
122.80696433924516,21.531831350603053,39.5395385239386
84.30411041964888,17.60128059994386,43.959058457769366
33.6635369898456,16.10197676680246,46.26839155737854
20.010131508766534,16.599628879535373,46.545434856150315
67.49894355421219,18.540812599961185,44.96774163743571
101.58324171346098,21.287442221620825,41.29116053213693
118.39781230436596,24.23245686548824,35.23188065647298
117.6808681831498,26.99016636287802,26.965660904737806
102.0442901425605,29.531556121500635,16.796757844234026
75.75735949620297,32.125623603935864,5.010502642048381
43.57897562150923,35.05149295958644,7.6944559859279575
9.968371402194702,38.205227664579226,20.16075807686336
21.272316960003106,40.867777553722846,31.143684633995093
47.12378735816834,41.82651814333386,39.46804674790305
65.42214942444006,39.79372693649856,44.226296670442146
74.91624870370752,33.89272822859053,44.935397993429476
75.26763137512114,23.92272757870615,41.609210827708175
66.90293297312252,10.241119231252393,34.894796397061825
50.75674141715227,6.588121400503074,25.8617753591191
28.07666944998825,26.044690479107377,15.828410871990405
0.43425316819919174,47.53787604807743,6.227137244860151
30.046300024653295,69.9360235565318,1.8258069455295967
60.4303810324649,91.05222232626483,7.6229488371391785
86.98392585142442,107.54859959882283,10.902698465271722
105.6443318464629,115.57017932532125,11.909866646790187
112.85594988435955,111.95195941668173,11.007669670722994
106.44950451797207,95.45797303396292,8.58223042401262
86.21715731124768,67.44627516001704,5.231140989514023
53.949945274272764,31.59352280632181,1.6359276560833276
12.992708227297436,7.17922690076648,1.602471040439809
32.40616554376201,44.03259043834269,3.9597630868576763
77.69026920884205,75.16456322214584,4.977213250543748
118.39139588030237,98.06021766362996,4.482744258924916
150.37395562998162,111.19654190247796,2.7662172902525106
170.1044475823092,113.6490300373165,0.3646786798374625
175.05391117574123,105.02216656194466,2.1230224658215486
164.18123569052239,85.81536363408223,4.093555418311673
138.30816899806317,57.90390947971145,5.234082483988832
100.1754039794332,24.647556345395074,5.7547523485230885
54.08577194991786,9.656967766456516,6.11316424608548
5.201800504654378,40.84059281970945,6.569942311289111
41.32143564426668,65.97215280003032,7.056795220717211
81.12741651981557,83.96908647557024,7.2356225740669355
111.17391397873097,95.39620247167906,6.612638108062398
129.91515159811786,101.63987709119361,4.903054589237643
137.17593813576966,103.95916937031778,2.300151640129902
133.79010987628916,102.88720853272547,0.7905582703452462
121.1534512107048,98.23801446787077,3.9578125659296375
101.28593414366553,89.73824697960015,6.782801006441349
76.9564441153863,77.6104468663919,8.957242463567155
51.335865300494305,62.76840969986148,10.330613521887662
27.54445930995514,46.74583338856049,10.827080123761853
8.126781121333206,31.281512513865096,10.37866345318899
5.3810322461483615,17.818063369728005,9.011829958047256
12.657012881972651,7.183728784849668,6.933313327426779
14.520954729611699,0.42365765297266844,4.445101429826183
12.421572610541384,2.0465298094801483,8.311353076362119
11.499455661785843,0.44229748741473085,7.2667494407421644
9.856433850696158,3.6380204979699764,4.397663749208071
8.096768813015723,7.1495236369431305,0.1795204630666124
6.3116636446108,10.343813307816607,5.809430096288059
4.0171773934694235,12.39306542085286,11.270353332221292
0.4804724005451046,12.480070886573893,15.08815960994824
4.80591655754094,10.10620279067342,16.261983101108424
11.752469089739122,5.390806230836639,14.776640447639696
19.66270344469773,0.8226471417029388,11.366696013104201
27.481658604045165,7.133768646948362,7.010266711257648
34.08270425925381,11.939727528650147,2.7123781304440744
38.54763041663632,13.848994266501437,0.6545861714687848
40.574372601237634,12.177971609878565,2.524680890187965
40.422688452038095,7.305029267927654,2.6246628980789164
38.111669747506625,0.4978179566284513,0.8489139680933564
33.165164616171516,6.546471464529166,2.6242682051871897
25.13503035785851,12.151408029805681,6.8828940244853305
14.155581760141771,15.052194177242233,10.52035002284114
1.387238645358403,14.563150831200128,12.569157994464474
11.156390376290672,10.596736252918822,12.54449667424006
21.37253596393701,3.650396258921204,10.050801303347008
27.867042012813044,5.2228947289275585,5.042081544382846
30.474352293425525,14.455360037290452,1.996410835928535
30.141735854327916,22.17511629360676,10.217914671730759
28.35041397384115,26.625519408033597,18.604313762885404
26.459556853329634,26.691284009495828,26.029250261170915
25.287660236372048,22.349329642536492,31.398760117246386
25.137487136759052,14.780017277621896,34.04631760306273
26.043151242100215,6.0415286692404875,33.7172948449076
27.995006805189377,1.5986184845756837,30.353586605477187
30.959110013991783,6.415612322401001,24.162781838927316
34.686381378157826,7.742865756184386,15.741197486478262
38.54917885315642,6.053672769757744,6.148477541401982
41.567618538523895,2.6165945338888847,3.463746354207615
42.66760933233798,1.049920816568646,12.258551849094516
41.02531356122434,3.6508309646546064,19.55063054743847
36.27878286380139,4.338338828713326,24.592932203477716
28.503183622724315,2.673530842223093,26.63720076979939
17.999909346912098,1.5332954508738361,25.33436872662247
5.112181741809327,8.315691528704663,21.049167965149636
9.753977355874502,17.452352792246057,14.545032927490283
25.884086480617377,28.244990462118356,6.758018515046851
41.96423321888885,39.35890708948528,0.8965049828607209
56.0325745821544,48.90279351297548,6.610936681774873
65.81959025396513,54.83388034223409,9.163762772883917
69.42088305391263,55.55884463987765,8.578298313552375
66.04259774286686,50.45931858031289,5.560961279716295
56.458018426635796,40.08387326938035,0.9565247607876146
42.93072310475296,25.894669358804823,4.161035292308239
28.59470555389094,9.689233895445273,8.70732813510529
16.546084572985123,7.02035191978717,11.94330565640609
9.022513545382264,23.35705672224301,13.406663887561372
6.985383016334072,38.989581018787284,12.805260542561369
10.214806634445326,53.693913271180506,10.042863915954815
17.73210126510658,66.85109716917958,5.405587725297878
28.232642123442737,77.21692338943686,0.31393516745889555
40.274898429887834,83.14707586329189,6.186664870499967
52.13159899240544,83.18081532512954,11.45801016571157
61.47011760714258,76.67363432665788,15.512890066408191
65.23878610600734,64.136370195771,17.74735448558254
60.078321890649654,47.08817330496178,17.470782116813066
43.247559995060016,27.487521344210432,14.298923632319621
13.741941360549966,7.068841927877457,8.496319998200969
26.88370611482639,13.033394280702385,0.7569109554124516
74.44329031805412,32.20863154290162,7.95852158210975
122.90776813640402,49.93323872941688,16.398507303190467
165.77364874185628,65.26973461515448,23.04482034015617
197.45134247758557,76.65344356069866,26.577040836925335
214.11076724753582,82.14474568312404,26.382383200786307
213.81606255004053,80.05663910893881,22.48532232148683
196.16969717882856,69.64542099563056,15.538076094710815
161.92042615003692,51.53796526131585,6.813708885739176
112.9438837116793,27.71873433810967,2.12693555547511
52.57970191740336,1.1100035712970346,9.910846175312415
14.052264343704657,25.019703779421224,15.81369126461488
80.22430224612884,47.56933826182815,19.613295703502818
138.55141936359115,63.92951879460258,21.354546127335563
182.55501774539567,72.13990218097837,21.50900950030974
208.22835181130282,71.00180278888054,20.8589635570545
214.89931378949944,60.262300261698435,20.10086211547358
205.03573214244838,40.84285904697228,19.33181764363895
183.12847640822014,14.968598589071837,18.11923186639633
154.18457551070668,13.95934159737173,16.243238511029457
122.50366988274175,41.82536939843067,13.680436525795939
91.13785757007217,64.5177893726841,10.247484377733073
62.02166826920531,78.71833278910644,5.8331770239187035
36.406961343971886,82.53545996611587,0.5513985479803336
15.141737074745786,75.8038510906463,5.4127434569285855
1.3837428394255598,60.01975983136404,11.860568025302214
13.505516186608679,37.983844434588434,18.263289303173945
22.471846495696177,13.244702617735811,23.583934508031934
30.24974460136664,10.547148208845348,26.696770375944663
38.943850276158685,30.26287681120036,26.846340449133674
50.07930619880734,43.81099942426202,23.93491295561523
64.07493451956408,50.44928368521615,18.544444458594267
80.13459977645542,50.79168586387719,11.76192231961332
96.53512636140762,46.49168447703818,5.0173266634936455
111.122922223393,39.68334069869052,0.3690446241247056
121.79656280894764,32.34069858293913,3.5509275392442987
126.82187715774889,25.795026095284722,4.362972400951908
124.99294514322418,20.59429547140327,3.3926418233282662
115.7393899342024,16.693727023932116,1.4198343866741148
99.25041128091918,13.829350833186595,0.8732653444252116
76.58281789475866,11.851409861951984,2.8073906931677923
49.626597635860094,10.808667539239487,4.006414623812326
20.826220582048375,10.749456427652877,4.377224964795828
7.316054810625543,11.385901155183106,3.6595027633515804
32.76394013926948,11.866980594585462,1.414847233590078
54.25382437797492,10.876082390717462,2.422705417015754
71.23076601971685,7.072529157539912,7.318922964471509
83.44497556887634,0.3167041635205873,12.466847062463989
90.4670608797008,11.055156211166997,16.850420620251466
91.45805916334989,23.860839144107903,19.45787166432545
85.3997482438703,36.83763568082882,19.845538012434687
71.72276823298196,48.16785508865874,18.21738338460054
50.98113383947536,56.701158076211605,15.060483176937899
25.164085632893432,62.15182835023016,10.926236543833246
2.569717254865842,64.81096978044386,6.711217944698359
28.677071966517804,64.95795244070949,3.4202246807748025
50.170654933728116,62.37202004115553,1.3202388931569984
65.21999518090377,56.24410918315292,0.14866791204359373
73.13988803978167,45.55727362806117,0.2788797011119706
73.88424436870608,29.75542607831515,0.07485819553692107
67.47487713325118,9.300036534084194,1.307198351023536
53.84093500139006,14.206708578247323,2.97327490981961
33.24649634106502,38.38369164685145,4.184667901594212
7.047631015195752,60.72100469453671,4.204496436211646
21.766993008351253,79.16716017767041,2.6580017120014383
48.78038376819364,92.37132726828732,0.3882286440077492
69.23021811586518,99.54664519027479,4.732810207503241
79.5422921292945,100.17323600280376,9.987482838720698
78.56334291733651,93.83686097776527,15.335139007337904
67.86336022936852,80.37944181794212,19.98031058211532
50.96772488262719,60.30918582559294,23.334735862354616
31.963358799511663,35.1865488883062,24.92972346338662
14.228593401188942,7.695014260802483,24.60555206092207
0.13364350159768373,18.73362544317268,22.679958847446805
10.060175901235937,40.6619208710163,19.6075800520233
14.907704385499397,55.4575292082554,15.438766338646653
14.077270213743985,61.86508691429622,10.161778864718844
7.23874379469777,60.17381221219958,4.243725296003392
5.0735918185468085,52.0544570998588,1.4072720579738303
21.08282205427209,39.863052207924476,5.814774548115273
37.863562908748435,25.837625161286716,8.619047819980954
51.95406292351288,11.772872397173495,10.04293859071459
60.40026553369307,1.0304120184312644,10.379626194141624
61.76107477571517,11.658170016233404,9.878006253777295
56.55504017900669,19.478244424455742,8.682333197515634
46.910494482726385,24.12974035989089,7.088889883780076
17.904184314383674,4.868088350233383,0.38283289643888824
18.138484614733773,8.565830921280451,2.2522124795913188
16.989642497566674,12.407353675046618,4.197762793999248
13.889371719718632,16.20118729538204,5.759298522130279
7.7739731131602365,19.49881621210762,6.753211801832325
2.5535902899486924,21.42965118126023,7.25165685533841
17.750092242598633,20.77006527928281,7.408207967946398
37.2544108519087,16.267162933432388,7.287386042718041
58.959027106663825,7.173647424682877,6.837186312059988
79.40608230043989,6.304080183656881,5.853164922647219
94.46376516438126,22.80744149630342,4.082686196339017
100.3081119830288,39.89391510341913,1.3474860924367547
94.43694901846905,54.429133547573144,2.5918868419241536
76.30069212322081,63.58629144857508,7.7349178849989055
47.28475644120642,65.80870273317407,13.468373296247638
10.312085485193267,60.75608547914794,19.064539580328375
30.592306996943517,48.95932245721189,24.056613968367603
70.7267977156585,31.625336191368966,27.706397633973506
105.17251806553642,10.333784921198479,28.869639135433605
129.42155121025817,12.993260780609223,26.844287506093668
140.20017244205246,36.06967810717221,21.666334941416537
136.26212820203088,56.41266128662133,13.6633232323814
118.83490398306257,71.6258678550008,3.545004011623996
91.43846529462749,79.91063605741462,7.388022642774102
59.061860279435066,80.5243266299978,17.56066634414908
26.966977304366125,73.97967383882718,25.569410549091966
0.4796411563673465,61.88430400108901,30.401047482422506
20.570941866767953,46.42340837950846,31.466235020371194
32.47452487453207,29.764083552684205,28.767173097795055
36.968001499358415,13.580251680029903,22.885466386186962
35.877851719831824,1.1079943401545447,14.771840871416861
31.440212771629202,13.779872101068777,5.793055282779727
25.73383471312548,24.134072497278254,2.2648695821863942
20.292321395528237,31.85326502522544,7.399079808368465
15.958477082590877,36.588726027454314,7.98185777271306
12.986088240914995,38.16564930909246,3.7693231986979434
11.369639957632353,36.84703754581548,3.745688380726042
11.265594525204003,33.46473948819604,12.093297397001821
13.269709296318975,29.27646189657199,18.905361504986907
18.376362573237845,25.588939600966448,22.598702209622953
27.571580489964575,23.338627007414082,22.433922540200005
41.19815427470281,22.8283122438378,18.42303158875966
58.41177198083224,23.755197614861384,11.351390890338406
77.0140998475626,25.509895979074116,2.331820852735293
93.74984441890906,27.51605397728048,7.7065874060273245
104.95208138008637,29.37910660092251,17.902643032637805
107.2991937323804,30.774726957915785,27.321538265167007
98.4764885492842,31.1725624387007,35.03638467543244
77.63020404281495,29.647565416931194,40.145136113979355
45.62193437113949,25.00505684333463,41.8649017199169
5.139225083324063,16.233429088929558,39.88497291771863
39.400900983145455,3.089903570880945,34.743757613965144
82.29664727084167,13.514998466371166,27.78927448328956
117.44575474781654,31.60815613797644,20.594017535281754
139.57825101871003,48.70996987272005,14.044999815368454
145.51472395048106,62.589313795520496,7.943107115090247
135.01694280532837,71.85210531978298,1.4751747621804305
110.85863591015259,76.09237294783016,6.118503789392018
78.05959357048322,75.61760434918523,14.947064784273813
42.58390844865193,71.00760572938307,24.33428749167074
9.968456416253336,62.81867796941919,33.20981187029269
15.66283146140575,51.60837431146172,40.43697196455637
32.01383388640917,38.17995557049846,45.179389125966914
38.58664921590732,23.73933490999056,46.990331408232485
36.440533499306355,9.704851170343984,45.576042896430536
27.919311225359145,2.8505642166254517,40.83567437414821
16.323237573164572,13.843153750242509,32.967577357481176
5.388898254940974,24.444051294921415,22.53986254390072
1.469619217458921,36.655695611713696,10.466450817849058
2.0395164114107396,52.25945639835469,2.0598453066473352
4.01173255951469,71.55141868778233,13.597128930757357
15.012561192656007,92.52224592670473,22.772372732280942
27.855037603199687,111.00860344038993,28.5909610898352
39.04041131112857,121.84419328336976,30.749590664577052
45.75104832388609,120.56406800548383,29.81496014902101
46.52834956089936,104.96055764650653,26.773108272240158
41.34859158785909,75.85569341226092,22.725494009222036
31.219467834308453,36.85738172178311,18.749335762800715
17.645265184839364,6.697366031155505,15.451968181979561
2.2678582960937144,49.10593896022537,12.982104842140298
13.208991260076447,85.41044281114972,11.415206171561543
26.96535110944449,111.98740253775182,10.792938652260158
37.14001031809868,126.68914943960502,10.845061097028616
42.155055210900706,128.78026714368454,10.839457521997959
41.20332913615991,118.90789892753729,9.881861637838785
34.64917421253797,99.13899164882038,7.412853812533294
24.0777592866793,72.8717884580044,3.5553258625898634
11.912223149031696,44.393322560444545,1.0897572604129684
0.744633957624256,18.019146604418744,5.862802016137809
7.354454472374757,2.97155712477746,10.076118573806358
11.29792683965899,17.170934382839913,13.241531625009058
11.11548994485552,25.234506647163943,15.201088837032001
7.839907720577058,29.297094155468706,15.972190901516479
3.264146646961782,31.86539266784147,15.835346220066299
0.38533712046818863,34.711904090373714,15.000294361690356
0.8745375821003241,38.26681119870385,13.482151009312567
3.4901999833741466,41.725905228739094,11.496604949171376
13.264183885623366,43.74896512655732,9.219228815433892
27.414000737459688,43.34029256469727,6.660409428064558
43.24727929849762,40.440785833774285,3.906617128748727
56.86577961493201,35.98974185481587,1.0664618004542286
64.08415197401136,31.525959781642776,1.719593142452892
61.54007304437232,28.58674874276247,4.213355992282948
47.62414738237822,28.186584186968748,6.016717846233726
22.954084560429298,30.539901778421896,6.589380339818684
9.680687278834505,35.032237764376596,5.475265490254853
45.81204995432246,40.33140421579062,2.6087732673491133
80.04704190529088,44.56134222822338,1.5651968010755222
106.94047829007123,45.574549601413075,6.394111842987113
121.91554523644365,41.3558908801005,11.037719236136796
122.14863977651837,30.523632158247253,14.458112213409352
107.27939401837807,12.826865887387205,15.882987675881731
79.71219334445992,10.560467983104893,14.886689426783311
44.26360200144234,37.13110351144581,11.440701273382686
7.11054203643384,63.51736689982293,5.966566855034959
25.746358025785604,86.1822366901548,0.9419184737643667
50.03791280844715,102.1004445707073,8.589356970251762
64.22722560453533,109.21153622505489,16.272523198028864
69.58904778455516,106.58898058641577,23.149705975131667
69.3650634170414,94.42800828342776,28.135573810116924
67.3609254810597,73.96885618878498,30.296534491495287
66.54743365741112,47.41781613623725,29.005759795291553
68.15419171665255,17.805551974556735,24.25001682967348
71.4977165743489,11.320208264639083,17.07307600875538
74.4574455128972,36.3923494465171,8.949100359187135
74.29032867579612,54.44690975883614,0.7992998126461247
68.46374935062303,63.66933424463576,6.81422238300353
55.311308060657964,63.65296110658219,13.137807340415206
34.45783444452744,55.310098696905904,17.39762100773894
7.028843976795641,40.51909298470558,19.02938302505225
24.33190256654287,21.686495120428013,17.885042880036266
55.68867206814098,1.3969620536926206,14.34318526173533
82.37523204651379,17.77102480836539,9.13627249278567
99.87336813656327,33.32555725480212,3.329960388933131
104.86691229421724,42.976911998228026,1.8713293967415647
96.18911451542503,44.87812500165274,5.362828082378653
75.30881720975168,38.00404216719827,6.356869557801739
46.1316213321593,22.56243756290075,4.919631471986174
14.12151585387076,0.25006557379571176,1.9290240345893483
14.988049288847195,25.78954170906964,1.4829351513793585
36.47194403888417,51.37427786228463,4.1533514972345404
47.5029181100385,72.01830083346955,5.334171494086439
47.67856002728672,84.66615515057542,5.110160719532713
38.67533052544389,88.2598249734567,3.9519868361680803
23.332017853689393,82.9673900499272,2.053217779806738
4.956273577041611,70.04886971277175,0.38539103399541036
13.283815193689827,51.623380546696126,2.832985393299417
28.792822179323625,30.35963308286326,4.82838049725475
39.79056931488417,9.108649719951034,6.0071703799355065
45.40669773615465,9.49777771565296,6.149680954998693
26.038230006764852,16.90937452103373,1.5622996343928903
25.928066450099887,23.598995313540982,3.5968369213986358
20.627382982710923,25.98533758474294,6.323740547959133
9.417669022607917,22.41326467790168,8.537884988769175
7.357507337780613,12.79447638345453,9.140427223022071
28.207244568312717,1.3140643551078164,7.534944326732187
50.62507701144689,17.17128456869719,3.6157982875099517
71.39336489859556,31.680627818985087,2.218750850379229
87.0299277909693,42.1824710431894,9.130510445323244
94.31676213949216,47.01890215386851,15.952418810345037
90.85342564260239,45.71232273422034,21.430004861938933
75.58202484512675,38.68509924697521,24.611996485483324
49.2059634976214,26.78373929122785,25.041665091087523
14.303817358727917,11.417438917342986,22.682067239976835
24.96554930860353,4.9723887667968825,17.732108812729383
63.434609849990096,19.367495748226784,10.607406577728058
95.74293427327791,29.07363126895967,1.93853409709203
117.27755204652763,32.485357910221275,7.310132652306225
124.96483773994439,29.822537970526895,15.507735321968683
117.81218859924326,23.164760181412607,20.847577003251743
97.10896307313078,15.756166064380006,22.39734114765574
66.24738400787629,10.914481988732017,20.484223961905773
30.204850114152997,10.798200882711686,16.375854577338913
5.2937741014207,15.686326087646343,11.53376490597756
34.7791464311318,23.953067238354294,7.072404716619683
54.002906505919434,32.696250700369035,3.7262890616669773
60.66621758734634,38.755752671471036,1.8388235043539085
54.73157318665475,39.638351516229825,1.274955570420142
38.29368729230454,34.130227619121754,1.460838734499576
15.094800989643916,22.455840508704696,1.823617855272323
10.15964864593674,6.080972983156893,2.2282932133753763
32.53975128483443,12.645857900561579,2.7496258438468946
47.61891760158975,30.92493777962832,3.265624329956285
52.148999514477424,45.93470750714288,3.45113010597095
44.63788562930821,55.27724794991973,3.094224875203759
25.719919709854537,57.39744375439604,2.247277980816593
1.8437663618746405,51.88472169389384,1.0092612446147935
33.63817121141986,39.59021387614451,0.527958269379438
64.4852774022618,22.479322238739602,2.241185363903763
89.49827063070693,3.2542493938354653,4.116479013603253
104.96428835777463,15.128375206718824,6.122006802068152
108.79087312106664,29.911625768004654,7.993093941001427
100.45151441841953,38.87153619112733,9.360877461126421
80.64344153139876,40.53532579138196,9.89458247023
50.99576864953221,34.32754383897847,9.371858903844354
14.046520706728622,20.680968153982086,7.712209391191662
26.575252325763632,1.0878063523758137,4.993484439504491
66.08777734087846,21.9998238359794,1.704469896244599
98.93137822424008,45.461355290739775,1.2777662662589857
119.68295796868101,65.95263321195668,3.1154232945785414
124.3415832917014,80.3962975548458,3.392231688136947
111.51037190647673,86.37210486478736,2.458363871838856
82.95297350095402,82.32078548977702,1.103206156041015
43.27737258927465,67.59961726416603,0.18057030698287563
1.1408805915640685,42.52009566152915,1.3566656478338828
43.5560876690306,8.474577654896445,2.639264832788566
78.08218015911898,31.853743094644877,3.9905636340531796
100.48678617785069,74.359701249132,4.951495752785388
108.52772867619159,113.70303659992477,5.1608279517726405
102.00373671139228,143.9497095286292,4.601255825679731
82.69671298531296,159.63985873878957,3.4454660874305514
54.22287628755179,157.03349587845943,1.8700092260432106
21.652212974118815,135.11946036538268,0.0716159230045319
9.278397473329232,96.06394791850956,1.784325912379492
33.348722957141334,44.94594714801978,3.7475702829578226
47.14025337970207,11.167918324727758,5.842409378426128
49.94753032951218,64.53164014221633,7.995725476316614
43.90825471409672,108.07279215892275,10.22293543069117
33.21681319325094,136.50587056260318,12.376909389056582
22.611838858105457,147.0307473963007,13.926613386560925
15.68173105114156,139.56027314272458,14.234762492030798
13.670620926875612,116.5110725715711,12.96578755670406
15.241780206161614,82.25673458806256,10.109700137425975
17.284612950682728,42.358150366999496,6.035538448359911
16.422165880193848,2.6722761967477506,1.5473830901553383
10.585583304977135,31.554901037779448,2.776722045316728
0.036619876583239445,56.459010362309556,6.766217706409869
12.571754055652272,70.06935327087298,10.02589658768556
23.088528986616836,72.48683064752838,12.017575742743437
27.27420490467842,65.63337115189994,12.646555019194953
22.167897262165717,52.59427844906104,12.332827412215899
6.951981331284338,36.72929142876677,11.571207571426187
16.90138151175643,20.786670086449575,10.839724184017099
46.0913899755736,6.313751000586166,10.749671711010395
76.25374797369999,6.395476632606357,11.481690985168598
102.72352813037291,17.810339519712237,12.394992260855313
121.16624752706545,28.3813594604409,12.713640717343745
128.12154761213162,37.854826212495226,12.095033184350315
121.52067129132057,45.03547520761853,10.381014643949255
101.159331414172,48.14381928450974,7.543481148251069
68.95169356036227,45.611532744182874,3.846512104115615
28.7337903220349,36.90687442031721,0.37560141786099793
14.49329826731476,22.96018894921595,4.792498065327263
55.74801332073146,5.988821020080424,9.180962874067815
91.2566248428215,11.17088578151466,13.554841108379573
119.15759422267004,25.90032041805953,17.746875163517018
139.4292821017839,36.41589423761729,21.269036637230812
153.11370750169883,41.961875065212006,23.730067090313042
161.2921336197242,42.680793488747184,25.098870285167877
164.32291767177793,39.377781847416664,25.741456297086255
161.67110836573198,33.3624911517144,26.103629780102246
152.3458825361093,26.40948019203613,26.225353033452226
135.61850091843135,20.65070408040638,25.722051866751997
111.62806560475697,18.207244982041768,23.893238077540232
81.59068085815154,20.559359512076043,19.792628810666955
47.57903062101397,27.868415560213897,12.861389673049878
12.096298670799646,38.60425664615354,3.3339640400694197
22.337316412634117,49.7487242685444,8.187687445470573
53.46051632987986,57.58868482531086,20.783506074014028
79.41852696972138,58.80446422676573,33.042619040218376
98.8966224736162,51.39576933552037,43.44768168674735
111.28057303242132,35.106890731886814,50.6816316142818
116.76958446315616,11.290437294941077,53.841284104063284
116.33248179424376,17.583171126623757,52.60140689126939
111.4563770182705,48.45745070680243,47.05340244934965
103.74765155283184,78.06737591015586,37.699221634842324
94.54232078700015,103.18060424049769,25.511696468960647
84.68717726733075,120.84492129135211,11.817635966401049
74.5578840958989,128.7634512897696,1.6578292429388934
64.26184369763239,125.78621794218354,13.043714547734467
53.86695378939057,112.31596991901769,21.128010487038225
43.51247597777766,90.3751483227112,25.72848183342976
33.400390931587005,63.23995549739036,27.61300366437496
23.714262306165782,34.73134003043782,28.145151202830053
14.520370901872672,8.391263092337773,28.199483882098495
5.73345887720623,13.169223290763822,27.84282538807934
2.8597312087014055,28.591350092101834,27.072936365405063
11.555603326393658,37.79228562043729,25.75845342934134
20.651372748524977,41.79528969772968,23.513137515724218
30.338149569463333,42.45792076767178,20.20076231813248
40.56554511249458,42.13936867459221,15.948119374287618
50.87783846785251,43.27522307250864,10.870069502665382
60.32500079492424,47.8409992891834,5.097920304355249
67.5467578841043,56.801351205159854,1.0814081685094863
71.03377055857239,69.73275180251619,7.157854722000289
69.49383108721638,84.7819353123786,12.499177571268456
62.20687245790429,98.9838443557752,16.59920827352353
49.281040012390044,108.83851672631023,19.182815687542927
31.780773145416195,110.97881044457674,20.041165721146726
11.737936062571974,102.74161731791357,18.983840283532444
7.9664983534362435,82.59031520924447,16.045248985264205
23.907572065597495,50.43985901057314,11.726953015045968
33.81093302244719,8.806677912133198,7.025348407719893
37.05660703462878,37.56314117231736,2.7465277694226087
33.69550461576935,83.40818186512843,0.8898322871804092
24.46831920552227,123.64462094896817,3.8801061261897902
10.825075639257545,154.07612041377217,6.337912801742897
5.15784803282169,172.0011637168537,8.382787663859578
21.033386293085705,176.56180109575678,9.923077189718414
34.3946493700875,168.7490588408473,10.783510709566961
18.30174550253532,24.89582659492562,7.017665823850684
4.068234538020835,17.782766217563324,6.809368137044924
30.56257596306709,6.50451538183578,5.105828118020112
57.224430854603256,8.473784022872199,1.9336630421285357
79.96665975994816,26.220764795297104,2.2851582473717937
95.11862890577466,45.2693670818556,6.882255172458081
99.87712280084347,63.618032544141265,11.149379477372811
92.62892851929402,78.80104988220627,14.38757129292458
73.4114185476824,88.20256003276792,15.924887849033745
44.169118568385585,89.46397603550061,15.477039374207125
8.727850946496268,80.95911240525434,13.364252366449916
27.25339484073525,62.45147181721759,10.23743970290097
56.553617902080184,35.710289203123864,6.769496060739001
72.62886939345104,3.9454161265283605,3.3632281520897442
72.76418028020957,29.516104200199983,0.2402437804109493
58.553197994709954,61.48796819827869,2.247432164653507
34.96694707194598,88.93481958869245,3.7610489844349018
9.19487147644096,109.3181614866045,4.2625190577621295
11.550898788778213,120.57341859044685,4.156663935279726
21.648128735049383,121.31286624959893,3.998432612154955
18.00382892653743,111.07890465842813,4.192756837619211
0.5784806128318516,90.40982176609523,5.130179799408983
27.926840028723806,60.95931365173411,6.955534078614164
62.52528388905669,25.352881708239963,9.409959374542202
96.7666666053943,13.028623006489685,12.169025034834993
123.87334409374834,50.33597028183337,14.960904490153682
137.9600223975902,82.6562839014748,17.39799654793604
135.3377507357072,106.37462255456634,18.911728235371903
115.3343306064009,118.62407002298575,19.130613063083324
80.48167972716057,117.72302243418828,18.089818586164984
35.946737264225995,103.52024262599825,16.11538852955708
11.681096276296149,77.55829634689775,13.619284905546525
55.80305311856156,42.91741234063635,10.472946360900988
91.1390751306504,3.7838999507155964,6.138661349657234
114.58490819942254,35.198534760190334,0.34865106406259583
125.4942268355028,69.60347115885484,6.937407330222164
125.42266090205382,95.75850048014145,15.525931565562153
117.37546813853038,111.08929605993758,24.954883724189106
104.83128486407863,114.26411773735698,34.383408060217285
90.79349239450693,105.24955577915694,42.285489802329984
77.12912620741982,85.32893903197807,46.65542865233104
64.41584147356248,57.053654219331435,45.472393892674596
52.28467827931943,24.033935225568896,37.52515620753882
40.05593922716348,9.543494538684639,23.3034979181972
27.339696078804568,39.62378321432856,5.036655152838687
14.312580046106596,63.036192828664824,14.14937972110762
1.5860661535652016,78.03147840929444,31.16399768745608
10.195751167027648,84.3697922652532,43.319360872811814
20.747682438549553,82.93793661503432,48.78142852330473
30.261168962703934,75.10921114189517,46.78887552635945
39.18412315424581,62.17911369351096,37.599604430649975
47.84525676305778,45.16512602630364,22.94313729125298
56.17571908323876,25.027544683388324,5.468167711069125
63.64852075257891,3.0854206681414293,12.327047913916402
69.40231750115301,18.72583581520135,27.990346818677555
72.42331509223341,37.99481903672004,39.16874154078536
71.6465897087966,52.3625660186643,44.10909523320316
65.97651832643685,60.193777499652946,42.126580810983
54.37316446615439,61.022417646686264,34.23809195113201
36.145491822597585,55.53027010403293,22.863074165412137
11.468064008587323,45.1149567125662,10.639057684420004
18.079702549027708,31.324950784365576,0.3286572100737614
49.30558481561092,15.501798110986183,8.933225879349875
77.79488914116017,1.2015836269353395,15.275487283411604
98.87601973934343,17.55165417115156,20.03130281806386
108.81839144659975,32.00150988298793,23.715203814288525
105.80157859026502,42.785097098007,26.583119850835292
90.30169937076326,48.427897112397986,28.693705760636696
64.78078388614071,48.43386891600144,29.98942484355658
32.87008409837333,43.73203001260382,30.276536115912347
1.559671475726659,36.55159259816531,28.954023247818824
35.075316683946106,29.69125906187543,25.44679864915114
64.96905318518137,25.479733181810076,19.850582361412574
89.24331245861026,24.901502578377023,12.504784884075109
106.46643494753292,27.288160669889624,3.7889647272544895
115.67673044265446,30.68274739271126,5.417601753603443
116.41295900259243,32.65996047878062,13.867827211121803
108.82265811604019,31.187603241980234,20.235875549622474
93.74090966684925,25.18534102588339,23.50364361925365
72.63922791131364,14.673907494314108,23.578925316020083
47.43105262310869,0.60059286156949,21.010936030766445
20.226045906954152,15.439456184840381,16.467464754841107
6.840527795731722,31.434482008468393,10.877376334789016
31.647415620692694,45.16818193644638,5.273886930270086
52.04005426639643,54.498349580835594,0.3394615045182007
65.82289079701881,57.78640395389437,3.547333414418934
70.9488379834468,54.435609330110154,6.1025974245573655
65.98182838022727,45.300638983524415,7.139768862262607
50.758147752618335,32.701880807831536,6.563561095141718
26.96857069328039,19.924425653627765,4.537819578283276
1.6922768865684121,10.331316538131052,1.6292035886119505
29.99160485391801,6.416978520219708,1.4403549265637645
52.21259188409128,9.159485000913074,4.060290890668192
63.51060419866059,17.895975659700895,6.0005549839067545
61.06911616233491,30.694311856053496,7.459055457750189
44.64048622304281,44.983609268587834,8.660063555436894
16.337710416034202,58.15749018902012,9.640377847882926
20.13438454115296,67.97950885945535,10.339440862891632
60.39760469556544,72.77426550382239,10.663176120234244
100.08215447815178,71.4907939678023,10.548410187548267
135.12000583780164,63.723282557742145,10.055878168659442
161.77829511925694,49.677574409219964,9.244640899670603
176.71456835971927,30.028488453701975,8.043726460205207
177.29321948334737,5.652870225742331,6.426652525171816
162.15999248303285,22.659632416560314,4.362692035397694
131.8055527130457,54.30588544169217,1.7488452178039733
88.77970246675754,88.61684389408184,1.3755096548323804
37.36112423580209,124.27879140940436,4.820462007894789
17.245818844723154,158.70102039324922,8.232487073739742
69.88446766311853,187.7435388518191,11.098914088976075
116.24009353121986,206.12610713212334,12.959702032238166
153.23369220786935,208.5584839082789,13.546566948887467
178.98644031819637,191.2385622738261,12.850477437755952
192.53061217245363,153.1324718716521,11.048146804102316
193.5338682177104,96.55722904182936,8.473306673735374
182.1990685535139,26.88072610968358,5.618642266440541
159.3488518823464,48.48188981842562,2.917215389200207
126.5912251932649,121.33957411631154,0.726979377442388
86.4133199546187,183.85409749632825,0.6319990302100152
42.084424096484376,229.35453134411222,1.0685749401050926
2.657212095152196,252.92761602137466,0.745791390046879
44.06275778264392,251.94849227404427,0.013091148177505164
78.86843948339046,226.59561735792823,0.684350970902274
104.69602316659176,180.1834367714059,1.0005186890986661
120.25949683660312,119.00744828902079,0.7250085670362122
125.36974648511078,51.4936070648523,0.24715556656912832
120.75897692632026,13.289143788943845,1.7461807891053425
107.8264996616394,67.36259292260863,3.275431881001608
88.43058701465932,105.27363635638584,4.3134456669978665
64.73931337528975,124.81840098777555,4.414127343101323
39.13129832570657,126.90720147071515,3.0649271893126158
14.075162031003588,114.79182909849095,0.09515480202348166
8.128451907288303,93.08790899156531,5.097563350749861
25.708544151717184,66.91443035496751,11.622393780960307
37.74763176913284,41.2779753292323,18.780618366078805
44.32096920038267,20.612105063855804,25.25813154255469
46.352757545692675,8.294297749372557,29.53099620786549
45.219182544367236,6.093748500847121,30.0594820812611
42.28543422632447,13.681951457376071,26.148328373698916
38.601972968711706,28.484085263487923,18.31867484399434
34.851360930665024,46.1042442631382,7.623539882460873
31.484507209298105,61.300169178270224,4.746725788953536
28.5063870738389,70.09552141100237,17.38864142762667
25.50015100157629,70.67378745204181,28.85988505723094
22.095275404927648,62.81767978932283,37.9316986384702
18.143042434698312,47.81627994706276,43.77700521887175
13.751566971072025,28.054610745009803,46.032701333432776
9.239731343462957,6.466945842190041,44.67354158563428
5.05011285062585,13.996616795168732,40.147195043377266
1.647840913658235,30.796186869289894,33.44703162867152
0.5300417358413012,13.193592215486714,1.7767905038354117
8.121542947989072,12.473205984212468,2.77712260063032
17.106941553725115,10.086759323285726,6.431549537316304
25.02277108217019,5.684435533945206,8.672459433161935
30.75218884614322,0.902081277175112,9.37565531255292
33.50247763489439,9.500882413750743,9.09810789214712
32.76695922185142,19.50854888786012,8.88717342388295
28.30370338554932,29.876446534707593,9.420302486020898
20.268581555088552,39.23243749466777,10.825455177873033
9.360502466178366,46.05970369245605,12.88564333195451
3.125857098780213,48.90765845702811,15.106080448343311
15.297128802707567,46.69493894971105,17.151391295941025
24.782232450127538,39.0532698678418,19.140439900343942
29.588363731166613,26.30301474340428,21.175822097947254
29.31453617132418,9.208889818749077,22.39777705594486
25.32419081964853,10.862463543671907,20.983331112130983
20.148383610807358,31.797290603018393,15.471264953220913
16.664136037946133,50.9232320926875,5.428140077259097
17.008884507125167,65.30691192385585,8.589768634201096
21.92541169339027,72.30052186632251,24.68890889703522
30.63642380027513,70.10989580175388,40.00385897535736
41.082053302888525,58.15956138610349,51.937258515663274
50.51415365551332,37.27392314563765,58.75811179063166
56.05332722424095,9.559657343558316,59.56748741215397
55.165196436777926,21.863908356921144,54.471440796390496
46.03729300411881,53.18682404016338,44.506748318430475
27.850587906669315,80.26746363089268,31.10227734532093
1.074875224056488,99.01440629979396,15.802240704367053
32.30669042576416,105.87906743231716,0.06755168437843218
68.70665402957522,98.44216346942358,14.827293994102183
103.11834438383691,76.03485233816683,27.43987048917872
129.72530270534122,40.20593003306223,36.27951885821968
142.90523297079636,5.19965096304688,40.433877900310584
138.48108459088556,54.45376497252038,39.85945537889318
114.89137553558254,100.8414799703561,35.29614330340558
73.89781870795666,137.83277769597322,27.877059692817948
20.523749136660182,160.2274683627597,18.903217547586284
37.846788375600276,164.98933539915186,9.913283465860003
92.93536740203105,151.60864091794167,2.375727461956895
137.13679749234686,122.0189901194389,2.81781122441579
164.71451564265604,80.1806742531316,5.339973918161219
172.34878953147333,31.492727022826056,5.183595743993161
159.12998367187586,17.86705896607025,2.753481990920872
126.3298338006124,61.6759259481001,0.9922610256863467
77.23083708385019,94.47925589543654,4.875780478198329
17.049869720379796,112.41989902681051,8.008834053893265
47.282744459348955,113.91046664756169,9.82029119556092
107.8004464222847,99.95865287411698,9.98450159485482
156.74632777815924,74.00400207205979,8.510084530315837
188.14184818725792,41.22858279557752,5.720785199666515
199.1077492927844,7.532047878540024,2.2454649206406683
190.37136692118833,21.5160561788148,1.2898322653684697
165.7112168078311,41.51210422920216,4.526135208533406
130.53518802762915,49.710375907381,7.168946002490888
90.19923552867128,45.170827525796426,9.008535579282688
48.739191776506736,28.698287271404926,9.986446566370882
8.397506491220645,2.6955067076772727,10.081090538328972
30.08165292099854,29.06065749104387,9.239787276623883
66.73747259185147,61.803741539949655,7.2444975893034345
101.65021144980808,90.4116376956151,3.912363459878726
134.41863446159564,110.26760408672914,0.560252414737514
163.91971644987913,118.1773864470508,5.70711631905508
188.2641029895154,113.05395964733087,10.855436955521107
204.89952111611456,96.10502845486833,14.888279890666581
210.94167983069522,70.45331045037945,16.405632987239485
203.79236207222644,40.32750158811079,14.458655817609824
181.95834627985627,10.108715718542541,8.974824834360177
145.811407263676,16.463485131685204,0.5777903974342838
97.93473890018457,36.74928629951305,9.617251096792302
42.85303557425613,49.347636305616476,20.304815409174214
13.764395858290165,54.066818329560945,30.302680364518814
66.14561247358134,51.825963307369975,38.288703267009254
109.36905736028355,44.5153485145248,42.673667935682744
139.99534559335166,34.788902337136285,42.19669445936253
156.35296157358385,25.676650365169344,36.33767516692548
158.61367426140114,20.003300312906262,25.43398516284783
148.7649609316867,19.746905235975497,10.803874158230618
130.39211718116874,25.549841331661842,5.571739736636076
108.08431659809236,36.60677793457982,21.506931889861466
86.42039438170693,50.971526998692774,34.714488419487786
68.76396621389883,66.15084154969341,43.06828623095419
56.30485162433667,79.73903836477557,45.34859867357815
47.801353290084414,89.82420284496071,41.69301448569006
40.2664590072923,95.07932713338361,33.36198963920744
30.36066609702411,94.61085580640656,22.39915718069091
15.84958409998809,87.76607746373786,10.953954070602977
3.5168496238409097,74.12160048184977,0.3418708430895221
26.05872594102887,53.69574280794342,8.89188585773861
48.99870598248364,27.27917164773882,16.155009066521995
69.50184302891833,3.3142028740629708,20.623348113384406
85.37543871477249,35.26288446025555,21.75367789341798
95.18921285928226,65.07799379103946,19.60538247146169
97.95347955746233,89.19630601319278,14.694357853200525
92.75669167110995,104.65694096758601,7.833588039000226
78.75846325715791,109.67571838983072,0.21842787789515358
55.64863121904049,103.9727896691752,6.632201819589051
24.325616379495823,88.80186176413464,11.413815584616797
12.60073812951265,66.70943919156268,13.563988373818102
50.80533940981434,41.06828343191831,13.474773736306018
84.83713097198702,15.471506376801393,12.259867063701302
109.13191531067301,6.8963786452989995,10.922401352194829
119.14836943073514,23.7707390159026,9.960296582231411
112.30539084217399,34.05548703515603,9.560052183795552
88.52138483721387,37.77964699035404,9.340699910779836
50.327534809516635,35.829943831962034,8.502070043719254
2.569035831320636,29.58626257381274,6.82077424147947
48.25084638383204,20.623656988491007,4.754406432239867
94.8850626310887,10.55320002204123,2.5913326387099866
130.4085620870761,0.9677530213356069,0.19609246988211604
149.26777878982202,6.619536333630042,2.729489216558482
148.13778222228504,10.962699454547051,6.563313127798607
126.46767465351475,11.36840348616372,11.742332511834748
86.62663553518011,7.929716737403033,18.517508233970588
33.61620412161019,1.557594172501768,26.251671543590366
25.62499525358574,6.260444950995451,33.334598624693605
83.26924689303962,13.90173603940256,38.43726587209618
131.86953568098463,20.032453943352422,40.98299617774653
165.58188863233238,23.787188130207774,40.56836719773714
181.02968950946024,24.644600420168956,37.05081658719387
177.58220651865278,22.136438930818212,30.599623092662863
156.9738293757394,15.650750642072103,21.431043483534648
122.45711128072273,4.550982042172712,9.888105617356274
77.87747567281377,11.38570221819029,3.4926589849999976
27.033018456449597,31.4425892762856,17.960591339630742
26.481537112939144,53.680649016800785,32.42432305472992
79.05248169071002,75.11846942431015,45.293589790543706
126.78667039008144,92.3529483237431,54.669960784928904
165.5285321130073,102.38106795947174,59.083116794623685
191.30525787127434,103.27500596813222,57.789896560723
201.06881835583422,94.4564336683937,50.617260484888675
193.4031933888617,76.57865009986857,38.44107577197009
168.90967559656266,51.21196810410758,23.342618449627516
130.14633150368374,20.54113221580505,7.561543515012803
81.24812825503258,12.807831684649303,7.144099530105474
27.46611006696898,45.861595661501916,19.132346037726535
25.268422717041545,75.48577483878756,26.97414532740923
70.81710744601655,98.77844349669192,30.121224971270223
103.49986302834094,113.59633016191565,28.905717543114765
119.03150740693108,118.98707951710685,24.089099555646538
115.59227838617639,115.30844199502886,16.690034040412268
94.63349465971605,103.95304718302155,7.920179461037485
60.94469524240062,86.7933206128446,0.8518201388243634
20.974494234972614,66.10687937991672,8.154537529982411
18.852365498010702,44.372789419640796,12.744320068110591
52.92310365298557,23.727173597349868,14.162948949636897
77.3750664364462,5.834400825387528,12.895554086324177
90.51366469364076,8.15964727152695,9.89309285090854
92.669803524032,17.659237611677938,6.202842058965918
85.66689990635356,22.656133351115496,2.9006676712253743
72.17202451126495,23.72368355987674,0.7618491423683542
0.05762107821790347,36.53546352193721,2.0082061932109023
1.274079870586376,33.08258205355255,0.8124218183858057
2.7050110002530667,23.7762894047992,4.573680654832429
3.84848501534188,8.99204173305024,8.60515046401953
4.168674446252569,9.907322643520242,11.796948716726448
3.3639771645323355,30.734938807661372,13.15077024178705
1.52480667165161,50.81408515293686,12.355416747648764
0.9104609019665273,67.42097567853219,9.611752360033329
3.291462902165719,78.30865531116137,5.305526064892707
4.911206543956761,82.16291829372578,0.04635902622573239
5.088488923718181,78.87108567252352,5.81292177707816
3.188224799259282,69.6281087502914,11.276836132421826
1.2389708814212297,56.88343893682235,15.693542213475146
8.00436422958212,43.750982008415896,18.50356536764735
15.932115557839756,32.86051940171465,19.426011522804977
23.006444298123633,25.4877620360638,18.373567482742114
26.64381335002993,21.28024463517602,15.636946321914058
24.265512371694765,18.467105488729324,11.882810559592093
14.365634022976613,14.570347436285264,7.638986664584741
2.585712325600943,7.208955574962175,3.133526686747757
23.83703690788049,5.290265009427209,1.4739592324968285
44.93640803352704,23.540164212312092,6.005651369189631
61.12332400603179,47.034467006048914,10.273759379912802
68.85099189046366,74.18535701190036,14.070615387706367
66.8160504503922,102.40781081196677,17.06022971807809
56.011405101191485,128.29778515484568,18.79408290679008
38.884499369281606,148.0064324912368,19.030982126024703
18.21615720295876,157.9373198891879,17.956688490680683
3.683928840028382,155.62029990304273,16.007313062877206
25.113230326746777,140.47752862366335,13.509233716689353
44.623716569695624,114.15045893647165,10.617638282415054
60.66856425418672,80.14811914638332,7.6030799869116334
71.64204408027051,42.92151856493879,4.938878741084031
76.38814891102678,6.74325156021598,3.0569111816463863
74.82840543588958,25.158383741472264,2.2877065773211918
68.18675898517708,50.905726090732095,2.8736848379951274
58.50341854806624,69.730111013427,4.363657468499326
47.63488705387317,81.49052170541287,5.342046191808828
36.34357999530352,86.33579369896819,4.325659792750738
24.063843022975323,84.7232926526631,0.3763710768721123
9.540812275092216,77.71465937141109,6.761977150701244
8.01003747526834,67.21459370629982,16.253034546207196
27.907690432739503,55.82140688111829,26.15309214749578
47.771413103620574,46.232610944842094,34.12381576752115
64.21263962731157,40.456661021156606,38.485604135006334
74.08825513795742,39.22939963585631,38.763154093818166
75.6539174524404,41.95045479956893,35.34410773594885
69.0657960114471,47.160842921859576,28.982036401728482
56.10557424553434,53.245697969778455,20.60942755309624
39.42687062174187,58.94424890162958,11.498000236595715
21.77281266825502,63.42608620708417,3.0090051967476064
5.481161113194358,66.00268894678159,4.2076228625476775
7.6762121583951215,65.79554962565464,10.04960949033002
16.489792507183758,61.67806090804453,14.188323423977254
20.354428204180163,52.60389224146748,16.315195331388413
19.406194100296965,38.15824274347505,16.881784120393313
14.59415686235909,18.992537962529003,17.02040386150899
7.496599219482466,3.128745644598691,17.808769324591818
0.14150741369032963,25.724910830069213,19.834159814747963
6.964394996995804,46.2357954748407,23.07415911920091
12.34835718951311,62.57419158649364,26.87095497070778
16.313284768543735,73.39238556543903,30.151366473940136
19.056266569188775,78.08267225880891,31.72960683017124
20.403777189129926,76.68279638455445,30.836286470767277
19.543877849984327,69.82138745558134,27.522385372262338
15.240176906547411,58.725852852019656,22.21980963900182
6.442717652190776,45.22339489463386,15.21234031270441
7.022935136575871,31.57783835856518,6.892166083355717
24.05915388145608,20.091074313126946,1.6824092062361806
42.38830903560036,12.606517898844587,9.30291369467253
59.059619959439765,10.119963670195729,15.799306901959675
71.12945019303324,12.650994602505202,21.540854393592138
76.2625254644672,19.395269445695842,26.318506098694947
73.10706765048644,29.011942720892314,29.752024738769837
61.45487138850558,39.85866464302742,31.660017559418957
42.27570792257542,50.08219962301478,31.895188187157427
17.674655820058824,57.625522709284965,30.58685514512015
9.2704087380696,60.29869601680523,28.163676671914548
34.89431181199885,56.04403517988311,25.100246826014693
55.57919092928149,43.401017085260385,21.7875390270976
68.50292656443462,21.99823132472876,18.44726354023574
72.27671188532425,7.127940945412617,15.157124444984255
67.24163249122417,41.519596709552374,12.01547950734594
55.27446931748372,77.59215688072246,9.175860983121977
39.17646193863603,111.0990511261246,6.467286091444648
21.910409811050975,137.66351391976548,3.2371428436100635
5.948729078285672,153.33008839527545,1.1836407525049883
7.088336739609766,155.11660776655646,7.045678889298205
16.47303960867348,141.58919451945752,14.154076045376682
22.222110095742014,113.38278349606263,22.17831854640198
24.900236086920028,73.46746476223362,30.660172676909617
25.435633258621984,26.95066798885736,38.60250579946747
24.945144191500233,19.696401239600586,44.52432334292937
24.51547998145778,59.88941950977134,47.009067588893764
24.935957991869067,88.33698711812814,45.13461239284227
26.47903035208655,102.1743919253596,38.6852503707136
28.856967783400922,101.48420869178241,28.444475550148432
31.42833797615066,89.06943689622182,16.157200543586434
33.57287648617377,69.60150829903694,3.8431662520531713
35.01010988864903,48.46132383870483,6.7320719305307195
35.85093027266909,30.57796421419055,14.405593407844714
36.32994287011955,19.515100199888845,18.717526534210037
36.346248216309405,16.960177230341372,19.683228442211476
35.09680380558496,22.59972042156162,18.0378155847676
31.118085860947012,34.35255535808216,15.146170369697781
22.807476446788712,48.910884430696036,12.374914555140576
9.197733472312871,62.454687127625355,10.858284461280794
9.392920559234971,71.42193080058726,11.006775346336024
31.193577756541014,73.19020741546338,12.47831166858296
53.405945759424874,66.51896726868708,15.042662988275188
73.01874329657555,51.67484055685933,18.350594039900855
87.64056169459359,30.230430998004966,21.423912663352045
96.00384410626594,4.620990407765545,23.321477253132155
97.99460195084893,22.389126009908235,23.381196357327106
94.34340976478086,48.18673109014123,20.904246082615227
86.26034110452937,70.64181764596628,15.582860945757503
75.20076061057833,88.23485348291935,7.924261650912484
62.758541687683625,100.0048490893104,1.0630866620154882
50.55221270720224,105.42722928043489,10.056246947842306
39.969392484244466,104.29921983820843,17.475361348072802
31.791172108726688,96.70798666658375,22.038828177591604
25.874972996133433,83.13177659139492,23.29118557539434
21.127028071418938,64.59681198062387,21.511329573150324
15.908191499995286,42.782826914195255,17.27896277636276
8.751220520878407,19.979855422494946,11.444451082992236
0.9686397210290805,1.1773010951693932,5.140700850310004
12.768826355079051,18.14976029078681,0.7674605614846963
25.337524909870716,28.982734315916098,5.65824822525955
37.20782970992263,32.69388655708286,8.707477690228982
47.46705260035084,29.437376192238528,9.502078764852158
56.118341728354885,20.4150533690209,8.481925589562584
63.94457084365602,7.599120130479443,6.228031910864408
71.98720074537538,6.626394546539091,3.250595619182845
80.94981345674401,19.813467568932573,0.18133931209273027
90.8596817841665,29.74461446750257,2.530364258441332
101.07703447792127,34.67854465905052,4.636122439693224
110.52196652426004,33.55998252679121,5.983510813660116
117.91614503548726,26.166730133487608,6.756872699599146
121.8979831088962,13.153802776734882,7.571708050372175
121.03827743289462,4.05400172599403,9.043797524398185
113.91449662181073,23.550387831704214,11.196351821712863
99.40005074453316,43.333010700493396,13.63743766037649
77.63897713629795,61.3811955888404,16.155483416195008
50.35540389957302,75.90575798126072,18.56413898956587
20.30208136860711,85.75567788080701,20.468446418677352
9.120037089704747,90.43461375049834,21.378039397385773
34.52003702754131,90.02781405173089,20.73146637453189
53.2507355204994,85.08842875101098,18.1879971179251
63.96206394799342,76.5204387419339,14.002021083056372
66.76364513662516,65.46769269165905,9.052901739629556
3.3318586172835625,3.1230362714341733,4.161205953042612
0.7626267942779166,2.7243365193160844,1.813658807913017
4.4447339257863865,7.900414440298621,1.6460644601229348
11.518384724567357,10.259636105722084,5.716952717615099
18.77926529563551,8.256758186258814,9.69967337671134
24.097089664937887,1.6505425885180345,12.908816769652873
25.547907318355414,8.194036643502349,14.777268598915722
22.018240762611264,18.56916237313987,14.937312370306804
13.501137107560062,26.14217495843807,13.263419977425086
1.0322971239407288,27.905832199675455,9.760721535738973
13.691069127770806,21.99361887239538,4.520868110390474
28.85594636332851,8.023367523625833,2.029323112125269
42.95699356636753,13.070714019008127,8.897367926861763
54.72380533798089,39.13991803591086,14.770133400646321
62.79825488887468,66.74997207803955,18.54333644862281
65.78331738491356,91.5466902502097,19.591203774524963
62.50472429759818,108.83637165680445,17.82446114317597
52.313480626533114,114.25126579937897,13.785441867165625
35.44520009118945,104.76379050400344,8.41121063856844
13.106971648980224,79.63184513613338,2.5821328436675994
12.718908274739826,40.96875495424866,2.8996541671712293
39.65908295248664,6.331389649795636,7.275586496646047
65.40064788586814,55.543424555450876,10.041404494500087
87.91990864016383,99.60732823579927,11.07151961319508
105.4540235986737,132.70355212529245,10.520942083768723
116.2915428175104,151.3520795662136,8.542775894127093
118.61754551224004,154.69606194616242,5.317131386924992
110.68454575106243,144.03636420357464,1.2113778558862092
91.3333362142743,121.94793573207492,3.2809014785973845
60.729987207448104,91.4724879006933,7.414873171456977
20.951641067021736,55.66945382195247,10.336903454926153
23.959058019144468,17.560787639053018,11.473346410512068
68.60371332503455,19.74774382670743,10.543947221371639
107.34932520240697,53.088389981697105,7.5565040089014435
135.54276649243306,79.50142924106291,2.851832071434617
150.37583068448163,96.68572302141837,3.0448162038546056
151.13061628947,103.41514952184669,9.671232149129732
138.84487323003458,99.70031043482683,16.516347988899547
115.69736769394544,86.65000298585643,22.809978485754808
84.44136986725908,66.14644900258594,27.84392876734768
48.08397259960583,40.53494577111825,30.967551421033846
9.774014867697648,12.450662387199353,31.392623805173894
27.272255800821284,15.245454043927124,28.46946719931919
59.96400786792368,39.56114215665381,21.812830006962507
85.69593646505182,57.62862985497862,11.642242969322155
102.72522775752711,67.1196109482589,0.9877075890285216
110.35728598629926,66.71614869242849,14.671418586095918
108.85860858424317,56.46047765422699,27.926014843373814
99.17940789336026,37.830808104146854,39.34692678703755
82.70558260476808,13.529514593273062,47.83155982170259
61.235483519327566,12.929857833410374,52.561972692983744
37.16149071138365,37.71478515667274,53.09009586773025
13.613782861647952,57.174951877472004,49.332929968488706
5.718723299797279,68.3309104132058,41.393876772757835
17.227635088008217,69.3180670742671,29.70372349471297
18.372989119352887,59.74712898283785,15.201905871261578
8.657144827791752,40.88218278389901,0.8200434044737588
9.851346832405715,15.509161959957602,16.7631218757755
32.718348179944975,12.519271926265109,30.695684853826844
54.03592937581514,38.96134576255292,40.887601942145984
67.6999834133477,59.915439776453645,46.380815579930896
68.6997519683213,72.40103553627965,46.983218627428194
54.101694241768,74.68284473174178,43.04180802040109
23.58271412911334,66.35256813682982,35.12658843866173
20.440173519361192,48.26613466531499,24.13823129276478
73.0192562754713,22.41647402541198,11.739509845697928
127.22155492321396,8.257720808823235,0.06518489527583615
175.0507574387387,40.1321596241838,9.545276783097025
208.72473961021086,69.27490596717577,15.365521040970783
222.1271531266702,91.97081329105993,16.942835004535397
212.09343750642122,105.29255375064966,14.703557505400733
179.1303454451842,107.57820403550885,9.847906982798252
127.33636345310467,98.69058596399736,4.017673732345784
63.54990554234547,80.00056847183443,1.0128384409135323
4.017106275033963,54.094819375589196,3.7443872515344636
67.240352946597,24.274706356647457,3.454567252558484
119.280868561901,5.992387621610615,0.41976110378002857
155.34478357210207,33.55579587117023,4.234029350116773
172.99033311054197,55.9255611912314,8.95078298279413
172.08620587523743,71.40851305295324,12.388742235063187
154.5471006698677,79.0797080484751,13.837927077795046
123.93333697365269,78.69433899699904,13.0366860632501
84.95894916435655,70.64562162219484,9.82969688712501
42.94114425576866,56.04292240995546,4.535786914949477
3.237212324076805,36.85585092423814,1.777565383803154
29.278943970349474,15.945907225519091,7.967948626840382
50.65914378380627,3.206603916674235,13.146193298181315
58.26514306221053,17.12048690377072,16.502071199114795
51.11750661962657,23.12563019008006,17.456547255983537
30.15519452812477,20.08521293267799,15.997883371663901
1.6877699013705745,8.698718443518521,12.82031876920158
39.73084931767691,8.754532403323346,8.893624112884225
78.18408870037213,29.0969019298804,5.089701194347789
111.03491339773636,49.01835043953824,2.1439348284232347
132.9494966523711,65.57833305938816,0.26570356400975326
139.94780593501523,76.35718301587336,1.0679205648163617
129.71281935022117,79.39914448516403,2.5724834308728544
101.63182418420912,73.22929690908272,4.502403693430564
56.82962008521979,57.18099688987224,6.656111909694704
1.6447129882769558,31.949293948275077,8.713103085827242
68.55585729311352,0.02945914890565868,10.146085224663562
136.45897138642692,34.35829143958421,10.320459103855175
196.32530935302884,66.05252563059261,8.982127050784873
238.97465608644478,90.2071605060904,6.391577473710706
257.0593749593224,103.48690090428022,3.250490294486148
247.00286787269073,104.70624933112063,0.512509252660514
210.1097690214498,94.71959558750503,1.1242024473121461
152.3349109731457,75.74998549799665,1.5872057527860577
82.80816684737181,50.613840341383536,1.112110515566669
11.70739185414497,22.262655533136734,0.2840209790004582
51.72901560630611,6.256853354425027,2.6524405294222437
100.4563600826566,31.67430574499765,5.78742720720202
130.06004681615678,50.61006121184631,9.328053053004522
138.73433134213226,60.14394885519414,12.705961504173418
127.23950107813468,58.67749085550152,15.089156565454047
99.00776656117625,46.68559379207447,15.859498182665368
60.18453071193632,26.90082528194377,14.91382013487314
19.11229400634922,3.7212555080134933,12.32761251791365
15.07565170704971,17.95347155102122,8.164680825420282
34.5440780001959,33.995684460404014,2.7861816443503926
34.85784416228696,41.951864917927566,3.0993970580315953
16.246242580829904,41.333403041915744,8.89431137747049
16.55218890524646,33.38321837613469,14.304201027999891
55.809689138683375,20.564627961697656,18.972453159758707
93.0609979996022,5.9900704392047395,22.299718709582546
121.1822903334496,7.123707683953762,23.769470218449857
135.59987950859863,15.987377366566513,23.010617834649207
134.4999940004866,18.766548527257523,19.81887165951039
118.39354972785738,15.010113622517542,14.618229525209756
89.54031566225096,5.8018245359799,8.30599928223715
51.548487951497975,6.501184457488257,1.8029651196733372
9.11084004483101,18.93458116905145,3.8738883840176173
32.410967964647995,28.75029120177377,7.935105108302618
67.76984430713061,34.04952467763315,10.293992923731848
92.87550699623114,34.01830585555374,11.30139632473246
105.72873252642728,28.76329682070117,11.216284696522413
106.7994066932421,18.94951297162296,10.207065454555071
98.61732287145716,5.5019613937295935,8.635269156673733
84.78693713373904,10.488144232414948,6.815764500468328
68.87457518056976,27.69854045124631,4.811603944817924
53.61176793682927,44.52316837078634,2.7308670800825787
40.6543441617709,59.15775923022908,0.8194970889539441
30.832019218088703,70.45644959010568,0.887688948368323
24.3650261433541,78.31757078232042,2.7410787673473918
20.937479368756122,83.1072917179759,4.946104383524886
19.81157683186958,85.2527277790727,7.341836345138513
19.90848025257791,84.88902286421722,9.721471867850095
19.97857762669372,81.7484183938142,11.748425801153882
18.920186028232163,75.3705675214933,13.0474940666857
16.154020841161408,65.54201274942925,13.401747706352733
10.507310797480075,13.335663805873233,1.8138445976949191
7.427269397771982,14.681355391114126,1.0796794038049444
1.722804109404879,13.882564059228176,0.23098208239716972
6.510791829198757,10.758155979507148,1.8053417895161454
16.58465267766343,5.438039609367175,3.2479245179799676
27.099398217300667,1.7422597972984044,4.149247365150184
36.06629343759709,10.289484901842131,4.263541221360774
41.314574419959776,19.51324927921913,3.693342045280756
41.110357780398814,28.394602211042315,2.740861787968077
34.76954491807197,35.57112681773484,1.6379750836707978
23.01038745557784,39.504598808246186,0.46986746278444363
7.913234417703358,38.788100223858756,0.7595245726768253
7.504604732460588,32.57994638777327,1.944021902076952
20.16608965591013,21.226662592807255,2.368633010844556
27.976683702437718,6.454902482551051,0.955163644102361
30.388744318712305,9.357826531419185,2.62294632171607
28.382679436960355,23.901673435576754,7.845897188723668
23.98060297871498,35.290179186446466,13.72360232517472
19.438223414816648,42.29921848284958,18.692227264893717
16.565529427344007,44.232377474071455,20.88458000290369
16.367667403524685,40.745196120163556,18.84006188171804
18.995480046223587,31.866533470903462,12.22117752222712
23.93185774696725,18.14201305727343,1.7984348755338202
30.188726165050316,0.9196679547565567,11.08703234875259
36.448460381224926,17.564333789267987,24.73417339370936
41.18340759057394,34.4520419089701,37.42016447875188
42.828415361752164,46.8458439377165,47.728342240405844
40.08657473824467,52.53469058045103,54.47360861765042
32.31918188739588,50.490447415969015,56.477466501392215
19.882112590944082,40.994184002376024,52.586659762933664
4.219307391180449,25.400396574441384,42.31638269779572
12.40793908770356,5.728211465659156,26.461667696107277
27.529784157031308,15.6635522083269,7.141566223112766
39.24307328079795,36.25679631237379,12.75554815492409
46.850078300654175,53.48600472845702,30.407259883492113
51.058311062944234,64.95319060287781,43.52292384726368
53.595001306527166,68.8244468225032,50.786489144391936
56.3412237553474,64.30943258984742,52.22788464522189
60.32977239633228,52.01560558820463,49.00006182514319
65.05884160897723,33.93608922335069,42.754760716768764
68.49008502217106,13.018062294404489,35.01027829712817
67.81955993967733,7.4994531386284065,27.011156371124464
60.747575811035176,24.71544969524576,19.76471820025614
46.70394147526619,36.462773829769,13.854110303526499
27.444667923181214,41.42696067149493,9.480604082918637
6.696436814073948,39.135415743419834,6.648461611145006
11.044373842475709,30.013872430486003,5.0869624032836676
22.08472182148898,15.560282963621429,4.057046282109829
24.813433464563687,1.5153679898809085,2.4915621351806814
20.156369662454697,17.433929470308584,0.3368703124025432
11.11041457703633,27.95397027890614,4.29161830548568
1.6728513969930134,29.411036837699307,8.741613940568978
4.286886252085365,19.873203840991263,13.072063701060243
3.7924678134564216,0.060154352538370814,16.65928308949094
4.917813446223529,27.16218836889836,18.979630873826423
22.349286582396136,56.22344516793786,19.813254302160843
47.698684763548506,81.22253746738687,19.269032707722666
78.6539301944215,96.65310368136831,17.735333433426067
111.23083219881919,98.58262715492928,15.687011645780654
140.00067587023696,85.23337878494917,13.626077996856527
158.9930194818473,57.148816735958775,11.988927915487286
163.19879602823056,17.0652045840155,10.922154251594199
150.17267377633564,30.390394171061715,10.25991695058942
121.05343969806265,79.1365198094523,9.730467371223913
80.47737462637849,122.30784972324693,9.23906734855482
35.30515751585083,153.2361268640777,8.768681342183552
7.394624116587931,166.661292585252,8.175218771346772
42.3312082881211,159.90621269527526,7.307852705977965
67.20927330167085,133.65005482055977,6.146968051544144
82.81418793391008,91.96985116951964,4.9364771208195
92.10170873952862,41.50545521390121,4.048243896637234
98.78642064847303,10.049588325198727,3.591399772833909
105.98347723702192,55.64770379246092,3.295292726628276
115.30621061911629,90.25018110960771,2.7206910400238105
126.55859204918436,111.49394324447746,1.5769105738551548
137.93664724374335,119.58265888446697,0.2841140901646726
146.57271423362803,116.58281972087542,2.958396684315022
149.23950598838124,105.50532311325958,6.401160946213251
143.0773316323629,89.54591253362464,10.500184730813695
126.24879080403059,71.61607278409893,15.091964891030443
98.40854690557774,54.12211305554181,19.85592022069599
60.91652185475422,38.86904624703003,24.214330276303244
16.778525907814014,26.9468388550262,27.4318326613681
29.680936521698406,18.60964159004073,28.93205619386161
73.37316674877702,13.278199220747105,28.320309709424823
109.17084357322996,9.76191629176998,25.39213437206988
132.74022926101486,6.699032536820827,20.285968974234812
141.3716727801385,3.074424004979194,13.559519580637902
134.64005273676386,1.4174680546041312,6.231049251681682
114.65784550958104,6.349194121936665,0.6390480491083068
85.73336432136071,10.893598470644044,6.584642616782238
53.44823474575827,14.342845206519518,11.830404875901756
23.370298632205582,16.5402124498477,16.916397779310657
0.20455943387388545,18.01901489237555,22.208629886872608
15.037497097745897,19.818408448647308,27.410793359439666
21.019818657501208,23.083364232432853,31.293886784888436
19.627786701794754,28.63679811715584,31.94277554328021
13.098400068722567,36.70175362694415,27.391992488007258
3.7232665910788527,46.81773102128584,16.68789090919988
6.487782446329523,57.9027076279834,1.1821603120739899
15.806247657884402,68.41716976234821,15.61193560140551
22.696812785687428,76.58165684614599,30.103208179660818
25.892965752970746,80.63726576374346,39.95477388834836
24.71944587286595,79.17296421191487,43.77246813642218
19.51134525399192,71.48065692927096,41.058453463199555
11.84227816793424,57.83486901314815,32.11844822678402
4.315478725308797,39.56994457801368,17.679967948464142
0.12992785232287152,18.881337637013896,1.1535978305769603
0.8355053337414192,1.606044348069337,23.066772360331097
8.084191043282384,19.36809610041283,45.9972657805142
20.575672717426816,32.43113927539587,66.37557954419263
35.47560237168225,39.618847414128155,79.76950986826421
48.796271222914,40.60043824156705,82.5183639525998
56.3267876163388,35.821578349301085,73.44640629971163
54.61389243390489,26.408219317450307,54.33250369119426
41.77754630377474,14.089126773405816,29.09914020976945
17.990758263499355,1.097399000969382,2.813283167471358
14.458470054641067,10.041609839979422,19.895202805414915
51.513773016580394,16.882561007616783,36.58511770035535
88.02374775441814,17.539208106416815,47.326624708864124
118.57763585255245,11.134637735327125,53.08718082402967
138.3223717974519,1.9311933376886241,54.36854112895161
143.64318269428003,20.012040410639376,51.59406655425588
132.6543346015177,40.56023800298598,45.30300415552507
105.52674524101897,60.6667022504459,36.302569118747975
64.67168169193204,77.62972825393143,26.065433971344977
14.701641503524861,89.40202865636404,16.313598484816236
37.94816916019689,94.82946885090539,8.9045805780881
85.84714974678576,93.69684141592583,5.3931374421074745
121.835259212351,86.62625725025329,5.927184551460357
140.4420275648075,74.88097625508037,9.153411930523745
139.01259788974528,60.11103794584773,13.170909459588966
118.15904151796974,44.05194096107379,16.53553294090245
81.37140796160828,28.21674750952404,18.27019101494595
33.98067068017504,13.625729503542551,17.63249656030248
18.03963246441872,0.6220128873344983,14.362174220496538
68.94898850434474,11.147388087560104,8.590906428916975
113.58241442120949,22.547460732535026,0.7928443054613421
147.3073127322425,34.62170959064801,8.188646643671017
165.99192641105037,48.19662168248286,17.36031607884694
166.36237093106863,63.52131677923236,25.639463770399363
146.80637386925505,80.06081127046042,31.97355763358434
109.31272198288951,96.38277186490726,35.46807644952872
59.25088999500314,110.51737547420197,35.6407111360114
3.2695821988524254,120.59459306636604,32.74978274999347
51.68393899471256,125.2295866060974,27.57715900844389
99.44411587136399,123.78866281231551,21.093211349361447
135.51564064874145,116.49031266088706,14.335941143504787
157.50113156616501,104.31985755896652,8.26559598959786
165.02928022418038,88.79610141478031,3.5782862727023255
24.994582799464602,17.627227834547355,4.8156637848891695
22.76686306911119,21.204355197725306,4.666574815689571
17.09386239805584,22.40560162901354,3.6870565584449837
7.678790855597823,19.885971512762396,1.9059492341932533
5.054459972281855,12.920470100064195,0.5395860577269286
19.93166422632704,1.7692605424369614,3.3597372650894495
35.298793537139865,12.277808767408395,6.13997747353533
49.39735797414362,27.1989875305134,8.454293210733692
60.80115701828431,40.753009186281446,10.00889989897912
68.61490188161294,50.98017875890384,10.780859467608392
72.48486786898718,56.51698854211276,10.892532130194885
72.68094712505527,56.69414050031633,10.367212893069565
70.16556093165613,51.4929649515472,9.14771985035854
65.72691899164955,41.420952474882405,7.167432814809066
58.99049555238187,27.435206588875527,4.349302736665727
49.035617418909546,11.01682855906309,0.7779069951195215
35.10992558828568,5.809428667938954,3.146027057459522
16.731383383401454,20.712953136501884,6.827518865298462
5.947653768567817,31.536900651498758,9.652868373861308
32.11803377885226,36.892416374359186,11.171349334827463
60.31171865945414,36.5797134013915,11.272531230186445
88.2921493668865,31.619757548884632,10.119506249943576
113.29967861634046,23.881710307821454,8.066616973640613
132.38163557031677,15.459686096917782,5.59414570309188
142.98819775150957,8.115615496470257,2.9772086054076063
143.59849333429193,3.0106257473045397,0.10466368319285485
134.06833967726348,0.7480664006300402,3.1635595953647044
115.70354565663483,1.582567827885706,6.416452735357704
90.91182723509544,5.565862295821889,8.693688016586668
62.696814327350886,12.516802439839632,9.244502676939783
34.15907153173259,21.856613816420968,7.919559124108455
8.068338737607252,32.456438026066756,4.9252064827263515
13.440511829923933,42.67081815606998,0.67065483589971
29.17298858904984,50.61808372063221,4.3577358975427325
39.15940934313382,54.603720798272256,9.617935823120892
44.814850206270805,53.50497443758589,14.372160975592102
