10.799500198315268,16.42428568201904,3.1846917175654115
4.746261939409755,16.501139163852574,1.6270781259270952
4.677730207424464,13.35779705691431,0.502850481029484
16.900499322089683,6.552178396692991,2.7932439069855395
30.50580962816046,3.64048739758892,4.865322573655005
43.316025713776526,16.166122630953424,6.47040441358078
52.79407013291232,29.327048406099642,7.435793385940056
56.623543813610375,41.08709518564408,7.673315458961923
53.2834813055019,49.45692876349459,7.167412350377583
42.38291454491291,52.850121659309686,5.983590055429359
24.69757467755585,50.33375790249463,4.3816762848951445
2.0628511985672486,41.755706805758,2.7523330326291693
22.766228152628642,27.80257344299748,1.4323859965001327
46.66905928279363,10.000602548925002,0.5535944826407584
66.94141108499537,9.469667558161197,0.0706786500098247
81.44952652045019,28.129979737646575,0.7809125349210299
88.53271528861434,43.578020098817504,1.7320420828425156
87.14848342312366,53.86666963304938,2.847340776064444
77.03970736965286,57.839399798297215,4.032158701312856
59.03204987085374,55.315858029423154,5.2189104097719445
35.213496709178735,47.10642906097687,6.2639889591488345
8.72200914404847,34.831880583673694,6.944154352875845
16.773651047593216,20.578860763140668,6.909328745278319
37.87210299991547,6.504478470086608,5.706574669744684
52.19049659406928,5.513633276083699,3.1708379757246945
58.80025207684893,14.117889920484105,0.2315213675140818
58.24338490377783,18.566435847966694,3.583580905820976
52.117042896260465,18.719736917322603,5.920256141040592
42.44970364372686,14.9731463859282,6.399556489611633
31.111297383040384,8.15789795721044,4.381265940723734
19.51011258777652,0.5509209691032136,0.2557053304173099
8.647476184527587,9.735024189997514,6.81493550888123
0.6132289829713299,17.873546596615427,13.92073426918283
7.29239800907623,23.498823118400733,19.82560472333259
10.334627824258215,25.380607457270905,22.796831117804434
8.99274358050474,22.726305717216604,21.71732894490239
3.354350331671683,15.351020045750982,16.402164459231074
5.3330935703951665,3.801678912532755,7.465526920092095
14.873585613123929,10.62469157201711,3.9726944296725257
22.874550019880424,26.02480215622591,16.562700951543288
27.695760179851934,40.18368819008827,28.819815048781578
29.069632653261927,50.962493829135774,39.041439162886164
27.98146197051529,56.6842732921491,45.334221661743335
25.84579506129828,56.4170328648643,46.23456345217643
23.4255337846205,50.089834519345764,41.35650013443432
20.160447546219633,38.45198455492144,31.25036193514077
14.410587111125066,22.917613889508594,17.19857763835901
4.521119112375267,5.3584188176741305,1.201792536071112
9.909913897538322,12.10075662184412,14.446505994519974
27.32860417762043,27.308573565862726,27.695963112752747
44.55820443099186,38.34853658821807,37.0091623909245
58.02666693976165,43.82493081316803,41.578646074638705
65.20391561179974,43.14312222508838,41.46094062378951
65.43131651121342,36.67127362727917,37.37995607749047
59.76115617458589,25.703226321657027,30.528463102422062
50.04850780040124,12.212816533925064,22.37824920625008
37.95132726584569,1.5563522471465447,14.138969082669233
24.51531696380824,13.524110939454806,6.554209581846665
10.515680030621432,22.083796672416078,0.14585369056099445
2.8665919936267312,26.23740680631268,4.720983541111163
13.6829440919014,25.590335913957983,7.80474435804375
19.594266840597644,20.293656771449356,9.143564716043533
18.874660564907142,11.010823588585161,9.150452263616485
11.484840857932891,1.0770719504086828,8.271471758946726
0.4887362028538784,14.28678970472029,6.952749848363474
13.392568056854532,26.568391053524937,5.7293062950625275
23.266579880185517,35.78960443834135,4.992876183198735
27.157220466425997,40.11364531779591,5.001801168996139
23.86742338678251,38.378071210964634,5.905908914864349
13.88360020232747,30.354182279001563,7.510384734070478
1.2538862772140846,16.817000585708122,9.361486226659162
19.614297777060436,0.5761681876581196,11.024031813989437
39.18037324695238,19.539275600576897,12.18652077672085
57.78053413306188,37.4577852554912,12.80240327990947
72.96975685737998,51.713794810988475,13.084119209687724
82.22142677811297,60.02383052547772,13.167948664352327
83.53075957530172,60.77059489063911,12.923898644173917
76.15253428428677,53.30703294590985,12.106089405747229
61.03640310638635,38.15392466992078,10.556902156788079
40.6465670649803,17.01167694356197,8.371608078825549
18.225710997505537,7.447557122300198,5.776928384694146
3.1009672297557844,31.987984383548127,2.8800522291176156
20.975779187652368,53.338493074345585,0.1333514018169939
33.9653981846161,68.71497438034183,2.8963913206127985
41.3181881940999,76.2065226252215,5.188705018413061
42.700052104485934,74.98428072536,7.116933429428014
38.19367426723523,65.36002226320494,9.07285057590749
28.586279740898604,48.7112942410261,11.483750982521487
15.68989631158665,27.292386887588123,14.452824589401953
2.3206943000682183,3.9484795528389665,17.705581223105956
8.244299355219608,18.252604703966036,20.755349633468697
13.189335742815349,36.4565437379948,23.018821128078564
11.058134445830989,48.471753360407774,23.96110200387393
2.183360794114045,53.10997769358648,23.235571010464607
11.567503276077295,50.34539624651322,20.742448280937467
27.566711640140355,41.269915822306636,16.65351207869162
43.29661978967013,27.851198994841784,11.34064875598713
56.88159648462995,12.57030494115725,5.265343905644823
67.07450060625968,1.9821190080899636,1.0585029610002834
72.86085442209836,13.482375217872345,7.083163141877461
73.05600148045583,20.1757568064217,12.296595488315376
66.23205803425738,21.08561689541752,16.30989578200188
51.12596118366276,16.11863591263044,18.817860223860873
27.364613403066087,6.0767920523868355,19.595595882675127
3.875922717275045,7.4362609087920974,18.70998885017278
39.642772044883046,22.232976991894894,16.577568547099432
75.56241652554212,35.870285432189135,13.743113710552205
106.65651521851966,46.04399905439093,10.670483299058121
128.3422032353067,50.97962449472271,7.731139952275343
137.26010628585868,49.73787486280273,5.271728898190371
131.69798470472702,42.34463910309626,3.545811846250538
111.65991089813475,29.728946692235176,2.6680522780597387
78.7333531735406,13.512018408352297,2.5850196377745984
35.91410880607067,4.3122015781826395,3.0448623863279245
12.52581542836865,21.71213978497306,3.6983287038610007
61.21786454373624,36.88426241547258,4.157210161280547
104.12041149060192,48.42489623631162,4.160405508600288
135.30601579697296,55.40898488075541,3.7392559799854035
150.0246527434267,57.414095049348084,3.0397156932966247
145.81059850629777,54.53197869995359,2.0789290787686308
123.28556956904372,47.37429582461371,0.5848787185021302
86.30008247781765,37.04244915868763,1.8001712948888335
41.298214241166896,25.019629836958035,5.0477760144592425
3.9557668774872123,12.969480117973974,8.827635892701169
41.96605033124799,2.4650246612313356,12.841494740284018
66.97727084329888,5.281833920852171,16.771708070797146
75.97560562286598,9.606232920095788,20.118380975085287
69.02719594933065,10.442689709013292,22.18889451317313
48.98685639502864,8.252673678171016,22.40865938140714
20.751656901405603,3.886353242720854,20.582853479359276
9.746229943454965,1.5619587273176083,16.649179205064357
36.5583236648481,6.87113847791833,10.61121290533666
54.58769617837256,10.792359651120357,2.779847287620207
60.25146824839425,12.17317809267925,6.2396098616694475
51.89774766389013,10.132229495545648,15.570300440749625
29.991424111176528,4.2683394312176475,24.105909633100843
2.9300055689076085,5.165690114394266,30.66404255297063
42.55029499472772,17.218474686751218,34.166005921135145
83.33523782399057,30.377830785311737,33.996781786705874
119.35582685392514,42.85603526531811,30.167500333533017
145.2617849816067,52.92277560530359,23.098973812569405
157.21333437846081,59.1838166016857,13.33816260664077
154.2449139825425,60.93880813537028,1.780234315722234
138.24322307300346,58.2477179254277,10.212603915799917
112.62791209262497,51.69879898104827,21.227026147479396
81.57953803947471,42.27990413824866,30.125062825042363
49.26560121350999,31.228152590797915,36.3063556325571
19.2366290944576,19.873118952324972,39.58420950850296
5.901724889221209,9.47226960797969,39.92149821467754
24.56472207705681,1.0405331852264539,37.63775682871335
6.601850507500292,6.6058225995017406,5.733929600493758
5.482333162326793,9.071605502306097,1.1410342231229653
2.788878600963257,10.376221058530572,4.474294527769847
1.851554921072789,9.827644279768103,10.661221233099713
8.380444057600636,6.988032187792605,16.8093413693284
16.10179562642953,1.8223430127142857,22.188231172157693
23.689918659007876,5.207620452060947,26.10088739331483
29.43266710067789,13.151796973106654,27.954144903194393
31.690540364034607,20.677438551129445,27.207820628268678
29.378645247412273,26.305544280962028,23.496227239020918
22.32066576725324,28.703042529139925,16.95210452954538
11.403475523286227,26.92495355631452,8.37361747901714
1.5551090734289874,20.597400764002195,0.7840850388046547
14.422161461654762,10.212469117758959,9.019576401504443
25.47757059115677,2.710350271674673,15.769258438228283
33.605790141151886,16.00294762993319,21.047289720437586
38.25860342825289,27.352469057726694,24.62909574397515
39.427014057220134,34.70592355467271,26.3184595765234
37.477212881234955,36.708796506897485,26.034847165689218
33.05773322853597,32.9454568790829,23.73856290976219
26.99565661183688,24.012968006392764,19.76018627402031
20.085910152734094,11.45823323512486,14.739102547538174
12.843452738756234,2.4893824990627134,9.428235780166089
5.239665394324152,15.282663262612962,4.578411752472972
3.3329535592649875,24.529024570852602,0.7609834085097459
13.76322329716359,28.459865588418523,1.605591501524771
26.6216214937012,26.290711225771435,2.3522807838199506
41.44445786696192,18.417108319255654,1.7268810666019705
56.32039730096606,6.334910297510903,0.22615482778809748
68.04024388266554,7.653392854597132,1.6223533909424273
72.90779728578835,20.887535585015925,3.2871303759074593
68.00233609569302,30.873996872571094,4.21079150188637
52.36155615556494,35.736600780864045,3.911327321922932
27.589093088625162,34.52761273611169,2.069033687894646
2.4041806447913716,27.34409064229071,1.4218616936659967
32.43971845565402,15.231027904898895,6.212099277105253
57.46528025611864,0.08158076463292284,11.484936883305398
73.78078183956855,16.53096785365312,16.372645670669584
79.70553150461667,32.05820401437913,20.272317566745915
75.59696356178084,44.84748677128128,22.895738980882978
63.427566844181776,53.43399681639886,24.078855873752605
46.2364007519717,56.72071755840264,23.632226410611025
27.629583122962675,53.9970858443244,21.454999120590696
11.320016091673489,45.02166987071775,17.55535195314711
0.5840039797218978,30.181933331108183,12.058593579573
2.4627814732908635,10.662391069880226,5.275546128989216
2.386364118455619,11.514437745120468,2.2768319055138413
13.023277177980392,33.65730677873205,9.81300440946026
25.303149244699497,52.798070965352714,16.451226241359162
34.12858541554653,66.2192208532925,21.448862926468625
35.04762710901447,71.91561473636953,24.298607378542012
25.74024308411194,68.86032462956945,24.86091049330799
6.781615192372755,57.05942007730012,23.2856487137956
18.647204936244876,37.44731336476139,19.857687189358202
45.93614313556704,11.783023974984358,14.894888706372171
70.52118353963422,17.348560109647895,8.682261817785866
89.03792176869985,46.517107423270886,1.697840570503512
99.7645584211,71.58622429236462,5.2726722365426495
102.36878852400574,88.1782804595467,11.289746924746083
97.35087096780791,92.50430826446676,15.480873543316513
85.59827676088416,82.37083535259944,17.347160030748597
68.26490376706,57.994172828906635,16.822298591119896
46.91381992373569,22.262227834564094,14.252456894181986
23.627897850261604,19.727489642812056,10.394497009759952
0.8605346114766292,61.74622926661825,6.1324253819465575
18.97955138335922,97.73979580528385,2.2538764988429167
34.04500891913254,122.91632484511693,0.6945166837700841
43.380145903697404,134.34018404327915,2.560554028821427
46.896200719376054,130.98231914408373,3.515227584003315
45.08863128928575,113.44405285933449,3.850278740892874
38.72439530733519,83.65057975719958,3.784075604198165
28.71812752238577,44.662003303283015,3.4822779541374094
16.256380996429538,0.5714504751339856,3.1805378596841885
3.009418373708007,43.721492164665875,3.1331706298943875
8.813020872223131,83.06296444212097,3.545918184035895
16.724785371374608,112.90502559796354,4.4954034315682
18.531240011404254,130.22753193027313,5.839100542502375
12.98191989887717,134.16012998941582,7.241024267128993
0.2174515624170293,126.0264099201875,8.272779920685423
18.159366853448706,108.7625950685136,8.528490938735464
39.398181689278005,85.9665885066273,7.705409426061653
60.16686761396246,60.993135988715636,5.723610430231169
77.16357379709319,36.43347989733186,2.7675668058416916
87.63866616113786,14.07877058811414,0.8324398666705101
89.79164314213368,4.82947217596843,4.65095157949083
83.0275530594931,19.35427648659401,8.193758231290103
68.06583434587795,28.835405915902818,10.975335514787835
46.895611096106066,33.12160670995069,12.595430147660831
22.515043750780332,32.863330062782644,12.79966764862266
1.571053851303446,29.580412633051512,11.444543338919347
22.009860431331944,25.358102221163048,8.479485469509532
36.241016467377825,22.25127763049587,4.082988404889246
42.93622032532278,21.65904692488526,1.2239875436358285
42.14244034635385,23.962671193280794,6.64373531822516
35.1099321505558,28.58264177697314,11.266873806645027
23.90887580614558,34.37720378546053,14.270493134720823
10.994065506315897,40.14374405928948,15.078870195219778
1.185385958498357,44.973814327837076,13.487698917275063
10.464577931788382,48.31602130278402,9.793286710532628
15.144530362269698,49.815682512314424,4.628376021736034
14.13095935112328,49.136273021921895,1.4291998112495345
7.046868206330478,45.931707609238515,7.8395118403539
5.668545664607698,40.01613852958586,13.83035690143367
22.714773111583163,31.608241360628366,18.42541018459122
41.98619847839613,21.473625179416658,20.46947907245445
60.75275826071173,10.835215920520842,18.78533385098245
76.00531503021622,1.035650624492256,12.93293152050453
84.94233632044372,6.876614581722068,3.6516216208540957
85.51588022812058,12.432453746707155,7.253852380714377
76.94161898307453,15.780890887532552,17.092774414210236
60.046541658624186,17.479909317241315,23.3193899681976
37.30441235390584,18.18276007526962,24.753675965662357
12.462542764668473,18.393759118888813,21.62288836628797
10.202876341287622,18.38908030000051,15.107274428871488
26.878081090866303,18.29770201418336,6.931036125840804
35.18898183167939,18.248719239973916,1.0755863975995503
34.82767497399893,18.463480168057277,7.518579850204909
27.626895775014546,19.22007674975313,12.003044976438977
17.012469891133758,20.713212676851473,14.86435734094113
6.968925176437335,22.910678450184285,16.249146645625377
0.8584968730686682,25.506026595125668,16.062452821904127
0.457899660698042,27.998824264191054,14.57440286178614
5.536875675220209,29.864241094176368,12.308735950641129
14.105863406259836,30.727248443392515,9.977299927871822
23.189567040261306,30.444418497013167,8.697537442639042
29.8470617067427,29.049454647400378,9.220152113171174
32.09107212490791,26.61606344996719,11.097161147729068
29.412072014271548,23.137700565933436,12.825658282255228
22.81503452644548,18.502618527788613,12.612072593338498
14.43821229755984,12.597933383752288,9.12880084403621
6.905826741601972,5.50292077164545,1.818570359494675
2.6225113910598816,2.339142813338908,8.677717561667066
3.171869475788192,10.085229366505418,20.353426330987496
8.885861305562523,16.63313071430734,30.543801422346537
18.656366218413783,20.909355790536765,36.86742367009244
30.071913315138328,22.215928222477583,37.97285754408519
39.898663310406654,20.48606398685547,33.79620827606666
44.867141359901844,16.346619374389395,25.3846913417849
42.6038757394417,10.985049726478914,14.316999086345271
32.419585855647675,5.865528268747998,2.2039747234585487
15.681263736360274,2.3873134700627183,9.248359950479571
4.4357221500408155,1.6006217943128431,18.564793499814623
23.90277012222141,3.867859652321613,24.87824233650184
38.90051315229775,8.9009982505165,27.703851774765027
46.71723633458639,16.037258396340125,26.943994082547892
46.46275559177199,24.28778095130444,23.183224837274036
39.183659876331994,32.440374369234135,17.5556436731492
27.387618574341005,39.2238006092523,11.02824180198915
14.190015329267466,43.519529293651,4.394089110121936
2.404205472543253,44.59193672759322,1.1395426378646922
13.821276751780543,15.649751881601551,5.036851280224488
17.672971614096994,11.936872829947495,6.793538923809154
19.019849332558586,3.8091626813749317,7.8954587764480575
16.150741919349908,8.77938975717274,8.03810308646288
8.21675103472582,24.817609902867666,7.018506037664246
4.266484163102388,42.229873995080645,4.794015188113615
19.400314709196582,58.158995663274936,1.4219196545399346
34.379937429293186,69.45376127095585,2.8178407726758556
46.24750860677624,73.27690840091007,7.3598029066910335
52.59098603859892,67.64727352707146,11.57793874652965
51.970911838147835,51.81971657648383,14.913805630321816
44.02898884155656,26.524999100233774,16.82739547259384
29.402032954213933,5.940064308154048,16.8888737755625
9.597679344053814,42.04906402401645,15.003867681801983
13.024672297963606,77.63026416401335,11.516341507999638
35.184469484940806,108.2052399300739,7.011536492338256
52.92002106768095,129.4407722973332,2.164194086132213
62.3744158041572,137.83095996131559,2.1713703810657554
60.904618521921506,131.25433207229017,5.27323974334536
48.11643339573269,109.48114211384626,6.950358349098919
26.293521502744557,74.46102100506265,7.270373123551702
0.09573550358351753,30.22045318837361,6.321152273407586
25.641870577944452,17.596721144028297,4.280743202133787
45.502146561978456,62.59818741753485,1.337176466303468
56.568675279796686,98.7278103138636,2.2122208137222437
57.90713380405038,121.33890693985366,5.696835600860218
50.46583182727051,128.01606522084154,8.17132458455302
36.37304606859032,118.92517266255646,8.696982048818677
18.22191804829373,96.66170517934137,6.488351888114578
1.4307667821794556,65.63953670343183,1.2177066007083746
20.307627447186604,31.227154418576394,6.583806577365282
36.53076608903081,1.1437178463560047,15.616126743812345
48.772231886660045,26.77306786376944,24.174527207987595
56.40387778120021,42.30569953871676,30.545380183512137
59.54988531035978,46.159872612010496,33.57375353883656
58.95543244431586,38.77553199375466,32.821861655253954
55.66193040581353,22.61702489443868,28.448746316092244
50.63608353562961,1.8151272552523408,21.20551994005389
44.521859134351054,18.599848689935097,12.037992138183293
37.59415832751939,33.77539028530728,1.8059753193993848
29.868683343853462,40.16975100155117,8.508831175952873
21.238982061648116,36.36621690014381,17.764603550702972
11.569273482018227,23.262127169117683,24.838466578706054
0.7751018879535211,3.57487805583927,28.891401000737815
11.042785616251738,19.083496303424955,29.550337335190672
23.40844743641564,41.14949967256818,26.892988688482085
35.33459372217297,59.74170591275358,21.492547073932414
45.40733393694958,72.85521399474565,14.494205450687026
52.18585894536708,79.21960466735638,7.294214428776518
54.80838884379413,78.1107569192979,0.9647129769547313
53.5036527797629,69.3625924642166,3.9240867871443523
49.667448733755876,53.571984962350285,7.292761000062107
45.360142204537546,32.304992422562066,9.193426218400763
42.45583206899548,8.074933694465232,9.22363944461356
41.87678036233435,16.040193855763402,6.999906212241951
43.292697023993405,37.04164949270126,2.7074416809504043
45.43398277544286,52.64284602330416,3.137095547595225
46.780034754950165,61.641103528859816,9.502271858569934
46.18009511949053,63.93796911411979,14.714849523331054
43.065992197716035,60.29927149356478,17.214483287524164
37.214244449854064,52.05783639446459,16.410228620604013
28.35900916949174,40.91595424383378,12.578783577761218
16.0478982678648,28.829161128671135,6.1820001201356245
0.046835342596283705,17.8315459376191,2.166853092622072
19.505855713158596,9.698467931422377,11.469724016067763
40.66952253100539,5.494582875923883,20.30326312510816
60.683581133632565,5.189120181347152,26.750971549825067
76.20674152438504,7.558282014485431,28.769645244222005
84.4938988532227,10.511479700590677,25.143531011787665
84.3193729756946,11.758912758566986,16.197617760895138
76.28449689811039,9.535622573593237,3.576638808175521
62.3768211309932,3.076048061150205,10.098259485965247
45.086302899369166,7.311867501341112,21.49540578570528
26.583197238142517,20.50114556876583,27.7054279351853
8.340428021782088,34.90658836933421,27.478895712414214
8.693693409783833,48.742130390212495,21.50406081891715
23.631172003168725,60.10650412730379,11.767719441765875
35.30269360289622,67.0009621965704,0.7445889473474689
42.31169376302813,67.47246603482765,9.263222041069794
43.485215193080265,59.99837254402405,16.91509434654556
38.44033667798081,44.055038117832915,21.666354008847268
27.909449444197698,20.634242781429545,22.99251791550078
13.611058745478518,7.605744622860167,20.448740032686565
2.2782175865101473,36.702814552032095,13.87649013429937
17.754301556770724,62.17676639546854,3.72240451172267
31.394876322590726,80.00615997704246,8.36314750721222
42.37419936140546,87.4679388568205,19.743287199430927
50.17075341453332,83.5776044628171,27.932661268784077
54.23089257572863,69.08744359891394,31.55324835798375
53.84597252231348,46.148756408695874,30.453158952798947
48.36224035425996,17.80425325354035,25.55280098794771
37.61314401530221,12.523024349464293,18.703335612892268
22.327751616304813,41.45847928213096,11.98845972657333
4.259433936762631,66.03939003808571,6.502444780082481
14.08810296309565,84.05349378175737,1.7438558718333024
30.03063144256902,94.32227753380039,3.6866491522609235
41.347079293683805,96.83796560570407,11.046848151231227
46.75632494371773,92.64586028524135,20.849663344065203
46.080177443034046,83.41036051284067,32.774234066124585
40.12197003665088,70.74345814683626,45.929528365222865
30.378659148111208,55.54323028805206,58.76203538995682
18.724675891858496,37.67387386884007,69.03573547895651
7.153325603466732,16.19790780156227,74.4378753475371
2.4303044203463124,9.863715146235354,73.24035124957673
8.402479125939443,40.51491349548592,64.77670655433516
9.63992695408159,73.989649192711,49.430451013311476
5.7573444205840145,106.60998899646589,28.381358283347463
2.7136752380769678,133.44430808038882,3.575290997512466
14.290124132393544,149.5598711788164,22.596751047126574
26.700934994466476,151.40604058919456,47.72258758800391
37.25162254708957,137.82689431006563,69.35175482961426
43.349298216210215,110.36377955010475,85.09637382461078
43.099068896174096,72.84112325392019,93.28293985722341
35.855533729653615,30.502520998526673,93.37709230495811
22.600089563375324,10.966434227447225,85.91188758607211
5.994944449353426,46.28069698324655,72.43493574854888
9.98470391539812,71.20978092801595,55.20378029665329
20.8649757500756,83.09860696017013,36.80123628348608
22.832499567944673,81.28261884990921,19.83623857851108
13.938144676411861,67.30819963785959,6.145999772554463
5.06497557354538,44.778823960206005,3.825879940313515
30.61346469215107,18.712767790460898,10.74585162742963
57.06290187377494,5.523295117924202,15.59056402995881
78.0427020690736,23.40797454416663,19.101395269181147
88.00296858982665,32.184937345100515,22.065915744930372
83.4316802190872,31.213063256739883,25.284516771361854
63.428457020471775,21.68171650412667,28.831250801193253
29.635026131359364,5.931934105414743,32.22153499476439
14.264326107643415,13.264816736633964,35.0779039370505
63.146271206607494,33.2352912794721,37.041735916428294
110.97407024612217,51.65975650690705,37.551941107640545
151.3333254039568,66.65514976863145,36.19772395901871
178.17571455673686,76.8314813118332,33.04691487348479
186.85085374652795,81.38686465671337,28.31279872141415
175.2489693071284,80.20467962495319,22.17872333057722
144.64415732580576,73.81913761835528,15.008098806243419
99.75625377897974,63.198439293179,7.421223388795641
47.80052756340196,49.4409966455021,0.44341788140918836
3.250622592048725,33.542122045145035,4.832428258384418
46.57773129197511,16.35886311261036,7.866789558261979
77.84193767572519,1.2395917497599638,8.540710819881504
95.5152194282279,18.18909834241742,6.918893725624405
100.41511415385408,33.41891393329916,3.4414776724893796
94.80241351040196,46.09382127957877,0.8670752085735909
81.4933647375452,55.614782201941786,4.743217795076326
63.33153609927613,61.665262142962845,7.446489854074833
42.99802516934867,64.21850520168455,8.85566587771683
23.021930901088922,63.47362010098716,9.167722108286544
5.723594979600391,59.7657384949204,8.83871828218089
7.063834390827867,53.510129105337164,8.392753532032883
19.870379670252206,0.12022822730621109,4.570819364581143
18.086246397237872,7.523806471911677,7.224241183444751
12.431453970866086,15.983228727117067,9.067115110581224
2.9228317734037943,24.310756808470153,8.852702877715018
9.734646361387638,31.193785124516843,5.406571909497905
24.148769906901247,35.271796247483444,1.4596608144432326
38.37141111791487,35.21234975286807,10.568115118304654
50.196712451606665,29.814263299000057,19.74792517508421
57.57361128646474,18.245224336907945,26.75998884514057
59.02861003355673,0.37012220404113144,29.877032759790968
53.95375425415108,22.847518351394886,28.157625300016488
42.6756794235803,48.892270820718046,21.71447376762406
26.389474885535243,73.4405188822601,11.360639350306286
7.042878903841131,90.99674936461773,1.6595380527470889
12.99407132405665,96.3728016128702,15.59878168507967
31.450634244354564,86.0208415436972,28.650233148936135
46.50859764040048,59.13306110533363,39.35167756485194
56.94078785962299,18.37742688985259,46.49974050329687
62.16384991672222,30.355865264249235,49.072970471021826
62.220982778605034,79.02808905282713,46.360457542734956
57.751044848802636,119.14829623019862,38.114751588011075
49.884681417838664,143.67664805773683,24.935033007276473
39.99548172481146,148.41004987245267,8.710724912041233
29.354666551251828,132.5858788489279,8.005212304557931
18.79841869674781,98.57965198753153,23.06227765676431
8.605688488022135,50.99288315164579,35.23017412777136
1.3226589334312413,4.3353635279369005,44.2680454379541
11.086280820523651,61.097291022840864,50.10933165605709
20.419752944710265,112.94733554020185,52.304213256660695
28.574192491755444,153.8330102740243,50.27086979670315
34.56237686149487,178.5117736194348,43.4263804478276
37.66007261206018,183.34471497484992,31.74534800287995
37.864645838189595,167.19356722296973,16.130303812089583
36.03176036366738,131.93638889282607,2.071105129412448
33.57210916853798,82.2285123957688,21.15589589702019
31.813981702593413,24.48465998250146,38.759983746445315
31.344369709329786,34.55553998295453,52.22322205960226
31.649816157202448,89.0568830602106,59.64791813476312
31.235383049981746,134.65685715319768,60.47621025254004
28.16916861469231,168.28495015582126,54.96262052163101
20.81364245857748,187.57191366756416,43.521871726465115
8.464283701081172,190.46356385525965,26.736522443520446
8.339845965241606,175.44526686602666,5.954747791417479
27.892580123939357,142.36677624890308,16.14757767497612
47.68348641878823,93.43898250775113,36.02012251069208
64.9147623738444,33.73025826558397,50.38081012643673
77.01525948057565,29.27324509031262,57.258019226880364
82.0472819171749,87.0245142574494,56.69393699049745
78.99462751304318,131.75692872630702,50.42098586371968
67.93225147690943,158.13625856250218,40.756678581056725
50.072502078827384,164.15745343905007,29.476249714221126
27.65422446083363,151.07869799315029,17.359331123741196
3.626030452735329,122.61387821920408,5.189264455260642
18.873235854124403,83.83309823813161,5.5387835614843866
37.173273030540386,40.16524705776983,13.293752760011031
49.698356302594036,3.272568641354407,17.143069553349395
56.30703164987982,42.01085993346488,17.04846759710511
58.18158861755878,72.38364504497989,13.902924731915741
57.264225367933896,91.68708956394016,9.441538002892457
55.405887833142,98.42524779119087,5.921609913489147
53.575561755280425,92.5674440808246,5.5231748047657545
51.49816156557534,75.67247459325738,9.666655671102271
47.87665505709935,50.75310089085474,17.683807899002925
41.109375789589265,21.82651097936323,26.817691310197894
30.2045482439856,6.763651938282724,34.170954331636096
15.454496251897847,31.091908271149492,37.80974959545136
1.435783831175525,48.27681954675388,37.06793395799629
17.77810353911499,56.80748922150916,32.42675420816284
30.6780636915948,56.529671722122686,24.794547914817823
37.82629199410295,48.389467529124204,14.926817576415095
38.025949981238085,34.08420753825218,3.4281393938646403
31.37543315033445,15.768095703266965,8.296555218699433
19.190869091306467,4.134250108446176,18.066534124727053
3.810107125082077,23.058732137118852,24.13716290606127
11.658680556623487,38.48150964315015,25.421831945417296
23.70761477489509,48.22654924725395,21.634238448120954
28.994328997647855,50.85955941198839,13.650837830795743
25.0963930085039,46.015627866046195,3.21787742758413
11.308677338028383,34.49901040898138,7.561789023748942
10.842002994949171,18.078772884967762,16.538326379487042
37.671744036746205,0.9455411124734677,21.740911970433174
64.06523639892592,20.216828383011876,22.210222019508585
84.67105559611426,37.67389489135313,18.40210231975307
95.17263818355211,51.71925105533501,11.212608031796023
93.18235692869659,61.2186476540124,1.2363216851882455
78.54886599364822,65.44896283101612,11.073722555105393
53.1320737607657,64.10021949789089,24.928288791243926
20.262335103255975,57.32362981696875,38.82482407372877
15.836963088735516,45.75796735518226,50.78959900051854
50.53436740516628,30.479011240082425,59.1624219963955
79.22251278693646,12.869024172562243,63.09968568500914
97.80645547512438,5.535155937079256,62.389488771417376
103.32463661419804,23.139250579114467,57.303712759748265
94.6165280037971,38.32433283372834,48.529406161167365
72.81615083569783,49.523482406738935,36.71987503965704
41.4348220228651,55.468214692501476,22.579450617856722
5.893778911703157,55.5954249615676,7.244738702483689
27.477014487051857,50.44371926560829,8.120932048668665
52.76158356141703,41.793816281856365,22.604801396738264
65.727072930544,32.34036007671498,35.40696768489094
64.68969432162895,24.873096694659395,45.8656273571411
50.74931219909105,21.285016337326052,53.42593855366324
27.342841875924268,21.882027770494897,57.87759119022044
0.7066694408694987,25.32042482325562,59.665275092695644
28.333566936783207,29.2219732925717,59.62839976075683
51.20051289145419,31.14402367387754,58.361881080844185
66.23263398091343,29.38308618454268,55.543952541317786
71.69636217490644,23.265779495320352,49.95359929163736
66.98911282778207,12.916471260122258,40.282275009240955
52.42247785279994,1.1799120980488167,25.897850356341298
29.212890257154108,18.386808827844032,7.284663922101342
0.37353613783138573,37.69749663249336,13.721498785663147
32.93127012725005,57.278194355967095,34.07024115756649
64.13573402534057,74.243393176287,50.085784072462005
89.4296370906343,85.09414922387768,58.12167638972205
105.0154918054551,86.83769347034017,55.51161592186917
108.758006558456,78.31798604414864,41.82637152897512
100.58497922826201,61.05788180167232,19.323308513023026
82.20896035070786,39.03411136416466,7.509680691765281
56.362114646336956,17.322884300174437,32.84729002169051
25.957027051883376,0.22616116738817532,50.68026148238711
6.399363840632636,10.207874955352617,56.32193526287565
38.34740511066712,14.575802491377168,48.05049002915639
67.38018096039497,15.294305837958929,27.46305251685656
90.54708944516847,15.089029962517094,1.1276235498939413
104.6349850394853,15.685316461815097,31.248620673268
106.91329661827699,17.354891452406605,55.79466518895746
96.14862871607845,19.386221379835664,69.3543618157062
73.3893060051769,21.03470777563054,69.45026460084736
42.08113463657336,22.23792801512106,56.17118456290586
7.401721373250491,23.60883147134844,31.847799301047218
24.935084705016347,25.80328445848922,1.5753693486914866
49.9692515384069,28.773986751322266,27.455935811989146
64.42690404967759,31.510997994364246,48.75429828726918
67.07711830146464,32.53949567359473,58.81736363847151
58.593366789122335,30.890244150509655,57.34149456648233
41.128344440248696,26.919358170659276,46.4743287016924
17.82826238891239,22.378488843692615,29.42671243315009
7.5926583375444245,19.576267193394795,9.193739911931916
31.232530167521034,20.073325486241078,11.277243739860232
49.40358063852901,23.657203081558414,29.173331039801496
59.10700848468751,28.204503266726242,43.125467059490944
58.82262913735665,31.257766026422832,53.05537737408845
48.86235701610393,31.23368723584236,59.692145691794586
31.14491367686296,27.515985869155866,64.84309319546645
8.89835727324311,20.66211271063551,70.50231334994464
13.976848068415457,12.068372868330487,77.44811902199531
33.73296884340929,3.316172588549872,84.90196226261381
47.55446917838285,4.416201616930986,91.41409233669114
54.06536622414845,10.566841542730494,95.34421548771186
15.853376606067172,19.351735448817358,2.8495755259728037
10.531876797764623,14.896046104399659,8.458890733480912
1.7681877089998415,6.872362480414855,13.886975076473574
9.984940699609412,4.639584681772109,18.24285545971174
23.76209382491662,18.85552407851642,20.765260092977005
38.08691523433429,34.22935241990857,21.075491408809043
51.03023830830259,48.67007016966826,19.071088605169322
60.35389530065321,59.92165687118322,15.054351738815509
63.85546346507796,66.03485980455423,9.986956850780551
59.818636400157736,65.6832565469703,4.985401738501846
47.47913103647661,58.30223769081565,0.5256302422897543
27.47710622090428,44.26149595594614,3.356502022135888
2.11831421118378,25.086157190550416,6.471336031867513
25.138684443319907,3.0496178984509874,9.251990774112722
50.71290182541296,19.56680840246098,13.0468561285533
71.47478355416047,40.4047673119491,18.745020386904766
85.10769035438419,56.94364641313158,25.837066062181464
90.3769296588209,66.97312408036208,32.646742916667925
86.98482337609724,69.04759790235381,37.6548421859705
75.43558087044595,63.05784008595431,40.24112236843141
56.944815677831016,50.49979562784858,40.06926429580814
33.34463692822536,34.12151838111036,37.08989209536095
7.056245642329007,17.24453445174709,31.46280262790766
19.105103728105302,2.8669055337416265,23.218071256346413
42.25504979984781,6.988120682167082,12.53680400334356
59.855964647251575,11.493908297608005,0.3314923237676695
70.0972942550632,10.897153164358656,14.94432834921702
72.05340253221185,6.143327508766802,30.15995249719648
65.67556611249418,1.4526605090915712,44.32278591095568
51.67563495073403,10.426875465914234,55.881805840893726
31.452940870127776,19.289633007991885,63.529470045773955
7.1544389826513415,26.622659457622486,66.08424305854949
18.23484747046849,31.257955878031897,62.86003764967953
40.9481678868556,32.48428170373299,53.80745685014088
56.84707427789548,30.19338903045691,39.31182477070947
62.213430006505455,24.862744115227066,20.531647867017142
54.73311627211864,17.346752358234895,0.18197086038380939
34.35191137475827,8.53725456544546,19.735921267310626
3.6586581787374466,0.9914062428896605,35.227503551220714
32.40406304496694,11.182960135859313,44.366147706243616
67.46465242923857,22.445054149137963,45.675524004943064
95.03071635347781,35.31200579808912,39.03771665909048
109.81778836222534,49.913980607997395,25.938334572047864
108.74383880419904,65.4923266490203,8.992124111469339
91.39114586189521,80.2037688076133,8.512148222976304
59.92874167341657,91.38499214087992,23.087718998219138
18.58840179755385,96.27700609044716,32.136896977868375
27.129948605012057,92.95658362819465,34.71583047445125
71.33207904087051,81.07388569008091,31.351808477295513
108.56561429603887,62.033748468707316,23.33405842721
134.53862999079925,38.51266518871715,12.018310306395716
146.6446294528293,13.555508013387495,1.2584254533052752
144.2412641543967,10.278710055611699,15.203849286453105
128.65042953615588,31.315334357534905,28.77974313093202
102.84938386441652,48.60193609372615,41.06788975717594
70.88837017515159,61.44948273897,51.07009613284982
37.142784779790766,69.15318447581802,57.726469880531056
5.535272318469419,71.19962319357951,60.382174011137856
21.06575541056378,67.86233161712735,59.22797188645853
41.10871564224322,60.73327274676472,55.197067732376546
54.26723173864304,52.64532750030717,49.490700393614276
61.08458535459256,46.79223210554991,42.428963369397785
62.572992360572,45.40902787499111,32.92270699984965
59.97701904280134,48.7248010028553,19.442385578535834
54.754077359931195,54.829389400248175,1.0157456366230813
48.703689015384874,60.574450286482104,21.792860883003303
44.04803321818959,62.98717737633508,46.16681950460447
43.22284069222799,60.35800566119309,67.71050864785684
48.29368087432211,52.366876015674514,82.23739202498638
60.17277075918621,39.28639594919163,87.49024606371944
77.99088791078161,20.981153672997227,83.48382289888862
98.93606726993127,3.426057325140332,72.14443332302429
118.70109425176021,34.784170926820806,56.535849824252246
132.43666587138134,72.37610593334732,39.03078602556742
135.86232176387742,112.61375863889776,20.709933023102256
126.16238880075382,149.0040308025928,2.5368994834945093
102.43871773370545,173.7341906087993,14.022693285065232
65.70867271832739,180.2658838469027,27.28597585557264
18.611912510980005,165.71179821523884,35.620286609548934
34.97474490529897,131.83353307422826,37.43417490167943
90.27508371749082,84.23889896586213,31.90329816971737
141.96937659549786,30.33377086125854,20.102298600567362
184.7100742764301,22.83406481034761,4.906204396526548
213.78925346201032,69.8367614165586,9.732418110767332
225.88904532992407,106.95597489576356,19.895711071208446
219.74246809510376,131.59939040541994,23.463339466054947
196.42830813762583,141.8752005936075,20.724888195978615
159.1732009828331,136.87640232378894,13.30357917794312
112.73502562889153,117.51639297769525,3.086560179810803
62.56525611248814,87.19027906329158,8.128922332405615
13.98740278639686,51.53581628874696,19.009515715444213
28.443735501697425,17.081791225750052,28.835594194738395
61.321790026855126,10.709843802732287,36.88794140619408
82.53621616344653,29.05282826250568,42.32979689476036
91.29771609571476,38.270418930758005,44.86624225326574
88.10267183622558,40.87619807320953,44.86190034778487
74.65446628135507,39.898101276511625,42.76716623813432
53.73336248648797,37.391569896655454,38.4824330628627
28.968601115838805,33.87171063748381,31.667628687119944
4.489739842723051,28.813819885079774,22.79621043941859
15.527701008530252,21.720957483036447,13.057730386749217
27.37023313828735,12.99055162047275,3.4266292531692453
28.278814836034904,4.049065932919335,5.706819612595913
16.865899487113104,3.2676963507688987,14.28951710460397
6.590612594489156,7.624621669955755,21.885888101734007
40.00150377092029,8.793060422768976,27.536856002442512
79.49427423694807,7.62129803897614,30.60809842137635
119.65774844261445,5.467903360556121,31.33977655497034
154.06813121510365,3.502735428011495,30.697898537916032
176.15313551403582,2.287239489206104,29.703260359616365
180.35321664534078,1.8062696504169042,28.848964189961084
163.39125656674742,1.8114748257909379,28.263386125274828
125.31452749279951,2.1889945137979234,27.71700476481482
69.92306438184885,3.1063461683299614,26.45694634754415
4.318601836721302,4.862303346842985,23.673445195960092
62.42131750083674,7.600020556985459,18.94855882750862
121.08502945025639,11.09050549825786,12.139890468689355
164.14612700832987,14.679897503994626,3.3875748192159976
187.07475742669664,17.408742916997042,6.360465152586654
188.81895721160583,18.22797988408627,15.372900111414836
171.48969837348682,16.23021323889473,21.93327511855361
139.57528290859986,10.883728239679415,24.86988948212
99.00321943769899,2.2618886541544674,23.63892627461516
56.2474639474367,8.778359547918539,18.253011384846182
17.511913625957497,20.563058851753457,9.398574040629796
12.09871009671316,30.81373837557202,1.4965664084200987
29.41992244108427,37.11722729144182,12.631404946365985
33.87158580337215,37.53287533277007,22.072178678484992
27.612535571406372,31.11915474484644,27.835585045416984
15.004527671620727,18.185881284101466,28.297258065072086
1.4125519578673764,0.2252143542007049,22.60718525533876
8.292477931838711,20.370750095045672,10.847296270127071
10.985188460466793,40.660744523986004,5.739885316105012
5.848734615944011,57.49143626958303,24.87372662874444
5.893240725937362,67.82510522495443,43.96493577103309
21.82701356329051,69.16747841160178,60.42131561873746
39.319332121756,60.15356150763158,71.6180281412426
56.18709801221446,41.14037741912981,75.38510783280165
70.87625334233108,14.523557185648055,70.81948355456389
82.25474378727968,15.504175539593579,58.45914049750956
89.29440557744144,43.85083144633361,39.73023843542877
90.92334166122949,65.8543575065412,16.745834831121908
86.52485564162907,78.61519940996442,8.07586472203972
76.41615682751332,81.4737457951302,32.637405613226505
61.8530543501641,75.66828935313646,55.0903669526931
44.88542565004304,63.70814184285467,73.44758352404573
27.897299141356378,48.514901393742804,85.72765480690462
13.020667549963035,32.68397093051401,90.66661137999286
1.6542986287965342,18.10427697469025,88.09850098071658
5.7278549308122475,5.944873658627375,78.87698870126205
13.231183359432803,1.7624086211453636,2.573957016244757
9.506517898046694,1.4155106098267491,3.4087300968837546
3.41010673669209,0.8324354653917294,2.963698668721065
4.013217828202667,0.3306317312303762,1.2284297043577521
11.519693510363037,0.12463701694289593,1.1417440593597072
18.043739681587194,0.1904226449989951,3.1620545991088256
22.938343841413165,0.25228675464642797,4.135850482578095
26.030916031192216,0.10529077757492188,4.059412667602011
27.54256690501845,1.1957698816040316,3.5499649317426303
27.945436185223105,3.0054594125415046,3.09472843751692
27.77453111322438,5.087251815597928,2.6422503970858093
27.437801598357307,6.611734952883537,1.94483886205703
27.106642946118672,6.638470929115589,0.5712208302472573
26.682068308358,4.698859380746137,2.1307654230015576
25.67238936171035,1.181339031541785,6.603325477845096
23.0680191824621,3.000193923652077,12.424345050055326
17.54409983020562,6.8709374481047005,17.93611029393381
7.934860553731568,9.681460724954764,20.83854073721767
6.26974448725909,11.11806454812554,19.160342885680635
24.59715190095681,11.174567315730886,11.958492177646516
45.63138730855146,9.87164285553215,0.008857836397691523
67.35978642458156,7.05547263021467,14.151834731154437
87.63300513249337,2.368425930198947,27.436117301546485
104.52401569989405,4.435209633025904,37.40920415902862
116.38962029298754,13.031519097046507,42.381087042834004
121.69204611988648,22.192863232782077,41.24547325246333
118.77516862429515,29.82424404961905,33.588572643600905
105.80695455118263,33.50177458829842,19.996633330156012
81.08308355720273,31.2998396307721,2.484648235920157
43.698688869058024,22.56160305471922,15.975063835679393
5.612894903142325,8.230626464919725,32.38345814844697
63.779155426189476,9.425650080309381,44.00563114497369
125.17106681306173,27.551667691796137,48.701521145842136
182.13112527512345,43.551325650579486,45.59530967982081
226.2328610043594,55.645969627698484,35.48111151324828
249.99458255312393,62.95774339980856,20.66312516360649
248.5717213148194,65.2068263509482,4.275707846211053
220.8432907032236,62.306058538339,10.477320310514294
169.55082331293386,54.160485918211016,20.633669012278588
100.54705773318359,40.770847643658136,24.093999767960003
21.53411938724925,22.53012992163808,20.946753066203424
59.17324469311331,0.4885473911486322,13.405131199815015
133.55853026834646,23.646040240592455,4.148570284995964
194.5189662859289,47.80965394169061,4.657377253331211
236.3928163024239,69.99455394106158,11.487836758326196
255.63086086783397,88.56320190353657,15.371020414983526
251.54333872479924,102.33670757420003,15.695466341420575
226.67034589795108,110.46122671593764,12.034659042264442
186.30105145874273,112.22651472396151,4.06820578388691
137.03770787216448,107.01362654285548,7.818274962985795
84.83242053348337,94.43363438630534,22.082577521186174
33.37840451229512,74.59023630456518,36.4008377340274
16.274152604601927,48.28396983067386,47.90098852212989
64.65797116798272,17.03202192491095,53.88301393584666
111.94387621309275,17.094592751979334,52.9242248841726
156.21346441035766,51.748005644485765,44.88861370246468
193.02575544706687,84.55211677785111,30.554792833826337
216.5581396124616,113.21085523944562,11.69094488910016
221.73145739786173,135.52922824315309,9.114598730157349
206.21455974025324,149.45305499674117,29.501539463748756
171.2921592420058,153.20042617580452,48.172839552113516
121.39324586077507,145.55392519655877,64.00764444702705
62.80533297468551,126.24886217905059,75.16076982200138
2.376232680525232,96.28028703288952,79.79402792627982
53.2082270316392,58.01323758652106,77.11152656586677
97.69640206486892,15.02011556401035,67.88866441742222
125.65718366901913,28.35225789636573,54.437244916222795
133.3889092663331,67.56290157252707,39.74760605153255
120.25123977989996,98.47331529370622,26.204741955409613
89.70761606053485,117.85126847510004,14.857954227356304
49.18426449765358,123.71294393095131,5.347805083287588
8.374897855650095,115.52233562797944,4.137238949752743
23.492141919125668,94.29098327909747,16.07342053801953
40.30036802668461,62.59284463990219,31.94705611912273
40.448761924711825,24.485222874939684,51.437344106984874
26.487780837378327,14.764793533399821,72.59762307352376
3.4567459429165277,49.287336360452,92.47969124916503
23.089813919363507,73.56366942312083,108.01735188802849
48.44400345767328,83.59795159905482,116.80773913408434
69.11945106939702,78.00235178992996,117.71782104476806
82.63683491648462,58.55196619730493,110.72370739145421
87.35122407963955,29.880526229122637,96.36784958683452
82.6928216164628,1.706593646678486,75.91286822145584
69.69139390452382,29.956948092835784,51.11392422991836
51.17312368349981,50.30693190025245,23.502488699048246
31.142115405984722,60.82114960249954,5.896536543878121
13.433310537434378,62.14135363224736,36.64143214418981
0.24103809598039788,56.61302565967279,68.33598724635948
8.673287981785132,47.133896932991355,99.8176205064296
15.57278657518805,36.298946492416285,128.60434008178186
23.309844704257085,26.140790684899493,150.87742907438152
33.672927393075156,18.34478870691802,162.7670525291124
46.40154627630421,14.472836448653503,161.38340319588153
59.339885585069325,15.781870626010342,144.9373271570663
69.55641239180217,22.594361804046372,113.68519428619668
74.72734430608992,33.57376547395148,70.90220627003
74.0377195926793,45.48115598317706,22.165247312732813
68.22677787011841,53.81156651861491,26.37849705446531
58.960966970601035,54.20035149613773,69.07147950084669
48.08099944831972,43.998717489107776,101.16340061416341
37.16503518727902,23.234310270818483,119.1624972865551
27.532871235533467,5.521984230836453,120.93136871585752
20.46825088343043,38.25251157203008,106.47455492776031
17.237604768520857,70.9223446511988,78.72003079919267
18.68332227063709,100.46947373260551,43.01407506938374
24.56658221035241,124.91141989873624,6.067292055761584
33.0809682818861,142.7245855141779,25.64062016868699
40.9329005292782,152.11227532458423,47.03149906846122
44.13109891320223,150.81502646332152,55.21904079831248
39.23002367934818,136.7146850836428,50.59939711650901
24.478885559475504,108.9493038417822,36.265956294026935
0.38267884186663464,68.88039813618434,16.689424872499977
30.509360991865446,20.306654136332785,3.0684410749385895
64.4173198079506,31.211156022321376,18.999008883196655
97.32758309247673,79.58879260224968,29.359081461112655
125.71980842632935,119.4204444251648,34.3082207678058
146.81000911688216,146.6456219737775,34.95112881212505
158.44054904923468,158.64847571953288,32.2558777275786
158.91794456354717,154.0987700618605,26.754236993053798
147.07660309511905,132.92462639172456,19.224258370933754
122.65462175382841,96.60830889913318,11.085292245323775
86.79116273115575,48.59999356415176,3.9973094095525985
42.31589743869791,5.57827948872772,0.9394300649763639
6.430127639426501,58.894956193512456,3.6771525005156374
54.280141993044815,104.03728112981806,4.785238764104515
96.20042695273814,134.8928629301994,4.672831653553356
128.14729857200268,147.7291406745577,3.6230771380801334
147.539255340088,141.64404963889308,1.9326379977652566
153.30079009815336,118.24327189542122,0.602205103267872
145.646549435547,80.86938677478113,4.367674006789982
125.84464752478873,33.81141210012365,9.0128428378558
96.1172530103463,18.178133764528486,13.410366054694427
59.64918977880119,70.05083970314354,15.902179624257432
20.500694651066446,116.57338108495325,14.824751887781849
16.77429740173718,152.6702687184616,9.177694004873187
47.81917904422081,174.13650719230827,1.311174892853976
69.2865947729564,178.52819768969206,15.763292114830396
79.48975065643965,165.84020949798338,31.97390255241285
78.65398025063072,138.6247049540441,47.39895745984913
68.69540933522403,101.40592712245432,59.75273970696501
52.66905390232313,59.57080845641711,67.0866900344165
34.09308497302512,18.14270097497644,67.80138549637095
16.253854828903076,18.913992630618203,61.04790719307193
1.6943422641510344,48.86320288429556,46.94750130051218
8.04087002635264,70.16625951837769,26.444512858412757
12.502697944230034,82.291387885595,1.5045700422533506
12.262982590163302,85.55966177492556,24.794400926404936
8.67837250391055,81.06736384764973,48.54312412000061
3.525427826611812,70.61098538164273,66.12224421162537
1.4469681045615252,56.51722552110982,75.46246168589437
21.99739122987393,3.7254377795309743,8.957144722580454
35.8454765115851,2.8140288139228615,2.1539530134224627
47.15036752615515,0.394234546595448,5.726295673028065
52.25914538159401,3.658691810957057,13.397955585743787
48.52036136847471,8.871328514119398,19.61024837631332
35.09919878698799,14.301706734758437,23.438916316610612
13.243854697617362,18.914460270638628,24.537877248906142
14.09147006630656,21.961127695719895,23.152617422550296
43.00814848011212,23.19885123032312,19.76468638279868
69.58072220922944,22.76722823100247,15.019941181863198
90.60850366661323,20.836514452336214,9.880737417604415
103.88602460510421,17.311996429025125,5.450851266018679
108.03043666057181,11.746226197441313,2.93428518396022
102.59351534464993,3.3196310914252356,3.2668946804497656
88.41186724075816,8.807206534353805,6.4609861701787255
67.35806042957053,24.561371801550116,11.718015597723
41.95974241576705,42.42442772101622,17.592893341348205
15.084705943608613,59.67019294652415,22.054163256792915
10.714622199349172,72.99478863805341,23.182674344994577
33.73024287887216,79.4629357066017,19.895501207726195
53.37134574468412,77.26775470559235,11.974044560019566
70.08840621665819,66.03672376148954,0.13305383466088422
84.78945942558457,46.773841188585855,15.13397692353888
98.09862088955461,21.488084323203747,31.27632510281517
109.65297648130263,7.140337134260799,47.16861362567174
117.78370002428468,35.97182969057805,61.59600067832456
119.82757765336709,61.5847499857553,73.0328268668107
112.95285663126178,80.52816449453769,79.96686551570419
95.29310012049721,89.87327840817409,81.60158091112064
66.96919834323562,87.99481069354914,77.79300210518934
30.614473979200547,75.31119003985913,68.46972739929586
8.871228587667996,54.60244838273349,53.85756675443931
45.33072505316553,30.587799296853206,34.79607338142362
72.78492231693303,8.762677790514534,12.407067521746693
86.87921839970797,6.200626448891547,12.166919311917761
85.88250312239722,11.894256977763492,37.64327474622444
70.98295960823945,8.84782307547856,62.33096838707766
45.880531323386336,0.1521034470013787,84.14863242628296
15.862891765249838,9.791764097286519,100.86194533316264
13.303465442680798,16.849918867226396,110.3640467212499
36.41218700752925,18.404906881633703,110.72458360085272
49.61153663604259,13.819344668778005,100.2915465419343
50.87815409742229,4.0835863525629215,79.07049685423564
40.19447624926816,8.986046664087315,49.60323471087305
19.43635961208247,23.481548133641372,15.426999683991333
8.008020338635127,37.72053527317455,20.245946117356652
37.84102623652304,50.15662799073991,54.27137332072544
65.59928436326315,59.17901771280049,83.40943819090859
87.4134520127819,63.15777773723532,104.3208246853472
100.63133460807852,60.86445523972382,113.51186151248164
104.14499040800453,52.05360198699466,108.21425101347607
98.36327738097711,37.814330645581165,87.64631782503875
84.8797681876817,20.374893571828363,53.653941043527134
65.96125203083983,2.3489069418264834,10.910988304360133
44.03463013781558,14.20396772138403,33.88809525740021
21.300957565986515,28.372604723479533,73.921767025177
0.46314631618624685,40.307029274223524,103.96049877620642
19.93221527218125,50.50192338458902,121.16501087779316
36.15976560952106,58.88885803047854,125.08958256280877
48.46862584373336,64.30791945220892,117.59668098135123
56.36228353592997,64.70301617687856,102.12410157908539
59.49216144436243,57.98404474232211,81.58032185620391
57.691813703656635,43.11072561185444,57.15229093471348
51.08414177217216,20.819751527041042,29.395602636986006
40.23339522836346,6.340325936407822,0.6882886653252658
26.278606589339407,34.64664773071256,31.36977978450689
10.952685154913631,60.19671150394998,59.90662024027383
3.5951487718434496,79.7966476630675,83.65372795531357
15.190340154233018,91.42716914737373,101.5804291342087
22.140652206278865,94.25923936272966,113.55860841710049
23.65855994643143,88.40359205950396,119.45849736169279
20.015087005153426,74.65725821160333,119.21693523995127
12.336311634610942,54.40647745945942,112.45691801795894
2.1418535314087768,29.655269555282057,98.47799171723936
9.112434787970713,3.0360345360193364,77.0027110611288
20.257587169795567,22.353518333790994,48.93113102355536
30.31878178178348,43.36370750737597,16.841192359215594
38.26963437059616,57.36620165297853,14.887906195648306
42.94591567434467,62.8044280740168,40.738532439700734
43.332821838919514,59.56348563004128,55.87205383201439
39.17981481778363,49.027286907996576,58.11825679203042
31.588531624848578,33.815681310186214,49.05110619774578
23.126081124443534,17.313057465156803,33.21615604819183
17.2052190031429,3.080443365513569,15.983026409382047
16.87705452010536,5.730643059080128,2.1476451334466002
23.587653678041868,6.856661660390517,5.0470528733832145
36.49921542503064,0.7321435653887405,4.478902784084526
52.72248438633848,16.623192102127845,3.342368353126629
68.32825068793906,38.89762041150903,16.44975331364412
79.56470499255624,64.25914537336156,32.06106617581426
83.70813300056996,88.41643793274726,47.86974301827879
79.2429898573561,106.7203245929537,62.04741967965996
65.50173216783774,114.98668952748882,72.77289517096222
42.264412768856644,110.34548153097883,78.29887691658801
9.745507791131448,91.8777227600512,76.99761516839331
30.961831660498582,60.83442992666442,67.5873603833036
77.33744349973743,20.39000472444555,49.93221469110641
125.2765174635403,24.97668862620298,25.658566295487038
169.59636589168596,70.29482788158735,2.1643393482897473
205.10801370053997,110.86521855874878,30.102356925834023
227.73118234581145,142.79461935750993,55.462305635792546
235.11008504504187,163.27794186335726,76.23038050063249
226.5525026212638,170.69732445353026,90.44968595388147
202.50869863565563,164.62132111590074,96.48005845917673
164.1067061729913,145.7772766510709,93.1939680392047
113.171670808939,116.01893372725576,79.93332081425197
52.71487775804007,78.23924627195835,57.03968384892489
12.558905717822558,36.174927495199476,25.92108926695654
76.29303821847316,5.891469624437857,10.667494832332098
131.34851170626106,43.52536292783357,47.44927287539344
171.32427685542737,72.64121510405047,77.38172481464896
192.1356363094293,90.06892185823149,94.21210046892126
192.97007679070921,94.10416828801735,94.47057732931108
176.26184059942577,84.93391094668529,78.78638047492876
146.79611134822642,64.7786404003513,51.35478530375773
110.43334336106916,37.61552870739776,17.989360649363874
72.95603506721517,8.474442361774194,15.012113439480991
39.296193955609766,17.537188416166494,41.8418519573906
13.163885002269984,36.21801427327333,58.06415467265112
3.1130768677030716,45.00990001052961,61.001456295959066
8.693393737668822,43.308162767773936,50.21926443036969
4.244856277938206,32.29462598734954,27.43723640892628
8.190890733616245,14.431609961300511,3.9065645338474297
25.544840267348963,7.177114249026652,38.69198673001586
44.23003094904807,29.416673075161338,70.32037630481074
60.645210531488914,49.679162140898654,91.79402380554522
71.52776093989985,66.19434355753171,97.49858384904576
74.17112272548015,78.13658490306618,84.73418431738173
66.64754889716939,85.49543736737795,54.789212778371336
48.162967217139794,88.72912146044209,13.022735317815082
19.51842550398662,88.30838550207147,32.95387889053003
16.563045743556046,84.33952055899266,75.95846562801663
55.55848136405809,76.44210396915976,111.06654614164496
91.88377502993355,63.965500647207314,135.66534445113996
120.1143628411197,46.465017505268484,148.322791712721
136.2649860265896,24.214150878881266,148.36693493388387
138.62945669528827,1.5023048384577786,136.26068547606624
127.89018561940395,28.466321450921892,113.58930373012743
106.59501896694456,53.947746157900255,82.83620910982201
78.35734606266381,75.30453834065584,47.13045741228323
47.16726654586522,90.54227369799452,9.84930073048592
17.010292774639023,98.67087476656464,25.58750699799093
8.259638314713058,99.62000907577222,55.95990818366009
25.50678445859314,94.1978508320617,79.29955487163508
33.17215995044381,84.07435357885304,95.4416931134194
31.670798500047113,71.38397243071356,105.0829252617598
23.33769951262315,58.27840403038399,109.09297821170122
11.813531903557482,46.50856054793721,108.43061465931258
0.9712348902650083,37.1103499790336,103.66684225674867
6.259298999827871,30.273292022706737,94.92052093152837
12.794392518035787,17.221691703537836,3.2607193214501606
13.736179862544933,12.670717302755655,3.561929818777361
12.587242959170636,3.55435002515954,13.623778108065473
8.955593540151437,9.291452050510552,24.203627922680873
2.561789291585877,23.889911591895817,31.552401920641124
6.583522373049087,37.61330906198511,31.924168417607923
17.884606665200394,47.92319198119485,22.75965320325232
29.949777196034916,53.043337024927304,4.103916221781894
40.603647098232976,52.31995443610306,21.01427158459451
47.28426990107854,46.121669265413246,47.64488041803817
47.68884276917977,35.39829432200513,70.46553740851913
40.38854659479322,21.227954430996412,84.91411419297351
25.30963248006314,4.645481344200016,87.73097444503894
4.225660504229204,13.326851022236717,77.1460264315448
19.29359046716347,31.516334212461445,53.13494281719208
40.99060147888128,48.28708898620363,17.98906965888717
57.059460774650354,61.57402377376946,23.763904942975877
64.80279353947014,69.42393056630176,66.18287760360029
63.06726413009832,70.61765504214686,102.60170033659296
52.21910955059814,65.10987539390662,126.71758880000377
33.89446242574189,53.976043026307735,134.33016381148903
10.692588513365745,38.8573968311158,124.71605780944988
14.25427677903924,21.3005130487148,100.3917537554819
37.6637019579952,2.36972592604519,65.78871145089907
56.48579743041923,17.158270235402213,26.553050819424428
68.19922567842221,36.16651896113009,11.196726154497755
70.99651930782663,52.62962130885372,42.64898812093407
63.95565167852759,63.58784401018415,65.64270202479987
47.18272966444588,65.92498633429712,79.96809408922407
21.976646348847154,57.673047685968896,85.7933414500198
9.084398791321414,39.20208688311166,83.34810220600394
42.27044072776951,13.611056851989035,73.46093995954024
73.1340830427512,14.022985715418285,57.87915909872965
97.24467037381498,38.229028977631266,39.10075261477726
110.97392240633965,54.83416331789601,19.904630117573177
112.1229176514358,62.00992959458799,3.4646895935383863
100.2419602604473,60.2485890903325,6.782969585390873
76.59184694632165,51.46036672357896,8.64702436660757
43.89850155772071,37.850016602357556,2.4100811541644287
6.018979541406102,21.214820976866534,9.474776795910682
32.460187457171386,2.929932002830327,23.240814277111962
66.73702694192528,15.589734148682217,34.438272672302055
92.50339437979272,32.48221796159621,38.862062941979524
106.77528004175292,45.549248738517036,33.76584082406043
108.57323500828218,52.924237360711224,18.541662864465668
99.14240398750067,53.8927309317056,5.402702090517319
81.53515984629195,49.317541846728616,35.218523589504386
59.66200064045602,41.349233805034885,66.7245717100809
37.21990759632882,32.540517554875606,94.76713068147032
16.940232459667556,24.85040531303503,114.4138523641375
0.3568189520311088,19.101485897928157,121.54916893634699
11.959469174770376,15.143329987495829,113.72488693908423
20.010379772156984,12.492119509390884,91.3586570539089
24.161778150226297,10.955276823903043,57.345423856991566
25.151506225825205,10.817728005380344,16.147885766484848
24.132074722219205,12.488194229217308,26.540967242262333
22.52374583255044,15.894105173016696,64.41088999124423
21.582436029424265,20.08665282332762,92.09753712658646
21.884458512673152,23.3561770909346,107.11067453769091
23.077325039839973,23.787731236873064,110.08887979893224
24.122877708019757,19.900245971142375,103.36436982038484
23.95894004439339,11.01782307019398,89.6202869988066
22.18180249960767,2.7554356715366715,71.31437279261611
19.296257328057752,20.791480341963794,50.650554660106685
16.378780268296474,42.06995285722244,29.29001875792172
14.361449070996365,64.97104436183716,8.088195026893004
13.39260708880968,86.89695874513251,12.469041707778727
12.733819979730393,104.15137518537992,31.49058922442575
11.248282314010062,112.45220060140838,47.274011852746746
8.118942060563795,108.12961174108518,57.91510687250336
3.321288301605175,89.60558724547789,61.692765974236615
2.4846816615633256,58.43125871894855,56.99267967715634
8.55369464057093,19.263043887278748,43.64518550611994
14.678177019907427,21.346755858745336,24.37693551449548
21.374194556692974,56.85248182132872,3.810759294433996
29.47399765956208,82.47148567570005,14.057443033233767
39.352767093735565,96.0698634088372,26.802042908918068
50.24589158195186,97.9121338208081,32.71477425160205
60.09295332519271,89.63753341070817,30.933327747090445
66.03482634374679,73.18456823983165,22.257051329924806
65.289908216146,50.263190430761746,8.849913879075013
55.99226556987541,22.54726352319651,6.8481738434152835
37.68593446194843,7.763693762439695,23.037710283122806
11.423304522267806,37.603099491761434,38.44031455230395
20.40137329781592,63.32912900956673,52.17982787078786
54.35629032774613,81.62399456926265,64.16012145871996
86.35406697351091,90.51926555621415,74.40127539511592
112.18138477172553,89.95512062624978,81.94200828910967
128.22704301757153,81.5519558130628,84.62279974083884
132.24695307953928,67.72516576088287,79.70000225117705
123.90498265000016,50.655119248704594,65.01576947116948
104.83482003285017,31.695919605710486,40.180858560792686
78.11849022903742,11.522558902225294,6.798550835985277
47.40047467177166,9.198108863942236,32.18449323288221
16.04971324814659,29.158922312506824,72.64737252501571
13.321771241573105,46.283944972150536,109.66499233907118
38.91951351186569,58.32670956644736,138.67816734920527
59.559522147890746,63.9185161157033,155.8048063181989
74.45959754613851,63.4507399260646,157.79646656501717
83.20780630727438,59.246853238650026,142.82841674288184
85.88086586758035,54.83187055415387,111.46211457180478
83.14184968876611,53.590749901238084,67.15038624612436
76.14817704882358,57.42170758443252,15.801925176948194
66.27373703905111,65.96719055512823,35.13926556747402
54.82222444129339,76.72092050359016,77.85074626130225
42.911997128645005,85.88594783099978,106.05739526985921
31.583403940921322,89.56858648500217,116.8210509488893
21.988662121239216,84.85438687876666,111.26771376433292
15.419047416789248,70.47205383085351,94.10474434352932
13.024934589467914,46.99034158944756,71.67554649037893
15.288098479624876,16.650830170154002,49.2386605871166
21.49708628537309,17.030233209089683,29.44880856965072
29.56784977644374,49.842794817317106,12.757026846862944
36.414467631688744,77.61720661018035,1.674983995903496
38.78306402812071,96.99214271036608,15.104285132351139
34.24974054358456,106.03695700393615,28.306981726614175
22.00939690732228,104.51334649845035,41.40869034563636
3.1667835251532006,93.65575869955532,54.0844509176208
19.521121888008505,75.59294777998903,65.11650970984994
42.32704606600544,52.7176018026753,72.52028204975748
61.44617380341415,27.320449542796815,74.8995313380685
73.84765376815739,1.6474329650519084,71.83860075923027
77.90759477911504,21.755189726458852,63.33475314765547
73.70294989620557,39.82415132663786,49.90966383578068
62.914243516852835,49.25819598611516,32.62064304371938
48.39209113879166,47.32514677101198,12.758878747642308
33.503885362992754,32.899581360654125,8.113196114023879
21.445390598575397,7.223360848019638,28.405585745997087
14.679181856334809,26.040577728693286,46.953680882851586
14.5543081896794,61.54477333580352,62.75771299768282
21.100940181079967,93.48362381511869,74.73480492488603
32.970559028162974,116.7848068184509,82.33987333849701
47.52664738160834,127.87549392287924,85.51436726153233
61.15703466890804,124.96246406412624,84.09853864636591
69.88864299204695,108.00514390638105,78.26031171755636
70.27086938967453,78.63645412255985,68.92175748804546
60.29967427851499,40.120695978151936,57.550448003939344
40.04348645701879,2.8088201607712544,45.20463835384175
11.68722095502969,44.466607374313135,32.009897178261376
21.062105142023775,79.17330043673898,18.47484760858385
53.95970623836307,102.46313222929255,5.726140626238846
83.1719059161463,112.11938317561918,5.804242958078677
105.86770467406559,108.57727004057898,15.720479590824024
120.45475871063658,94.63663108723033,23.330182809031683
126.50323101199662,74.57965215024043,28.41001876871266
124.45031333523036,52.90306294551176,31.02753423674283
115.33335747138477,33.19753148956324,31.64658022523393
100.66311894458241,17.556249788124973,31.21169170470858
82.37978789228183,6.598669245343252,30.491468950155834
62.747902107110434,0.0742484657100829,29.536454397280433
6.593097714187999,13.766036277192768,8.680425385725345
4.761902936399657,2.345585491377246,2.000830110535439
20.265235740144057,12.755352367358265,16.290414257949205
37.04621037569799,29.171695280227926,30.560445773643018
51.52565742988376,44.433081017957946,41.47162537833644
60.41099145630696,56.52681647512831,47.141755152873536
61.429474959193335,64.03402647646381,46.81294643376062
53.573872676531764,65.88470542522626,40.14340774627745
36.952518676840825,61.1197786034225,27.35736939136736
12.530920976926867,48.92651200707732,9.526586224175894
17.964337056903492,29.0617303245591,11.645486756463313
51.88871564568537,2.5586449666016935,34.11759510424164
85.4293855880102,27.68967633148004,55.62287381184625
113.69091984166414,57.32041491156024,72.86497105420989
131.4792352230222,81.8566036369864,81.53098815526863
134.6312907130702,97.92792428826215,78.82677923521042
121.36569510928578,104.0733995047181,65.26577671913721
93.01971230482188,100.86806755910311,44.28453818869852
53.72975946116705,90.05401909457454,21.10048471924387
9.21697746479785,73.47001241504319,0.7941121408872244
34.721865477923004,52.39377843116761,13.683470510434509
73.3877475415728,27.580507186741986,22.45433745469821
103.63574214043027,0.0352292018410242,27.655645355239802
123.67171617304383,28.66196497691606,31.110077665973478
132.59561082759583,55.502464500452554,33.235789076523716
130.13569026326869,77.31221793322746,33.7304776461803
116.74137217478773,91.34476944783033,32.76745132987372
93.87803630043149,96.08302730406339,31.03409806740476
64.1981288924477,91.40356301627678,28.87721825522305
31.318288536109016,78.15271640956978,26.309018829261174
0.8031670624003122,57.60197535548047,23.709544600454308
28.64083181204152,31.282296999475648,21.927650614161376
49.70164521047559,1.3316317328529952,21.13746671108926
62.75455582501632,28.94470210021821,20.325551267207363
67.70847731527499,54.934047479611046,18.693981882947472
65.28607409561607,71.41607095363378,16.66354532537489
56.70575266494239,74.02418717252833,15.430615785353472
43.49945910498657,60.9027270915542,15.654315518061164
27.42969580795144,33.745456760799016,16.26860740126224
10.43561861261608,2.338912050655976,14.948819587103314
5.453128553831973,40.118678371375026,9.447132039662467
18.254171017898983,72.14198336560645,1.2910555265660046
26.198980077659275,92.49316775316571,16.453871733989118
27.942294996292553,97.83148090786085,33.57806014685112
22.827639881048718,87.5957063437311,49.270706233533204
11.18506902106358,63.646184625883556,60.39016770100529
5.421064998668873,29.678409064627115,65.07702505416482
24.148490843666444,9.373459668666023,62.41842860667858
41.18925138084499,47.93312228769083,51.831356258385135
52.460599813906406,80.5148848405143,33.90474166102169
54.53330082431644,102.61157430140123,11.322140934430063
45.570424338122244,111.54449404567762,12.303255711633648
25.964553130223933,106.95492595428604,33.60473796129564
1.597386957028045,90.70190140846522,49.15128271378964
32.65017114616791,66.19477617025268,55.838266078724054
61.85808476645999,37.436084661276475,51.856048452914855
84.04267090391728,8.17673118582397,37.33760809608262
95.05128028620821,18.51928318647277,14.838568395159873
92.32427657318385,40.294751148049045,11.27579430480869
75.16361367850038,55.33245549428538,36.025703612099456
44.79605009658076,62.25245129679848,54.708488524599886
4.337563389345963,60.21628305057218,63.901539603399456
41.364760443827656,49.204591720031395,62.456840616564214
86.14216827444712,30.267594432275,51.71760870300219
123.26600936891033,5.578631339212005,34.09732945627322
146.57302677056168,21.73454205802829,11.613642273293031
151.78924642515946,47.893267928451515,13.459255224092798
137.6645464796332,68.8182383752564,37.56765625659461
106.47507972007276,80.5419707026541,56.58705502644896
63.605662794401795,79.75305198151568,67.44099200282214
16.19917225754272,64.51682302024825,68.6287425480881
28.7160981406295,35.068273436544786,59.99158674763209
65.89064699041926,5.651076091265119,43.12974717821551
92.68679515851402,52.090426450745994,21.085042800702574
108.85623693538484,96.98098509775103,2.407871885129072
115.5069529817826,132.86799212052833,22.802571395580006
113.87586476735557,153.8402621455688,35.67233548314332
104.59552079536131,156.82507870795,38.50059907958014
87.81319668795894,142.00738798662033,31.270914111131543
63.965185973478775,112.3799034595131,16.023977536669168
34.627348030037005,72.73862935507056,3.6002242206282347
2.8565403105357743,28.571898448780967,23.04995684054238
27.231522362111964,14.78828772273002,38.51266961722231
51.42512546686438,52.6718914513518,47.625690441429946
66.37467926919632,81.39771387383566,48.783912876386836
70.05401751659606,98.61430070599127,41.64234008358369
61.638066676886076,103.66845746931055,27.682960766451252
41.14546027379027,97.81059594781347,9.397751197585851
9.356624774042325,84.01753442439964,10.470333605782715
31.693187602843853,66.3476740005378,29.381798288452362
77.87339665431745,48.97023418633469,45.32063993709581
122.46290826496758,35.21794540493102,56.98431584456786
156.67894933784257,27.007390791198258,63.66220825526006
171.46968786704267,24.74388308890139,65.09042710602075
160.1252555179008,27.586211797464607,61.98816882792039
120.66762417857636,33.826904697560835,55.6928824049533
56.990181293995,41.169126052228606,46.97451815247771
21.772744283774674,46.891454303759794,36.448245954393784
103.44376145352548,48.08094193459632,25.33277306568995
175.7025103405437,42.0932457189078,14.528551784470821
228.66004529506273,27.24865180617588,3.623807807374019
256.395151968786,3.5413095498922145,8.342185945320375
257.2911443390505,26.99653004475847,21.534896998880036
233.49884237656073,60.533091892774856,35.392220993891335
189.99449465198896,92.25072501803662,49.09981475130346
133.58240914222324,117.40246489796255,61.39289815297411
71.96476509225096,132.18999169123077,71.15702257980098
12.807477217110083,134.19702992527394,77.83587817794601
37.26822342646446,122.42342547498643,80.3997772050972
73.65356599255784,97.20089955861158,77.17470539797313
94.4020827687761,60.255325413924254,66.81008511248075
100.33425360280636,14.952719322168461,49.19426773726827
94.54785295599147,33.553305845805426,26.355174825197253
81.50507047049392,78.69158592735586,2.1395759816532536
66.056178320032,113.58209330844282,19.32001560871245
52.68249821969189,132.68138482319188,34.5317495273168
45.02171633331286,133.36653702752383,41.183130075624085
45.59627861442077,116.73463717615137,38.8177582493789
55.58367545524274,87.16981999595708,28.76038741452564
74.521804961326,50.8371868371709,13.41828336840271
100.02956185938773,13.792246262854771,4.128218845472046
127.79195263187204,19.46487555612291,20.25080004614741
152.02058693203088,46.426184067081664,31.109488692368803
166.41485941310447,66.03593538975076,33.336630373752676
165.46070381861514,77.76657322468974,24.515041758597356
145.69633213837366,81.03506790047241,3.4898237584174217
106.56290252119587,75.36556529713378,28.82560772350467
50.64083116301387,61.12759563200372,68.90548416340883
16.746512058352778,40.22087790872926,111.00360658765182
88.38474150566734,16.08359085011541,148.1260161965555
156.22030047891798,7.161289905822876,173.74756114292686
212.4425504893735,26.025157530568553,183.8338138167849
250.51004549449658,38.686780910615745,177.44884058960687
266.0493079114515,45.134023884113226,155.73309365449506
257.5429525756893,46.37465804490898,121.13692345371723
226.6632411375886,43.264616181990476,76.59047542533331
178.04948424298286,35.765262129592486,24.18678737153822
118.46144196787883,23.192661998899634,33.90962244049863
55.47140503689281,5.320686875435034,93.45700063277377
3.95974475182353,16.411927119206908,148.51099640050882
54.56638194126169,38.44621288203692,192.90289202231028
93.21062296434908,55.86435265166149,221.36399521505552
119.03323965942022,64.83877986219608,231.22606100670313
132.9098531564264,63.95809848513725,223.08333917808667
136.41236626226745,53.91184996122057,199.77221013044976
131.2395057066817,37.274480845646075,165.24148419392378
119.03626932027792,17.600172231224125,124.2347676837658
101.53252832480536,1.708800323406218,81.82245611768785
80.75742754004332,18.213421549669178,42.21973942431452
59.06044967715311,30.642158264130128,8.531785464115087
12.516480562012113,20.140139661824737,6.432818648715814
0.6898909862199705,12.8135823732489,7.478073634882522
13.683187893723705,0.618800521039196,6.388337550688586
28.356469792506292,19.675218029520828,2.383383234726067
41.348978956355566,41.88516034592723,4.151076740934421
51.30196634147475,63.097757380874135,11.785816452359834
57.38584425499325,78.62452842945486,18.501373563472303
58.882687557524974,84.69990625756472,22.469503674986303
54.91588000830811,79.73751061396503,22.8916295329041
44.55718454655907,64.67948568877605,20.247558315963254
27.375029834452427,42.38238557023452,16.246525716231343
4.318101751576205,16.59696218070925,13.109848133001671
21.548668393376595,9.002803796311198,11.914005319656647
45.639690941613324,32.130993074894604,11.497060114238398
63.662461453419816,52.5776348378671,9.636629892485386
72.96629996481481,70.8596774387476,4.989029514850814
73.1998039519426,86.8300042046429,2.5765536635741673
66.1929093064849,99.4431296484167,12.215745767847334
54.68248101344569,106.95451859567297,22.57141004174401
40.91366253096933,107.80805209365525,32.73127704301685
25.849418645323894,101.33307839269534,42.35578688029934
9.345836229134441,87.6651428333931,51.14195100582879
8.714890662031058,67.3636975907735,58.111584552630745
27.271193869588387,40.92436766355009,61.424132611411565
43.61203321553679,8.888252539626281,59.27306531663713
53.998747448953544,27.422593052206967,50.600539164736084
55.132913612524504,65.07800110329096,35.238037428589045
45.57732412390864,99.18403742870565,13.908409940845445
26.40313139407981,123.65880065583644,11.884458558231346
0.7564787837347656,132.96511613046957,39.95991070629399
27.246013761022944,124.12196337824327,67.39242102240023
53.57857350036602,98.09098842624454,90.61390009336988
74.76595350805077,59.78854656807726,105.98325224696781
87.65332369466827,16.738193611253077,110.39235223761776
89.08002919414007,23.061050205949748,102.10409735107505
76.14540369228301,53.1539411730034,81.68245269508037
47.3196336380393,69.82719774459552,52.09746199542904
3.9921431641666687,72.31073954678831,17.60588465912738
48.49922547795514,62.24224409709798,17.555189875886956
101.2504545944626,42.880006670542045,49.13077276479521
143.79639846980166,18.404390387034976,73.24372576603085
167.06414986976728,6.6531111956023175,87.99289399573198
166.0265634436952,27.98807475785628,93.52349598696802
140.90704132161486,42.179627285217926,90.8788412029446
96.57849590214278,47.3160045801059,81.3300396412909
40.70632590152472,43.34625708918578,66.4074143730132
18.323075418185848,31.941879607870455,48.454380125580585
72.75715019702253,15.906011481883096,30.783330938801583
115.93741839232098,1.5807399473578632,17.06700271131113
142.40046537321214,17.53412277311287,9.863186034213276
148.28259191611545,29.384337551338866,8.85224111004961
132.31820317318144,34.96703927473594,10.643724532552081
96.98874011027566,32.61373011839572,10.439099779485934
48.87408240862736,21.55991839353956,4.231847230110868
2.5100292901325734,2.5636323986662073,9.262620791141584
47.27589426403328,21.656921007454514,28.4462423547359
78.12083591047941,46.62740794854015,51.18169732802994
92.29415299490235,67.11439502854,76.00817292305065
91.59748271806107,78.56602975519391,100.75376613553277
80.52045868554329,78.36405428097483,121.93285270379657
63.630473584289646,66.30671433656605,135.74401366434114
43.666807471918794,44.18255001337791,139.48552492355972
21.3139941315129,14.845921049133311,132.24445757737269
3.515426109490907,18.590550867684644,114.38991711104693
29.964755776258936,53.02104023202941,87.16619754493999
55.30704904545421,85.1201786682844,52.68238649064766
75.5014942717498,111.13479719616943,13.856098395237938
86.84233450952094,127.2228534731718,26.03306290914787
87.59702399172463,130.4414721681585,63.838651743622954
78.64062443182596,119.9388642636556,96.65785071101914
62.74075496813353,97.60106948402526,122.23657942341042
43.06277881246296,67.60682682614907,139.33311416888606
21.925844320769624,34.99032423816442,147.64629544322676
0.537710462165968,3.9365743517871863,147.18051277583908
20.31053835626608,23.291417733124742,137.95954510916158
39.31696439585976,46.25432636865524,121.0497658109933
54.35967364609769,65.2625598083201,98.62251221184184
63.18076967522546,80.13482788087339,73.12636657030193
64.67235735568077,89.63488462172435,46.79590686526655
59.84439507731213,91.95175174554066,21.083556915458402
51.708275413644955,85.86555697680845,2.706543265866291
43.985227483041406,71.77916851024257,23.024731132413706
39.33003486593972,51.93747325973154,38.72695925435765
38.0927170968974,29.685727213257127,48.9917455791947
38.28721022778697,8.246624683761661,53.54902611820661
36.729103550424526,10.209039505255324,53.013592482032536
30.631493362710174,24.71616765425241,48.891112189790796
18.746975639060846,34.99020395966772,43.74543254165198
1.5623148727443867,40.779442279067105,40.5096142343302
19.2883714393421,41.67112857536205,41.099127286148324
41.79323610992926,37.51304386389568,45.32948159502404
63.95350123342113,29.08934499994821,51.5768008904489
83.66943730312045,18.438676490241285,58.1946336310757
98.49501878868455,8.430634821627384,63.389786301057065
105.77031483674598,1.7217527882672494,65.23869414336156
103.32293168964296,0.33845946341893474,62.38126331159847
90.42985707653963,1.8150154481351284,54.28006388005485
68.4287933058539,6.369625456258173,41.45795891652945
40.498527863862826,11.13165698308064,25.301192042717233
10.609985186415312,14.487747364785617,7.295523465114847
17.792511898688897,15.771568421646931,11.569729374418108
42.63718849554288,14.9465256553654,30.48585417398952
63.1733703979339,11.999680411888063,48.2596921162612
79.18809987150237,6.592529290389325,63.712990394772795
90.14520421540276,1.6927647758993798,76.0322930469053
94.87176331980217,12.681803125872374,84.83374709695137
92.01301501232693,25.06900634108686,90.4564133895757
80.9403562508424,36.509079226593286,93.5254607422682
62.43075613905122,44.43110405728041,93.54835495146321
38.63631322184356,47.14794807900113,88.30420918668027
12.367430539397517,44.57763675155817,75.79241564092334
13.843584519179146,38.112794493811954,56.165478513508965
38.27154897230566,29.71685151672557,30.96334483725219
59.79610716155837,20.828570814087573,2.094162171492373
77.1996300409508,11.778254140972457,28.29776660521264
88.58009744217655,2.0842974959818252,57.96131371027216
91.40952220411118,8.596341766822272,84.32000482387613
83.3391476420496,19.5386864979196,104.6762306328323
63.36398819339005,28.706698458562013,117.13356240046834
32.670921417899784,33.44130835820471,121.13452193853213
5.318972286600577,31.726699251409126,117.67822835430388
45.709872694020625,23.299114628514054,109.04038156993178
83.26733774173317,9.971752240355558,97.46182325506705
113.36293094339183,4.998688124191149,84.17183374018794
132.39451335259028,18.129565673560688,69.35002675288253
137.77651697896096,26.830762354404037,52.24261979686904
127.8867843411059,29.909228092681158,31.850286713259834
102.3116504819852,27.37622231601949,7.855823499495419
62.425322255993215,19.902424807411826,18.93671490482529
11.971236350124766,8.413734440924651,46.16155252293257
42.89096887925211,5.925628553968167,70.22504955340769
94.39208063140836,21.451997163475422,88.13181631515144
134.69862008042273,35.83529518207948,98.749275135594
157.70872560915055,46.35649879641533,102.4146706694004
160.42897912096112,50.63838684051733,100.3513760964301
143.47034805882691,47.514362501541015,94.16045210380223
110.59450616279113,37.57377836021173,85.22670269803969
67.5876867151549,23.039063374982906,74.47671247187682
20.953865529225983,7.021538423894978,62.510493749375335
23.170676315060145,7.460350525717792,50.28782409398828
59.73583729304869,18.251233749040935,39.02720796131344
85.1618197458346,24.330615497070525,28.9130590029833
97.6937014943492,25.961342689354392,19.592509747641024
97.46426551273917,24.33282427368971,10.663013080986355
86.25263249394106,20.7705539916501,1.1105934421103432
67.2058619935248,16.3376152251384,9.921467045818448
44.295331835718706,11.741096682238116,22.19825100708856
21.567345219074788,7.434268517179654,34.40878481974111
2.3580756185374585,3.7301951809542664,44.75325868331277
11.269824892455407,0.841028023475481,51.446608194773646
14.659906722283791,26.803684699230203,5.210617914389041
16.776367401672715,26.385126880682048,9.578149768869615
17.14891145526738,22.150271208282984,11.231651374873218
15.066630628944008,13.481890708921538,10.00726493458965
9.871665837737828,0.04431117341474638,6.744178720124401
1.0413745236400016,18.06356243261949,2.884121448850514
11.607939731464484,40.082902444292195,0.049285723485930445
27.594321192458086,64.36359233340646,0.5951550515121442
45.42768715266194,88.25520588721346,1.2295831489196105
62.451755826202614,108.23691765047782,4.874740721252418
75.09817179053424,120.39553656129969,9.21566193158117
79.64301727936358,121.25484969601382,13.370745168734063
73.32127734089073,108.77840503919472,17.428742864396177
55.42246416378134,83.01983789170248,21.48271881204977
27.857528331743755,46.0116536112233,23.850412946800873
5.108869142285625,1.2111983831043196,21.691095226701655
37.90394235400471,47.149372094243944,12.79962741460618
65.11511205651259,94.66618805413259,2.9536851756984435
82.8160947901178,137.08644627767274,22.94622634815084
89.29119906633076,170.43181128142456,42.75243152932476
85.01196239469382,191.1632949364407,57.42117727883788
72.05647078057471,196.5477231123043,63.05678085275743
53.39053672743634,185.29256620459844,58.483887657805504
32.324646862990356,158.21333885719886,45.23687505657077
12.225838412236499,118.5457952956182,26.77690765614973
3.6462184132289717,71.57518849905608,7.570262408791747
12.430739957255078,23.54987492013287,8.481332749367919
12.224569006231741,19.760827737881883,19.481868037516097
2.7946506884999858,54.31350648755831,25.5970468309024
13.927188565964496,78.32301753871292,27.8623246548247
33.94893755035664,91.96077765080658,27.33682562342584
52.02830225994166,96.55568922179646,24.630156320453647
62.990302032170526,93.8108823070604,19.82165682592994
63.09380985223428,85.48495122121373,13.65281292652802
50.925184472257605,73.58726700699363,8.042511946683371
27.544190197733496,60.69711726579172,5.012300545829278
4.061223687306822,49.91593125082833,5.905939811393676
39.8842074030934,44.1913155724897,10.84056897384559
75.7515332495819,45.22517783275629,18.51802494175686
107.85251007547248,52.56343911915652,26.776143130098923
132.91584064982973,63.44503408149377,32.8878506913077
148.21932039163033,73.61244070629432,34.28234063978503
151.6786607109383,78.75259248679222,29.682049626306416
142.13774955121326,75.88996269121853,19.536802753203677
119.81302689411818,64.1299291976355,5.846679225932991
86.67394983689965,44.56083476046444,8.769766006373851
46.485856245730254,19.614944137617815,22.26113257680536
4.354062902617779,7.6010400365118205,33.29172548880398
34.195712805658744,33.68804055775639,40.389161748199
64.35522078853982,55.107709772142364,41.92484357003388
83.06155801532547,68.44573592586505,37.07390060618151
89.60305318084829,71.07269591551723,25.94957908734614
85.5859613234089,62.12708159434515,9.804218912242442
74.30963875486398,43.340119835418044,8.250326850664983
59.78382026234983,19.103366414013685,23.653429193877578
45.694276999286735,4.507997612269069,31.837558203167017
34.67078785359203,21.488835868027003,29.855729559790305
28.024391711338797,27.692638714044364,17.45048121347251
25.899337570117037,21.86531795203403,2.6593531422171286
27.661272591522298,5.562650512791143,25.314549638440397
32.278015860183345,17.82324018266547,44.811284629692544
38.555653610836366,44.2868240451422,56.893001350183845
45.215122179143805,70.06771316602148,59.48279847364797
50.89479610453656,91.93061816532486,52.6016792333849
54.19797446253126,107.08312131087831,37.83953608055325
53.82543179595715,113.1792981329416,17.732589832434673
48.76717075490194,108.69437649064282,4.50465115164805
38.46282853548389,93.52294269223762,25.155406054789918
22.876995020800926,69.37152097548699,40.900748175090385
2.5147263458081195,39.55796027064053,49.806112688194325
21.581761762011745,8.153884177893355,51.288245206533695
47.80332697226406,21.160093501220857,46.2772390504003
73.94413824620834,45.94883960908487,37.6703974207416
97.28183963189471,65.19603389987047,29.385610903002323
114.8593776774137,78.81387644097467,24.362560946954783
123.98897685665354,86.8908152829343,23.46831316914586
122.85316839500078,89.21867847932612,25.822962611038445
110.98766290975219,85.39281678917169,29.082129382986494
89.43856952500741,75.36189229475535,29.982522122377215
60.512779980430594,60.02039315010085,26.16169784569612
27.25363147633081,41.40483339124535,17.123166409053695
7.111986075773756,22.320712682569635,3.382865991657799
39.527861341312104,5.565589954535348,13.952799758285982
67.19083503524969,6.8812273657559695,33.03455897555104
87.49526765982426,14.309014570166635,51.77163329533584
98.10785314313188,17.222828730205016,67.90201323260155
97.38966060244964,16.920888318387057,78.49436418947938
85.09253167723745,14.940527504364887,80.5977430266796
63.013852689614986,12.617553959432165,72.81925991083429
35.18955436553655,10.877794455893282,56.25445148738712
7.287969830559906,10.231215495862559,34.354061665912646
14.728155941845172,10.881544197149086,11.936005278865862
26.214215940931275,12.855737460742782,6.618171906645527
25.088868457612616,16.080791502995417,18.948459678621163
12.213181460814278,20.373208487961982,24.80868654040246
9.128671855831678,25.34835165121105,25.336730235466252
34.307550641456274,30.297280156792006,22.48916187016706
58.422776874044374,34.1214039773055,18.36742233112664
76.91401645765457,35.41499621486262,14.889451355352207
85.74054910554696,32.731698939924144,14.331199661245627
81.49767199036215,24.99334048064479,18.962300056136538
61.87658467986788,11.887345306246438,29.356873362683462
26.59026726410524,5.9230010302974,44.133067670127
21.60461631882799,26.847789416027585,60.965645953280294
76.49085025664468,48.65571948486271,76.67602536112157
129.1649504777122,68.86617691595737,87.1130347485802
169.99755819518148,85.08168083275365,87.97365927554512
191.15482687281718,95.21226573084427,76.80766962186422
188.70216108323848,97.64211771354609,54.70891624068001
163.39899372492087,91.43304200693834,25.779149310278694
119.9717764394847,76.61312885785767,4.339077589094921
65.38532568251358,54.43516180316087,30.248862390453347
6.9925873681710735,27.416141063555045,48.715052330505614
48.683762832906986,0.98744989086196,59.07836898606117
96.36208494872298,27.073899032676213,63.12996782577163
131.91927482756833,47.740571621247575,64.656173107297
152.33067887927066,61.141401636275745,67.26176434475832
155.98166596951705,66.91109741597468,72.65995200845127
143.17788169390593,65.93197646565287,80.85762265545556
116.38696724916056,59.82442239228016,90.07283516232373
79.844338968432,50.43186705985404,96.75792582094947
38.54613681374274,39.507144195716094,96.97378172239326
2.880121696058483,28.612552609172212,87.66243297494991
40.84145676927154,19.086755635131862,67.46593553655342
72.70313675303551,11.943909260075156,37.004494677035865
96.20119974895516,7.692069714066345,1.3290681247258274
108.94602894334022,6.189432663998479,43.25461966361332
108.56687022407951,6.719939171002212,83.22924145942649
93.60931661586463,8.372142596365281,115.69378138335584
64.70310725273457,10.575661049172256,135.75473736400744
25.23711305935425,13.466166920246287,139.9665645099777
18.982268702718947,17.796683943520698,127.57350915593122
61.059204084977466,24.365126197529122,100.97190613302288
94.73453544309108,33.21591483614224,65.08995228421541
115.72908899892371,43.06214551919481,26.778553255718116
122.20642210507489,51.34963102311527,6.792446793731008
114.39638200388733,55.0520639593158,30.737056135459977
93.86207380814977,51.81865072396965,43.73645962932537
62.96110839415731,40.89655209320359,47.741242546119466
24.76435280410535,23.36688597947431,46.34217519719964
16.748528166326125,1.5750532732888403,43.16433286855412
56.68610116806613,21.8580050573472,41.07614525206219
89.99816866421223,44.65886813166117,41.43401324388868
112.80769687639965,64.81741877224911,44.44070485002373
123.45074679692432,80.3997518825745,49.7600267494295
122.77584137447603,89.63363804226435,56.35558056098562
113.63198751272802,91.19259252906066,62.84702781679815
99.73323005183836,84.65727409043521,67.84617487699862
84.40697057694581,70.94686780166143,70.03662382899941
69.75396417827969,52.42794316163111,68.50026636101761
3.5483041160572197,8.171193378433076,16.081508132110415
5.416371134245094,28.677275950039206,18.934397296701345
6.52391876173478,48.65009034255005,17.512422082809074
6.525412823612441,63.500518651427406,11.125210807936856
5.199490289320011,69.74117504942146,0.5570635942446679
2.5082641376535793,65.67522038899257,11.989948075281406
1.3287437914795546,51.452613583646475,23.61681011953815
5.813262197648295,28.65082889190483,32.092471844991984
10.17523093035451,0.1481070842264355,36.59834889525168
13.5010222727545,31.680471887427895,37.66606958012484
14.911492271508319,62.21130188897181,36.52727136401141
13.675051943161218,87.56053963740601,33.60346555266692
9.322005330142446,103.15399593278222,28.13049229530877
2.1249257076372254,105.18654484729744,19.610314049126007
6.613920277046953,92.56856343965823,8.551146125049728
15.188935545981302,67.56698835858506,4.070121421000978
22.052395268721042,35.175431603246004,17.088838470728664
26.011077719400834,1.803902295767176,29.003070367546893
26.51181288576587,26.67081868938184,38.385671053038266
23.648066018099712,46.28693308581926,44.49927034556396
18.057347109020387,55.429767380955916,47.020605689942464
10.784109836246216,54.51048547339052,45.6595725912849
2.97421450697294,45.14630453531572,40.51156410459328
4.351320351728436,29.625303393481595,32.24380826377369
10.500819782318235,10.722286433163873,21.749906283766656
15.20385928023736,8.307387051977695,9.974168786240845
18.547416753899657,23.8577296264161,1.7155766269311112
20.873985260066675,32.574514469673794,11.464679117015294
22.621729843250034,32.20340464081891,17.50294827351546
24.20213709180094,22.334861111259215,18.397751125705277
25.90805282451447,4.612218044617518,13.645293565881756
27.82282340356302,17.778280305227657,4.322381643112359
29.75317463337467,41.04958738547523,7.422204979518733
31.167026480850016,61.765484545823654,19.145790305465823
31.21292995770165,77.3818590001061,28.7260836166171
28.89688251008565,86.27300428513884,34.4954571069314
23.38937375937913,87.48022620975688,35.239062160880636
14.357381523076763,80.53122033858392,30.598611154082906
2.180317470235452,65.53141504104042,21.10478090534835
12.081538052883227,43.454665850537395,8.243267667553525
26.98810974704957,16.38756344376734,5.877296534316615
41.151143372358604,12.579381183792671,19.578045724448057
53.60416872868303,39.897718380236924,32.125512445776714
63.94687007750153,62.32680159586824,43.482821423069545
72.19068758412618,77.59220452426771,53.186102769786324
78.4004004384785,84.65458656651217,60.08741699455722
82.31962209258391,83.56306625222336,63.70455394201104
83.11721643431055,75.11059249093097,64.38554230832965
79.3511504594986,60.54923668982234,63.019707853523414
69.18791112246203,41.549925258294934,61.23569598038442
50.82910230812494,20.357072130468307,60.18471428285242
23.11394754610258,0.14470117853279788,59.178926070481566
13.784046768647363,16.705542051366223,56.331671367342274
57.77051798354922,26.39787036100362,50.49323927565303
104.58136445620295,27.53201224954135,41.902720893279565
148.08760567932077,20.37860925526675,31.14030893901162
181.25223242860875,7.300163752729309,18.47758225262856
197.56943702807447,7.845488574676343,3.8737102242398938
192.579564392336,20.83271596215908,12.718541271526828
164.9902631791059,28.271614177439957,31.048490827146765
117.06954089804941,28.407137484917516,50.621668076324184
54.238082506600605,21.269476591734232,70.59603774891765
15.930300028478463,8.279704230898995,89.37831364609556
84.94874385920795,8.35501168300435,104.35097820926242
144.598090450053,26.09404374109321,112.89557742801938
187.92042235334455,42.223118934921615,113.97772115276801
210.05224027315333,53.89851139975088,108.2300156807715
208.89811692732627,58.35654898822474,97.45679426872593
185.5340024972724,53.47572358161328,84.3519565464218
144.14683300563246,38.60627749047093,71.2733606613706
91.32238346602739,15.259335223610462,58.820768825629415
34.72328220365863,12.816590466354286,46.21409730195064
18.484362818026927,40.414027488351174,32.97400278425287
62.932094673902455,62.28508047996629,19.809658899997906
95.65058500463537,74.59173842455898,8.281775849832613
115.86484978159278,75.76530294568383,0.320862269765096
124.2311524332368,66.44907988517316,6.232793026220159
121.99371193740402,48.68796466004062,11.24662682816068
110.48341942116967,24.943036922838992,18.111366927674144
91.09175805719022,2.490041104916303,30.218466734847574
65.56249578818488,31.43488817860637,50.1847766074492
36.277913690947884,59.386920292204685,77.7435699608297
6.291652972462807,83.1846786281605,109.57973435050546
20.93303730917249,99.25706863818807,140.93569492613338
41.979870357742236,104.48756255506811,166.92197630817748
53.97543865111416,97.27329608011013,183.41919138289117
55.031487691871234,78.20532433506251,187.35888617328
44.62809973364975,49.99207409122034,176.37616463450505
23.93232055356997,16.6600373172535,149.39365972181886
4.022503176927344,17.537838121057423,107.12913004009242
34.482155917203805,48.96953091336439,52.06209549665333
61.605864400262995,74.92231631033529,10.857666560201677
79.55676735272515,93.46328139934387,74.33946447171024
83.79871709066305,103.23471596049512,130.04502619763858
72.1816677081015,103.47414713187882,170.3318226739969
45.43691252299984,94.29038514627408,190.65075440053465
6.970438334049373,76.95680650673827,190.5382725742299
37.89989580792899,53.87277044121786,172.91127752155285
82.96307432408271,28.051355746266477,143.3860635641417
122.05684237881523,2.3338834652883373,108.55265558787247
149.7891305110032,21.284281617179435,73.1512224210698
162.13094793924887,41.87881271225908,39.24430016187501
156.9706290587436,59.28839942406038,7.9648516430185055
134.6011593017774,73.50685612882715,18.748162953905503
97.97392874684958,84.14683981949779,38.06055606247999
52.441446412937864,90.24660269689366,48.072205646685724
4.845292004686105,90.47223715803703,49.46176252180352
37.910079200296664,83.58112979238767,44.62725761320166
70.40885650260817,68.95349421555908,36.50479327456426
89.86617285853369,47.05947026422094,28.323068426520422
96.42827932587375,19.776721271540495,22.553399974856536
92.55398231209958,9.550592227033892,20.046062623344696
81.78778780654231,36.43535725856779,20.3175823305396
67.4768825699729,56.05497498074095,22.211038420213747
51.9921373319731,64.47014845049726,24.980121173029943
36.707711654251185,59.91749964427037,28.74591896126988
22.578593145054302,43.6705577575841,33.71482454423169
10.84855922246794,19.97285894085982,39.780877101855076
3.315907043043306,5.063137594133826,46.63994035002214
1.8874333887601689,25.18703087724901,53.138131143628726
7.609887642483611,35.710149591120306,56.77959504953067
19.69685842401783,34.532483859111835,55.12745888131162
35.2109897146212,22.23541008683633,47.5867077899329
49.714273169472676,1.4674153835223822,35.15836026590737
58.65294923343011,23.88758702028702,19.283685996225813
58.860395939557364,49.3578877371519,1.6124227768573227
49.41836348566064,70.31664155334582,15.973192773437903
31.51125502555651,82.4632552805627,31.986976047822917
7.485376374778064,82.62151788713044,46.00828368831989
20.25908117463039,69.79693194143958,58.52348366359615
49.806404274579506,46.00429308578985,69.96311409664749
79.42295658514404,16.247725405276686,79.71466201102271
106.75464038035595,12.666393962890421,86.14596048325468
128.25697364961334,34.18650131351308,87.10258678733032
139.52231328227927,44.111555008821064,80.0025736822917
136.57340572815153,41.80325600394539,63.13117313555377
117.54841670654179,29.9556487892852,37.39720590643369
83.84456571300781,13.11823073936747,6.210825127426033
40.03027099034149,4.183281305293802,25.27949290048046
7.493520875812617,18.823530532342787,51.62081723290428
52.41810839401557,29.425413303815496,69.05095309556027
90.02063924931365,35.763363695275416,75.5858323005899
117.92452614211231,38.11914072539555,70.85679603415988
135.74824376338626,36.80449532472618,56.01920270431055
143.98357246758056,31.975724614660837,33.00173961272628
143.22051858720047,24.01451560817902,4.329649358145116
133.98341473519437,13.93236888606032,26.76183813740098
117.14987225479368,3.4176218931342257,56.238836331389145
94.54434155403915,5.5926134248627255,79.83010329278119
69.12983630919074,11.592502466716581,94.04096442299026
23.01893368937363,20.098930093712447,28.598398289264324
22.897531588944616,22.667407393005345,37.69593776805824
18.87866422969399,21.301414776321543,41.7239975491494
10.799660690046398,14.870787283767383,38.222137763866215
1.0072590785020958,3.2881820123974212,25.84710295875685
15.736477712574544,12.293336413692561,4.7411636967506166
32.094388437457816,29.685174437635368,23.24081776500549
48.33152187433374,46.224931378567476,54.2706114730254
62.37207679281663,59.425761493630276,83.03083628462603
72.11185734091411,67.47232313261318,104.1148897572613
75.77331870271728,69.37914621415744,113.50470975693014
72.15984652300664,64.79947808076233,109.40714142566881
60.835478261501656,53.7454586462196,91.98495397339853
42.37058218954966,36.61407302104316,62.90334701743347
18.329928747519933,14.377496882287371,25.650065057084458
9.223336886418464,11.383070266641504,14.71513555755125
38.07869533514995,38.374150719859465,52.94042667937555
65.8886096823482,63.580258147721366,84.82674520288346
90.11908748406509,83.67156481484791,107.68742061446432
107.98219741352226,95.60631673586069,120.31390996254123
116.6607016255697,97.31629998438873,122.94299451385656
113.90170933903708,88.26491904858588,117.072229534114
98.72239109756029,69.63262504562289,104.98464026073498
72.00927096796333,44.167977325696036,89.02019714770219
36.67372820684914,15.71286078923694,70.82099796595871
2.722925958096563,11.458543870843915,51.30842120491801
40.77129850896127,33.34598704642439,30.740805204345186
72.243724886054,46.890295258850074,8.58580252051211
93.01511067749274,50.45128453310398,15.572081967849194
100.69448271361117,44.02262024010105,41.0157121840488
94.8765120469869,29.13592313986966,65.73757140705493
77.01138491462108,8.510333285189422,86.98283484646049
50.009974903943984,14.41417508895993,102.54214771555577
17.707814665243024,35.93939373718943,111.15008919836802
15.700846113769288,52.49264652035213,111.95027637527873
46.19730971470389,60.99624881523989,104.9589002500362
70.39268399326228,59.3237411623865,91.61812083359933
85.88203958596226,46.84530474103393,73.92972845290637
91.49579874166837,24.882054771152546,53.52646887290217
87.36281246498493,3.2518425342737003,31.929106624579873
74.70108520753058,32.84573950090478,10.489624076809692
55.36668855051761,58.97584367591083,9.938244913830045
31.294644938276154,77.87713472048236,28.33247468759089
4.055672774831568,87.9015930861748,43.11913600157084
25.23687700618892,89.59668574848925,52.33580952102331
55.589506950663306,84.87876609454119,54.43651433438651
85.53892384692355,75.79424975103178,50.008465134442375
112.6814376154353,63.5943464375278,41.980783103680146
133.67470850349287,48.640925395465956,34.270358511706824
144.84686030584183,31.155535567074253,30.591413364824593
143.21742062636628,12.2532117022027,33.535050007049385
127.48999715931569,5.533659177964394,43.741648725942945
98.58610940091792,18.7292812159083,58.9652519510926
59.517876142704594,24.250221909473566,74.87947956066267
14.706992578177877,20.89751673418636,87.2172536585843
30.92453491179569,10.152408125156896,92.3494315202731
72.73941101048075,4.212350046334921,87.7915108641677
106.86631263845244,17.51912803482079,72.82530003689929
130.44260806840808,25.81383072909839,47.58854092299839
141.79086837068095,26.933610385675955,12.549625452585621
140.61097252351738,20.613121368721632,30.53056121309967
128.1068311122596,7.8030553325795635,77.34957760753144
106.87308152995669,10.170454725918482,121.06597583906998
80.41809481253479,31.999580260815264,154.0224998270721
52.389507586335064,56.176625220330905,170.23684323607154
25.75517634366196,80.48372330682292,167.50192862773602
2.2713927034678028,101.73576210490613,147.62135811646934
17.55116643782361,116.15078219967283,115.014106609877
34.05455860422629,120.29924475559133,75.3952573441295
47.867820500103825,112.19480992716146,34.82381475749269
59.4501293098746,91.97507475335031,1.4782741049881079
68.91214656177442,61.88557131500566,30.529233854704792
76.07122334970249,25.692089979641327,51.54716580482758
80.57876178214718,12.125899766939673,64.66373849755543
81.99185244819154,47.053787895595114,70.77980852402025
79.76586522769668,74.95475754558798,71.34932192222763
73.25592269420548,92.3784197878209,67.68345859198087
61.855328343107715,96.9941404691161,61.459248705523734
45.30952909816975,88.17083661408314,54.824797253725585
24.113979094075265,67.50319195342735,49.67113880619537
0.18561810942150087,38.92740452320703,47.02936364416443
25.00682935780952,8.115108611511861,46.551022849729236
47.12924907539995,18.80636597067104,46.94059752251304
63.36929293054053,36.800949250137705,46.8037258369425
71.35892912756734,43.183015506913414,44.854138924686104
70.16818557622945,38.122824404744,39.76725629785032
60.546253112158375,24.280123801139176,30.45798071252179
44.734725963631476,5.825556616797828,16.94808526728123
25.9205846630895,12.699699466127829,0.5567122800335874
7.5070608007630755,27.286922065621262,16.34788469440503
7.563434564763746,34.96515703055844,30.93454652463112
17.268440443671036,33.98941200289953,41.47612858764489
20.688224436353195,23.894626174147408,47.77934059550743
17.961209651966172,5.557072183864733,50.12278431243107
10.127260688172903,18.74855072150517,48.66759432821374
1.0470674206273152,45.471314532136525,43.40645490064067
13.263621696223208,70.23829480694495,34.148140754671395
23.97310485676648,88.63143098161528,20.912254284377813
30.81226703172101,97.12480022321922,5.120761581976353
32.18619470904556,93.86925877995853,9.980114191376515
27.78991980905735,79.00205826499112,20.553833112541547
18.807828397889825,54.36457509544308,23.73635187216282
7.634496422826689,22.775404871871384,18.975104906138014
2.8667820280155367,12.79349935050958,8.17207198004042
10.283555234021188,49.76493193006693,5.361476100601304
13.348484619112007,86.02801423929522,17.674829254328266
12.138028034599236,119.61005626312942,25.039148786101464
7.74423675251736,148.2617521860894,25.007315003809634
1.6419365666514933,169.3129643363343,17.069142980639526
4.897258716325847,180.0015058134167,2.7085761023590003
11.076192455912082,178.20231225237632,15.177069141801919
16.49125180040273,163.22411055938122,32.66993684104282
20.86218820641843,136.26965319662298,45.22922572295843
23.7736549164769,100.31125414732917,48.732457649930666
24.555316476549155,59.40899806735692,40.33136452611087
22.310906083466698,17.75954400269112,19.057291895920542
16.024804844311717,21.122533135004236,13.669215610273415
4.719750339354697,54.79461051727982,53.809937174122624
12.299525194618422,81.81378022370926,94.663828797726
35.077936922400994,101.40782068922594,128.12278362009454
62.53456213405605,113.18424632398815,147.04599013485955
92.07132650911103,117.0782367547167,146.7019668130886
119.5705747978164,113.5253295194694,124.98287358762379
139.98081638915258,103.6919469186723,83.04576596969353
148.42853725925477,89.54965271217864,26.557684895028903
141.51710537754758,73.66479148760706,35.20000214112335
118.33158214816544,58.76139085824664,92.41924375465499
80.75998796500869,47.20513952436475,136.73968254805214
33.070301066343205,40.57589160011897,161.9894935808892
19.008847143731728,39.442324253879086,165.3838154480768
69.34650266732464,43.322685461493876,148.51186309471117
112.3069285975186,50.77295038176809,116.5797157663797
143.40857857968075,59.57675209552169,76.37673988794612
159.83898033992276,67.05039912862667,35.00493115261451
160.8687837759919,70.47057837080449,0.9073059957967172
148.05472367793516,67.59528256973024,26.565886447177746
125.0048829184557,57.1926687102103,39.81978685807473
96.55724081036512,39.41145031591422,41.05703552195435
67.51062607056807,15.850551367669063,32.44079473341818
41.339725535150905,10.708280207777042,17.05013233940201
19.447262204231155,36.84769483949728,1.0413794151005444
1.3307326164560822,59.19691540427985,17.03293404945749
14.260538435982081,75.21383974604754,27.00010410119908
28.611545332753558,83.49975242094177,29.522604421061345
42.70057830206116,83.71234453453793,25.466899717372044
56.56354058473061,76.5598563351705,16.47626924624771
69.23251175554695,63.66152928502154,4.57145080917264
79.16806135407843,47.283411167686616,7.58161532667963
84.88211899360863,29.97782230753958,17.31521170055128
85.45718621940756,14.158551430518928,22.981166160272053
27.80293298648915,7.853568384526946,2.676510746911359
21.98475414750411,20.398716984961784,2.7342932651107166
9.01718874380539,34.59555158629928,2.6394153119724693
9.773460911335434,47.9126178122029,2.042545001069674
31.612610429425278,57.286520237638975,0.46077770840063337
52.87243802227632,59.75316169630514,2.6339033972464794
69.79903265956102,53.20753478896087,7.6822056757782615
79.22648084750375,37.024217355871606,14.480299205286821
79.10944978379798,12.390989699321361,21.584519598179995
68.91240619056398,17.86934980530494,26.491087725134484
49.696621839013595,49.896784605780866,26.679679634011052
23.82350549445909,79.48083885970817,20.718415736829165
5.482780874389492,102.66418753809042,8.734752728528541
34.30302365275203,116.64928092520239,7.668218930066183
58.532953337297975,120.53173762981504,25.83964586073514
75.23307243722418,114.88868426128514,42.76859599062749
83.4099475016628,101.13851306935574,55.65967762989448
83.77692094111976,81.21197380845184,62.23573925488637
78.16029494421176,57.12187062086781,60.87682695388557
68.59883927669489,30.805986029052203,50.8307405882864
56.73694370410215,4.022597965873142,32.528399526728954
43.74988512216647,21.881990756682917,7.531490525645423
30.492966019647664,46.07663707118563,21.482112346441916
17.756346972161783,68.27364802324158,50.59359426632977
6.257424874686692,88.46634288917605,75.33418976589756
3.585465901264323,106.44270626137046,91.45683899230289
11.850194557976376,121.33714048921956,95.26941452954246
19.09184747054135,131.4296350629266,84.8610373178048
25.966845557131077,134.4804115596044,61.593739338633966
32.78611938728674,128.49249629551727,29.347836463227484
39.27737500353573,112.61949267044912,7.537705629757485
44.72957227193829,87.82819091256376,44.150821268746135
48.487557268169,56.929620556516994,74.58628018116808
50.42361077163324,23.97489754858183,93.7430347669951
51.06818601922332,6.74204706066824,98.31323296562636
51.280423620012,31.6864434599305,87.11692232434925
51.62795411416654,48.71763567461766,61.96717233932026
51.88676672909931,57.232810837265056,27.22418206248751
50.995368892460064,57.92774160762491,11.201407214493287
47.52369908669111,52.40736958544178,47.01752385155829
40.38669761170294,42.8472975939332,74.73370858231988
29.36620986555942,31.74696123607275,90.60805625636996
15.175199526705375,21.674645421102277,93.43177738639224
0.9054732443414795,14.90698911062987,83.76960928124159
17.574183082933022,12.978237220285468,64.05985896719947
33.88372453496954,16.287470721027624,39.20084396142176
49.23930624178311,23.9829611517422,14.129005272457276
63.10491121353063,34.2477075825171,8.472452065639803
74.6760980222919,44.885736271922816,27.911443997283886
82.79723219473873,53.95480872397964,43.935459630215774
86.20664544708147,60.169798051814965,56.21801596606682
83.97336683373145,62.9091073016679,65.08214312494135
75.90000998631882,61.91466481617868,70.90817569899961
62.693541360829975,56.94818477268425,73.75682402744016
45.83587583988815,47.669394191290515,73.43340756801508
27.211452288810985,33.885463812367426,69.10920439233297
8.638148170899528,16.031660717981318,59.963055234575435
8.55006021686477,4.451543883761292,45.36944391702673
23.76068885747141,25.12974506133193,25.115941104180255
37.17052220755649,43.06633611210053,0.4112042121282942
49.515233936686336,55.61434875487126,26.091997526943253
61.641542516869194,61.13745332987796,50.85998858260345
73.90600985983643,59.30563600420903,70.24567879261575
85.65418172048308,50.853967405469504,80.82959648016124
95.0111103736952,37.000250103415986,79.99669041759171
99.12623150361715,18.92886674959383,67.54949212976956
94.88195416403384,2.2723488859135097,46.06577346413605
79.86998110144239,25.172754152469665,20.15541099853786
53.331583372176645,47.36747250300998,4.829455833229611
16.786171654233314,65.16738647481692,24.81830940117305
25.850842905735625,74.07406186407437,37.91777053424783
68.70909688009594,70.06786635300675,44.03025780493812
104.87809503145672,51.24229793406438,44.01820916392149
127.68774219263749,19.049142914445806,39.14625427391204
132.16472196267387,21.54767444054852,31.122546108537843
116.3476244015191,63.249270621819676,21.65519722147814
82.1408218097175,98.48990724521944,11.797480941305908
35.389208352251345,121.51261795334753,1.9578033049394228
15.031503889766178,129.59162225274076,7.553485644546456
58.97127432951975,123.00184096239397,16.05021544589109
87.21923958199419,103.99831168231252,22.999321844769916
93.6292096519577,75.54723643691486,28.64093731888103
76.54423741852864,40.5597135792667,33.11110697771889
39.15945515421069,1.9294464179238604,35.730235195086664
11.179457813325948,36.95036555856367,35.704015578962675
64.52723183925464,71.88792098296123,32.491830662209594
110.33046001176297,98.36434271871595,25.97225982587651
139.39583775179963,112.78198784867092,17.14462624967508
145.53653987435555,113.85819734307863,7.818782698925979
126.6536443267441,103.28504638622584,0.4390779681669267
85.06580467030749,85.14875135001088,6.176339006414348
27.053050267563407,64.28400858195918,7.502337399946682
38.354165297488166,44.364448550837295,2.6742866148608755
101.11480974139867,26.72949373820229,8.654160586316488
152.02659920799235,10.532555906298997,24.53853072751811
184.29091299876978,5.980152756721712,40.72951170397943
194.48294411006862,23.908293651724115,51.74051172942688
182.7902715866171,42.79271844921592,53.06856460509356
152.6049628579011,60.814899130863246,43.192035623466204
109.67534643868997,75.82791800257809,23.33177538225503
61.036854896131146,86.45494200700561,3.732478242404321
13.885912578519664,92.5347248070109,33.90258814633451
25.49612285713288,94.71654965387393,62.35045416114431
52.66483835723895,93.6122511812633,84.86825621806865
65.63455131516953,89.15949841309559,98.61734496786912
65.07276408451706,80.66185983157617,102.53379489496321
54.01737182799021,67.44847166730852,97.49804866789873
37.13625392541041,49.60691803188498,85.46826894811107
19.69713226552838,28.244977082992843,68.31106282368908
6.50847532951288,5.1093330903815835,47.54390087880495
1.0387132662493719,18.157057279715538,24.9918152756801
4.870443417655865,40.551774738080354,3.195387696413288
17.54333157458996,61.65272814181655,15.37413357619954
36.76003184102187,81.04889195702884,29.29358413666549
58.90462503642131,97.72559829736261,38.38469030351005
79.77627812953257,109.92667541454921,43.540184754207324
95.42130917888126,115.69193324902398,46.27278143634489
102.8783690303509,113.76122881447347,48.051830051378936
100.66333051551857,104.24735836417955,49.41662576382143
88.92072734134747,88.62847182255288,49.41571617622135
69.22702128679764,69.0728805811218,46.57151827252258
44.15266688883242,47.56560592538381,40.33533662250788
16.75714770092565,25.422030756023908,31.420125277686978
9.863603544310111,3.468460968706063,21.5061424890273
32.94145001941382,17.30465705529409,12.902667059357997
50.3363677148905,35.1796447141837,7.338035367095314
60.785485161144045,47.78783762635825,4.742478474414329
64.06444563741195,52.920642531928465,3.7264437374970933
60.967086896195106,49.66139260327478,2.2777745812121344
53.03763085964159,39.17082207723427,1.626836768239941
42.10176948732973,24.585535250921122,8.737199760523183
29.763700315240374,9.983391851330017,18.047593912675755
17.112475246135272,1.1019308975892033,27.255074880048227
4.784036646829915,6.897650114427219,33.72662194551288
6.647652285181478,7.751081862675897,35.5157521885922
16.182578999266873,5.492602835031688,31.925229221285342
22.18731884067258,2.1965983889349725,23.988655770457925
22.672338828550544,0.9940262846663175,13.475263842781311
15.998498137794172,4.404571424304679,1.2248948588690869
1.726581993781478,9.489783342925154,12.238155113525595
18.84256318760742,17.838274344114257,25.37309833597165
42.73362256065256,30.06435069598685,35.793932638280324
66.54543016785034,45.16005404415016,41.647817081848
87.43573213606858,61.41581695027254,42.06599009993472
103.20757439940404,77.59023878353312,37.12319518282649
112.4868495619631,92.91286527255785,28.333071909277542
114.70092134159421,106.76011855616608,18.08288204426484
109.97818496083126,118.24146675138302,8.628682083232457
99.0662384706371,125.9806611840921,1.3845095983030125
83.3026675601537,128.28707825105963,3.3652777030670307
5.055652635290684,20.743001974258895,7.211791081793994
12.923561582537086,29.957442177183218,9.576631947437724
20.667895063022414,36.55694929288531,11.944685334186692
25.48809551883303,38.5612804566419,13.647991759986438
24.745424297211745,34.35354634777826,13.750460441616285
16.959982690304813,23.317480257166487,11.154784754248936
2.4872239638755334,6.393361213031933,4.984349052958054
16.409996664177807,13.951031593452626,4.812464787761016
36.075165761928915,34.26217970778075,17.077775985749998
52.367154424851485,51.18332115821344,29.89138321135091
61.61750707551328,62.42106412406143,41.14542659344302
61.33438941150597,66.86501451804702,48.8377459292472
50.553482543104614,64.1227917396266,51.55664781936099
30.097836586646288,55.05364260344089,48.66076813613002
2.6008881944408517,42.121527502146776,40.25685441406048
28.016723270760718,27.625739256694786,27.754785248851206
57.121448338804456,12.8351272267272,13.763169083994045
79.99244714598038,1.3429509549629042,0.7854741147321387
92.76332528337927,14.18664350738055,9.686865787707355
93.23655250491508,24.838276511580062,17.248863407364137
81.36567982798095,32.48938734903938,22.40539892270704
59.23569142908797,37.019506857385885,26.37585894518694
30.481851140092125,39.051284539719866,30.56208211919505
0.5174985487305518,39.72808981351344,35.84206257027642
29.469662859669953,39.974869757374805,42.647840315514905
52.80823148929384,39.82526179416549,51.11191445642092
68.10156201200182,38.41772313773741,60.31443593623421
74.30389653676683,34.52598574221127,68.11761921538078
71.82010294081148,27.50433401377193,71.95109927101721
62.36625944347642,17.883280778005954,69.29790857690693
48.52404881238815,7.252837376464165,58.75663307888269
33.03736418180418,2.47151075787576,40.94718685946059
18.111112679428636,10.02551558649422,17.62567799988722
4.988703646383865,15.328002084902637,8.614465377301748
5.970508181703009,19.322222682993342,33.7877515808239
14.770684798074765,23.231919619529748,53.704284287264535
21.179194160690184,27.70267944878257,66.07220895313735
24.473319320396133,32.3625520335347,71.09246241532489
23.76774934542208,35.940599093348716,70.42197779439358
18.77348911858203,36.82086358260056,66.30634563456503
10.482372287881436,33.66996594535437,61.326867782091874
1.243385764437949,25.81096480580461,57.62189081337881
