6.498670321918566,12.809781521481675,3.9488178524941335
5.72836994010134,12.896472286786667,2.3439684362979625
3.1756678047218516,10.022944370488931,0.19491739084097462
1.4745039621736045,3.9359109308812426,2.3520395351475942
8.076162440711176,5.027574547837874,5.120623994496407
15.877229700225323,15.927708565710693,7.80465490444317
23.566667511243836,27.284745001419825,10.046414975757319
29.53377240522564,37.25146733144631,11.520993745620313
32.25840379820283,43.84404469190973,11.971506847908808
30.676030093030448,45.27058260575546,11.228764731295742
24.388684682454866,40.289606891742885,9.262313643536952
13.708843212579314,28.486862831728846,6.285646158344471
0.39067518014320507,10.497791241935875,2.8107508177272096
16.364034100885792,11.675722987421048,0.5676395601474674
32.29175651970803,34.68023880809821,3.4705576170752006
46.15788542335683,54.61390985668765,5.67756015256623
56.053024081643166,67.97674729298566,7.066294241361736
60.388911656169036,72.38088048018678,7.703306354425732
58.18302736345059,67.07838254599122,7.690372751107857
49.288160868692785,53.01296346406538,7.023117403557414
34.49977190695739,32.51626213940729,5.68743950087971
15.463072348121164,8.802593623182217,3.8800211147500048
5.617988890201891,14.675991389029369,2.101219320173219
26.314853795971906,34.75678011897021,0.874820516601023
44.23135525478913,48.97410540098247,0.4594234072874675
57.16368704596364,55.81590716885428,0.805571103376509
63.23796916451266,54.82653750355637,1.6388651475235556
61.116853829227516,46.63809942474672,2.575677466781212
50.3257897508018,32.872740329731094,3.2199104892817765
31.63674970224826,15.922358380679533,3.3397800123253605
7.291544749915577,1.4249067684429229,3.0120793465966855
19.14304881677368,16.520476048664534,2.5799658421523404
43.34054962294289,27.387160367639936,2.4878335718462523
61.06884679396776,33.078679604889984,3.0547448245580684
69.0599943654408,33.74385607785694,4.330215800623044
65.6169778036114,30.353644224312454,6.069186645374802
50.841109631945415,24.218001668747,7.786816715167805
26.53085652005726,16.52222922077065,8.968949261395668
4.141702198452336,8.093837951701609,9.299496192763987
37.07104916557452,0.5373620780503502,8.613235803890765
67.73413023356031,8.917371659154373,6.696263195758752
91.79285259987586,16.479158776835593,3.318072320952622
105.77228448755938,22.546651915605132,1.5821233304943072
107.70914935229224,26.548056160200694,7.790019856134556
97.53935618147933,28.269611368294957,14.715417587189702
77.03818574981628,27.947833065410453,21.399551451934528
49.310493073087756,26.108198105979508,26.78547312753516
17.99199280921948,23.253977807405562,30.02806734599551
13.542301853221659,19.61781574083167,30.621755380595737
42.65889352427903,15.159522203758984,28.40548841904024
67.51676266280685,9.851862264967831,23.589456624401652
86.80473410562533,4.026910678745834,16.74592883613654
99.42921956136044,1.5213917088392244,8.622439377573784
104.41406327188736,5.793119610873166,0.09935733132103114
101.0985864571356,8.090774318153578,8.835218358094613
89.49846740184535,8.48157763589518,16.94711634572692
70.61581579941426,7.8756048521095945,23.68256871298818
46.50867271171074,7.601777352923412,28.284318064085536
20.03110270432629,8.705214619856566,30.179027356475817
5.633329929099601,11.394045932036855,29.138501948519004
27.454095812846187,14.973186560374488,25.32957816725508
42.93564937370346,18.296425467602592,19.30408081058684
50.36303052605629,20.453995830815646,11.95102279770591
49.00296768865795,21.261685249749693,4.312400599598819
39.31127797990947,21.233556031784325,2.6586529908657828
23.0771875387501,21.081342294605854,8.160878360271342
3.394147566132578,21.109857492843183,11.543806891286264
15.70951461743859,20.92162225622175,12.473136135587408
30.022689379304385,19.644709767471603,11.086893781717837
36.101425311357325,16.545364501629745,7.953274323475531
32.13749162413433,11.593735794381091,3.8843197429805403
18.45126383694735,5.580417195286989,0.24696238112443067
2.570505974842326,0.3030415356662288,3.575353165924854
27.037943926190344,5.1359883693863315,5.338695898999598
50.396471016131656,8.742857191759104,5.133254654164906
68.30362088298895,11.65724888713457,3.0863065465917083
77.3731202773475,14.593189491450552,0.2506003933333233
75.66763109594041,17.777636170718498,4.103643166004158
62.94510188070098,20.608210465345962,7.660006126084282
40.71946600047445,21.88104231892801,10.257057475889892
12.097149316512485,20.45058277946112,11.459487695264283
18.650293966883865,15.922785996124722,11.064074703278065
46.75511835271355,8.97020263086814,9.141495393646546
67.77911469979394,1.0822332983120841,6.004404610925924
78.40805985093873,6.059440975866424,2.1199147747069835
77.00616952687731,11.187854416000256,2.012594120157498
63.8046813345571,13.731897056692219,6.01155509177188
40.745728940401456,13.681034301376952,9.5763348380931
11.07964732882934,11.224722437302185,12.3664096359005
21.17285717327502,6.481275203104545,14.026918528937335
51.764498656041404,0.47898726246772627,14.238508450832407
76.74067593189217,9.337258182349323,12.810324406977626
92.92986947300126,19.208664972760346,9.870334694189465
98.32587224978457,28.560351824411363,5.832141814243112
92.28789209835905,35.45348470104163,1.1783438941590862
75.4849911706035,38.02975800889457,3.5918793426606426
49.61468449026871,35.02953453418438,8.023158666909861
17.065815712096704,26.149327848041533,11.793192814536999
19.31687391464974,12.171104735725956,14.639086821375663
56.27306469939288,5.110496922094168,16.328835747095383
90.05962682353078,23.08997374996242,16.651068481705998
116.53569673176722,38.65572414005333,15.386447122072965
131.6047537077017,48.64570633495557,12.450671369925981
132.05679302056168,50.455838549515065,8.020747105986278
116.59107307068277,42.69278121702984,2.588020048390658
86.56822047427046,25.686040015170835,3.0157863307785755
46.07327392941962,1.6381281494903333,7.874778025710517
1.1572113312156835,25.70507587085139,11.332836138002136
41.4895975685921,51.765413866405844,13.054342600581945
75.96503181421963,72.0120641984649,12.993178696256237
98.20007776177019,82.76998846431924,11.364581861588457
106.3427170563206,81.77176835191345,8.519627099193473
100.60323987359484,68.4499353385214,4.911268957037572
82.87490678923236,44.04143852359193,1.0760619677890564
56.38007145401915,11.518328589249897,2.5335080904328633
25.413579614146617,24.695706891439627,5.566246292932321
4.987520403593112,59.32473436391118,7.67704724105778
29.69631675879462,87.16759182209339,8.582555874168708
44.51676286517613,104.15331797029565,8.144437290310572
47.30214164352436,108.21878842299516,6.474694875961858
38.70979098022777,99.6869677200017,3.9874038279653203
22.16553979355216,80.9644516386424,1.2017923386734475
2.9071555178376376,55.7154984358479,1.4589444545145243
13.578019092573413,27.894657074477532,3.6749982101614305
23.127176838570215,0.9972823896582493,5.2055282339807185
23.902142084014816,22.26109678992909,5.904711444131174
16.48928764175476,39.903861715486755,5.744402933476424
3.2101078432290286,50.563287629641195,4.831161841786871
12.915469903361235,53.4850436780064,3.3819227948758623
29.053873416204482,48.71388511404022,1.7306249728028766
42.984470338300284,37.29592422607811,0.3143633039655044
53.09581906172716,21.25429359075002,0.4936449935589306
58.19263402984179,3.222609267129904,0.47498711030329765
57.38488597445269,14.14900493074184,0.45429586775455594
50.21241307758588,28.72039021999391,2.1931312202403688
36.92260531321545,39.07179973247714,4.430589149911548
18.677583746779145,44.34933378669204,6.696703418172832
2.4946473513767047,43.933505586727286,8.492231942890745
24.061595168667186,37.25145878463281,9.444007963383793
43.53505311148652,23.94270050353356,9.385624424044261
58.94717967849715,4.343803698191481,8.35915339073386
69.07300295037153,20.006922752265982,6.533490135307227
73.75118737778418,46.481080582426124,4.150956609628835
73.7054743045282,72.03215508762267,1.576310086305425
69.88891960128832,93.81356047210296,0.7580746044534631
63.19148243279002,109.65210051244009,2.4882728404898136
54.35892078994936,118.3480050622836,3.361361294141535
44.08360732458307,119.70388992475249,3.2656359015095937
33.12918982478881,114.32071704226918,2.3137412755605564
22.37438743933052,103.32350616907544,0.8491810745970398
11.69643387716845,15.56163970114938,2.8494415367202692
9.850243563310556,13.803269837827095,2.001390145057586
5.547041120088302,8.565224787628878,0.973654379938266
1.081965593140788,0.24054108224271697,0.19029598691742589
9.555360482068998,11.979689030092741,1.5466613010824464
19.12043670156396,25.236940875950282,3.079228022485939
28.815157925005888,37.94631168690826,4.72234615191143
37.46851708277297,47.73768115888798,6.423946511378974
43.67780348112652,52.4123892816268,8.134965085005845
45.87797590988543,50.45352230073493,9.75094137243169
42.56890103716084,41.39810012537524,10.993622171660295
32.73355393804489,25.97892262980385,11.45439297972494
16.381370126517975,6.110082468400212,10.800794887835501
5.043681279841998,15.229934699064033,8.80290701387054
28.748358044272845,34.53327713536331,5.324879860457937
51.20119504990797,48.70464211962653,0.5004808893987075
68.94051594337448,55.72847827757591,5.232370803047239
79.35175348273769,54.978669406186924,11.259401895886015
81.17807598881716,47.354553130841516,16.81049110625378
74.54736581825746,35.07113205711399,20.989754999431725
60.63975730891973,21.199357870534797,22.905361542114314
41.206822250654284,9.003328055459685,21.87908145152431
18.165961181015742,1.137135163475429,17.73742770592107
6.548013043199608,1.0126808006585601,10.936034284267784
30.938949485417947,2.326709380906669,2.4105696427738468
52.85215144306054,9.432273561485227,6.599874550196125
70.01377624331104,17.638814949262496,14.703184140524613
80.32940800897025,24.10740050020193,20.602812380917733
82.32108880348946,26.56024079705745,23.382387203909268
75.53582356699759,23.72807810026545,22.720664531735427
60.75308015990506,15.451865173677971,18.91168554729878
39.87972987417562,2.531951396916337,12.698526047653056
15.601719673306823,13.535910002211166,5.14311870219256
9.068708406567836,30.814580474105156,2.530463909921302
31.20946584341487,47.147419073568514,9.166391888757525
48.286777594662205,60.39817983853216,13.851812489513454
58.337921362557275,68.76790961777016,16.067671832365534
60.105722579373165,71.16546004304774,15.7258096326214
53.203089390589994,67.48954550544065,13.087245062404035
38.286867732930936,58.65333903677119,8.715834667264938
17.177660381865383,46.2959237166109,3.4555404546022395
7.165274589358948,32.255676238079225,1.666277664685688
30.926529847666554,17.996662367435825,5.712450918647628
49.98208053091942,4.255959089374381,8.091372939238326
60.65585315952703,8.931935832397276,8.621403065275498
60.541377322956194,21.87320171234843,7.5748895923820605
49.13703449485916,34.703610042043294,5.550126241654267
28.089874665766903,46.991750615730744,3.114801129208435
0.9287068479619041,57.64874227597888,0.6298576825782941
27.67977291769808,65.17483708872058,1.65883345795579
52.938108018019356,68.12658775283876,3.5112684988232292
70.90305827530472,65.60296946857878,4.772339119759874
79.16725421279847,57.56080859194843,5.510675628702753
77.07552015054486,44.85828085166675,5.969569880872274
65.52499975965156,29.040119180992964,6.409607334782099
46.554479933082526,11.976755767038409,6.99488182666514
22.917533076377065,4.500957435102193,7.7891663740585235
2.2555339990147734,18.867287369482696,8.75577785334136
25.717429814875427,30.013689078901184,9.678037674190822
44.41599788666959,37.206281584040255,10.128786609465278
55.928770054070384,39.977630773526215,9.528850448585306
58.93724177607368,38.092269071992035,7.33684352784348
53.56866779780513,31.6537144200115,3.312213014222006
41.41150416788992,21.325599679630656,2.3408219238844907
25.11475863315104,8.551105244384216,8.93107891125286
7.692623980219952,4.427574917659474,15.41450175000598
8.17073578541457,14.896189285448346,20.77489670902447
20.5593059220716,20.320678630639787,24.29361067094852
28.41201821792369,19.130066811009534,25.57739870964702
31.327986269982404,11.29050155314494,24.543605081233466
29.31150668767876,1.6237702984988394,21.344402208936565
22.64972266680358,16.916034891602486,16.32662219518882
11.963373591166317,31.606983064254536,10.044872968219293
1.660001632654685,43.23239020762919,3.115956603399683
16.63418216279643,50.252852671081165,3.8862543580523043
31.049524991079053,51.9796184833514,10.36334207520575
43.00451632144056,48.183760882057356,15.669890632180184
50.94982744590257,38.751863966353255,19.177733943831853
53.87759943451721,23.698295391002105,20.45725215930478
51.3241694909387,3.5794372302963278,19.445550012540327
43.29362006610293,19.97388110911391,16.393786749407298
30.216512378376418,44.04449394068355,11.76925516757585
13.010289692545332,64.82092802217329,6.174141443792411
6.802504434521224,78.5706700517157,0.2517534848231728
27.086347471235566,82.79862772384945,5.307831359476998
45.35304645632782,77.04532012432045,9.833521038581459
59.257378148001926,62.958993190734176,12.916055225707622
67.1396215372636,43.5949635503462,14.499881011431214
68.39496912808178,22.31385800542681,14.660998879113777
63.50360890653715,1.8320737762328103,13.408004501822067
53.74805274073582,16.198881340117737,10.754290335975616
40.79487674504851,31.01005841757179,6.858840364369489
26.337406847712824,42.20146697303175,2.0932151725736348
11.919237023133222,49.31621120279163,2.944164528450008
1.1191753583074269,51.78287437421323,7.589984844905484
11.707552251581745,49.24400609756894,11.382310478600898
19.20365123857084,42.01721298433823,14.166811461359355
23.617556612180394,31.335033207464633,16.028363638545862
25.73867773848769,19.151334260979,17.167432572151387
26.99049447800254,7.586633277416963,17.777367510359504
28.996001887640457,1.6976179499340887,17.920696290317462
32.99990064406285,7.8830922346119525,17.485983718716902
39.39857348773313,10.95968809598426,16.26529889639004
47.59726280958944,11.359741399037603,14.011869166033039
56.2440620552705,9.543373206769648,10.544747534094968
63.68019291036157,5.816300626449157,6.007321384366015
68.33742281745371,0.5136042506351169,1.0059605512440621
68.90301983373499,5.605543477574539,3.656329717192698
64.26622877165516,11.084680739089965,7.3932000360658146
53.4409129636229,13.886746671258537,9.92926162556156
35.670903152804314,11.984283164643756,11.191396094143244
10.793610893181727,4.223600654914544,11.26481487978893
20.239408877954272,8.962542947824168,10.380864809163358
55.00133954401454,25.388218759291696,8.925691519812885
89.69015335704437,41.629574850041536,7.3841565771543785
119.74839633434986,54.031635232704915,6.239957527732874
140.83765148464207,59.77379398596029,5.954683226661487
149.81543335894816,57.5449822580365,6.874213062947924
145.35242787591253,47.61639742650527,9.079235024248197
128.0284577890764,31.414538549232958,12.436268804259706
99.96934225547659,10.919423302266814,16.66334175236907
64.27329831358021,11.765214203606275,21.19747626447549
24.506299620841823,34.51726317013032,25.22031834146221
15.615451283102805,55.08854717076808,27.870520489360413
52.406308879701605,71.07168157780097,28.377823748962484
82.40933607080206,80.18363108743351,26.24923168785286
102.7542613044352,80.84500832844783,21.393002741645308
111.65041177457019,72.78140550620977,14.043347343853139
108.82955266694688,57.279973426001085,4.673959291698581
95.72827380353367,36.86887108319795,6.056321064145176
75.25654818933684,14.51714779179659,17.299906655298503
51.155618346600356,7.264892253892094,28.06710938498403
27.18118299674482,26.972222747095806,37.36433356395869
6.405769883283896,44.04258034068024,44.22679207712739
9.15853305827583,58.29483502097542,47.79220343819018
18.55727865709486,69.25958051777792,47.50779095820331
21.664496508014658,75.85978798175384,43.243350900530004
18.948490135109793,76.67289979779838,35.332256895438015
11.381202787189947,70.62543522810702,24.6371887121633
0.5100350939331383,57.72680377430142,12.407063633249734
11.480805042093545,39.418967624804175,0.10688346194993599
21.933796206590767,18.325744337583757,11.817569454976963
28.783790953992618,2.5973267907192152,21.743527225327128
31.03621761886691,20.90965078463409,29.142600347372603
28.433850217752436,35.088295367933696,33.618760541150294
21.553708769918302,44.5762953891289,35.078272829021195
11.700544744279899,49.51210746925683,33.76192718169544
0.6118981064014763,50.36681663226596,30.23645890791028
9.934823361271189,47.71046305753441,25.307296363023823
18.474424263487297,42.18038866365427,19.87154169875131
8.733544647612954,12.428373762882735,3.040381319026776
1.5619811163343313,8.221586823624444,4.64271051313993
7.895420947068813,0.9406351421547494,5.878782718409584
18.98199474122483,8.968302744438608,6.4364669517521
30.80238430571583,20.385974953141034,6.107984185683105
42.15276702779084,31.675743569969608,4.821108643200301
51.46995218259182,41.00606449657146,2.6684442195503335
56.848235170496075,46.71224828209802,0.10044301252438376
56.26899520053836,47.621713081632286,3.1433665671177273
47.94211695404103,43.200664617693235,6.127608273438601
30.79440408812685,33.53392461388199,8.729965348612282
5.157822284361534,19.298562162960888,10.599994037828393
26.604917788546697,1.800434514527743,11.455656391474239
60.41733138019075,17.259443289079304,11.276803296475462
91.54389337698365,36.13946290352462,10.390350592392945
115.16281694219673,52.98602320463137,9.328498025271918
126.96130365493323,65.81725125332784,8.633591341562534
124.01054287828667,72.85779866524727,8.628119407239586
105.27046864843068,72.88921811161445,9.158591800212458
71.96979323651281,65.63239736090536,9.614973680452842
27.616223954435334,51.91866149039969,9.172645034045365
22.499908119682896,33.49843577841135,7.082833409854822
72.01514127981638,12.63414077718581,2.9809952123771497
114.46702984971834,8.413051862955509,2.9813294223253206
144.25290115431605,27.711636606158336,10.207133877083425
157.4818018018106,43.74442533721024,17.84223457548218
152.624970292306,55.334611236693334,24.98054389930773
130.74880790178602,61.53105330042037,30.737400621672645
95.36112285576246,61.66056910323655,34.30651318796342
51.77033386315478,55.55544822416129,35.08176884813518
6.082827138832191,43.85145092037327,32.7029322473091
35.89022979704094,28.14311965452333,27.067447187494928
69.60394491827199,10.80805352776548,18.49189270773931
92.33371110496793,5.471257833264873,7.9103983432773735
103.22269358723864,18.328821192491304,3.244472761773905
102.94048035207172,26.23911208138873,13.471984112518376
93.17193403216123,28.74101240515898,21.62410775720423
76.1642506681774,26.310593125131195,27.14153161038848
54.437315489641065,20.029077499175823,29.982436380362753
30.652717308571248,11.258454262572647,30.380212329032314
7.518822330666259,1.4437777182643368,28.70846931535601
12.386242918123022,7.934106001619116,25.335578542930953
26.88213101886957,15.358371634584824,20.51409974085188
34.468895638423035,19.365177640633622,14.539121778997762
34.51373989771362,18.770691203227432,7.941378044167434
27.316954691470187,12.984366954947527,1.4641991588546919
14.101916382649677,2.2839354709191144,4.129816052048726
3.0390127955905086,12.06073294065118,8.264145876622804
21.24182421271029,27.887811163118727,10.607822224493349
37.103540591725796,42.47132615189988,11.104421096755177
47.15155843897711,53.00273208913597,10.044038082149507
48.535301405432534,57.13737897979081,7.95809753862608
39.8229309178771,53.52306891392021,5.331724123421311
21.634370794915704,42.207447664162096,2.4566693426744717
3.2208556986036707,24.77657306296956,0.4191038494335966
30.24749597233311,4.103346968881531,2.9275006744709713
54.3100466064267,16.287496597711847,4.595733561697727
70.89169593844152,33.09180822003988,4.996009484155738
77.13569936189815,44.05648649998067,3.99785355111073
72.3652902669657,48.43835925751087,1.855605444901947
58.007351320637135,46.92961689167316,0.9180143871754822
37.06589756343864,41.14664672879823,3.7309502100556275
13.394366974743342,32.962754905758665,6.21502788682252
9.006925555740347,24.02468044259197,8.34785602792407
26.549765408041246,15.645473387367199,10.213940701379295
36.47824948474723,8.979899718634368,11.873753274576556
37.19070708290738,5.183977463919069,13.37088084883203
28.480905275057115,5.3030772668469845,14.553510860460362
11.634013723958564,9.861870002241757,14.934920817310955
10.713333080588738,18.37895831912312,13.859843919566895
34.97079850909418,29.171415441064255,10.812087193990969
57.205753677969824,39.69778351550865,5.715522434873189
73.81842127397093,47.35940417633814,0.8992949743426953
82.09139830726465,50.35841748076986,8.054023604430325
80.48375943574875,48.12545108049636,14.685455895423924
68.63159201700586,41.09213103148591,19.882859620078225
47.15941047924688,29.98283663684676,22.92860455133327
17.476433719704772,15.106441151398629,23.315847286631048
18.320799630825427,3.8299858280043013,20.833773478338458
57.431764049432545,27.219949020029564,15.65757277506563
96.32692269830386,54.65809150251353,8.405823229525934
130.86104457086455,84.18671766927955,0.16356787114736607
156.64665598137836,112.22398895749025,7.664178845952234
169.69719161520513,134.31896416044196,13.728300182878561
167.1914950598138,146.3842589231839,17.01013548437303
148.130583104524,145.82376429142192,16.896583419255006
113.67808102186902,132.05960105210545,13.432841181985602
67.07931520707045,106.35311073702357,7.540514465452566
13.187816719138878,71.20348903808222,0.7316546264804936
42.252425827756674,29.753830413481147,5.41340502376314
93.38296775250717,14.493214870057507,9.690466625840752
134.94165148305476,57.69587753529839,11.615271642965245
162.83448947358136,95.7268190819934,11.41807794053929
174.55032805958328,124.54611212051998,9.594504760758225
169.40828227790735,140.93644771476968,6.577254310617267
148.57535577258832,143.31236558197955,2.7843936795764908
114.83149405121489,132.18762587816508,1.3295066258485797
72.11742128126019,110.02194302578873,5.253500836292408
24.96322137050894,80.4855127533698,8.463467732559712
22.045412590192697,47.496951185007,10.603694150916228
64.64861988926152,14.468266936753686,11.573284361389002
99.1237663145469,15.98046965763538,11.527017692062406
122.42840004647793,41.89505170395592,10.786533812950013
132.4107881506207,61.75103154702548,9.640978629894027
128.13063088718553,74.37804144981789,8.265331249855366
110.2091634135575,79.13904277428863,6.661358024075929
81.02299281578236,76.22320044702505,4.559424256684477
44.55172659409081,66.76002244526583,1.6113250989049963
5.816835854555255,52.59185943406599,2.281762926582325
29.982898623777785,35.7750652790004,6.9286815277059235
58.396347085651136,18.062561030864877,11.880446331284617
76.42249322966263,0.647995492518334,16.409020173364524
82.82610174233207,15.731743037288345,19.734910969614436
78.079919384714,30.45413414527034,21.31854636076992
64.05540569733677,42.701985738093356,20.915265638749343
43.59835809201973,51.43147913050647,18.518801898612633
20.074742490491605,55.65205191614187,14.280386616143852
3.0901430972692787,54.86625868790158,8.518289023654745
22.873125210202733,49.40887282254996,1.829882556261853
37.06234516006691,40.47322754730537,4.921653946362857
44.51914679246931,29.79787929865712,10.712835236114424
45.21504964254886,19.158289933570877,14.59690154061061
40.042787717999786,9.893003153303114,16.129002158796098
30.48456776626406,2.639909251945763,15.513403586325873
18.25717641622946,2.6670275152015157,13.383491897518814
5.043335502423872,6.600783035933726,10.580164230723442
7.656294886545943,9.973204629437943,7.925636828125581
18.618942868631294,13.595141399146113,6.043500958195891
27.012516745791615,18.088366693123152,5.293518040599277
32.513478839297,23.747941389152324,5.69396927654591
35.360626474028315,30.444079775504783,6.893242126133379
36.24658707708634,37.55571021886556,8.263115865232411
36.03005505951581,43.97980727036077,9.126668336369093
35.37592167046079,48.265672159409135,8.9983008414904
34.483889128604744,48.86401960463775,7.632942855913543
33.07924668795875,44.46265335963635,4.980974092125501
30.677440402190506,34.3579678143619,1.1904691848541438
26.940220731489067,18.75474633108029,3.396596219750174
21.904133138020807,1.098671075829008,8.303776735771839
15.911369247556024,22.989439124191048,12.94136396863558
9.284191801463269,44.045566516367664,16.66449362031772
1.9855083270103218,61.19833993895558,19.016947258866242
6.084760636648505,72.18790628446264,19.94451102499735
14.749198840961018,76.07463241060863,19.70687608940416
23.539958683512975,73.00463574782883,18.665774503949184
31.58286018654267,64.10880470208491,17.167896757951905
37.71848571186115,51.21545205494203,15.511180905430116
40.85557572853802,36.454465259650576,13.884622786838383
40.405773565959976,21.862931981022204,12.296341739615354
36.57707254947474,9.08882880412528,10.638382759051593
21.305116697383617,30.46997535324127,7.119966175323412
16.389291613464316,35.530779485064855,8.190245511426028
6.673000381170179,35.20649603164666,8.295250664391459
7.091009113811776,27.69557541393973,7.20022157734926
23.219228334679485,12.404242310144634,4.851245398753445
39.41858088274898,9.77326914420087,1.4623528200779254
53.25745086927435,36.47871270760452,2.6074141415694796
62.62805587754764,64.19495499228607,6.927031545227535
66.05545453129099,88.6875216003878,11.016964994014824
62.798593038193566,105.59681476915873,14.46808089969269
52.78577550715964,111.11668216020045,16.946831676946005
36.54151802782713,102.66397775334192,18.140285009306854
15.270368252658841,79.5545662192152,17.7964385504186
9.060755535071658,43.764800504768104,15.843430170554436
33.96620487591224,0.1446146199740983,12.576608207849205
56.864749778378,44.600845561546905,8.625125068242408
75.4142826576539,83.47102446529982,4.627944519835598
87.78989487469025,110.72378081433739,1.0551556735340093
92.84765886873991,123.188497561237,1.7422116563527281
90.13722942160355,120.6441465066473,3.544460088881161
79.84345621640892,105.3271575835713,4.354777081960678
62.68819257932721,80.93050439302239,4.415592500365437
39.887486295796414,51.466570201724984,4.152095349707964
13.18942683319619,20.578362389805836,4.008983852685985
15.089385851977864,8.649451535967325,4.263013125926896
42.11587464290521,33.57686717012229,5.054826059523984
64.80137970945341,51.9317594246618,6.478501384023948
80.27501241210622,62.06151724814848,8.608221888117768
86.44364539533053,63.367526756357115,11.50110076734563
82.48125174357651,56.62453479643152,15.034879234281911
69.07129454985075,43.861148998970144,18.82992741344754
48.328156553813024,27.728506967944675,22.390466294668
23.442192772355995,10.647607541785145,25.15730369560481
1.851317553779612,5.818574429158797,26.55500407785685
23.841428705640947,20.992355330054963,26.133802195761653
39.36774118024098,34.525338293208236,23.658555727913324
46.289449234435935,45.660794255229156,19.203323937347268
43.86242703302921,52.87196121929848,13.171200458389075
32.94639360782275,54.22315802747562,6.117960074476939
15.962149867870906,48.305267718209265,1.4512698234301478
3.4584667916679668,35.22119753669261,9.181052905908388
21.129063541490872,17.006252956808588,16.763750395200276
33.134549867152366,2.843632030585633,23.777065253697653
36.61356699821283,20.55313736491296,29.77930680951848
30.32299143226621,33.366942006720016,34.44170717039149
14.859680863532821,40.317851585727645,37.51080360391171
7.465177453883371,42.15303198201155,38.82450639256412
33.00867774936179,40.57847643542691,38.23631209851495
57.3712500903087,37.347175099363234,35.48511265931332
76.07405979949105,33.70703462769643,30.394793705502
85.26188094202328,30.386921494345845,23.072298762998084
82.38276339407703,27.94067080550513,13.846758078062285
66.71478859891624,27.03058440375698,3.2750964971272376
39.62269632539355,28.32612484278278,7.7800351763390285
4.465439311969249,32.01417585158775,18.215451432459822
33.885798093374476,37.235593445391736,26.881692173285224
69.83525564462661,41.91405959041103,32.82086571151504
98.0033955017961,43.210013182685714,35.48059714658405
114.15088047318149,38.480546630708595,34.78900590723289
115.92234982338483,26.346356326711778,31.097093632088384
103.26283469845782,7.336351064489334,24.959423774927064
78.40089176939661,16.193019344618634,16.928113605691635
45.392156459696274,40.805782696923785,7.765191689501191
9.312083078934235,63.039956101302636,1.455803103944906
24.709724108837975,80.28182163064679,9.70679383673875
52.36109234920879,91.14652547965719,16.12198357781177
70.72354139948146,95.32746351754682,20.046392598083315
78.4616461718147,93.14691921223897,21.25796870161871
75.68604492256085,85.13959178688016,19.894293610260345
63.65855516766071,71.89038386881327,16.389698661031293
44.48812239817154,54.158695911522514,11.550671923394896
20.8897046163282,33.095825063712844,6.319021414248704
4.038009593443753,10.313306452737628,1.441467738907493
27.128648813029745,12.32711758240979,2.6536024652426518
45.58471092997177,33.14326395388366,5.8926499040806375
57.43127120788321,51.029161864053265,8.462660413566354
61.804294888527444,65.60101999809983,10.591096577844176
58.9126394865049,76.97518391494314,12.472759718807099
49.65873719571198,85.24228301636377,14.23738352586871
35.108128236631075,89.96294728230825,15.81946990982063
16.118125871863796,89.99839846830098,16.94252416971319
6.645437227303992,83.83394585372822,17.17094806030105
32.296680298030445,70.31204850881448,16.06779397772653
59.17830355836571,49.4275246124463,13.446945409828722
84.55837361293557,22.80266784943947,9.360117183616033
104.84965446749455,6.415837226963017,3.9840001583424858
116.36879613763193,34.22266488962026,2.3155580178775788
116.35171448622378,56.69924712952724,8.94999370357847
103.77491202727673,70.88598499389406,15.190780895395465
79.65279928705401,75.30478038106735,20.250975136034285
46.739140636988004,70.06967910419854,23.437923287008182
8.825562592966238,56.69940585855656,24.329211282701177
30.000240571600777,37.78424058752992,22.79384876593598
65.86078558697301,16.616155501627606,19.080345358126472
95.31113785702928,3.2228087380836725,13.848827573119154
115.41852943566442,18.358185262343014,7.929123156666453
123.92951267874581,26.206128401842967,2.1879136502425114
119.65785265553215,25.547916144409403,2.609495901189803
103.00193829068151,16.876604207599907,6.042996218581777
76.31212865850105,2.3352292845723372,8.02796686527567
43.81485024825856,14.766255723365196,8.692831818741944
10.950517012481622,30.71699484023181,8.304563936668211
16.771147870608672,42.20565334056442,7.1702951007741325
35.017355870696555,46.916864008638804,5.542117808748457
41.53226636131974,43.81049532672689,3.5781238668689057
36.42722964956656,33.12505798512273,1.3754458816297268
21.85775383637569,16.221447548427392,0.9861160393302861
1.3257866178226925,4.658314187954111,3.348041652913813
21.04874988998948,26.701416519704743,5.370952948473174
41.05183147973417,46.92206260433037,6.606255465207582
54.689209179558596,62.63179239100959,6.6698448386025015
58.46580999917983,71.87217930831856,5.343002667074781
49.84475587079681,73.66414025599714,2.5902144168254635
27.941198583080773,67.980423866105,1.3976170439566042
5.769137841458937,55.481092586304385,6.168343400312958
47.12718994078174,37.198274718730076,11.078677462863116
89.70686692225343,14.36875813401906,15.455223920591326
126.03820963846293,11.49728369239672,18.826096038705096
149.31386876060003,38.393702356121175,21.01727093618205
155.0026690853786,63.67715208513226,21.997406232232247
141.83739912192203,84.22119805867695,21.72615911208504
111.88905348146271,96.91859629761804,20.111263019002287
69.82783235138325,99.39333883743559,16.985608953821327
21.793264840583863,90.63616374600082,12.203403426439074
25.729702699174638,71.3006300598993,5.856630664714779
66.79422286036511,43.569675005647156,1.647568196811054
96.5962689327911,10.707469933797794,9.657556348750951
111.94200950717529,23.49214745648402,17.416189822694417
111.64405278071241,55.19490868938004,24.2287316423642
96.76742566049893,80.88741770991278,29.450998797543914
70.57493798811356,97.6825640248742,32.5012289599262
38.00368677190163,103.67514264512229,33.08300483945898
4.707679614280315,98.34310034337528,31.26077328101312
24.053143684028527,82.8466682840174,27.30839497043746
44.32774841651055,59.99778816644296,21.55830135743112
53.92308880864519,33.7808135168012,14.431556729460706
52.36982088236961,8.50203053724329,6.554898393901671
40.60364472494146,12.176339616754262,1.3550888232450407
20.609886616698727,25.980174945047224,8.668577003516035
4.818892893343756,32.31279477905885,14.831577345457564
32.256864282535226,32.058019341457396,19.46005215502244
57.89334202679211,27.07396569010827,22.50887406936632
78.56515807316107,19.425968741202613,24.21549630766643
92.24980616851812,10.924899131401293,24.881231696038373
97.81740783060945,3.073247770119066,24.724279401487898
95.22296211941536,3.0234530746358055,23.853410258619302
85.50579776527366,6.698956340113326,22.31301271496412
70.5648683705231,7.756385582287545,20.18962885131067
52.77196127341354,6.485636938475003,17.5912250407176
34.539592306088004,3.617662916466018,14.590501509713757
11.77382310135362,4.3250294918853625,2.5235974680496778
9.893858496727168,5.32648438102029,1.8239160974273416
5.104855907360797,4.969894269315765,0.9156646263685279
2.8540300884219416,2.9027885967255753,0.13557054593323983
13.518660320085937,0.8397533911073247,1.3377752036919095
25.627720417612696,5.812416502837536,2.653589457914947
37.29466120896205,11.236046055818877,3.958328712756145
46.35638879679132,16.159646701877115,5.111641456918033
50.82395645121615,19.626787557948543,6.002535678927791
49.274063966481734,20.83001432726387,6.59914378010048
41.11136780924304,19.204684806654964,6.923643506787284
26.73422401647193,14.429546162394283,6.948778343864017
7.574107414792131,6.398518676224734,6.589035697196597
14.232310401722996,4.619459045486766,5.711466969935254
36.39193108195678,17.779644829468225,4.123718600471561
56.71082375935363,31.78501149818935,1.7128041863509105
73.20913269418861,45.08532766324804,1.3642523235296071
84.27447278856967,56.03669257917866,4.694506588384133
88.71690516065196,63.14944587693154,7.735180580455326
85.854591807963,65.22714422355918,9.925456858806411
75.57759300772106,61.43060320178796,10.820900924547171
58.36420861004861,51.313528767899655,10.23611038808229
35.31944931533812,34.812680263712,8.369627755007743
8.138870775791935,12.335042469455301,5.701913497016032
20.97006737188881,15.09676940173246,2.6860558521485376
49.46671488357712,45.678500377519036,0.3131611394398802
74.77177429702081,76.71949943228003,2.909623230011689
94.56010794591324,104.76173387801039,4.707962351212891
107.0334673383348,125.95264600082369,5.3519361387231505
111.08857955675761,136.6677702957949,4.689189648977975
106.35894035963442,134.2490800357568,2.917593886398315
93.20794579387565,117.65600670490032,0.4890143927222424
72.70913906250983,87.87969928597776,1.969238536224125
46.62367597826714,47.987048010292085,3.75263023275589
17.303370354613783,2.7812294112479274,4.299760556648887
12.550580254527329,41.8616355876604,3.2906850623332455
40.262333688831255,79.90107223815689,0.7658019184253053
63.599500628141094,106.15137396284405,2.7387710629974955
81.07938244001535,117.25657682338718,6.409015870688418
92.05053614145402,112.42745735671305,9.497065434693688
96.52565554496302,93.73403140884197,11.471312814163879
94.88509686079267,65.80359810034304,12.072950253366495
87.64622526591207,34.89191575822201,11.25372908851334
75.3942507734296,7.515902782555728,9.006814000287818
58.87539171459511,10.994507228932676,5.332920530340652
39.13441538936729,17.649986265455706,0.3749313608231451
17.537297870692562,12.356894931101937,5.479626342187001
4.366906126678143,2.2390175083947867,11.594009800711826
25.09497227547704,21.51870884044126,17.218946748782358
43.461143661697854,40.02718759806921,21.674804189023046
58.69098340121006,52.6823268625406,24.36462668709886
70.39896667507908,55.81570724691339,24.90358934583738
78.45719546465936,47.891628521203685,23.370864434167018
82.85831522313363,29.80650735187742,20.23072025045338
83.6365446143769,4.708489883769494,16.02518432998381
80.78734392180478,22.67417356335785,11.120387670834077
74.15142807825701,47.085097041914096,5.672580161811189
63.336941134194696,63.939470099105606,0.2898655748666112
47.77402372470078,70.35569955110176,6.828605424035487
26.984893719469273,65.73812636801622,13.866907614100617
1.0676086956120185,51.772095028305706,20.95041365539829
28.79716670538522,31.849742488022564,27.338339509086275
60.084867429902474,10.15126543995562,32.31270097671797
89.13564714720493,9.311297835279271,35.412288840356844
111.86885754406893,23.472600426754887,36.39586045594456
124.74322535431348,30.688872008629012,35.210691909486385
125.6140255013893,30.879263207827247,31.980307401335732
114.2008686404477,25.36576725454355,26.879916628416655
92.0261646225679,16.43035739070759,20.146704303390166
61.968954941080504,6.654303994043703,12.083245940539479
27.685012472812648,1.8099810913027705,3.122777770171915
6.9416534527740845,7.8405774349028245,5.9608935392764435
38.24382802854474,11.595062695686584,14.228784270804457
63.147639183973844,14.277389971792283,21.017987620379607
79.54181059748777,17.517278226273742,26.04511360211941
86.6060261720308,22.632332954720166,29.202254506657173
84.92980909584665,30.116668300773583,30.5431640888792
76.28612627031475,39.56883595294226,30.425419482421155
63.08161101896972,49.9879749535809,29.328536664219392
47.659403182975595,60.1592419181604,27.545525189108858
31.77632847684126,68.8210625785385,25.154062626426036
16.467729755873023,74.51149288089749,22.12351980265604
2.3063284882712543,75.3094138881541,18.33570035496966
10.122609644255462,68.8659726802451,13.673253846008295
19.903550031121114,53.018326320151466,8.23673710148428
25.83777758421407,26.913399895986732,2.367920254251592
26.78764137193268,7.866588094974349,3.438882159909159
22.156977684414297,46.8903657316084,8.6007599579488
12.25000987843106,83.63075085979536,12.653376214208247
1.663742041153607,111.26533339862561,15.373761262613908
17.546626113811957,124.83184431461788,16.700167362684944
32.931482167301056,122.7600101457514,16.69008418363758
45.27007135461914,107.07945646428605,15.575522887999368
52.25215742353318,82.29267841999956,13.757513155471834
52.13901373029936,53.567951714561765,11.672652837954862
44.13189833004553,25.20155763530782,9.694881231101277
28.706907440482304,0.027081578371312247,8.079142312022492
7.747871593384806,20.21394399290999,6.9144954747893275
15.68638136563506,34.15080983069604,6.179091389825918
38.010932309755404,40.47954285772948,5.790578684062948
56.02365070779631,38.436025399578526,5.5626629605779625
67.75430553108257,28.749299968893315,5.243324112217915
72.93089795136586,14.288969183899418,4.6802934722542835
72.85210783600256,0.3195196921329754,3.873947927663289
69.73387088432665,10.238628544703413,2.937716388079978
65.82366068083861,12.476939237868066,2.1138793264814684
62.60542017417351,7.356106270887365,1.680142711716434
60.38979408557242,1.4691369246103496,1.7362421745213743
58.397887917564155,8.539945804829326,2.1183393051713937
55.22014378080882,8.954621012632641,2.5212336557327486
49.43468322674222,0.37341142415492723,2.6581695397216802
40.13389787880675,16.25964554135935,2.29107295404002
27.189739134592163,37.431375773487204,1.264638365732319
11.21092003797357,58.60319681235296,0.41905147612433236
6.740049289733714,75.63973692459764,2.6721694986785107
25.487687604299694,85.46404235243797,5.342653612125902
44.001730530306155,85.93779315579951,8.108502663537843
61.50570312607965,75.49303907203942,10.596031261854622
77.42206834108426,53.09962744895127,12.571064264602976
91.27086631265944,18.78988239088275,13.891515062624093
102.63320673719575,25.57568349597113,14.43346627440813
111.18756634219093,75.92681262697054,14.109387123633487
116.78359170466067,126.4252096701301,12.93552548787055
119.44811845253724,170.68056099463172,11.094092004510799
119.20095910745984,203.20235147990587,8.812227698157518
115.6966936818308,220.40811004514853,6.215689417537631
107.8836753881665,220.83750370521017,3.3575549676454113
93.93845879072849,204.72071550919733,0.29258104744345365
71.67160279043146,173.38416306534626,2.8499693334974174
39.402697010360455,128.94378072180677,5.828115167257377
2.9706525746857735,74.38395509463743,8.358475924521793
53.151839651440746,13.749533850606305,10.186942698067034
106.2932139751871,47.94941282807618,11.050394748767733
155.70073599792255,105.3293257248512,10.725579690361295
194.20813298646877,153.52630353067897,9.225529817875831
215.78024598121053,188.94320398763506,6.830552553844719
216.84327985845914,209.52885108269143,3.9666901022512406
196.92832978106222,214.58539145203997,1.1569364779294309
158.54361967836263,204.40322611041026,1.0804180746463254
106.502186921337,180.11063563615116,2.4783443494440984
47.01237784687002,143.8771491054027,3.051637265975666
13.164268039367663,99.24264674867965,2.8326034088725303
67.68266359820848,50.89384927252808,1.8951626730244377
111.17974694550384,3.977579692573708,0.51188672110853
139.58362216067255,36.652214868867006,0.9452150162241717
150.7939864749889,67.3198133633482,2.1744746025618404
145.19276061480298,86.22388635989779,3.028199643775238
125.71312960070995,93.60473616768162,3.478974316245111
97.30521119695327,91.32398155044544,3.5868096884444416
65.85794834384033,82.09027956637937,3.4395473388297457
3.5395827595581295,8.519468711431587,6.276405405938617
5.322030664940407,8.765366004407193,4.848219235981823
6.72431241923717,6.179482223540156,1.3953007088264273
7.4370678490823625,0.8445479473055901,3.8251980841026727
7.094562102085792,6.19648012950302,10.13963467673215
5.297226260736059,13.257705232326314,16.556860214021686
1.765348912416258,18.520434137885502,21.867353355623013
3.443722289449832,20.53492995163722,24.890456863287696
9.751187914368373,18.571970942805525,24.749077452020423
16.076501164364583,12.781505941797962,21.066429875277365
21.08939084884106,4.192794507700385,14.098359345200706
23.552083585726304,5.453066293493956,4.665558127153447
22.629851678337328,14.048417499190489,6.098953861597295
18.237956281071302,19.525473960631917,16.880055845604044
11.190187561103237,20.208091573497942,26.277268399187996
2.825462471870901,15.26144117218408,32.96683618441094
5.453056943611428,5.275285348032301,35.91631181613855
12.444892113126485,7.465709431464045,34.74103951222556
17.329170736645906,19.361375899853428,29.86597590127828
19.66535182652847,26.46402502688846,22.395804950562194
19.412983919345546,25.73729361790403,13.839170540656363
17.058199191429853,16.08848188794972,5.615846322604388
13.67770279990224,1.227714843459409,1.2939229034900575
10.854403501120933,22.90308413334189,6.35008387874488
10.279228105073402,44.37333529737359,9.39834612785217
13.116793565282684,60.781423239043214,10.702527879540137
19.439431747620333,67.87134059716257,10.920997423842241
28.016166143377735,62.737094589302146,10.838471039003453
36.647977576503145,44.42916355951554,10.975272931559887
42.907349698943285,14.381876774783908,11.340105288520823
44.91224353545809,23.498068754522354,11.6104517303211
41.76213494077815,63.26558105056773,11.551530097897976
33.46400112831508,97.97540737941975,11.079261698116827
20.503684889431007,121.13389110114908,10.186013093125851
3.3973188395459206,128.1111811087101,8.967318008444876
17.483530285744386,117.06456431351566,7.577744573236804
41.708093233667114,89.10110534659545,6.250803430957675
68.35122298984977,47.739698462243744,5.201377828258253
95.67307071048727,1.9753309166582746,4.439107130637891
121.12345910845016,54.33783578850447,3.8671473324459944
141.6002386164187,103.59869925125675,3.4369252131715973
153.83809876941206,144.36962915780825,3.1452575681699124
154.77431593857176,171.9988270060636,2.994236167791971
141.8296950690678,183.0244245936144,2.98043906006212
113.28085626716201,175.65119153692808,3.0179773410908033
68.86626103082868,150.07309444585604,2.811828963810553
10.529703529386175,108.47309334458721,1.9666859489706605
57.00838988442195,54.71036303376534,0.2575109734787613
126.29199935697139,6.119112491106213,2.257346148797226
188.10189230036542,68.08088773508388,5.347790000720062
233.23776661841853,124.75090121740588,8.754981950842495
254.56575341707853,169.66763370544143,12.175074501925401
248.63795869302172,197.097732205338,15.262197323209845
216.3327333648682,203.14567765212976,17.69925024684477
162.4165816184567,186.90455126119625,19.220464322870857
94.34549696825411,151.11528159266814,19.60280581468659
20.79879441666319,101.8668723836153,18.57618332494548
49.580870123945715,47.272752371479555,15.840099794403276
109.11500736548903,4.450646370878178,11.24316473411717
151.8440638380433,46.794375301736984,4.949585903952999
174.18714621361113,75.99474029400433,2.4924801644257233
175.46206426032217,91.07094625039298,10.343494030130767
158.05732002749778,93.16740686772907,17.820273016413385
126.9588223682075,84.72305361691649,24.04978124006358
88.6132166786074,68.88595624998516,28.187974048795827
49.46186709990996,49.256023959804786,29.591214330844352
14.63402040511095,29.67217931707622,28.00861909721203
12.762741878668615,13.718723674538973,23.74278703835938
31.594178223103732,3.9245308331705533,17.47429680206301
42.14300287550862,0.9919098359966843,10.023936589666153
45.507439864010976,3.551895390462212,2.251327822511362
43.26123215874419,8.742705211690183,5.092457697267325
37.4000708438181,13.45736523680004,11.46609042928077
30.3446821305472,15.684174030486824,16.434531163624488
24.693103269730045,15.236040424616455,19.550844188243044
22.63396827748888,13.487249121778195,20.422932088514965
25.249611214760794,12.293624244663238,18.787662384623317
32.10575853967166,12.702992958651848,14.66771920420549
41.39867689436704,14.162463829109171,8.648881731047945
50.61794220537191,14.633353031298869,1.8210480553680617
57.38466224450149,11.523958181225147,4.490231349685921
60.01962881558155,2.9432104474703285,8.968319677861864
57.61272944298169,11.31148653538453,10.641351591578287
49.73561692135017,29.425897058276835,9.114357692229508
36.159083960192326,47.974352605144915,4.6413452382849245
16.875625410564407,62.81082948925528,2.072503212638627
7.536840268849147,70.10153662901293,10.183464525193406
35.49241825245735,67.22839556890463,18.696676173925326
64.31865547044622,53.38912964314182,26.50319409348398
90.71989292851724,29.82490563156948,32.5499987366465
111.62700782007927,0.3575523236545677,35.87086361772707
124.98821999377503,32.74240613564013,35.70416314847215
130.06657013167916,62.42610279876056,31.75860551536196
127.12755914676322,84.94081113929269,24.46792958796918
116.76326490211822,97.05733251740891,14.854758043170389
99.35590812245594,97.27664907229358,4.115462612459422
75.08462246843688,85.95155481434094,6.621706444825137
44.457727121138525,65.09032009861484,16.562190328434404
9.016667599746553,37.95126990237901,25.35153053222755
28.298706149555844,8.523271702134977,32.84705714113108
63.48623316784411,19.05886839167486,39.01395199345731
92.43350916029763,41.13696795259548,43.92041630082497
112.03140705726561,55.135188443505804,47.570716805222126
120.91770931499184,60.01796358486553,49.68265165585526
119.55961250817556,56.45859940121351,49.71792769507508
109.75021550305232,46.63836768499606,47.186161474298146
93.87949219193526,33.70076527999337,41.885317312184036
74.38342678664677,21.034630695791943,33.90630779848874
53.52714985085284,11.608592879400558,23.524289760227283
33.41469122862504,7.514206165672728,11.298736898952958
15.971309049787473,9.740562447531566,1.8066023160862523
2.706573321546981,18.08141552475924,14.62701496050077
5.68438348493546,31.112790486836527,26.014974435152947
9.648580404126108,46.27044779672696,35.041863734233544
10.756572784666204,60.125432852972715,41.137896745259646
11.230306894354348,68.9824928630834,44.04978972958597
13.17462325672647,69.77315414468833,43.92212328865804
17.808992426901728,60.987928493166486,41.23670749019471
25.039873906591687,43.282870223937515,36.54310322579785
33.555400177017134,19.441288057883455,30.417800874257935
41.3579584715926,6.379156979794432,23.484856978368658
46.50544850258185,29.854948426968306,16.33585545761793
47.764218092298705,47.70740573356875,9.426922768355242
44.94864774524744,58.46684842066981,3.066846042544724
38.88708278136959,62.56306285429423,2.390104474009509
31.074790736844044,61.836552411045375,6.490057710520627
23.175027665267525,58.7876383062122,9.038003178822295
16.512264407210097,55.889448925975096,10.358617409145989
11.668919803273589,55.13123472028974,10.993361578859465
8.311682386447973,57.756013935221695,11.32501199416133
5.271263027276557,64.04356629534513,11.570344289914885
0.847140835100148,73.07873519955594,11.825568953139877
6.68201502137442,82.6080572419338,12.006397725734969
18.449373705503305,89.19850348774112,11.846820409978275
34.45106668921962,88.89836898159425,11.120585994725205
53.184418048632814,78.36826745068602,9.906145530484363
71.60193796731949,56.14541014962247,8.456118474480855
85.51186624490742,23.510303719615592,6.928544926852715
90.42312846763053,15.503984615228891,5.317478406616612
82.66788692824254,55.06947880598675,3.4613767198598535
60.53961391819259,89.17124656260953,1.18924201776838
25.088464435652753,113.24258120352043,1.5609147598239594
19.925427927776266,125.33238083102438,4.623103085589546
68.91709571349763,125.93739003749151,7.514576956005653
115.57526559183185,116.98940779925964,9.64938036620258
153.94869486356637,101.05393881644756,10.670157754382267
179.50042470992327,80.71327403226007,10.621507468414295
189.87211353498054,58.305228741626564,9.854292313124622
185.1449681700219,35.9520100678137,8.793694537082793
167.58617562258786,15.652981968399558,7.7775193271478775
8.394680657779622,2.6290924097904775,4.479101742753822
5.928246098745191,3.1077676913099497,4.251146108766402
2.7768738304707394,2.356881296787717,3.5411256904938324
0.09442135806325311,0.15545821252472714,2.186063094251912
1.7195772168197578,4.776550672088137,0.0187800001856089
1.6210089810175061,11.397849350245522,2.9381260397608573
0.2001899906253253,19.199341456660818,6.438252979402527
1.2392683884655893,26.60368034801911,10.067815931986665
0.8143795686927112,31.48363878352816,13.315965072249721
3.299428738196742,31.649045802699096,15.731734451657045
12.164956476406202,25.45800865246196,17.051511142255297
25.673105398629215,12.293966568710944,17.15537175940358
42.52383908096844,7.195864406659017,16.0605639409059
60.18400993120543,30.868817820996405,13.964590121437997
75.12614509193043,55.28004583268617,11.076483370270989
83.83506289308065,76.70326119055817,7.479464824508576
83.55178933363075,91.96151647849125,3.141493733852638
72.51378944766549,98.71952569668572,2.07705231101886
50.25769610644503,95.65405204969579,8.230741489064608
17.72388249532495,82.37720068020268,15.096977411345208
22.63660796139453,59.413455148227285,22.18199213808577
66.79412786726537,28.338715906082896,28.81510675958104
109.47845771142195,8.142788154973784,34.33393131354223
144.83391147466637,46.24144668245003,38.07994813609557
167.45748037641283,81.50801430716984,39.320899386760594
173.53261979828855,109.59794952893739,37.5088377147452
161.62447661998095,127.13042058472008,32.53808147876824
132.9355460347146,132.3705146605267,24.657084034589925
90.92195003834532,125.4416823881583,14.34172921598284
40.50819735003149,108.06076084923792,2.3846330036029713
12.798720412723195,82.93525434725635,10.130345744966888
63.60868918592459,53.1337065967657,22.069429062132222
107.02949502208868,21.701089123013748,32.44276993119396
138.90157889176322,8.455343143750195,40.522999680885896
156.07893661231773,34.55576549289188,45.78144005123738
156.84261354827285,54.07882912346209,47.76574878819478
141.34492504307428,65.15168988568793,46.19031449077428
111.84587943623025,67.07534777895721,41.02271794845493
72.50306243142917,60.69095288741996,32.518279681538154
28.645428669118928,48.28971117215357,21.290536537969135
14.23645852629806,32.99663716391786,8.261415517776413
51.42430120965324,17.8493381449117,5.4460789994420695
79.53418281733413,5.020525441762889,18.64413799835399
96.62428452900929,4.436499896218468,30.235671879830498
102.01550248578965,10.262201475096541,39.1742640614445
96.08428636327346,12.375297209071011,44.40039063679559
80.1984479703343,10.459071338146622,45.09308365321154
56.732625376999046,4.07133790541632,41.04524453838971
28.957813848740354,6.783775419258515,32.759493561755086
0.6545937597964703,21.00532472344186,21.28393056133859
24.539209707854866,36.18125953380908,8.015448582926993
43.82595227771612,49.087624561177954,5.480277246794673
55.671574849893304,56.7068241812396,17.663017348564487
59.78266417800738,57.240722625639975,27.28722564182408
56.75723916900285,50.58138976460831,33.60445588136707
47.688712737962774,38.024196497467756,36.29362941584975
33.96519678285306,21.486688470450584,35.426495279635965
17.35693995252275,2.7846454245003556,31.58855143680623
0.22524187072361837,16.590464084765642,25.71580361454944
14.472458689956449,35.14629431630033,18.74765348980019
23.57010193311694,50.89829946543839,11.511038669166652
24.40786400520934,61.27213915275629,4.742373541159213
15.619790894701312,63.712629484982806,1.013942726344364
2.3289053551924104,56.80124666066717,5.541367118857747
27.06990928326192,41.25398645867846,8.904527202963877
54.72507062397076,20.13279555718597,11.356471164380897
80.58135236447713,1.9787263756564422,13.160155223876922
99.83996190569631,20.51672809975695,14.31410478347992
108.3309835782289,32.47037001215849,14.605694743063687
103.14888372095847,37.15417098440212,13.939579928215018
83.18166985521029,35.91376617056947,12.545858393653674
49.46604940927253,31.07183152585902,10.915375509392023
5.239159408993679,24.75443978702553,9.600055271390797
44.414803710395844,18.189970503278268,9.029000580909468
93.3205647298892,11.731527222487808,9.334153091243433
135.21448735052536,5.38067634159289,10.320747165585006
164.74380236500093,0.676809115123228,11.59399834774317
178.2764714099217,5.891634139166456,12.71279380118852
174.41563382731889,9.575659090835789,13.270343029107925
154.1748267740364,11.306677551461243,12.93338749348597
120.83279281296952,11.204150400296452,11.525559494422657
79.46102083160503,9.907936148995887,8.96276538951774
36.11531414434445,8.324942025743965,5.244005624178698
3.21860557538735,7.354751488273799,0.6546188697637151
33.705089878090675,7.763434761973938,4.256667946060943
52.4861001709774,10.186746204238416,8.904926043980561
59.03420583011892,15.12398276106298,12.888374682899409
54.93934277635552,22.801788034115212,16.058719110235273
43.281300265944225,32.909622200838896,18.36304921221876
27.883073525070323,44.37351951112873,19.756350950964123
12.67166312487308,55.35930822342769,20.180130980972454
1.236817178215524,63.56681221721435,19.556521692868998
3.5170087878248077,66.71595420124507,17.91290584414318
0.23581590187325907,63.043188084172996,15.447645926010852
12.804849698203721,51.65974113872285,12.466353813703005
32.652422406000674,32.73162597191335,9.29233753612352
56.46630422957773,7.565045768822382,6.206771053275278
79.81975205072983,21.346148602857724,3.4149813185269373
98.27212058988471,50.38900538936964,1.0126963052308162
108.5248675417965,75.17892439435015,1.0862061490577206
109.1669084936951,91.3181948532483,3.1981020026126394
100.71153784713661,95.4624884650088,5.633282167299749
84.97737266359186,86.35251052974957,8.376240634275842
64.1938227103526,65.38486096898622,11.060570400103698
40.32613953561826,36.39344427467291,13.215899000304452
14.905256465941495,4.671798243347156,14.651792020320647
10.69895794593761,24.379073787790897,15.539315077994072
34.89539230676195,46.45664149109427,16.117388110135437
55.756631827476205,58.989854075305594,16.459389922141266
71.3324538459937,61.130572074956135,16.358577753776512
80.25965398859681,53.369975581843164,15.470340896144451
82.30473271105058,37.11831146133477,13.643246424536176
78.49550050744793,14.468754613260963,10.899956953126134
70.7442959649428,11.860952522008684,7.27467892726507
61.15555364599793,38.60554575097825,2.949786070571107
51.42068999334834,62.25375010218945,1.6632996728871967
42.60125010401225,79.59830934266175,6.0983202529259755
35.29527671756585,88.34471303923428,9.985423530300297
29.948406782826613,87.52928030321436,13.14057099390926
26.97141207729799,77.5835642417745,15.59983471162486
26.45962706045013,60.07851262883348,17.45368320398021
27.64734610588655,37.330456561698554,18.59516957618893
28.522231253871624,12.030257940657854,18.65005158679517
26.030734367756438,13.024394166771016,17.105134973256277
17.020778077527766,35.149613240289796,13.593067620859738
0.37641168672195846,52.05767826724014,8.21487797462963
25.583867603539485,62.18973517857566,1.6998837828410929
55.24672504125611,64.99416584957847,4.664995139964093
83.97059494489424,61.00623130403606,9.459791760929816
105.86866915167396,51.63464820358025,11.613004556330992
116.23601570280069,38.739952642956666,10.57191401346542
112.68336452867855,24.202135295349443,6.496479948736478
95.38487869821084,9.648692813342908,0.33723462523940406
66.54464670092439,3.598836836557137,6.591662899087018
29.590008298004854,14.448035142836124,13.073069880800531
11.422975456229036,21.982457801111785,18.142069948676372
52.04106973780175,25.534407209152157,21.025726762322787
87.49322848447851,24.845232835038868,21.069722970788163
113.00644735437156,20.167992164997184,17.87937274316534
124.57404316059666,12.198018965431396,11.475145080888538
120.01386505677448,1.8321463321917213,2.4059385812890595
99.81611551631536,10.090953509888061,8.165976964805054
67.68337373376472,22.742446711425828,18.663706339184504
29.384012030359397,35.28847684798265,27.539120432202793
9.32972458468299,46.92283503269831,33.67748521004431
43.877526773647226,56.70721475861235,36.64056892480731
71.4405830085816,63.57492237916898,36.73500649072945
90.86699734589689,66.54763624499132,34.74309153379742
102.09207995538836,65.08130208716344,31.47738357119808
105.51152086692376,59.36030453934549,27.54899315187869
3.2382915811998747,7.07628036531382,4.273819403120784
5.450449449960385,10.804147522241188,3.8860582872636056
16.90887456522579,13.908997343902394,2.779598039409706
29.52416067754249,15.590775477638815,0.9804914400762598
40.83585846093659,15.045720766340628,1.4938144303599294
47.95873258174939,11.598673932059853,4.547527099115658
48.21727145418242,4.9487240228245195,7.895945638068086
39.79895630598523,4.561371885920978,11.033324744192239
22.36447196630542,15.774811445482657,13.36224524123313
2.6530969171975936,26.82815381277748,14.399199975539196
32.12971924392095,35.568926303689445,13.825317718968483
61.58613181594781,40.10698323667266,11.506391724305884
85.79839963668343,39.296111052070884,7.595285188395772
100.11569362037731,33.16538691141096,2.5195366745018526
101.73845866531803,23.041704194588732,3.158400303576497
89.80189594539998,10.998855891083355,8.762486512963344
65.23297047292071,0.8803087226204434,13.557276234381936
30.73104582828212,10.994731693840123,17.019262834598017
9.687624122402626,18.47875948405889,18.920811064578423
51.102328692227914,23.08786090677343,19.19375853077984
88.22754620273805,24.948667882377,17.88537345160285
116.15693643777838,24.4353061196968,15.141820310415014
131.01148401225944,22.153800910018305,11.242260167588343
130.60714365364285,18.994780069898155,6.6007105815847344
114.87028819853234,16.045887452620853,1.6038897648777315
85.90293193550258,14.293152164755721,3.508213092876217
47.65732139713047,14.237115109481367,8.617185828891126
5.188391859931397,15.614962500681992,13.499139616519308
36.21955750319734,17.457799622404604,17.63534907695719
71.89038363982445,18.49658290383647,20.43277334587648
98.33133452421218,17.71957420288948,21.454233166599785
113.44738350597169,14.797527054413237,20.40127160198088
116.51314491707623,10.15723049881283,17.18715688655795
107.99886349019408,4.695111512733323,12.047116204089766
89.38859491806332,0.6769781508472439,5.540702918297734
63.00944640378933,5.3790469589540875,1.4963734408647538
31.830877266435976,9.252219350714292,8.103914314469481
0.8045822341064118,12.428130336058725,13.449237221931249
31.555826831464717,15.105892034844333,16.983510029045892
57.48682043267209,17.384281787036283,18.35418892760528
76.38666716373906,19.22594706302981,17.4088938472174
86.93411643058121,20.496709538595407,14.382917099893335
88.69795407499602,20.9869408803134,9.86247258713365
82.0150153748873,20.39081381599032,4.700248553976957
67.81956153327334,18.3133413820575,0.06104323046633396
47.5119713294804,14.394170772098246,3.5322840094503896
22.88301822284973,8.543782112877766,5.312982657838754
3.932495701452702,1.1954549440703721,5.553030838037851
30.504222145403173,6.5927365235353355,4.730041575100505
54.231717567445386,13.326060200602209,3.4296367992682177
72.56252246123503,17.504006071592368,2.248850685537953
83.27250231601741,18.091071356943672,1.5671722632164247
84.79934941031958,14.799613161116834,1.4657766913634755
76.56358056511712,8.04978277604871,1.8174310125777455
59.21016160214888,1.3174508132360905,2.3148111418421298
34.69938243189139,12.34662607750122,2.685969764039784
6.1561851949599795,24.075549234744063,2.9109266426340388
22.536912870171875,35.388623380947855,3.1001626070382082
47.35351869028629,44.79319378448919,3.192489951227914
64.82421408466594,50.362552188791135,2.9631839947677925
72.66193344182764,50.01193440603803,2.3568793152618794
70.1579450923484,42.11153083347011,1.4502931614524432
58.244573717123366,26.182465973053237,0.17834079107734346
39.24297386562149,3.3338712737606673,1.597375924465035
16.39504446189394,23.758591562355384,3.8782442563312065
6.704495995317971,51.32413576558142,6.460145354597315
26.658610292092966,75.22609878834821,8.998750130782424
40.705411796559844,91.69020914164186,11.11273690483159
47.00499001489439,97.85219911616481,12.482427054574584
44.796744768103935,92.10098108730845,12.876643272868657
34.43989316761328,74.29526588684313,12.080704553629346
17.35065997434982,45.91029287323839,9.946434433930731
4.139907650065749,10.061043655897837,6.456054492473276
27.025297188474223,28.71430954111493,1.7059415876419701
47.960765937441124,64.99438020836693,3.917489612730768
63.66946058158778,93.34045314839804,9.695123788781267
71.3917592865033,109.32148549451301,14.900466585589163
69.33864281042712,110.41626716580882,19.041825159298956
57.09533076751409,96.56971730742193,21.85661937760331
35.84634227197239,70.26043904643436,23.15616755109726
8.29692720562306,36.02564705020571,22.813687019010292
21.734789723173233,0.45482278020231837,21.02736066726181
50.00168472613984,33.51123807950791,18.26805688398037
72.60656122517285,58.62480772092249,14.874965804668792
86.64879142901886,73.27731257613888,10.954844408823686
90.57947933756547,77.26890768079286,6.562802407037889
84.2268439330563,72.3973642691227,1.8390727685761643
68.60078438756754,61.62632210063258,2.9763476153631223
45.653506709927534,48.071744276442196,7.6469727622346895
18.13975433106329,34.18916684580053,12.04646896831203
10.456316380472355,21.4404806529378,16.14333389385295
36.11706062158081,10.456385317825037,19.901416265048177
54.7787782483919,1.4451265823873374,23.269115139098965
63.14638834665881,5.479812518490278,26.136832133517935
59.622172862264875,10.251353932413187,28.232739137729386
44.94998491710761,13.034952320220981,29.2378316400423
22.21909260983233,14.379822983018702,28.896211653686123
3.8835839854288206,15.065798847125428,27.0305914050847
28.304720423849595,15.634116321823674,23.690533766530134
46.83711278092179,15.88883893900257,19.137813593984713
56.857354427275084,14.795778789034387,13.64385225704133
57.39158808438854,11.026077246514777,7.418972882691845
48.698475637317436,3.954623511600045,0.6309726971585087
31.77967846388569,5.4433387869775505,6.505677492374835
8.163880300180999,14.412003752632206,13.615197459949718
19.95249190420251,19.24079773290939,20.14650715276914
49.462217073280264,16.80105432355104,25.47201310452141
76.383726975793,6.03269998935234,29.16382968992253
96.41218606261025,11.401850381072295,31.228481459575654
105.90349998900282,31.645672194958717,31.96647519879987
102.87212865807491,50.06129321165109,31.6382753111935
87.52500359509713,62.78734017109424,30.35610134102303
62.092746448282185,67.70914889044143,28.231544304867512
30.071402493018127,64.51829999798913,25.399988745820316
4.7154587724484145,54.10934867678628,21.87323843255388
38.79644708762737,37.91064576520134,17.486508254155254
69.26740217048985,17.60677313051757,12.051360446520642
93.6442993848989,4.691979764979617,5.6452338986078585
109.67338749175633,26.173645371900108,1.3589243521701624
115.40623764726891,43.44135555439935,8.477439408532742
109.62756104264729,53.24967808166164,15.107850922563618
92.43541215847435,53.60074655865501,20.609863210838753
65.63160675586033,44.623106355390554,24.514188997862846
32.672979592803735,28.715513511498912,26.588501597098762
1.878498162715815,9.829510154775294,26.847870053980028
33.23823669547863,7.782536511335837,25.41047369817812
57.301441992721,20.76481643280341,22.47700304299539
71.3206228325693,27.300319202237606,18.587781462127236
74.23775688907746,27.080190752315605,14.516804492611506
66.67735597501046,20.84958691640733,10.858892831857514
50.69679294305053,9.932023986875182,7.841788890144884
29.382279687581757,4.002439138222042,5.476094828179435
6.356241987381698,18.96321829044791,3.776296871510081
14.758615879487325,32.69042425522139,2.6468768699530805
30.866828605603516,42.95085088977446,1.7670527590336118
39.827482549826954,48.07073807952742,0.7992745683046232
40.698662283313624,47.45935164037174,0.5019482502973996
33.76609790176534,41.83252268937494,2.3458400985814087
20.364566617630757,32.965066654559315,4.817747912500041
2.5651055092176325,23.069269831042305,7.691072959280647
17.14195346528327,14.106935291043547,10.480119142080325
36.096285683549986,7.33666286128799,12.690939743146659
51.92865030127644,3.4348207625887186,14.022353860528696
63.07925768700104,2.6654475637774655,14.427770347254754
68.96189858765331,4.815624790656912,13.968986475515106
69.8749286445811,9.227942436459363,12.711004363259974
66.75008957067439,14.83339912870136,10.841265181298885
60.80221218335256,20.263292756911202,8.694525738608212
53.1998734776849,24.10731131351744,6.603605938466646
44.86041848886803,25.294258069388075,4.769127165067073
24.696249708533287,3.2177968523277864,1.8589492389096816
18.096230231152393,2.1479631723051957,3.8952872339833466
4.735735969421555,9.204930970676427,5.7270863528032585
13.75452225740418,16.86001590997069,6.846805001093532
34.00211163412198,23.595904957924375,6.925737724175156
51.648965084693025,27.729969587095383,5.848705717876268
62.4475673465481,27.741075569990358,3.728448767706698
63.384561199527845,22.571333817304062,0.8656207084913137
53.48112635435944,11.897532070403772,2.2775078870319287
34.09287516922346,3.7038241926507323,5.2187509786427455
8.609334687763283,22.69641491716748,7.645420330960349
18.347570251957144,42.57085239725193,9.316264943142773
41.85968860297102,59.95784669755186,9.961088328184106
57.46346158381192,71.20708283803216,9.395083589731989
61.9662528347577,73.26086799726336,7.58439365643252
54.42013519880158,64.29060374890048,4.707347554441318
36.521905037832816,44.25186047567003,1.2516360426321687
12.232976715288714,15.216877904053371,2.0209341082949357
13.110841077681043,18.930977924690396,4.2850697574337895
34.14942776974058,53.24862634019901,4.946001385875572
46.843430559140074,82.80600341916701,3.8690456989860693
49.39814711990579,103.74591055135888,1.4500812177515499
42.5824528828512,113.88984041657767,1.6274891258096966
29.279568166983584,112.85619516145488,4.790400909251493
13.497822662807007,101.69835342142662,7.616134306374804
0.8313774107006521,82.31328810229724,9.699521550249314
10.929392796159348,56.95047252117986,10.760697823012709
15.806511480376129,27.951794587097037,10.702342948182654
16.35722038472226,2.278096496553539,9.493414196091832
14.911579058281296,31.272969619920723,7.163728632587068
14.405095523819446,56.66213011498621,3.909626699075002
17.405742701533644,76.51784482705393,0.05114836961549995
25.23570232345688,89.74737618673232,4.162005877800948
37.448059220115745,96.27877239876786,8.537334275917868
51.77698066238754,96.89089695993282,12.82326479293611
64.58998143011088,92.72836551682086,16.772204339510523
71.79238383874313,84.7463339321013,20.16928309451252
69.94833218578857,73.38770020960808,22.747084919388218
57.33713859275099,58.69604525596948,24.158153062680235
34.65867851141734,40.81239081418556,24.097550697368604
5.12037888123632,20.52808743750574,22.37625913806933
26.1716488111865,0.4442243566123756,18.94119256658612
53.380375077926594,19.65800573493702,14.044228963469026
71.3603028778837,34.527073608235014,8.1461433936734
76.9048985428263,43.051321915866964,1.7192342204010223
69.42419282479635,44.34080137682333,4.603416905762523
50.88697632861233,38.74713772842633,10.095040427847941
25.116161428868747,27.64355068790526,14.151749498243024
3.2444028748764207,13.037128892512188,16.29397166690461
29.66792679209465,2.7787461556009947,16.269625403693123
50.323788044840846,17.426200347478783,14.244786909700661
62.27436730718142,28.56817709266474,10.87293158771732
63.471791330661745,34.0724390723716,7.0907803022448
52.83343638185193,32.28316099793427,3.8407878683653895
30.532649421163498,22.387659129409563,1.9582062045604884
1.6273936656470842,4.741120092546206,1.9513400729272814
40.05105894763207,19.009852076883007,3.837817934326417
79.65955378466131,46.09437366892039,7.276064067285878
114.7472410288274,73.05633193526027,11.73182764822189
140.15015950014393,96.33037822737407,16.553809076943555
152.27270046136815,112.81626630605419,21.01264772456942
149.5999622637333,120.33419994278113,24.406264727984706
132.5881519528466,117.863057674994,26.143255233943147
103.15289701357983,105.55933243622886,25.754391666801855
64.1505524561377,84.61981418503302,23.051454594142772
19.11512457435621,57.05389436108713,18.254502566915416
27.754534241540018,25.433502627807314,11.877085180373339
71.63681780413516,7.326214133164139,4.599556647632025
107.5022532888178,38.15684567465911,2.8384931453155597
131.00069255458573,64.04229880130296,9.833226357583952
139.57105550539657,82.31044003495822,16.043213855771782
133.25505580924025,91.05975798615228,21.326912420386734
114.75925147330327,89.65040994485729,25.627992370337193
88.67456245432406,79.08308396673243,28.85107697687826
60.178676816169116,62.049893585069626,30.763453368184848
33.79090757352352,42.503527695882184,31.18719773921218
12.63012890902262,24.784451562973913,30.243086467739204
1.6927912483067271,12.545532010945848,28.225964568787685
8.760206334430782,7.841491629091892,25.397235464673354
9.000521196414944,10.721243052824965,21.93042154408892
3.560478142673717,19.43092953961089,18.002800734301566
5.631000955440902,31.06543642068397,13.918438214483624
15.893409480352926,42.36099998341167,9.941348568892964
24.181014266037938,50.34824668930642,6.113949815789104
27.791438453049995,52.738509149216966,2.314751059637341
25.123358458996268,48.10693491610524,1.5793899306559835
16.10824650514851,36.03915172731606,5.396591759466665
2.0855176136649693,17.33602964187638,8.713227914435535
14.781589103751982,5.808983443383013,11.302416114872152
32.20958943007928,29.89602443784788,13.27401489714537
48.24286967442985,50.67871217700621,14.879660363038933
61.291538532565376,64.17565260779662,16.328233970459326
69.9264241821472,67.83142800603058,17.695533878939937
72.76265895693109,61.34699083313983,18.871160477931944
68.6554672872525,46.77130669774939,19.61102964329118
57.16891974854883,27.772776184743012,19.60534012403511
39.05438323932819,8.396377330661315,18.415448975947083
16.394702227535365,8.12589361807203,15.698542149843835
7.742200277368458,20.00326254892356,11.535164994852316
30.0016838494643,26.794623292070682,6.45959481693535
47.50170044593601,28.826549910660866,1.422990204140503
58.32238831392786,26.571518551592515,2.477002784351183
61.58121729217041,20.371496147392016,4.304949824298715
57.24732280333282,10.610268404394574,3.4103021712788943
45.9364388022384,1.8870613468072681,0.3706784686560194
28.845425620331483,15.6224534091354,6.713194385891691
7.8120180713241805,28.627086156225364,14.849826553118536
14.673390374131914,39.03123914095345,23.430397453767252
35.675419751416584,45.67131388731421,30.646356727085152
52.26969742025095,48.365860039119106,34.64802645483287
62.11400354884792,47.68153086071342,33.99493271581296
63.908052601170525,44.33971201185437,27.94429227633849
57.55358655968348,38.65501289232857,16.620127198177094
44.0185816545107,30.37044710443427,1.1001588932673383
25.04997733512095,18.998663326030922,16.739619052801167
2.894341397501724,4.444722146874732,34.50745357382988
19.87444859321805,12.492051333443472,49.773879612451815
40.46167786237855,30.06717224130474,60.548262314375116
56.016785598580846,46.04942039950613,65.48360878805636
63.97009901793996,58.42145380951211,64.11944596569474
62.54828665531615,65.94105372378313,56.95621519003374
51.326602102210785,68.30816372273208,45.28676302240124
31.60523399920863,65.91547293010576,30.98704391161984
6.410594788098349,59.39805856655131,16.046361828189575
19.95053344081799,49.306040736832166,2.1389719978464687
42.70042321437198,36.10919457092875,9.476866904416044
57.56346866436989,20.470094027555845,18.053214837120805
61.64772620268269,3.548724918800981,23.47907818451129
54.034807737910896,12.894612810412536,26.15411994171693
35.946984409303,26.74621182181859,26.660115375063715
10.491928353163814,36.08580866942334,25.551844234342767
17.902615084149257,39.78834078102176,23.346565639768478
44.25697677786941,37.92042542456095,20.615221052539482
63.8597598729279,31.77139908246552,17.988640094451515
73.02815552015764,23.510590204959595,15.91689984748436
69.73525956917229,15.613410659524416,14.441530340532879
53.983095567216075,10.248052931082864,13.227139594193721
27.86018935578888,8.79626522055566,11.772679760318859
4.762814559401567,11.613675992189968,9.74281069571522
38.905332052215876,18.03861834684539,7.143873434365141
69.39759281159213,26.610337037358075,4.175648327316269
91.85433780195926,35.415803764825625,1.079864525458918
103.57568490299657,42.91225124070226,1.9315858504799521
103.98898666458182,48.03021123999962,4.666353322849394
94.51033618670866,49.73051988807922,6.888307137551849
78.04189305792303,47.227315153066556,8.403384432322433
58.17658525466575,40.27391244662954,9.188157448692483
38.3475208417239,29.407889397317515,9.289769768086138
21.175817666502063,16.01972865414855,8.673030844596283
8.153929752865624,2.1529739849070837,7.29884843947656
3.529664785557112,3.5191741755562806,3.343477008249336
4.167990902378225,7.919237771654434,4.1395060474784104
13.183064621732708,11.963949849603798,4.4372776536284055
21.953598717688067,15.056425740962045,3.923734394700526
28.805949271646245,16.75128188459969,2.3942370885232274
32.37222834305495,16.724137335314655,0.22078722995571787
31.94810181610209,14.731267570044258,3.8124718545088276
27.622726845580107,10.586720422722117,7.991557335598517
20.196336749086008,4.264954257122385,12.111432262286872
10.846989389258336,3.9826057884572035,15.558245290280171
0.7496988654505916,13.531997517372448,17.892331457295917
9.047063504412936,23.277174793602477,18.690250906054064
17.480731181140907,31.63354511913467,17.60308313832347
23.71162726934037,37.14122658600053,14.627309793755623
27.545752860837375,39.146860943012385,10.032680385226586
29.178394371949967,37.56172133422548,4.172785493560281
28.965453274175402,32.475001156705446,2.503905712409883
27.516314632689554,24.06204638932423,9.48596033790827
25.549270220610076,12.450707419339619,16.14566988261977
23.8011568229632,2.039319505669304,21.784184926162485
22.85984227759698,18.541258443422244,25.936283529818347
22.887797490862564,35.4991542519929,28.442006545380664
23.550953286702182,50.73123705225111,29.30245180637454
24.059516287079607,61.90987504792717,28.570023368156722
23.417830239527916,67.18726463151053,26.441604195697586
20.757208038942114,65.70169169140374,23.328547405090717
15.559039285873116,57.758786007151734,19.57591532795694
7.74272187086438,44.55015123506606,15.367208493938406
2.4462833940718505,27.64588838607657,10.87134264812133
14.584083146819891,8.522150311605477,6.1757339548982895
28.130610631065984,11.594274688683004,1.1805237136435882
42.369222402105294,31.51454117106923,4.206983127505734
56.24820281513911,49.74331457970043,9.774956825397418
68.29448836218116,64.30267744141113,15.175833459973571
76.71761591818272,72.99899746562025,20.22472983152173
79.73335111916514,74.10410237054242,24.861111078408427
76.0104902552386,67.14704397308034,29.031330424868422
65.07521661045939,53.392902099920185,32.575903843499695
47.55321338557144,35.67626027159133,35.2798960626081
25.165079086305507,17.588424247911128,36.88119489474268
0.47259167515186334,2.334835998519668,37.00516069142359
23.536871713937558,8.22433759240591,35.330185287492625
43.93179882255205,13.918556329515654,31.640033122343137
58.3111843967003,15.911244018301728,25.984370434322887
65.18439850068076,15.90836605958318,18.793615566329066
64.18064923119624,15.380184872802506,10.638509241479397
56.058416617026516,15.178602560752292,2.2752321477106565
42.511316372264496,15.649352239831732,5.489860479528167
25.84591296789728,17.009743132362004,12.262955544426102
8.63478872945956,19.605112902293694,17.981415417836732
6.597843762685309,23.791024024424456,22.598037283983874
17.610435879578166,29.495321785374752,26.040034816873323
22.605435025814625,35.78443979440933,28.294167686477834
20.379386435808396,40.83282936019387,29.512921007861326
10.525016096356582,42.483348265439005,30.010217914437625
6.315152386642556,39.20095226756428,30.114865727971164
28.249170242675508,30.936219395451943,30.055733834322616
52.0938345524863,19.411462640023313,29.732109234064836
73.58447833924261,7.590095853776928,28.517122173434473
87.91408137595057,1.5125724751006762,25.644878551927693
90.5456998395252,6.123190555394456,20.79054385208122
78.1779541743308,6.471271020637506,14.20243132896986
49.70553097748479,4.68341996376919,6.478395224261467
6.912508138659245,3.8827414101410684,1.7189850087355436
45.3551261724207,6.916430249938591,9.714315884719689
99.68959818009398,15.28859208916237,16.69504365223088
147.28805139020463,28.698404833772255,21.823459615903822
179.561083733786,45.244667700847074,24.561558345557817
189.79866542186335,62.04802601184897,24.71470463605658
174.48822638891824,75.9337981503045,22.265350240349935
134.02159825429356,83.9421900529007,17.50845570304577
72.71294013371698,83.61757233242737,11.202236174505268
1.785589143969769,73.20744689418828,4.401135701106014
79.49603255336174,51.93976553067794,1.7605661258611653
149.4444292075862,20.413036212557675,6.158857617636519
201.2173627175654,19.024364709856133,7.847576976997551
226.63628705349876,62.15008299800297,6.613988234174683
221.35872454167804,103.21924842845311,3.1810696993601777
185.98275412646402,135.84326392542732,1.443553305360604
126.21420544696514,154.22589756994591,6.497952660954404
51.88719322141026,154.41788694509466,11.47908920360872
25.042808773900276,135.24605609826355,15.899401066953567
92.97835667303836,98.66810949147565,19.087428025568823
142.86172116746081,49.473213625418836,20.353837905336764
169.46805951443238,5.570348506251402,19.25494260653247
171.6131657938771,58.90606705903446,15.739736221474091
151.52586746482135,103.44445288361541,10.234773877636401
113.89089640886101,133.64778752407804,3.6065561122429357
64.95894831716073,146.28793233178502,3.054239818770193
11.83711313420652,140.7999189543356,8.72237864157662
38.16039755823142,119.23591441435558,12.603684795731798
78.3141298541827,85.85537067752438,14.24653208858426
103.49476441924556,46.41547408816953,13.639080277169311
111.08574249401153,7.243190389655388,11.270550068704415
101.45166164852108,25.810471822856282,8.077817257904558
77.69367753176287,48.3600863827626,5.005637643935396
44.71090535226581,58.21614024449808,2.638985967067052
7.927114535285839,55.696186571168845,1.3739699559984409
27.800610135304563,43.41072760689935,1.5713634641578345
58.74827678261223,25.540466210974824,3.397745718213233
82.36003374143178,6.803459233566487,6.678325204305242
96.99854215435042,8.605228748715692,10.861401613384997
101.74562713102009,17.839911410433167,15.07516877037173
96.44427316435599,19.79204657911143,18.35471485571507
81.89354013874635,14.99557788493695,19.85950713321215
59.96886417765815,5.202591930377425,19.025598820859127
33.48181632331146,7.17160921696997,15.766138042162241
5.768785861723743,19.561218216121937,10.457923892613609
19.838436003622423,29.616774715585112,3.788372348246587
40.47847587190716,35.453685080787935,3.296427849898374
54.02752126676182,35.84156451791759,9.768567116900876
59.20884080094393,30.36840002724062,14.790944500584487
55.6978671827943,19.56748518895029,17.85614557904444
44.2602019870812,4.912790918237643,18.77520721801519
26.84796454001157,11.386872887488854,17.571332586861338
6.515023628034206,26.7739537462819,14.408483636375129
12.980088816630253,38.830488490088,9.681940674816676
27.85332096401465,45.72715198893055,4.149807334004874
35.063467194639486,46.47385898432893,1.2139743024099927
32.921011115735794,40.933910723594174,5.490697264023111
21.358654366104204,29.68368197125688,7.8616247456272
1.8388579771882854,13.815862109390146,7.680379586901025
23.012879643546146,5.201902273861948,4.701007892426097
49.895972517416155,25.561883766304728,0.7490890401021654
75.32140341743282,45.13696132426071,7.792968701097469
96.08114821203374,61.59193510854418,15.334084900179063
109.68575716244546,72.62721743839931,22.363962090788476
114.69518626797088,76.36177083154728,27.962007964362975
110.83911178784616,71.7678760888338,31.272985679377324
98.86808503677238,59.007476747988136,31.628671569239557
80.18622986479022,39.54772673908508,28.63342643495565
56.411540986760826,16.004455268935118,22.226642544671982
29.0888258528389,8.230141259121014,12.798057463307396
0.30565634013131315,29.496878182373045,1.1764471372278469
30.153708080810404,44.44495657662864,11.42011884535548
58.49240133214271,50.57011072620756,23.524265077531638
83.05275136814646,46.65910977755676,33.79228576661351
101.63144765270863,33.11862738011676,41.181706960533724
112.62736669412263,12.120225561698017,45.0526160251612
115.44379848211149,12.516674313136578,45.41827668210445
110.52475121136337,35.76810746687924,42.8614643148161
99.02720375784902,52.20781294681775,38.185812009572444
82.5081748702771,58.29640333086702,32.17989087434706
62.84980558861413,53.1265783288662,25.558417086258338
42.18096540554457,37.43221949942231,19.038032215463698
22.69167406872488,13.568578840712448,13.320534957011787
6.3917157288663144,14.815005306932548,8.88940421815231
5.194018431591533,43.38820703263796,5.883266591103384
11.353471559468442,67.91265799660698,4.1870890362538535
12.4102050262827,84.99726922320369,3.523288832498309
5.0358546266599005,26.728509435649876,6.693704209658214
2.7251039946569833,10.645202503326303,6.410492985564689
0.08276826503084207,10.290218355631787,5.102446780299005
3.1455492779233456,33.34394969427725,2.8808017517853037
6.561843493962441,55.42206068583152,0.0546223385839672
10.518515794174654,73.57036765107271,2.9958129297886464
14.855352106166213,85.42098567810314,5.950803847450498
18.794305059670616,89.44224431162752,8.57091115299521
21.04398959948227,85.18743199055002,10.672563544978166
20.308193747611362,73.31289055378302,12.144553221004227
15.930277893107915,55.405506581469176,12.95164372219381
8.311559861965165,33.977072019428476,13.110263425993471
1.0658368308883712,12.54782920451281,12.682375871122291
9.97828711035546,5.630482957515762,11.74333699569409
16.2711123363055,19.42622007887079,10.302824562881957
18.85960255095942,29.550193695073997,8.34223271812639
18.02203073144262,37.53875111191655,5.974181999117617
14.920564526487828,45.10482108651744,3.4485302597489875
10.943073162339275,53.11095473549467,0.9773035029923822
7.190191434925223,61.32190603367651,1.3762875032757742
4.417056637142804,68.7280839952032,3.653901788947815
3.3104600882849424,73.96475467900109,5.875238503247884
4.668321487167415,75.96826747625606,7.906873248466565
9.241174965779315,74.19343667310585,9.48212542268097
17.17271225166788,68.64314291984464,10.409031379951895
27.397510296254225,59.81254999736199,10.679199134364202
37.472083803849976,48.568253480933194,10.455112345774127
44.05064632017011,36.197657440063054,10.015714304850686
43.883640610739555,24.327378460649136,9.597187837339476
34.87885372878054,14.67567049408449,9.390753619400968
16.775682843114424,8.583500261044799,9.589784050350847
8.790295401853356,6.433410132897355,10.203176814812384
38.73613208811094,7.32748902114541,10.941140462068585
69.1699986166538,9.18733675263478,11.309169995915278
95.96228046282756,9.345323418017442,10.842573149026865
115.16678305589829,5.404957774775791,9.404190884185077
123.3922669855482,3.9798320839495407,7.177439887141339
118.26782885409042,18.6859507314867,4.375587566807781
99.00542123458897,37.21287062521614,1.1632680286444452
66.85483129238808,57.15564497827197,2.0841695760818055
25.149285296481555,75.81513299720801,4.526500446678077
21.188686749495872,90.72232129487251,5.152837049350449
66.55572770875877,99.97695900675049,3.557254483383014
105.67933393025099,102.42046191134501,0.05313785090136551
134.37516539266502,97.70918280990684,4.933562259678352
149.87724474391416,86.36678247956361,10.788439384904054
150.8286832327744,69.79333800628845,16.30955674876724
137.17001246661582,50.145175270444106,20.087823384826482
110.1264650837607,30.036884944519418,20.915381757176913
72.29870229907239,12.084157207597896,17.852125007797177
27.68409207603444,1.6183669360996238,10.458155908191848
18.584959209385183,9.939816982430592,1.0661620424671918
60.894136531328535,12.9253938088398,15.891567940712847
94.07628894291172,11.704391169564696,32.46947904613105
114.32452316086594,8.117045164454966,48.73784917984983
119.79650595548834,4.178065700792436,62.60143955022687
110.7567719905271,1.5617704135819332,72.12331509816697
89.30523084171845,1.281554828633488,75.76530486723273
58.87883268056976,3.694232990546969,72.9216388879724
23.722622886010456,8.79055269267084,64.14936156325088
11.57345598873545,16.565635935703956,50.79609131008188
42.492569684696186,27.25346020341002,34.27674174793595
65.02622279497315,41.222781147862406,15.810009622771307
76.17180204349607,58.49146257639157,3.192647849210782
74.45125191102632,78.09168015536086,21.139710755731677
60.31674085887413,97.66604459544313,36.76007424203354
36.29590199096149,113.62200856522811,49.23548946599247
6.759396217121816,121.90455450766908,58.133422270231776
22.72253521766289,119.14963929917825,63.466414158359136
46.36163613824539,103.77633842650296,65.52291068348684
59.30389072649566,76.53834110699368,64.65577998437786
58.704533035933274,40.33194683152886,61.31576113479666
44.479779966123814,0.5623334871852151,55.91555951638523
19.519664360812218,41.43053701029746,48.674796172048815
10.748918228917665,77.89896748171977,39.7720424349423
39.38052020569678,106.34005162575555,29.478690513337725
59.35369801988306,124.00608017145152,18.29191420080641
65.14923053509987,129.16983669118991,6.978595821890398
54.06436489338695,121.4345744501446,3.7144915940363736
26.93097403694386,102.1022265887078,13.162713949599388
11.932774573560415,74.32434751889738,20.69871018366497
55.500949828716166,42.74416505752478,25.826497573826927
95.37356525547771,12.525293091301691,28.533916472207537
123.37481991793194,11.968363166211907,29.080110988830832
133.10057065721435,28.2935633438544,27.72158887213933
121.16186634964487,36.33898420126228,24.748346741117984
87.88318672313574,37.879370203665566,20.59799535631294
37.343030658836696,35.52606761511809,15.968980377578756
23.23194543200932,31.57452981095629,11.612585590673751
84.63987674388609,27.292344942452395,7.99397483851915
137.2651201334548,22.9024590180681,5.405057161261132
172.79482997040205,18.09598228810783,4.111322075091269
185.77604809696376,12.692961466816175,4.187042790559945
174.6831491860378,7.082032751074413,5.333079594504442
142.22330433061973,2.2359997796610647,6.9556690583083
94.72174747935875,0.6278003830730543,8.491577924495234
40.66990288086209,0.4912226909501064,9.547327811572805
11.210203820071873,3.128917507688443,9.79155185720247
53.80224943826889,10.039425687530962,8.989708598508726
82.79982994592737,19.385056058744098,7.2415592662072505
97.02887758935383,29.74167164170613,4.984505555541616
97.9142244648318,39.27190222903708,2.628616078449761
88.45364889805363,45.958759812526,0.4319811180022489
72.18470520611363,47.946216229398395,1.3328382711604134
52.47359828205055,43.969099035853866,2.3564768338618345
32.242714459961405,33.72662008005134,2.4078387659739198
13.962319369666693,18.03255539728469,1.546965175674361
0.36399225422325077,1.3141366396553347,0.12599057373682795
9.351426194261567,21.895207888541016,1.4642542935656366
12.48036291354982,41.129337356066664,2.7660365097122357
10.222113795290136,56.64161882913308,3.1844393378272415
3.8413882573557774,66.49694243975846,2.200417281290054
5.104526007098138,69.35528035309098,0.4829551297143635
15.322775426762695,64.63080939675949,4.907248639887111
26.10079074921519,52.68344694834724,10.762867565668378
37.17281182848995,34.96168419465984,17.306552434919045
48.178592399165744,13.959167168238638,23.425996853346238
58.08397807259351,7.121064206047261,27.839930272480892
64.95426927349399,24.964302189014077,29.41875499206334
66.26992903947868,36.81847193021055,27.464522969441582
59.71567303350618,41.00604601695128,21.664244334534846
44.084691385154926,37.122096860686916,12.010204368140998
19.88780494518868,25.9391119032922,0.9485614187241708
10.565095312071636,9.155049068003306,15.787494791479844
43.60317901171543,10.846655995979127,30.341801032026897
74.92325650469806,31.151087280284095,42.3536259632557
100.32750964936083,48.47782843895401,49.865798277086306
116.31872202804112,59.495102945158905,51.24542108923234
120.54231766641334,61.36054741021112,45.52371878554695
112.12346522580285,52.45026461365216,32.90913694110443
91.92431419357976,33.049137422607515,14.905915585076478
62.63239664337407,5.701925580193192,6.068879768718721
28.52849696811047,25.009651700110016,27.209532176234987
5.136140949399933,53.30714367971046,45.801807722706
33.095258966054615,73.45850002643036,59.59720583019584
51.125578741013776,81.08019854623916,66.90324386656869
56.868087726416434,74.11455628433866,66.75745612449136
50.20024740380076,53.214144697320776,59.13853795530008
33.12350048381404,21.52816162291005,44.95204619407193
9.254118527705954,15.947267499933437,26.03072156945494
16.886201218876067,53.20195501054273,4.921327094906237
40.62692220157512,84.00214940859121,15.644212253410807
58.40100107155628,103.6177691811633,33.38033472632967
68.33144669098454,109.72308033784292,46.82877707810303
69.94229703739028,102.08298066949261,55.228909907539304
64.06277569632488,82.63659878857965,58.43811402421577
52.55702258022996,55.15348954197935,57.06153180229374
37.896693522433274,24.503934175368023,52.270700232064044
22.65202866243625,4.313406754906715,45.29386996492886
9.016771241240154,27.16544294221817,37.076230551345205
6.556775194036469,55.57073433017501,0.21541608570302326
4.450956210530864,38.73026572903038,1.5024520376811958
0.5638802184723597,9.685878108225493,3.4597004760327867
5.227960604414429,28.106542282092153,5.293265297686952
12.720437596029347,69.43663027976659,6.6677293593828075
21.221475947617392,108.69323729044652,7.286138595101223
29.503739773248892,140.928646352545,6.950721988004119
35.90112457811477,162.2726910186917,5.680364891002148
38.550158444381964,169.86496805124273,3.6173566357592613
35.73842398067478,161.64373766412962,0.9132950885768536
26.30865331114973,136.3960555042652,2.266765345452535
10.101114876186987,94.37982256917923,5.672845543375523
11.63856035728685,38.38664707488272,8.921876020376944
36.17836741366759,25.87256009621385,11.53732180291137
59.726926534781406,90.78746226672108,13.07542853046783
78.16916648016439,148.42556770754024,13.289594064670723
87.95365858745029,192.09776920489588,12.200001338230477
86.99410786276444,217.5577922787134,10.056656115902339
75.2631706086029,223.20914901488635,7.149612364767539
54.835930360613126,209.61637312632809,3.636030018169713
29.304486526120694,178.841783770769,0.38963876113986706
2.7523446683063533,134.0089308804388,4.850200479576514
21.310970070773607,79.32852503525278,9.613470877277983
40.68720829554884,20.222881841398785,14.31430839157488
54.645128635522795,36.836093783971684,18.442056836569716
63.57119654019707,85.06713215378225,21.49231624277506
68.44098263139432,118.64267314593214,22.84802233004254
70.40317895359483,133.97855884376034,21.79021156616437
70.60858113489383,130.5825543596948,17.91719987923744
70.15274396352756,111.11848888843944,11.411183740116924
69.90994122525844,80.70291528897816,2.8481946207944464
70.16518511436617,45.74763979443883,6.911376169756021
70.20161306343113,12.674625902398521,16.705436683937812
68.19342479234929,13.207283407064436,25.300983027128094
61.667730774333116,28.499241222456458,31.640812949102184
48.51757185000377,32.10781115778966,34.88165406447559
28.138854322882384,25.19137724218641,34.47024264742976
2.0808963898046584,10.662582303046587,30.362896064396104
26.1887660191907,7.6398573287683575,23.12867689200899
52.39778111492618,25.877213815736784,13.79586445562729
72.93628469296277,40.96018133348668,3.522675161492775
85.97617192680828,50.90597790162494,6.710470626988903
91.77762732272733,54.78665322894599,16.160823405323143
92.11778652617795,52.43782646937385,24.215746644931894
89.281349126239,44.144255968131425,30.42092247347149
85.19237600438946,30.488103761343186,34.733507656306536
81.01169206272638,12.377089649932032,37.362418017793615
77.21614876078671,8.88144781304534,38.2423581746755
73.86991652342779,31.56670245559539,37.07605862986386
70.76066411896186,53.63591759977156,33.459872228821204
67.31083669164013,72.87847751043479,26.960451584010045
62.45388942275223,87.03777573844643,17.535778246438635
54.76822626282755,93.91995038267646,5.632751026151925
42.95896059315734,91.60571407360274,7.787534298986652
26.50849472957921,78.83462385149568,21.190333246914065
6.129023952471093,55.51665106186699,32.605831398169265
16.296260990056496,23.17255342266065,39.80456157464451
38.30375013357903,14.968031836318582,41.19909650139427
57.69938215568163,54.37288665533597,36.81616126954801
73.20544984719051,90.03694263942322,28.200076010397854
84.58556749240422,117.41380237974643,17.79296559935255
92.25857403351795,133.10916651906976,8.144317828529973
96.66193157474942,135.1947904898862,1.3139682771860577
97.78374701409723,123.23523013007774,1.2036008763478674
95.12664620062652,98.22759416141021,1.3997199515113994
88.06444653731117,62.60113061555101,8.773373859795491
76.38309425141206,20.23517820736451,19.304152687637306
60.72653940568361,23.771568318495543,30.72166410748526
42.74034993251338,63.78479513142644,40.40720567714033
24.85246130551073,94.69647653615746,45.681371345671444
9.761601296617245,113.04362135002768,44.6025485408549
0.23229654370491742,117.69610036156676,36.19081892886888
3.9267558640797198,109.78066919725674,20.46986711914636
1.7713955906616354,91.93468648684895,1.1633396978626753
3.9604577450571576,67.33376941386578,25.908017528670815
9.574884667121687,39.02737548232341,50.02156966051856
10.94581944693069,9.871463422170061,69.97122733469305
4.853858613288745,17.108140586564904,83.4884200075723
9.785855413018803,38.44159181604136,89.70271807749965
31.309571575035715,50.53148083593139,88.81629100230798
55.60071924667788,50.659169089657425,81.59745724866603
77.20829797307834,38.25574064023087,69.16074538501805
90.81740494068299,15.71554985999977,53.00722624735179
92.52283242154074,11.816785968015179,34.75422436430961
80.53775696590958,37.734282950533334,15.85601044066877
55.26263003765969,55.80267780015975,2.4239391581686234
18.97320792361779,61.73054894574258,18.951937191969083
24.5449001480801,53.877031428353604,32.77844777939245
70.2748232273852,33.036062798120135,43.221262620876836
112.24561837760756,1.7225658843897267,49.810880144273405
144.0603093281859,36.44703739163984,52.42366622175689
159.83051942766065,76.96170048110567,51.48436945467249
155.38331612952717,114.37281565454575,47.810981047344086
129.35725494507088,142.48478914687968,42.31144670287269
83.72885920724009,155.21429990355838,35.80201196235038
23.50960198494149,148.11690760205593,28.912824663226825
44.29705270827053,120.0334263460005,22.104037861602833
112.0777626585855,74.02558727569026,15.762302261087413
172.83426749665543,16.985559393414867,10.16227334701606
220.89862544550957,42.07383005618771,5.4346454323160955
252.0961552044469,94.39760771015345,1.6729663272909063
263.64303861026247,133.56883113360846,1.113489371825708
254.08839792058328,156.51506801602144,3.044926163600112
223.48416592308624,163.24498698240654,4.240586470908626
173.78034582791423,155.74388202963638,4.823753918358857
109.1645504466321,136.78535096972615,5.004290714464608
36.040805476356105,109.26000066989101,4.991908622575799
37.54484482008169,76.15716890736171,4.85112982840255
103.06172858302877,40.87745921261522,4.461703357338249
152.98526666882694,7.339868014056295,3.5781206777158463
182.22667075802357,20.471831729773786,2.018057756823916
189.10207194963905,39.445028274630495,0.18081061760759765
175.5385242779804,48.30678858424286,2.806403072724214
146.44605515024725,48.068444518294264,5.5131579730918325
108.45267844056514,41.61641488358386,7.898265426158969
68.41871468328743,32.566202824463595,9.516617600818817
32.19422997254937,23.922086515693625,9.781404802290155
3.922694509992717,17.21433189558147,8.186344077357965
14.059396424992398,12.50774593399288,4.530805820618231
20.92623275296526,9.219344164489671,1.0415639190411943
16.997119702444405,7.239582597235751,7.867335610034617
3.561793290554587,7.626533362622795,14.907479607554631
17.075083791406815,12.37108752598557,21.259007806635413
41.53840205293671,23.261775816029324,26.349007457442564
65.57810275113906,40.426818731646364,29.809792714634348
84.66321925383181,61.40913940553457,31.334025493322937
94.9002967785756,81.43671583386741,30.48951857952562
93.95277655993254,94.94685796103576,26.92566504862789
81.55874763846937,97.71596800355606,20.920942338894864
59.43500266081453,88.57396027628685,13.23290942131295
30.64246240034504,69.83599865258728,4.702050506877996
1.2919657418463455,46.24212405337726,3.661462345982679
33.10534291428022,23.005092218230075,10.720104982431284
62.125951149611886,3.9946604171632756,15.352701227627414
86.21170627741027,9.057963194804783,16.761753222643108
103.53080908856873,16.122811294825887,15.007957330551303
112.48800181854715,17.781540988967677,10.97713761337927
111.96625471357244,14.424322961378284,5.912620915354031
101.82349855975296,6.403822789373597,1.0257943171605934
83.3801284622426,4.950600298048499,2.7774456638607914
59.57276120689378,16.304507533024896,4.952262505171719
34.56584604934761,22.283286771333636,5.172188689035612
11.859980286099377,18.51354472909116,3.285256774362437
6.640538359797909,3.605924571394675,0.6756056417093386
19.9794779246661,21.174013991138803,6.3530398454561166
27.97435434472487,51.727662862366735,12.802936574910094
30.93073951105379,82.11115679348922,18.821691048234438
29.424556433050007,106.35058974688285,23.53765919690468
24.2370567498948,120.30454407555806,26.368882025794672
16.405761930858784,122.72808383189383,26.866713028020158
21.800492182140466,41.527261113558026,8.66415509963628
2.9924280101703276,27.281617461689258,10.966281233431262
19.92286295512332,5.952872987262175,12.05603450525085
43.46034959048363,21.69477914832322,11.607689938441084
64.13093102647302,54.01997765190371,9.5551416576115
79.15299169543884,88.20057891992775,5.8957911052216545
86.87995890285005,120.29788750235383,0.7207355125116871
86.763924795553,145.6697965714548,5.698829414043256
79.12805050647492,159.85690218265339,12.942797034738733
64.74511602596773,159.43390138761032,20.325181431096325
44.547361056410736,142.6753623582953,26.855318425737007
19.975970945534513,110.32928814533152,31.453971162169307
6.202329932210198,66.2843506467509,33.256339589167524
30.505817932071725,16.140234908788834,31.840984935325938
50.48396163232754,35.38337277037257,27.270492774805913
64.91554121412533,84.58853105968927,20.064028543175493
73.54512283609148,128.14544423638708,11.175250124360522
77.15406233360835,163.14632757521167,1.7246862064065753
76.86504397699345,186.79792459662534,7.440567693530996
73.64129890320454,196.86127338155467,15.797272034791233
67.9609417675012,192.3290233107091,22.868836395971513
59.598887538680614,173.6792300282224,28.11483563923163
48.05670425806612,143.08021480756793,30.949965847869503
33.09790710846682,104.01775495598031,30.965244762045142
15.356768356021274,60.83931122811557,28.28363162073416
3.346167919930199,18.332542514253443,23.493575796741073
20.306525158597594,18.812453316197328,17.388601137846162
32.62553023689266,46.511602276325874,10.854808652006465
38.1705818017544,62.02755249522492,4.654265866783031
36.28705372694698,64.66753905109768,0.678080181644894
28.00406463665867,56.19244231641951,4.699183692843678
15.696969889371452,40.67798637709726,6.997255645821685
2.3254136687313087,23.616759505912317,7.237408095294411
9.312521712629144,10.584658545334607,5.308234422615536
17.101625163804158,5.8355216584621346,1.4685892601858654
19.802739475542893,11.293153012522975,3.6103561100484325
17.011042650042047,26.25329143144947,8.835099300311956
9.082617707716093,47.76449104648829,12.91154737082236
2.915385364835526,71.48723787245487,14.728141608502604
17.217870082488112,92.6914126345938,13.617994137547663
31.464253901893436,107.1757951577665,9.600690921846736
43.00585821731035,111.99312589584775,3.4754588319396804
49.406129101932656,105.92970961100534,3.442950010081363
49.02003345999307,89.73563096012863,9.797660925899592
41.440183737137225,66.01518910629956,14.560387107149683
27.647925522836655,38.71819985369206,17.108359584970493
9.818280289101,12.265770693029323,17.14581457075378
9.132471008707594,9.50273544667375,14.742656032912631
26.110639695573404,24.21644507068267,10.636569436250237
38.39633188745583,31.382352005765178,6.232900309878352
44.049387679578885,32.16798109632238,2.945831300434678
42.11713866505608,28.664570971960938,1.755271844094175
32.658361410861254,22.983727141045716,3.155194591072617
16.622084147974846,16.59433383618142,6.913536528339771
4.344615093438371,10.145694444611376,11.897536894919712
28.108865251164143,3.7764271163016963,16.50420289345223
52.231396613805074,2.3225418440061834,19.468323972048825
74.08972210723793,7.462617722769494,20.098355863351813
91.01787263959075,10.387611335302356,18.20391168593572
100.54248378078381,9.590944152117995,14.251853032496792
100.72881708369069,3.8520965517876116,9.110891613038234
90.5642437212654,7.300817151862001,3.7936451310061945
70.24128910415239,23.423074295632805,0.6661661117156683
41.22397836239393,43.264942592839205,3.6243869508212216
6.084500616822055,65.00866239409757,4.934256465600723
31.814279361999596,86.44112536075772,4.8264323764272055
68.70449397717472,104.99587187046804,3.7928784842318284
100.77810427879928,117.80369818882428,2.615424055780126
124.50678404368566,121.94284660456795,2.3415833015714362
136.9928958322759,115.0177283285986,3.6889464227351163
136.37706369841598,95.96036578208039,6.682815497861862
122.23053099708127,65.67302933483602,10.787320769610409
95.81020407082536,27.14269432230935,15.079161798855187
60.0538855903654,15.117121169559033,18.398258671652822
19.279254493923826,56.12078748247086,19.716770224218433
21.34728622104819,91.48757728498465,18.863135638949785
56.444609685598934,118.0492970188459,16.41951523648395
81.04907075226775,133.82649660284187,13.20852374566867
91.22819769809607,137.6266817938371,10.331944129614548
84.71463598254535,128.7350508619763,8.772123506541687
61.55715569905888,107.10007622378838,9.034889213285078
24.618208446633233,74.0238749027463,11.139451082931462
20.399751324010374,32.880163708322755,14.50161028812926
65.66072086838952,10.78688776424315,18.106201071084733
102.66132129280851,50.15963621829717,20.68615653123363
124.10336766483015,78.85513650945815,21.051715561337947
125.54761943041903,92.7489350094776,18.39751978945534
106.3390882335178,91.08100871808504,12.35469646423369
69.54524669776427,76.31001482737888,3.245023423360126
21.00865497408793,52.851426500206884,7.9442408178373665
31.988090334473824,25.44243214470896,19.704786433271845
81.98426077434063,2.048884402052835,30.17132619091314
122.31926745345132,26.905978897691224,37.568360757822276
147.8176542325438,47.07864987230784,40.56550944679008
155.34938373341643,60.59383207635326,38.785744203371074
144.34851222253243,65.49594608880295,32.92102351692501
117.1257779633763,60.48153301272201,24.191275470811405
78.68582160335023,45.85008509950815,14.146623586628273
35.854894034975736,24.079766425666133,4.581374378827275
4.183702683368904,0.5182732712795017,2.8523095798675846
35.51895332446942,23.061271350704722,7.041710357384025
54.71456141268513,39.64843653240209,7.615173341279615
61.17609643079943,48.3798770085631,4.939996083985617
56.65305027803372,49.35946184014048,0.03227711644108534
44.22540207749272,43.81462212654669,6.117607159786036
27.322014399018336,33.0083211245747,12.072307131806143
9.104781805671665,17.727355689396518,16.71731627930743
7.742587205503475,1.30827740790516,19.26751834653122
20.97396760665216,22.44281502949507,19.319514255926045
28.784068769139996,42.29450546955592,16.818729046108963
29.99923824007066,55.95311762733967,12.272999874510703
24.36268920544198,58.38843706259349,6.526104386497474
12.736283878481196,46.530892235059284,0.14794000101664742
2.9476187654909247,20.96317730319206,6.861317016520169
20.006314010197396,13.71357035853685,14.708813434959923
35.493684643055,50.08769991815169,23.286826292884754
46.70794415027697,80.20863176035827,32.08475010303041
51.62751747038483,97.9072507833698,40.2772158047245
49.27709350365849,100.16981371128642,46.86620669144094
39.986851821175634,87.17201721301629,50.95106969118801
25.438990916051857,61.32608377566902,51.75630569001003
8.403704761907749,26.113609857268212,48.55234233284452
7.866858210616921,14.61304957016523,40.96779369214922
20.447884489971848,56.66839519829791,29.385208883515546
27.440725593785285,95.28574219440596,14.860371250199076
28.269418148289393,125.20956602651258,1.0922280248379834
23.465075061107317,141.50401114450943,16.544430063604175
14.102069172008079,140.91363794471982,29.542359131703943
1.2878622728037372,123.15274451920402,38.5621610763512
13.981527616161364,91.38837004104728,42.52515755213337
30.561272573829484,51.51670430219553,41.07768643653466
46.73232235772029,10.468089827093984,35.192075391595544
60.04887069767902,25.709405255729724,26.90192223293425
67.71073454053844,53.17504958225951,18.291375556114765
67.35841342070971,70.59324174367364,11.090899986691202
57.92146782603885,78.52399550025221,6.624943470928569
40.03418831252161,78.43607804530329,5.47519778425374
15.807537918856177,71.95187779690971,7.522734896821012
11.85830606559611,60.638924290645626,12.190023939905755
40.01936109771226,46.216970567745925,18.31436084036954
66.0960143210919,30.784375048770137,24.095229027592875
87.85482481798604,16.71433878684946,27.5849215459772
103.47216828606241,6.182012271686848,27.679290137387756
111.58704989851846,0.5599436437884399,24.233493668736628
111.34907571922352,0.041912657267249784,17.618016713899895
102.80281935480426,3.1833033017094925,8.747213173630024
87.24731874790824,8.210337185889978,1.1502106562000372
67.24317586752203,12.941275877966913,10.832595300641236
46.11754223823781,15.898205160286002,19.041416962676397
27.10496460067464,16.544893636412997,24.650399870048105
10.720810570716369,8.223200873220447,0.8541997832778309
5.767548532446222,13.852011178520574,6.579575161631825
3.848317419417817,17.125034983888014,12.058406147302247
17.356224708066158,16.371095774700137,16.073216107850847
32.34881767215631,10.878075598418805,17.742866765238265
45.223656989559764,1.165586103067986,16.538306169688788
52.159146707604954,11.120959265650695,12.400464286043922
50.301097559140096,23.635433185352003,5.720231264381825
38.760885718208044,33.844507273742735,2.7572938398113584
19.003733930581355,39.47893527066139,12.023425300931443
5.4789155085421894,38.834098056558034,20.918070745473663
30.03712639702507,30.891817701899438,28.049172203705112
49.985351296299456,15.383337664739377,31.816515346250515
61.82751812883576,6.759854520801699,30.97254394888662
64.03568307817655,32.824331490963075,25.16556820321412
56.92165903583895,58.50406877181749,14.966732283786047
42.27326935893144,78.7089181092898,1.8848277916098226
23.048761618461267,88.72502137676013,11.849007302793988
2.8872437810231495,85.62526718832818,24.136006175629234
14.389409889272246,69.13861558218892,33.55033790527074
25.414065869415253,41.65290977262035,39.35254523253128
28.035209782886007,7.406234356207932,41.40724077847469
21.897616244918428,28.862824535997593,39.87082564754298
8.68740555860884,63.041697982302765,35.011010272374044
8.188376272867524,92.1012754052101,27.18126356488009
24.447252091336253,113.81332305049818,16.837643512861536
36.06501757044568,126.09246738247433,4.928022557128127
40.3445489471302,126.65531157287559,7.082072392782873
36.51596335748559,113.40471637875386,17.831746184378694
25.729023796853124,85.49886007436194,26.388091948194695
10.464815399933398,44.53323567400493,32.328705142338
6.351850221483108,4.933262344834705,35.82695369220245
22.152475970443348,55.96684169537911,37.36544036204506
35.206106658603936,100.87228803550761,37.36778962107424
44.6801779751154,133.1371865915589,36.06649952633654
50.38213715739393,148.81346877907657,33.441746688929626
52.408401356733954,146.80921436234408,29.265867631586378
50.905207210248136,128.2155234748378,23.271424300366494
46.04246417730281,95.33044529839663,15.277952829018085
38.14047874801986,51.112236951609994,5.291711875219711
27.8204186175753,0.614475276867161,6.361955247220347
16.088789008867806,54.53794955067269,18.916622100347883
4.291744594522286,103.62760676031738,31.084782483863073
6.073847705593816,139.94722247814022,41.33560702777589
13.616250727986992,156.55066521052808,48.31941694538055
17.307511436751554,149.74982662424893,50.71088756057753
16.72174690078227,120.60875765586077,47.249815662283034
12.186145008970215,74.83502395497591,37.60863513915366
4.786163579659594,21.05076643302198,22.85589441934652
3.7828248147222694,31.77255501107309,5.179556313583134
11.528728918945209,76.52363200131009,12.484480982945211
16.56644054007817,108.92268671703951,27.145893732381083
17.470512809702647,127.15992928981414,36.58023200071744
13.515382316586448,130.8586602364269,39.58830146791177
4.785126182747044,120.30161593814962,36.11013214926242
7.834516041519737,96.47032710114601,27.411243326373715
22.723734512316994,61.744906829038335,15.797954417539227
37.634238465798234,20.564086321500273,3.949609584340037
49.87942651960885,20.705905113233857,5.848308108730715
56.686913192845516,54.96262180602388,12.173085175674421
55.7675536249906,76.2264613228164,14.476888729927145
46.011422796870605,81.33212939349097,13.107895626729023
28.050448721945518,70.71293262300914,9.035747135492887
4.423196949174339,48.025590922185295,3.401089786219036
20.814660281673312,18.885427104197017,2.420613354142306
42.98261233894257,10.64716130048115,6.924082815279377
57.856459657986846,35.24653985256466,8.969491640837523
62.55873457570593,50.97102668000147,8.04403876218529
56.0055225858126,55.50888225789722,4.393963968881335
38.84622440928844,48.26019881720184,0.9735903572862292
13.068827196450885,30.38251977317508,6.703923187324778
18.442565824101774,4.737235637227069,11.643906822097053
52.223777550469535,24.445374133435717,14.990924984786728
84.41885694737852,52.280700194963735,16.26117328544334
110.9618528701834,74.1863836402783,15.37358776779307
127.88825953596927,86.79611165187656,12.622713954200869
131.82924156406241,88.54334539221459,8.624385244217446
120.6134229603173,79.76598283993762,4.120188248991376
93.78000995579384,62.38520784563527,0.415764731803005
52.85636864520207,39.3555419204843,4.816625493398733
1.364937886351544,14.095307130356153,8.911652442129066
55.45598262153476,10.01972046037733,12.346199308199287
111.17703289563978,30.093672136197704,14.700215901887404
158.8892947045063,44.058773528221465,15.73515644107848
192.1033472889796,50.89908848529639,15.396188960318005
205.77372201607324,50.67889169981366,13.622112223801274
197.2692217402248,44.32126458070826,10.45455476296572
167.05978900736457,33.20312463810043,6.255440264764701
118.87386743169779,18.753370434989492,1.646297697890389
59.19882503854823,2.268981228428829,2.637448964531492
3.791269059517793,14.943366993133194,5.928455244443471
61.65291226769865,31.193057506795746,7.7328752805600685
107.10466368703497,44.06447037628242,7.764943588926636
135.1571161626347,50.437301890269886,6.22373657435054
143.76821161681903,47.06565545529821,3.8625787559223044
133.94596398319715,31.6194188862603,1.5343252362434026
109.32022691006571,3.8255160433418625,0.15236196785173703
75.31979524275815,33.77988054116155,0.7913077254530301
38.1039571000853,75.89778131005974,0.12250907045748378
3.4367670797640977,115.41598878193763,1.9098431176366741
24.21980228528229,144.99174672303835,5.161095295233851
42.199115936909074,158.74580279120457,9.217875354122913
49.67459603917288,153.50917605444016,13.379199555455193
47.31891345633466,129.26483867958194,16.878864571068508
36.765725228798956,88.80225362036965,18.816102380890566
20.107995477331166,36.90495095178003,18.194501504877085
0.4140917022137084,20.5505964683411,14.618522069377521
22.48969234239415,77.3249034969071,8.700334430506226
43.672565594263794,127.36392044027635,1.7637411350343457
61.32794105539791,165.34221956828696,4.675039265384267
72.69932769242088,187.31472158025565,9.317158128633915
75.17079967703091,191.43414821734277,11.369469574732323
66.71997801189696,178.47232303816466,10.873914878636604
46.48288768220106,151.75676006421992,8.663860209840296
15.3174656647191,116.3630315160812,5.893629708648652
23.847008619883017,77.7598591453975,3.886726592975143
66.0937374220256,40.40632795623437,3.962020685488814
105.13546655360328,6.8969935996932765,6.802093614460202
134.43136554169428,22.02247230698253,12.218625590654963
148.56710405474718,46.68099185128274,19.365121030546433
144.49091097664623,67.45684616711668,26.76672998864029
122.21260617513752,84.11715049789218,32.36731363780591
84.77853223884507,95.86058459661868,34.09908718135964
37.61142850222769,101.96045594050099,30.823333338951496
12.511523241573885,102.52647924992529,22.742546074664617
58.55248156935588,98.85337475063564,11.292949999626597
94.19324684613547,93.10728089612509,1.1387629216765767
114.63217706727976,87.51058686362033,12.015985098883293
117.2290422802467,83.48073090476537,19.386150315360393
102.0205337007978,81.16612480466557,22.19201356100691
71.9646497355073,79.57745207359193,20.596116149957137
32.67836172042937,77.14516248595362,15.897868348515322
8.459673114844781,72.30118357236638,9.903292825556727
43.740936196887496,63.79115367053548,4.364336955663804
66.72700978364135,50.673823717980945,0.7895030437384895
73.51368843494734,32.20769286725465,0.3861589101912868
63.29893118406407,7.911904712704971,3.7389129434800257
38.194418911139124,22.09203118231066,10.55046720980371
2.488974238014005,56.594566539138285,19.771838329442975
38.27308229420768,92.99205265759187,29.747405047880182
78.1019142213673,127.46955519658104,38.262285328500376
111.20119398936289,155.7016336373293,42.94420315350761
133.24495265692877,174.32858151036146,42.480385260493065
142.06582516341692,181.8345778477466,37.16556784378858
137.44472559371883,178.37371332841138,28.336266408427168
121.14326255173171,165.504697572054,17.92941131708235
96.59379968850605,145.6437927294398,7.891324977114955
68.22502485898522,121.47164062800385,0.3772751583381812
40.522496700352676,95.51300839897802,6.173735349024036
17.081112611936756,69.96124720921799,9.511549616765665
8.320094209298958,16.82964041572744,9.510847902687239
10.237974220665286,20.198717527734743,11.105887950189283
11.289622495589075,21.57853263045318,12.112163369545351
10.856781579279529,19.808097793429035,12.25116972460819
8.294903040502506,13.89671024449701,11.161931986866525
3.2185735325558036,3.286441293497561,8.411858412038885
4.144944267071549,11.84430050061154,3.68688724504512
12.742702468614207,30.31548856914351,3.0735060373650764
20.763360115812933,49.85761999735157,11.61246989036181
26.08787409880712,67.33861845490271,21.122758046661453
26.967710460739262,79.32448672194296,30.362082420166523
22.62979186777781,82.85692261239194,38.15436535751088
13.600104677742845,76.24177115492574,43.599177990620674
1.8119915423844277,59.59649280183182,46.008972432324065
9.843473557514626,34.87470565520263,45.07249437805153
18.6547806840926,5.362208131804843,40.90247900241446
22.867007273958528,25.016614180844613,33.74009874050976
21.79318346241482,52.3858154026081,23.910446450974483
15.675843070700077,73.50246330602023,11.800486633787614
5.303659136347801,86.12920456238946,2.148718721361246
8.223892480214346,89.27159449882016,17.0737965373379
23.451063703123697,83.34197004296651,31.706038627922506
38.47915504848668,70.19053835804021,44.71960518291742
50.94661717747029,52.88306200273576,54.984896734837996
58.334489319860914,35.10897994107336,61.80827443162061
58.54553232881328,20.285913193094803,64.79391197396478
50.50448058265831,10.627895609376425,63.712292306148285
34.52212972572317,6.561002842803885,58.595020458344116
12.208914117615862,6.776511200539934,49.64382655113845
13.966608125661773,8.910553981666748,37.29649271073124
41.264783555257466,10.533596084013219,22.530621503674066
67.12479670187574,9.99278856371537,6.820498448767308
89.31471992440976,6.755844037278234,8.314029832134645
105.86280269988575,1.1845142198452518,21.508611225068652
114.93706401262531,5.996062054509964,31.473320751371023
114.89765762346681,14.142444216489624,37.152062790290884
