10.988600775101656,1.046846355768225,8.210163217209995
6.0672281277706475,5.203689529840725,4.442124922084018
1.1760395931239778,12.082043592710148,0.7720584200735019
10.242145095386457,17.986704536854162,6.957369366822911
20.021454943132092,21.611883850379648,13.443947815828757
28.831138669186316,22.33524073998797,19.423527135217594
34.7527442661013,20.237600630960074,24.178275970226494
36.16146730761835,15.795957512088684,27.01393111581656
32.36262786670406,9.515986615913759,27.517160855908855
23.968360769158856,1.7321778288900527,25.65316607735263
12.855361745201446,7.31730546867539,21.430834552703924
1.8312071324381591,17.190981643053245,15.099599604157472
5.965822440027504,26.93196978955201,7.288395316110536
8.324185518276554,35.155024340246314,1.1995028006708017
5.123835483005539,40.49662188643419,9.544582855124208
1.9529811601019156,41.95631212860759,16.993323282652884
10.335033044081108,39.10900247394155,22.888219016595976
17.343953773642077,32.10750584996415,26.988999011314228
20.996571946102673,21.3731088189729,29.478368950446452
20.207103214020457,7.372080579400229,30.66945126392046
14.575610373444626,9.326982788682049,30.915671835274715
4.162872264150256,27.72231407374645,30.261353562192916
10.69326317153884,45.9717650300516,28.47749426696305
29.218428522020986,61.362772275130105,25.43467656019703
49.96782760966592,70.80885977262638,21.220015802220022
70.74829508861129,71.7349919035469,16.052788270287547
88.81513241911142,62.98145230549553,9.827371649594166
101.44853055249601,45.27514672116288,2.444941299025886
106.58505789826907,21.08652001167631,5.60340051080285
103.22874937326677,6.010281852118396,13.697076682450595
91.4557370164454,32.123469289343305,21.244443264634704
72.02886797517007,53.67141769337353,27.58932836606598
45.94268046301883,67.77989759043447,32.22338310016209
14.224757347074693,72.55219951741527,34.88151031850788
21.83799940697256,67.3693670925785,35.3927186953685
60.20427528722044,53.22742743170354,33.3323429024405
97.69385203339608,32.88953941498768,28.433716638194436
130.07500155999628,10.55758036002486,21.129477604360158
152.7661088901804,9.031872130645358,12.367862944771113
161.9423453855792,21.850994596640426,3.410145769372684
155.621331535705,25.694399054202307,4.587155165592609
134.2819822335773,20.683780679442442,10.803609029831522
100.76891317964078,8.948136051462377,14.61270391386403
59.59088696234557,6.296197129995615,15.406758078397896
15.94491241287148,21.752340930494086,12.627110389965086
25.194180989504254,34.69780565044752,6.4638374178269355
59.71233196315254,43.12155536602261,2.247381549933504
84.69895689292466,45.51061146827328,12.539466240016141
98.5855861796327,40.68540177740341,22.778064628813013
101.17322586000935,27.96694526140359,30.613825234854463
93.55556879973528,7.630619643046329,33.522593093356484
77.88977865366357,18.64994366263765,29.376021412156643
56.985142532122836,47.747958488341766,17.345533416509845
33.77655538554262,75.61948091002171,1.4926655335471224
10.852263761898747,98.25200110440649,24.28342807797107
9.810705995955603,112.60444409738402,47.35663965511585
26.849886923565194,117.13856061283198,67.00961516992987
39.35271408014363,111.76940715033253,79.8685314968262
46.70317908327654,97.41180217853906,83.79716070952517
48.5601337508322,75.49662040477726,78.42432510530433
44.98486778401916,47.764549528343366,64.7802464379491
36.62765768882012,16.399520193526804,44.635487138981645
24.81974165785113,15.742723192015752,20.27612524230723
11.455061977593102,45.181274793505374,5.298532773428743
1.3373055778516274,68.3326571924743,28.93825492336145
11.611908438189865,82.3988190368289,47.892752363619245
18.00070247518998,86.24532826531117,60.14110766594014
19.9886755845973,80.79980770330333,65.1299782606748
17.983904212753274,68.70842773183679,63.70764827932182
13.181584080714961,53.384838302898814,57.66113679032176
7.257555943083781,37.87663159473704,49.30920945534778
1.9601094818865876,24.08767500478919,40.568445190989685
1.2744479815370335,12.705004383448227,32.442696220099684
1.5865094972154015,3.7266253775067395,25.20835090559897
1.2499584428050694,2.812037854968666,18.807798439532924
6.974802531035414,6.375774133395876,13.067616369110777
15.059974109577992,6.02857228878265,7.6265837051049035
24.864260531249347,0.9917991547506138,2.278594931598795
35.62695912249434,8.717641955729196,2.7446431110200615
46.33811733648334,21.968721542541214,7.139053444155354
55.65253202736991,36.726513271045455,10.935643813589538
61.9941028892391,50.6469129301618,14.50916437711742
63.886852408030755,61.68955741447425,18.2050257709075
60.38833837357676,68.41052891656499,22.277580694733835
51.38840077436077,69.8434831714162,26.928114273500547
37.561156100522496,65.19503925106027,31.959127310746748
19.978898564505986,53.701657046241365,36.8304929646521
0.36413674939716856,34.88932263425179,40.82232641576701
22.810291015084022,9.192525051308285,42.9530560302662
46.848667995631615,21.431597001354856,42.279880120181375
71.53968654633094,53.38430423205602,38.28106278411771
94.9403321822055,82.07086539273816,31.07502695072527
113.95317984867995,103.13504847047594,21.492267647523896
124.84986075207665,113.78696189284821,10.748299603556104
124.36043391406425,113.6275189906222,0.0583688414486602
110.87506673343817,104.55928740327674,9.420245199081092
85.23237909674069,89.8562979146964,16.584791557323445
50.705388204096494,72.87329357231948,20.751746385782347
12.18960180190243,55.98894006720908,22.00853433468444
25.01274810298732,40.21572181576857,21.0550830492622
56.3304611304012,25.520965210979238,18.978450567002717
78.60253511001035,11.537295609913595,17.113895275351336
90.21832639232123,1.8011111122356438,16.67520032993906
90.93107382970358,14.047427487164056,18.27549039056117
81.61285594510076,24.470173859695045,21.70739839935031
64.1259570064255,32.45629970430017,26.116397748493377
41.28072656614099,37.80245213035184,30.311709840450686
16.68287433979567,40.71327659994998,33.09906213464569
5.7121399672556565,41.53522584494204,33.6943378045079
22.34916717881042,40.479465319713704,31.927192786100793
30.90548992489658,37.573360629141746,28.02497663675982
30.87222862903547,32.87651371744525,22.42441461942175
23.63016608989842,26.81580681142728,15.748453743834244
11.96140375318684,20.384528083103024,8.671408712238915
0.8250387113208941,14.9948625197175,1.9385678190222317
11.815625343208236,11.992851361192663,3.7528404218433944
19.122173075194986,12.06165461366424,8.201033434146236
22.05222638684384,14.828291768665855,11.830071411021468
20.881722362728897,18.907234651293034,15.615021190222285
16.43053237833369,22.388556352820412,20.845920378456597
9.686756122774515,23.56474185047938,28.676092511603304
1.6207108827168921,21.587542605247908,39.36044008105673
6.836577767263411,16.763224317928906,51.28193248763708
14.748573489355893,10.377642699918646,61.43044370227064
21.18624802832099,4.17277202475554,67.00000926332832
25.35542467300597,0.31235620175153317,65.9798282908096
26.770129682987847,2.2869406019604104,57.23723231578088
25.374490615435093,1.936618405347644,40.9053419934023
21.551830068294183,0.29804328975161376,18.53433794769927
16.002929862827486,1.1436148171307152,7.291403733438603
9.56481318003749,0.9726291121381627,33.62806376167364
3.0863333976254568,1.7207074222267384,57.45133302767443
2.616117586995321,7.11042054484143,75.57905954064958
6.778971273645386,14.670179264485665,85.06697012943576
8.77240114248244,23.431400966674158,84.17077579507398
8.299586012741939,32.30840085916014,72.83102907454557
5.653028327481058,40.352088238705235,52.37933998502599
1.8741648451430606,46.86247746376478,25.5188379410161
1.3542545706201203,51.342842640983996,3.6930227138456337
2.1518995773163834,53.38755390090621,30.50221777034697
0.8971862799089599,52.640792746830435,50.557815882795325
8.122802229059843,48.874618701879356,61.34530413526468
18.64204251273665,42.495599640732934,62.89103912170191
30.906792500737453,34.57031435779004,56.5594371312936
43.28727838207597,26.267179002364593,44.08680652317507
54.35796772528769,18.575769603105204,27.6606007810461
63.043765127637386,12.089273993487879,9.659569493271782
68.62758814523905,6.927623653998554,7.631514281665164
70.67275678440247,2.8441733595219314,22.313566908735012
68.95546162031523,0.5288935005343255,32.95567967157926
0.2631647340921366,12.853222317292827,2.8744117455406237
1.2204960000545075,11.647025868346823,7.549065099754683
1.3499984456341663,8.338647607655554,12.305326025607492
0.17677926102340683,3.285816927300298,16.32732844264649
3.652304886229063,2.8204950882819837,18.663623686815328
8.614046276260424,9.210521277712862,18.51012934969285
13.946063482120971,15.280426273116788,15.41985952734049
18.19984324374666,20.70630444998121,9.376083215513683
20.022283062769905,25.41275603739563,0.9927205869493837
18.45495976020141,29.421491791524414,8.703009015205023
13.068749716765057,32.67341369070818,18.481536912915754
4.015844887743258,34.95456806672746,26.89519903896235
8.022042256896489,35.97784313231965,32.49300951593806
22.148676280237833,35.46807953004998,34.202164433918185
37.282195873592585,33.18669050878414,31.51680603169431
51.540614594336716,28.959415824254748,24.388761835699032
62.12761707146823,22.582524707733274,13.381027750124229
66.01518613058614,13.692755225772647,0.08260671929807441
60.81799515240211,1.838934069821884,13.888403772397824
45.789943461410594,13.273693909734991,25.647195525566964
22.35959544853161,31.42195780423423,33.290728872904005
6.132604739300892,51.52462277699344,35.485627187250834
35.25490963514541,71.53612187634177,31.98589799042681
60.64247053285264,88.6663141423982,23.855664217233485
78.94659503376793,99.94277804744183,12.874801683318234
88.2791419227721,102.95136748797957,0.8618133221171781
88.16885257639106,96.48998387643276,10.613557110506294
79.21241591068785,80.92331813477493,20.396619934100787
62.77187276873425,58.09610135803356,27.594199292195025
40.84442353739584,30.833031487366156,31.446874799412424
16.06660355441015,2.2499380682508496,31.49891701625782
8.350271830788808,24.83830991630543,27.72606970756812
28.9960090986285,48.22385117639474,20.753457896677336
42.95475554960429,66.2922711253181,12.00326746231886
48.60328543733845,77.84712914945413,3.0747255392544224
46.158179658837135,82.03563950772926,4.94182383726919
37.66869181336172,78.53261360973218,11.425649022084155
26.41748684653273,67.9235731739733,16.205898469185776
15.939779568812696,52.02894750266836,19.79943212506766
9.035055045908631,33.86489102779343,23.16903585583977
7.160704481438728,17.08092894778871,27.0294509049001
10.334467628968408,5.001956726641534,31.394123848045552
17.433419906609746,0.3234039341875345,35.35448659846298
26.689720787428747,1.372082435700534,37.23473156401358
36.125539837670146,8.731121735612527,35.426571215563605
43.81151035037613,19.455381752309,29.231103563042193
48.01397252573631,31.126934923996075,19.0689851459325
47.322976408734725,41.738784217685065,5.958406168509501
40.83788222741658,49.72312892613266,8.86744120431982
28.399108981474928,53.65755187645512,23.721991630828658
10.753689363233903,52.03514261500403,36.58901788279014
10.470588835687375,43.407968974462456,45.59777981745529
33.022288036536466,26.961780865714417,49.4858175776064
54.43065933786632,3.2227347084541833,47.975203742762915
72.43855613242135,25.572786513818944,41.58785474412818
85.32967422279647,55.749041168021975,31.286473897972243
92.06378656839514,83.0584089250811,18.293440240605246
92.2491265960867,103.77389228284353,4.1078129819157
86.00419510991223,115.52067367326191,9.406737551870563
73.80171071868445,117.52506391455894,20.42518678723807
56.37812691574817,110.3140140568387,27.551844349234283
34.70882752781676,95.1779491041714,30.06057122023142
10.04725073646815,73.7472325853582,28.380753036021954
16.017845073964242,47.8686127108387,23.83768397179601
41.559380381789,19.71135884289186,17.82845501413206
64.38269522894149,8.134215476370077,11.826936689237344
82.19971598425946,32.79688603282002,7.297672510674737
92.90678674893064,51.55525372453917,4.603681010690224
94.90990989891353,62.415738274588406,2.928554729523486
87.47329188653559,64.62035304232421,1.2784430746648536
71.03474294351614,58.88347291414084,1.2082427383608227
47.37454929771841,47.2866782503443,4.890952339559835
19.5526241523965,32.87919730542839,9.441034099625348
8.44655450640098,19.07337622417689,14.214235806165915
32.370629764876604,8.966058227902321,18.216204141421162
48.54531941278504,4.705488439243003,20.400754718097616
54.66754060210141,7.0314599164741605,20.15962330650596
50.29822045243274,15.147733862024662,17.457130818870002
36.902364525655415,26.983539670155103,12.997808059040883
17.40998154667588,39.7627015856964,7.722842077894081
4.515135642332119,50.696824837322765,2.144416835883916
25.203710562156722,57.54569213509661,3.4810393871481122
41.5035492066719,58.8776296603244,9.028379165348808
51.036623583172634,54.0562303310008,14.362157862654332
52.295154376048195,43.107827200220534,18.835519325769294
44.745923170225616,26.6316739099303,21.596937116719236
29.017835208601273,5.813100156070709,22.259825488325514
7.090271716558106,17.558489072610826,20.70341523994938
17.763411026330072,41.226548709375535,16.898357109922177
41.471935609050774,62.806224485388974,11.186119497517451
60.0458828699906,80.23859754448144,4.255774659273203
70.5797871864164,92.14928762748947,3.0311435346034634
71.95890662396447,97.90182010589047,9.898630498281308
64.93446149305471,97.35470485479374,15.980270129461678
51.56966513531537,90.52181312277222,21.311408234087484
34.36586542921337,77.40527928279451,25.99023940162057
15.535415616016385,58.17227210706265,29.544870583163288
3.258728848578444,33.580136574774464,30.865145119102664
20.70168858944133,5.335021319331096,29.13373112475031
35.43565378373033,23.91389798058295,24.167204291222237
45.870138159816484,51.00524843045917,16.01998670410215
50.41066175952638,72.93608062860604,5.128760933901556
48.0135914991048,87.45969227273328,7.2621352574458236
38.75102292920619,93.36141306527603,18.982740184961457
24.038983964650566,90.41094989016503,27.635557701853738
6.382644711532533,79.19857788263107,31.816041387754712
11.240996238632365,61.070883888003664,31.44451638354882
26.053146207317816,38.209091235066886,27.375401955698802
35.92692532608732,13.659580795612182,20.99739806665757
39.56828300443374,8.953261118588957,13.786317455621854
36.51033077125189,26.124894116968637,7.092190062791653
27.08582076853038,35.3856662595979,2.1384589268004692
12.477650291667928,36.03665063636781,0.04697208201625965
5.2403216713784255,29.31677852571014,1.2739356092875231
23.223764297162212,17.882596517836806,6.235529351856791
38.24635551546457,4.871708177195061,13.787048078352212
47.32048976193827,6.984777989252231,21.72135163004716
48.350565992161336,15.83310774870311,27.488316846610402
40.59916287737354,20.66233748480797,28.77850985656978
24.845746878776914,21.01080460597566,23.751198669689092
3.2573825379024357,16.76140556689242,11.52564860820698
20.93976044589572,8.183741253743017,7.056406311133486
43.89483764583065,3.8657702660398128,29.189687258971247
61.635078963708985,17.854274114274347,50.93956990071213
70.6567445157977,31.80879289232495,68.3800332219021
68.56442091088964,43.83262085174332,78.29549600720637
54.63943940887985,52.631944276974245,78.719813319406
30.1443994739251,57.72440446233671,69.30662504835271
1.8152719339249435,59.18728412340033,51.28375521995289
36.863458912406045,57.13681420633954,27.16057184436181
70.16826911649831,51.343911206670136,0.26445124321145147
97.2256587386043,41.306721791721664,25.826620719485856
114.39536221715092,26.786601528925907,47.696455919046414
119.17114281622011,8.489024482263881,62.57116667164314
110.32690806611788,11.596919711706043,68.99060218990454
88.09987433107355,30.512687397657327,67.1242572432908
54.43955665129661,45.20112854701414,58.577353433159274
13.143921695043566,53.53850222006939,45.72729402652298
30.392969605522342,55.02251968860175,31.021370835482205
69.99162165113835,50.79322186548479,16.713166588930868
99.93197581312167,43.07243692081232,4.639555697600104
116.23669026200248,34.368662386343864,3.910455551089609
117.71173240029573,26.47651779666503,8.486212593777278
105.73521911920842,20.566066368716726,9.4497191305941
83.3021875815129,17.805853513832044,7.622001795191161
54.36166238149016,19.137158349054864,4.132598942642629
23.117050211176824,24.87514663973628,0.022473322837828536
6.529539344662111,34.30065892355433,3.9899072071104618
31.33693746539789,45.50482295150809,7.45752514219893
48.95780676179061,55.700902954064965,10.042487012434291
11.677744488071248,8.469946500682807,6.575108323919688
8.111323132984072,5.566401309377049,7.959826767480286
1.65873723427193,0.9272797772423815,8.102431800410054
7.23719035645173,5.264647802467823,6.657048319360461
17.542573938525585,12.516574932887599,3.4772512811035075
27.9301673409111,20.045868299009673,1.3379934435365735
37.107360699855285,26.849206745008413,7.3574606833159875
43.95771464850536,31.782776469683114,13.542807012583287
47.51785247159532,33.71998279846695,18.55394060481278
46.83050893461794,31.68891679336777,21.32198354708071
40.93862064481654,25.05366544494829,20.940350290727167
29.25188788893287,13.827281940995716,16.658179005455445
12.128462621138313,1.0162288410767943,8.21975339265632
9.031924937462344,17.772662639520174,3.4464343742895314
31.992443297302376,34.4242379965568,15.797722892900003
53.62317207112224,48.46929490556367,25.703143742544935
70.47529391726809,57.068224353988136,30.472874411526327
79.87397410780373,57.774670273273664,28.5855798399209
80.54015480190142,49.17556544510653,20.66565090064244
72.79221390022842,31.562708139868374,9.024740524702347
58.166089375567545,7.219218164814214,3.703243483563707
38.72197285477744,19.92551854933656,15.27059716566178
16.6202548494974,45.04520292610262,23.878368241693995
6.015322651496816,63.54016397822534,28.15335808730554
26.920013798903305,72.07061982019918,27.252178075721627
43.5662781426567,69.23386159139416,20.867440129227596
53.42115575528732,55.76194198032607,9.828925018828455
54.55513826913798,34.18998264735161,3.834795870949354
46.44131404914979,8.272578390475022,17.675715410678567
30.48150833211955,17.72758786827206,28.635538235990865
9.96411500861148,39.724000560164065,33.89789738445389
10.566481389274317,54.393442252555886,32.59214243222897
26.32540597999314,59.708406750977666,25.610934891488434
33.336139881262945,55.321292601550255,15.147994622120956
29.24312430404588,42.7198144443339,4.537237277604013
13.7436221670472,25.003157091269447,2.615295585010303
11.31558034314896,6.212043373308774,3.8574549162534866
42.13385335729394,9.623459184275298,0.6475516627646285
73.44695118649051,19.45096239049835,8.234140061056353
99.28557868963438,21.826498767907346,15.17009427948155
113.99934535108156,17.004934041717853,18.011518994804312
113.3810087412185,6.557414545174551,14.674034847144902
95.60342053233424,7.249935096425706,4.914411165576401
61.72620703281747,22.004191514999327,9.853816673936542
15.598263288124178,35.446099320525505,27.363968048997627
36.80495286026838,45.56380320118292,44.922877701227605
88.39077136302141,50.65062418471399,59.408152922158
132.07340017001903,49.49674163127149,67.96550263977201
161.82575327918664,41.704211376977895,68.27995680455405
173.54205105202712,27.943837101964846,59.093903017649225
165.65624395179591,9.930856355517555,41.70179399215326
139.4475212637792,9.977676003762836,19.64731285857577
98.89650666452864,29.418437929347235,3.1020394811877776
50.02399711759881,46.59225077703487,23.049265358674575
0.22046747251876175,60.493158252426696,37.1976355620376
45.302683376347616,70.73407252739906,43.5292571968975
80.2872588457439,77.16033988872832,41.77183210528351
102.5288406049872,79.55040630341307,33.37224860352227
111.73929683868633,77.63120592243442,21.42954503130711
109.49584865468152,71.3758491090092,10.168191401395351
98.4734879684308,61.3149753046542,3.125060223378465
81.70329746342212,48.57858019386744,2.0281000136058536
62.031733170248906,34.55791300723934,6.83044714843677
41.83794933496,20.35184594471249,16.06948729536759
22.938696234198975,6.351964747805812,27.350841984595583
6.579836647914527,7.736637911561456,37.73597516872603
6.5444111680876995,22.408588778760187,44.62455622425616
16.253600462332134,37.66545842823277,46.451823450934
22.794785973218488,52.53567848585106,42.48534484730336
26.69897299663063,65.13846391169515,33.071884108270865
28.61356921820785,73.28352441028817,19.90370157765577
29.16023069461367,75.31285731025044,4.831347549770602
28.82691972725755,70.79347551551305,11.085920700073585
27.904701904675292,60.72312484804428,26.817151296555036
26.488270739166733,47.19249752016942,40.888417199163705
24.527606657189367,32.711282600440796,51.80930230925611
21.94495866653063,19.49541596664176,58.31189903477413
18.790184632495603,8.99200202022709,59.819903535954595
15.353079190569794,1.7367338048595748,56.64438782795051
12.152914991373214,2.5167764765474963,49.550979185314034
9.744140501906383,4.515782129654849,39.58708870293955
8.403321692816625,5.224091780895465,27.951728478536566
7.863692930881003,5.6157275777121,15.722504284634999
7.265402663577919,6.554783478206797,3.667965423845782
5.408708671284431,8.72867627153106,7.675394909033285
1.2224320439241816,12.590940782573114,17.65146090253139
5.775526162249122,18.27628890412863,25.41402379296514
15.250149339992653,25.471651387547666,30.062215731881146
26.13985839533553,33.3050708603464,30.9720896814845
36.97643877567365,40.34214875690076,28.45272971282841
46.23848814394036,44.80037085243107,23.630257508731216
52.54848113096124,45.02395754753957,17.648335306799055
54.68776747283576,40.067214339690466,11.60874131595224
51.585266357631205,30.171123100836603,6.756895877332268
42.45619421167594,16.89430829286658,3.9763487229052803
27.150947842724847,2.7415620332308235,3.382017297401868
6.591928799742894,9.583862563212652,4.509713159578644
16.971582452482807,17.994913815014485,6.707145270602026
40.14567782933405,21.55113678344905,9.323826894294179
59.0643639845254,20.478056457989307,11.560608322785185
70.3351841976688,15.753590735368666,12.864915069885988
71.89604675311024,8.567635211006204,13.5303931782764
63.46954913779387,0.003903018056469683,14.069240073194202
46.50569492110227,8.95082686814408,14.516499927773728
23.73909180427771,17.036283844793907,14.405034230172832
1.4013188435076227,22.558170310298472,12.615786768278761
25.3085757473153,23.465703517294894,7.901505374569083
44.57043115605848,17.923634741862003,0.21399272462354535
56.28555625798213,5.082116505661047,11.33762214132309
58.40914160724908,14.349972970087352,23.993994203325148
50.13264357180136,38.031428751392,35.528711996427404
32.185549256945244,62.4723121592512,43.412488575426764
6.884761662172422,83.87542649212884,46.36251590756336
22.15761582677201,98.97379702079665,43.94356587051783
50.62384966666824,105.54338742894087,36.0134558748625
74.21638774679826,102.49798074490185,22.74561513645884
89.32804781535839,89.69932344015116,5.09450778661163
93.55791793641774,67.71629400901152,14.94991728170878
86.04058915406907,37.71418632239327,34.990624706137126
67.57926395428993,1.5129050832658288,52.22201000427257
40.58648910893423,38.28304314145955,63.06016897246045
8.76850413896307,78.25093315549063,64.59833233791487
23.490079045494962,114.35077199135453,56.17141651183369
51.93292398178885,142.3863645396775,39.24466312256148
73.21534492753538,158.65530634489397,16.947832878814435
85.41181410137733,160.65608723435963,6.617466790103171
88.09052196562008,147.64889832325227,27.693324183674477
82.00845123069901,120.89361841678912,43.906473708693454
68.66464289864075,83.49668842160523,54.4735268767035
49.99350563824985,39.88489342472853,59.5611260607713
28.316890002896972,4.952715043342201,59.49633897951771
6.434729568205744,46.22525335420895,54.759941757269345
12.41897725647567,79.90494888631103,46.28668809123858
24.99044284348264,103.02125362142024,35.31562574921385
28.776240948183332,113.76563759062162,23.17451110886602
22.868922813958953,111.55502556148635,11.154036196555383
8.468681734024267,97.15661929395544,0.16599680361092933
11.250605039805913,72.85747719017307,9.181273763860997
31.903753331742468,42.48411496846866,16.191127394129627
48.985464566318754,10.999753290056038,20.40691278252559
58.877415191530176,16.41136266508281,21.743087188544525
59.448230561863944,35.55463031213897,20.206847413042365
50.7618939696128,44.48404003114484,15.944446155717056
34.50560163707168,43.639334816904814,9.400999317989802
12.728581650510913,35.06669206797784,1.3740807779309179
12.311585424525743,21.709445092888853,7.0609182289052885
38.092485749685856,6.607640787248468,14.720211608212809
61.78537295891837,7.725186429475572,20.565263694578665
80.46519034653296,19.588987571260603,23.973823100332055
91.63765334944145,28.0453740590002,24.90538127838965
7.058710286751015,0.6107810327546601,4.679716746018065
11.485323645314585,0.6542298057528885,3.7003398784316617
14.71732218298564,1.1085809732965204,1.1216324074798794
16.510521340036785,0.08944423768402045,2.8326606446563907
16.922176251769343,3.074270379285628,7.358689341325198
15.995218813722863,7.096424250166301,11.55535192708136
13.546731364708894,10.79192164596676,14.609313008217192
9.164066773724835,12.69537796609951,15.848577068745035
2.504620451672562,11.772717581469923,14.931261668110169
6.379703128750397,7.686396585635166,11.861606496720748
16.841166477443068,0.775950352922852,7.02763396227994
27.5352746870987,8.072528755753618,1.036988542977833
36.55229755990347,17.618487238012424,5.4957606181898395
42.30806822642956,26.658065824694297,11.667677963847884
44.40906244818892,34.16259678683049,16.43466276400657
43.160733007830046,38.84329463136504,19.155819654387646
38.81810463387194,39.1036611081188,19.534515389910318
31.310104942631746,33.61444580185966,17.244183734896247
20.098950946960144,21.92946941436121,11.925518229329091
4.688693494762654,5.01961260294236,4.009984981348305
14.643455905518175,14.732874255274334,4.744504432240322
36.41187643887772,34.15420246863579,12.172319857272667
57.847488101661085,50.08653042633026,16.642824807127827
75.47238155000493,60.13730615282634,17.285945444126988
85.93981414154055,63.00095364332548,14.007558863292212
86.83267303377279,58.366763725739006,7.392940313748061
77.21473116678952,46.68172085539416,1.120052595057137
57.73916127859542,28.962357526704007,9.359113773666518
30.517642553509656,6.807949543695387,15.50032612705606
1.187785042231762,17.527895152285943,18.99149286055178
33.36657749317807,41.199018433924024,20.137236480073156
61.70882563742607,61.06470599839596,19.37221350027426
82.17875171008689,74.18183001925647,17.06242322373017
91.64866249228893,78.29895297699485,13.384972220570244
88.49452042984666,72.2157475200655,8.743852269300781
72.99800030149476,55.94550256277555,3.8576822401355324
47.407045897375816,30.757394344210482,0.5972623533944693
15.622092118550825,0.8197356679357647,3.637552326803142
17.422203803685665,35.0952432610127,4.601123104372293
46.540650003990685,67.52127978394545,4.124319981939432
67.12820425231958,93.31690956788357,3.578782676228957
75.92703977282034,108.37067286377561,4.375963874086964
71.61603100640595,110.1366775226922,7.489760576021656
55.11241987991329,98.17204929751337,13.04299071724149
29.46874330678108,74.09125674685676,20.361964135625136
0.6912156210246418,41.0086973902447,28.050665005058832
30.105880697585803,2.796655437336804,34.34345106415873
53.94529584108548,36.46715658270029,37.815026343218015
68.73059992845538,72.69045094839653,37.73809985826873
72.84793530015338,101.77727440180679,34.01345405637582
66.56923787680685,119.8262448473958,27.08296333577901
51.68743437795158,123.78721357901105,17.69671692891164
30.94860304837767,112.47212572850925,6.606686616662576
7.485642235249278,87.40517871229156,5.115134476989654
15.622797242580786,52.93208924977107,15.987515616825489
35.65547240666322,15.296985121264719,24.708719952342268
50.45430753099489,19.03944233663847,30.36720819790357
58.590384173261924,45.09993407716175,32.646185257920436
59.49006140790652,60.37372132632278,32.03077475799946
53.485148083215044,64.73831707073829,29.47218433862281
41.73702551414651,59.603617495278215,25.924568518813427
26.013037042740923,46.97298711439842,21.974861106200247
8.369523657491582,28.999546583602765,17.827461864324494
9.186254620524377,8.163304165558834,13.54844258029361
24.946859917443536,12.357646008393012,9.29187918994016
37.57934174114694,28.76310399712101,5.431239262277795
46.043432143985854,37.45974612597844,2.233377694199389
49.420317348710434,36.352266239896046,0.4072249985324886
46.78099657864759,25.842193740941667,2.659948569600975
37.2695634685178,8.835526659979527,4.567583386710958
20.489284877361552,10.382884483740678,6.156152610198094
2.88290530827497,27.875757203552716,7.522126289329841
30.525236591144903,41.429281344314724,8.697443041782146
58.31336839369828,50.81906339882377,9.370957934457728
80.85490889743647,56.933113726753874,9.270071853546138
92.73496985609736,60.43834813717892,8.617586115983684
90.11314444676222,60.928733418491284,7.821286930812468
72.0574171173641,57.115318262530515,7.295478901089996
41.02583787641354,47.86851818738437,7.27804414802934
2.2495591299488784,33.32449165165924,7.481625279150703
37.731430158727875,15.24534157773019,7.229339532723947
72.76641925152896,3.6317623137835175,5.880175729226937
98.33325277786085,20.82542476504061,3.3239468458832864
111.9607073760031,35.07572137850724,0.059574042820948477
112.96737875143766,46.39236937293599,3.8766961860407507
101.94918543000232,55.231663966824726,7.824027183032165
80.4822125771482,61.48388528684653,11.533251528744275
51.19308478802066,64.08481201052598,14.231101354243357
17.91826089128812,61.60581116515269,15.01265994623905
14.504849800534867,53.438335411777516,13.590608638650057
41.084830925853616,40.722239297389834,10.166718185120176
57.976121387006266,26.290425297071405,5.131627223902302
63.66311044400999,13.54572572209316,1.0520856131070968
59.40196755722371,4.913080307953198,7.959490270931577
48.611494167449415,0.8121277526157549,14.758403035755261
35.47099702181627,0.22260125722109514,20.047972042654923
23.4142833975255,0.4129157945153787,22.580665596203925
14.239964396344865,1.3873426278050442,21.89650695281764
8.181872035914203,3.4591170052610996,18.154022965137884
4.710144583403791,5.915518208500111,11.857035674341168
3.443778666372932,8.00478142999591,3.8481293398244345
4.5651688897567935,9.831840216365395,4.83947680617734
8.529023386416624,12.488538827961994,12.933680842170869
15.347164856131283,17.320372028128016,19.060182042593738
23.982175333893824,24.85054481414497,22.112371157473266
32.31823319247566,34.11601353057375,21.45082997698915
37.78889396571828,42.87690204782386,17.4257756053936
38.32237332099006,48.576504278658206,11.180581053107232
33.104812000426946,49.43957049979681,3.913767431564857
22.781533360576333,45.043908045309394,2.9981675278502338
9.07124969822926,36.126724416539425,8.295643948073858
5.9156588042085145,23.91388421813566,11.326789442736118
20.29119478940559,9.501133912161947,11.671015190253323
32.693056860478464,6.294093265800787,9.53663079741033
42.263952100920434,22.590048831321276,6.252231742858513
48.4766913691059,37.99652308690306,3.01344291315731
51.003973131377165,50.52793787660062,0.23612987350640072
49.73165285929479,58.03830972884485,1.468345372786428
44.855065602580346,58.93880004599647,1.2396289396172684
36.9340927767005,52.770887099693695,1.3502674231571883
26.852455933082968,40.310632456897544,6.004466261392469
15.701710181403499,23.201416076091856,11.29019252091075
4.6480403695197205,3.4364361898498363,15.064542783700203
5.169235738199786,16.96874930524685,15.832786605006822
12.70732731363531,36.00136972701706,13.318636076812373
17.109134327217006,51.54931142059098,8.20245037430845
17.855112006764365,61.471156711040365,1.6410533544675059
14.94462697594114,63.9824650063532,5.159906828272034
9.02172319411431,58.2304693357702,11.069654580277334
1.3491795654390892,44.713231129594604,15.308146146619642
6.403486020968684,25.249526356354615,17.658333339513327
12.489589166946043,2.5066301545016163,18.117759420971446
15.426838047471444,20.628785498049716,16.822769764699952
14.26037833934728,41.47983035194997,14.17126593138815
8.717068848541953,57.67894051718751,10.390303143669497
0.7088305153277759,67.13629429741428,5.54108271516247
12.707339996643293,68.21258082168481,0.2051090807938684
25.188394958414847,60.28407533539269,4.403590457286823
35.50610542503879,44.476343596361005,6.968875571797273
40.964669306498955,23.999466100375287,6.680186116533196
39.57947736543849,3.598908256969306,3.758341809794465
30.868098238077753,11.899953806212416,0.5315035588578371
15.972583354251652,19.50721158841247,5.051627187180759
2.846031315883487,18.45535267764962,9.411438130021713
22.74693699309186,9.576956827532639,13.413974631140295
40.88297399127033,4.965522666245251,16.87509140398141
54.9429853849085,22.312287892484402,19.5332460425437
63.51762524507588,39.61259198488218,20.997623149960027
66.20568442928992,54.507500407327,20.910005869044458
63.48669143583885,65.26445391263454,19.076208275048337
21.177069609780194,20.79226872514376,7.280801497117372
9.866963254173934,18.367442019347774,3.7797031569994917
5.827235069578265,13.551860726310213,0.9237102376851778
22.71965162853352,7.311145447332093,5.998856049630562
37.380721430090816,0.0883920587829951,10.862293911597957
47.21829237854014,8.27813407108583,15.146835198434372
51.0700920903475,18.082856561583608,18.744105773675667
49.1421490375256,29.17815762425157,21.867934411364608
42.46831584966273,40.61135163947606,24.62952634914756
32.28411184246121,50.84191420627415,26.596255232588167
19.68646193466684,58.289443968911236,26.848681433401474
5.757624066861833,61.71003971009946,24.21560971148092
7.909857256784973,60.37634879737444,17.812014444270996
18.86417132940015,54.54468990524973,7.555421334878629
24.438489535739375,45.25203930731471,5.720310039485217
23.12204263450368,32.814734048716815,20.216655767014004
15.552362907692673,16.39933108595474,33.73812239911284
4.594873938770592,4.840977053274111,44.46361773679084
5.565740181859893,30.55306701357917,51.19227957934059
11.032901040038809,58.24992405602449,53.539798264983624
9.682760504307067,83.61852183631373,51.50949982918654
1.8271047848482473,102.04026748520253,44.89091591201752
10.193512028085577,110.22394757631324,33.50061616388314
23.210234818643134,107.31573501892629,17.758665997859953
34.509981603636625,94.74026298083703,0.8798101744996564
42.572662684982355,75.11545060156595,20.063297989008678
47.039535220514495,51.10143927406962,36.91561285876745
48.139600538180716,24.769489166665494,48.70675640870132
46.082093852139366,2.149645586218171,53.87700657164187
40.857398178348944,27.63256124016097,52.339799308502485
32.50670413127739,49.01629103379919,45.43776855234474
21.570521414761025,63.37387004160893,35.456118952882605
9.34401499038264,68.54453515597564,24.411641496347674
2.3092918354095393,64.13969966448317,13.503207184718981
11.519756085044396,51.902621381455994,3.2228936383918922
17.011973353290152,35.132279413836535,6.276150726709717
18.41482527519509,17.452930569705554,14.601354386041626
16.167662943864997,1.6397042101332984,20.98060832628863
11.182576347431736,10.916519524322672,24.548098993283105
4.544804052794595,19.936129427900855,24.84751826654424
2.568605320981715,25.510121937888293,22.19703738693831
8.777580214066946,27.465987866233014,17.690395929323163
12.417894083274907,25.255791536430586,12.599577918807427
11.724729061956804,18.40192177069275,7.628773793629985
5.322065199263225,7.124008501735477,3.264090203127799
7.158409695272205,7.329149342914602,0.1451718258047038
24.643188710815284,22.877692174038117,2.719693931558194
44.63140011966128,37.23436313785478,4.468451152580581
63.68886236042176,48.595646251949056,5.227502212905948
78.21921274748121,56.02290394631922,4.778054360565092
85.20937743525519,59.34936616417884,2.782463103694101
82.74030027753885,58.763482466858335,0.7304233542858833
70.23422775440534,54.39868161169605,5.479278215359361
48.531673272481015,46.193424526940035,11.054900150172314
19.896237866381984,34.09616159217672,16.683084841154997
12.069529891795689,18.446207845708393,21.422274515619833
42.72588355134199,0.23715552256149605,24.314583780458225
67.04691590316185,18.9117889914426,24.60719985223947
80.60470859772458,37.05926045920158,21.74710249125425
80.64349725760357,52.36472414776064,15.117614271115468
66.86757111750379,63.422824994486504,4.5823183722966645
41.603629790970125,69.37333898157206,8.78879649982462
9.251724789873702,69.81450079474476,22.96126010315985
24.7526901419201,64.68136171927846,35.79723536147373
55.101697641666654,54.249871638413566,45.44768907130732
77.51583351136874,39.276355098156344,50.55690821415139
89.1699846196626,21.141521591067303,50.79797100189553
88.7315870826543,1.8469732970292505,46.6177582615512
76.22855544839922,16.249478235579893,38.73404681906805
52.9492816345913,30.934151485372432,28.22612608578768
21.441378163424073,40.66446684348436,16.291399809360893
14.539293915853143,44.8799365845285,4.025089249839848
50.3448809283295,43.97189620776895,7.5979576531483355
81.10193420899195,38.95956474773576,17.775661543664253
102.63490383508552,31.08487958092826,25.808595179331764
112.37704416704652,21.567157788048966,31.33419467234505
109.90673194774718,11.595305728440641,34.254268801284255
96.88540584564733,2.4359208529517193,34.6419075177268
76.40646623035795,4.544691107467626,33.23504817708432
52.02899827475785,8.09548992417767,31.10631763358236
26.93677009490741,7.525096404357848,28.783279288700548
3.5328611154360123,3.1601600565316046,25.981182225339598
16.461220288897003,3.4696947145862413,22.008763277082135
31.594474174226818,9.886824066980488,16.466490315113695
40.35237924619063,13.30465158476511,9.453968643930631
41.240478659221566,11.386990196290494,1.639523524288568
33.353187988716066,2.86531657604705,5.98592055677253
17.160619149834844,12.120462758963553,12.867612426293334
4.934624097197623,31.97895897619073,18.8701749254347
28.687367274751477,53.83439291706093,23.834456085351437
48.87500302063321,73.84322928439668,27.4089985576791
60.62290179905388,87.71799556349293,28.97252884975058
60.669940973103884,91.52169338824312,27.71141556969971
48.1028662117133,82.64921618001834,22.921582325472194
24.290821903847416,60.72559275676067,14.689914268191156
7.7975731516386375,28.04993476548802,4.154769596256902
44.40696305682356,10.718274689842259,6.891927377574922
81.54108542102766,49.62890530337619,16.375060234994756
115.11788043765245,82.86405205413041,22.59457982644333
140.9661539819535,105.9416297781445,25.055171301154843
155.0629718334693,116.30207579965085,24.578423478087394
154.23044324768614,113.23380330608262,22.26296971584814
137.14195720362616,97.454798000131,18.6153031745972
105.17145567900862,70.79814014960284,14.044196950445548
62.55831242293128,36.21181884204558,9.091155443689258
15.608345551748695,2.1177359706747647,4.0081069950735815
28.85403110156556,38.953769290555435,0.8809247096356683
65.18445359078736,68.81155264855408,4.990041621378964
90.1048527811012,87.26446258111085,8.194226313643593
102.95917966326033,92.21290886414705,11.014855206138424
105.1272187894148,84.43189102260416,14.170325513385466
99.03185304903067,67.0508304664568,18.337212185529015
87.23424413849652,44.21879518457965,23.942714898400396
71.98871522514781,19.67350773116249,30.69038159568739
55.23734563466167,4.063702865647424,37.088280508482306
38.75819191903608,25.57247359104768,40.892510265111476
24.230298501193847,43.76666160830156,40.26098404391451
13.074627677908108,57.187587954569224,34.38230201537246
6.163060336146672,63.99258025813595,23.73626941283502
3.6260356990991993,62.69537049667541,10.119321628876959
4.858803621969632,53.1776713428508,4.265452577411392
8.716146597449201,37.2683001255406,17.842425954687545
13.782845320435245,18.412078775683142,29.374164517347534
18.580430568596682,0.5517049887164281,37.498626541229896
21.67796435484658,13.166286380010366,41.29143138168317
21.76490536938902,21.184049878624972,40.354487622410645
17.76709223577821,23.491922344375133,34.7451646680842
9.039879911296074,20.958080581428398,25.516811388711197
4.412402280642664,14.592073718590623,14.33946487860895
21.792790648728694,5.255594580813866,2.9652320625034965
41.500596543871936,6.070355010788519,6.6371633842145
61.27953421407609,17.799127634857705,12.471886200554613
78.51150939779683,27.555486186866286,13.053395653847854
90.56424590573958,32.595222175574065,8.196909520504526
95.1731337460536,30.685909409660955,0.8454602887517321
90.8706099472728,21.016999072323475,12.059638809481019
77.38026355495175,4.659666274957598,23.11125290306308
55.86699683936634,15.669206712278687,31.83225883363686
28.91460184899206,36.369345213823166,36.708386997608585
0.14032300673613696,53.848471190688294,36.93611158883698
26.491796210850428,65.19071635153168,32.116493371462695
47.47985207296969,68.47595409204557,22.26201390288266
60.603932151913305,63.27686538979648,8.429063114870937
65.1196453385115,50.46785363085426,7.432706379668406
61.487762746018376,31.60783866555642,23.06554804270248
51.183686465277006,8.946417052582161,36.31393884264982
36.38183286470458,14.647221994839644,45.64728721560263
19.603180427470136,36.004905314390335,50.24559592763796
3.3735568650288292,52.240617226102984,50.07788765594303
10.113694499100124,61.41354295775161,45.97181317157929
0.4200041571849429,10.228831036820036,7.989817416464081
0.8781514931203809,23.470935742508715,10.732203052796775
1.4077669206154273,37.21606508713469,11.425922336250744
2.108074571057774,48.70900361000639,8.890160883446503
2.995605536629774,55.057693378742925,2.8108147601414073
3.911575107359716,53.84182109341965,6.020253553027106
4.503657848372916,43.70526665952755,15.997892210614404
4.300800673622952,24.728327104377342,25.27755468042803
2.8973840627602008,1.4210150408211246,32.288575291542806
0.15336571995377157,31.731087210941922,35.95499855980818
3.671581634173492,62.35045287123433,35.556515471665584
7.887034252974793,89.04370419477301,30.85875346669523
11.484634341492011,107.6064552579245,22.37234426048651
13.487941910818872,114.94979728746009,10.9209843324427
13.263599213657741,110.24792782564606,2.6993048067997782
10.48514857968613,94.68920793972154,17.35080413721655
5.110296123452715,70.7811698956145,31.249798897045096
2.5010130227718483,41.77423116894431,42.321043614423246
11.51647936434054,10.756476264827217,49.001661675482204
20.570659298004582,19.839732153813927,50.792595660107445
27.878572210358154,48.34100745487222,48.39874747555672
31.599236098934423,73.65441647807397,43.32648600495493
30.3427399025951,94.72749939189355,36.897561263004626
23.702171071454046,110.19375898851496,29.625492424388153
12.514291598542314,118.28856907835902,21.33045756575945
1.3017934601546104,117.19770198777982,11.737997858264007
15.279580038558562,105.76009567305451,1.0816570893741533
27.126076185701347,84.10219255252034,9.86686775859937
35.30296840848758,54.01633182450812,19.99943538737487
39.23143481491772,18.805800760457362,28.324088527571984
39.09811511076037,17.31165854915024,34.30244591155549
35.467037884551544,49.93281965465762,37.56237092417618
28.973407088775378,75.10930495252336,38.207982724109435
20.277737141786563,89.73517276485853,37.14440553066247
10.220953134443327,91.80985978589054,35.17217303724215
0.06710885767853758,80.72348535643,32.329578242298545
9.300719516525598,57.6044973165897,28.233278575138858
16.43720880303678,25.608247001860214,22.623811175414
21.11122248396003,10.193239483523897,15.91939616468738
23.76996181016357,43.565111805127984,9.410821024251176
25.339593109512464,68.46562941838643,4.4916037171853445
26.534507740707415,80.5942384624929,1.8334602023075741
27.216348380661028,78.50187225018938,1.1760212991325194
26.244196114458013,63.785119518352616,1.3410498943752838
21.98810869404076,40.29185343594984,1.070465593091887
13.29425770879082,12.746340770588832,0.15248800475357605
0.38640446976317744,14.565483563626126,2.6658110134369126
14.821759153878597,38.526634770685995,6.809668740598102
29.219300085635624,57.18524445757152,12.249304645047374
39.55265106578181,69.3213815351912,18.21792719607271
43.50346546757017,74.07561350275752,24.04321407631321
40.269543892393145,70.96257043907599,29.237063590993678
30.460201218022227,60.22982552265687,33.60380650051683
15.558649183966015,43.22124070325231,36.696495422233376
2.6202951779711454,22.40424553354427,37.28696996934428
22.156108181968893,0.9393852819149435,34.11916576209419
40.91927627035202,18.063188532024046,26.80288493148955
56.447644625904694,32.239544828999314,16.015027433050392
66.1478170424303,40.3052006518719,3.3912947438642096
67.93206699548412,41.996227541424716,8.929986907545286
61.04481526532649,37.802544376857405,18.88413359670044
46.59872803465142,28.72927314059471,25.051696576518307
27.434150164954563,16.20902216235564,27.10100729549885
7.2907712661145645,2.080863070661959,25.556615339991705
10.344034891680394,11.544374122617432,21.347944009983813
23.194361420593754,22.648427494805183,15.741981747408452
30.546527761258453,29.80177951400681,10.03037522217349
32.94619234592125,32.51458611196282,4.790661385690211
31.568167485095547,31.242073113920643,0.053618605753877405
27.679440678770405,27.037503601431588,3.8487295782634545
22.464243047950923,21.036634868168214,6.427239843590242
17.13089326000468,14.0825485224505,7.455751447213747
12.988801607245708,6.687815924537612,6.960899830478936
11.284940515778725,0.7344555665275253,5.454659652971772
12.796187314337741,7.618554565372982,3.831693823226515
17.40292615511822,13.205963205261478,2.7718045452605713
23.988524176810646,16.76770349491615,2.6589849547052387
30.81772189194794,17.926776309623637,3.6266035578187332
36.222740465614706,16.828916029242627,5.19328591626322
39.235480722620075,14.010874413928459,6.476978382887962
39.81079521610261,10.055286655073468,6.515653234654692
38.507327513032315,5.318987815287318,4.202558260058687
35.86221799186928,0.033702269546842877,1.0060025537745994
31.879497359908704,5.694139887516638,8.611667043374178
25.930632911820414,10.790680235868576,17.599182792279944
17.11884547622645,13.75897305982064,26.87342562512516
4.879357452908812,12.750730026967123,35.50044603480718
10.558366573602182,6.43510743922435,42.478422623380204
28.112172480648358,5.240675804031603,46.25268776501594
46.16050458709213,20.767805819234745,45.04826575507987
62.96052717714565,37.4713603718412,37.7800595788382
76.91694486944048,52.402642298802505,24.6660786698093
86.60831397572632,63.24313726541023,7.252361989301938
90.68665991185496,68.75003167421954,12.090603191417298
87.8794437554525,68.60132268062569,30.97325627784537
77.26015527121616,62.89719790280779,47.297765288521596
58.742816573917736,51.777499659626336,59.314033166065464
33.52484584273516,35.47644946077811,65.96718044076876
4.1818680461572315,14.778235879781352,66.89551924369262
25.735752581441314,8.500016063279032,62.58836789907608
52.51491582057457,31.495235644470096,54.348893463125584
73.16177369822971,50.96762132582798,43.57208565224693
85.98304846261006,64.38367169494572,31.598909502152836
90.6729820339731,70.85261056442144,19.557712373975374
87.96028900478798,71.35799222986478,7.9170973509693345
79.06272387779616,68.0998045064919,3.2811933817652035
65.2530773198262,63.30532106680728,13.849149582754343
47.732291094129046,58.18730247188474,23.44689038945859
27.750908692697827,52.64673460034842,32.119659804413196
6.766228006151172,45.853282320183226,39.99768073831733
13.534483583580775,37.272618220771214,46.56495861104687
31.434126592514627,27.419403377996176,50.865441927981124
45.5463139393512,17.800971377299735,51.98346002496887
55.137590054212204,10.03855198638756,49.32851035470614
60.25304280440351,4.700821256948347,42.81425843900985
61.60055692805816,0.6489459955911936,33.03181716981523
60.26120282795798,4.603119110133054,21.198012339524578
57.371852926580175,13.63434588924896,8.608061996037316
53.90169018153978,27.619148362018823,3.668230192266434
50.539501938403255,45.45492926538591,14.893685077458962
47.63689980802291,64.04026586741311,24.430308167441517
45.13139701776231,79.53557111027558,31.16877740209959
42.43595833702413,88.90649395168118,34.01681971333357
38.3871770964434,90.90185213836752,32.941454766853596
31.355111749429188,85.98543725536202,28.961254058340447
19.6018394494716,75.41626273511366,23.18442730707318
1.8679781275673923,60.182187284161635,16.3203169963077
22.005434936756608,40.547673625276246,8.822353343900307
50.65818672565377,16.52982533819974,0.7130151078192171
81.18802119899959,11.043758447319153,8.402671290837098
109.58380481769564,39.68685837723175,18.706049104708363
131.50385493725562,65.32388308080236,29.397225354583732
143.15602994715016,83.44732226587996,38.71723505841363
142.0250714370729,90.84307745332633,44.793863818408575
127.30723140260416,86.91326941606927,45.97535464143067
100.00716348690614,73.84035722966529,40.99782356110419
62.761916651908244,55.499005950202566,29.49362112172717
19.498870716109177,35.71530329735034,12.369374012543071
25.037607604427826,16.8731635574921,7.873557886166568
65.85623479266825,0.3870636731424755,27.779546562936527
98.36024643633148,16.329694714885846,44.33683640473705
119.01491419977624,30.79944802875566,55.39575667352823
126.42357337864692,43.015183852143366,59.653377212236656
121.48063390398319,52.02138348686257,56.664406949646015
106.54700959670893,56.97066245924037,46.75843573587529
84.90791248622388,57.65637715593826,31.05559979269847
60.1409157582673,54.78271595769094,11.582959242794775
35.54208177894408,49.7473572655083,8.760323723633586
13.724950383060708,44.0269977177953,26.669264035339594
3.5665686011418343,38.534212121196795,39.14301319295203
9.740465835111767,7.311697406999057,0.2827573342532019
6.388717327997799,1.5842784853368745,2.982831114864198
1.0921315622528582,11.792601166785598,6.024202006526133
6.072081821037288,21.524005806765675,9.027490761296049
14.816217188593948,29.232892600949143,11.385926809958182
24.464878112412027,33.80767890023465,12.389389862064103
33.7932470833627,34.60139711612864,11.567266233676792
40.99183133840529,31.401449157516613,8.91426784019938
43.945714267201474,24.427626468085585,4.896148050327468
40.77470276933704,14.358325156584753,0.35672986697576514
30.49935999692881,2.2984888455856542,3.724187296655773
13.663338703745593,10.263914007357092,6.748668649689018
7.401961164252235,21.425963882742163,8.711540376022683
29.151743524273133,29.112477041708676,10.247205158553516
47.96260911128228,31.89582715988689,12.37695962712499
60.887465917692595,29.660508689555318,15.638691002224343
66.04829423293113,23.4487268212885,19.79982385540594
62.79984438953827,14.853584197954056,24.03665457269994
51.50647492591396,5.380661506355118,27.140654293116715
33.36029875664028,3.914599388672199,28.159988394258246
10.333069864374679,12.295415082499503,26.594030143086563
14.853887202220113,18.97507999141522,22.10765392846721
38.798850172446436,22.868029447912136,14.616488783433073
57.83413492293367,22.685050587055834,4.442063679844349
68.74965055219853,17.401323242744873,7.877154464058691
69.60643891477196,6.856917046905045,21.60064170182552
60.31547751314709,7.82548514936729,35.486680727154784
42.62172093734332,24.266684455692587,48.09732405123443
19.52271345972876,39.351469833736104,58.00674814706238
5.636572534513952,50.04119916018181,63.46636972366717
29.966917930143975,54.18405120330002,63.00663882368081
51.35789622583803,51.03831433944277,56.30347716832363
68.32467413789848,41.34027895327879,44.27036313197306
79.6048612333103,26.94954241598378,28.842308136206455
83.87222055532993,10.262192631836331,12.2697808160264
79.85065822603188,6.359318135913939,3.635491366964674
66.77464522573105,20.95292094031004,17.671118038860158
44.930300134548084,32.070024783335384,29.138639090476993
15.966088233722674,38.72167442874538,37.644516265099384
17.207414261428447,40.346763020390014,43.13956442861457
50.866744270736746,36.924863249398044,46.062296110437146
81.06159375163112,29.175081733922614,46.959316909724734
104.12385871399094,18.686938393041505,46.135992253990935
117.0285631942779,7.782990760878505,43.827546563656654
117.68942024892671,1.0053471015234063,40.02945969634024
105.28833666767991,5.712556232168857,34.28401594056729
80.631010671554,5.6168413858832755,26.656227548443542
46.37022168238529,1.4512175182083311,18.508876716611578
6.872027536572676,4.996539530485317,11.505095220868746
32.40020803507463,11.733818790439601,6.271590436295851
65.89064082260725,17.46458168976528,2.342788366253985
89.06579677870725,22.054562482089583,0.9503534243497853
99.30794669561342,26.306955220238123,4.140270291969722
96.31578072399915,31.193566147666,7.777361474009283
81.94722047961272,36.98180103651519,12.091352294786166
59.659572190015275,42.737783778785094,17.10109743559626
33.7612095352809,46.469376915661215,22.996228378558893
8.661169573494071,45.855770143687245,29.55004888491224
11.781619915414854,39.18217624390895,35.90748376164898
24.774529422487262,26.012734578716046,41.20258332933983
28.945979729871983,7.350122008853753,44.533489674051886
24.508246717289648,14.700776896157382,44.76714652471456
13.172221649418242,37.52624581255277,40.84362386280031
2.1965111632139367,58.55152478300316,31.979856390237998
18.117819874626935,75.558064030144,18.23956445233267
31.13636246896588,86.77435392685948,1.3471055794153535
38.42159014735768,90.87741670796306,15.615172464409403
38.2038805780721,87.0382228347878,29.213730307149795
29.993102971725264,75.0767424940529,36.74761179270858
14.571432501181732,55.691471506546456,37.06792709707483
6.236136047454612,30.637269581875277,30.37085761147057
29.95390489344582,2.723794592269957,18.13485949697238
53.87061687817603,24.437618843583916,3.1886063450923285
75.35225350503859,46.94830333662599,11.271119346317382
92.00776730645015,61.349085199260045,22.313003043592154
101.7370591835506,65.40130326425593,27.544589688872307
102.76938981082813,58.668493620304595,26.03373579556713
93.84814577858349,42.689853431226055,18.427854629275608
74.63507097285336,20.64430195140558,5.9995810433313945
46.2082970929286,3.4267319861785968,9.573426345461844
11.380890271391253,25.56434909205543,25.713382494767234
25.431828711185407,42.665802321172855,39.12099217696847
58.92872025895994,52.84305889842553,46.868005127652815
84.07510741092138,55.34725300247641,47.77168449731234
97.29530904617118,50.267619587501585,42.57809779472365
97.2905051530027,38.27695354227364,32.77315250714884
85.21679966285184,20.5975897151048,20.117378375929608
64.217295975796,0.8626339603283805,6.810735972150914
38.57077086011824,23.453633037369904,5.047063381903836
12.81081855690223,44.040881282921006,14.065931981670268
8.97599902831772,59.6034434065969,19.847143564215205
23.66702231683711,67.94835684869548,22.980341621364207
29.49011487264439,68.20515075639562,24.432985442980094
26.299694941740764,60.85568486788345,24.892186698376083
15.674958010209576,47.33745064293718,24.652370495954553
0.6919015029305101,29.510560691421908,23.66104782655672
14.717174078777159,9.286915500114715,21.702520384795278
26.714207594989485,11.4243870879276,18.780793067235955
32.51938781799409,30.571933485436436,15.211187165741512
31.031135799666153,45.92438637056591,11.492004922099406
22.88753311548409,55.3406576137849,7.958896218709015
10.010204804988971,57.30949460251898,4.55558163167004
5.110384824769555,51.4802760494637,1.2488710198601236
20.060449854737666,38.86657161271974,1.893698908048875
32.877769855764704,21.611220528475336,4.963511822855827
42.150551732056535,2.425432394568675,7.968327973767279
46.958708940431585,16.01631290493732,10.654418822522304
46.80678927297788,31.45665357530272,12.693947106161447
41.61986963203084,42.188733395809294,14.018296386903543
31.75104064004341,47.1306744083749,14.85886963032446
17.92478843598125,46.016085070543,15.407972040651103
1.1403534949511713,39.6810034866882,15.679130161756941
17.376758015445933,30.21043859731012,15.366656684093947
36.10625544439957,20.64545127491384,13.806564614285072
53.064135921163114,14.149933792215911,10.501977808019841
65.72860572642445,12.90206108957853,5.425499685117642
71.30190551781337,17.21598984737495,1.3028751148925901
67.38233070721073,25.354473345626992,9.425612775328515
52.8781856646482,34.16252444874892,18.12115364667765
28.75963930705979,40.207358245254625,26.078968714946765
1.7665070707629011,40.86102704449693,32.0307947083163
33.83642805251689,34.84163332899847,35.02530507478796
62.110531033971796,22.118197182964217,34.28220694262783
82.08438504750214,3.491471991505509,29.13170149594659
91.0092201269161,19.74381220133857,19.56674118165463
88.16223619197122,45.82962785923803,6.556178010969075
74.52324624310239,72.35595431809114,8.41648468475993
52.17585591641025,96.19412625541588,23.602419499871544
23.80250236521317,113.86254287969957,37.19559769515657
7.552902031810666,122.32835433715292,47.74596149617927
38.51513956112028,119.90634976836142,54.0580004180465
65.42095034294995,106.7914821289021,55.40587885282567
84.59287888582396,84.945567766194,51.93401459500444
92.88313127430987,57.41047446574873,43.8665903075221
88.31705650859662,27.399564158868472,31.117860561304433
70.60878466339996,2.3950833570599683,14.18501216312818
41.375846513020235,30.017048710808616,5.519585510964228
3.9735028303726567,54.044168532619615,25.991298288078323
36.94674897293735,73.23426927585967,45.0182312667434
76.01220690350443,86.29335984161325,60.621174374183916
107.76107705091079,91.93204474069164,71.05986088544378
127.26277709584508,89.18050599428764,74.98657559529276
132.0026192734301,78.55547078278786,72.51129552731682
122.07738607329358,62.23059257113445,64.877561270826
98.87412724412096,42.93148364544271,53.33005360036924
65.18462227452795,23.31076134895356,39.232620149042475
25.162605605006792,5.450584840223681,24.131316726065155
16.05372205882898,9.339496739296752,9.564109298474541
53.07279389263582,20.439308080923038,3.10336487947818
81.18868403392426,27.701015244902838,12.932441164412719
18.515805413769137,24.726619947774903,17.505020538029143
7.66759454348381,13.98986446921473,13.40406581490812
7.3496185654463755,2.1116435856118287,6.380737737411106
24.881225674387615,22.44226829056823,2.9487628536929726
42.73713439819316,45.12057654300179,13.788292918373749
58.53406259189891,67.48377819431808,24.81157206455316
70.01195097395878,86.22102073611997,34.39643647474391
75.21619411619625,97.76049499763577,40.96286381619414
72.73293858123353,99.02092441246114,43.290419217557265
61.87465102156499,88.24188315757617,41.05896175898771
42.893714743481794,65.59659361374781,35.01994152405943
17.398753861924554,33.51811758243993,26.437272912476548
11.292709685376922,3.387175933799656,16.546750909278813
39.011884858619496,39.59446960883569,6.62101945053718
62.27869193375348,70.59681963089957,2.0898159789816737
78.6612963575862,93.69608828503753,8.943562560569628
86.80777318534739,107.8862779394894,14.258832865663228
86.63544204473463,113.43956820840444,18.84671476412022
78.94184423698185,111.08177292258253,23.14994082255843
65.15918639738358,101.60286881014318,27.006799433291643
47.19007588407019,85.96914436246308,29.82103767331501
27.190200321759605,65.57069061739837,30.749397967757318
7.5134645586469,42.47085238708679,29.356183688906043
9.594824465185926,19.191931063728582,25.927357828141545
22.375813861260585,1.837229503254556,21.24112332299005
29.946588460179434,18.90514404384418,16.3713277516518
32.55609414416345,31.430103698185594,12.014102863796696
31.37459702129671,39.85899005408829,8.271418426915847
28.00119514547403,45.20384357161508,5.48055040042705
23.828437215405742,48.44452807744917,4.333929580353321
19.583728351159888,50.115067842866075,5.173172210702218
15.319262608768144,50.27272419393067,7.807593784998973
10.776453845851574,48.761142248506765,11.730650241776548
5.920846647851605,45.585353738707,15.931370111025212
1.2624918475643077,41.15210234313356,18.823566060167874
2.243913487302403,36.25304950536237,18.990007538300834
3.638386194958562,31.80352652988271,15.63976841946862
2.455570407892713,28.45406724765209,8.605539727032474
1.0377664372314872,26.27102439515124,1.4018769220416394
5.969549484183513,24.626776425127655,12.95146205466003
11.251234954777738,22.378115217022252,24.34649954938863
15.937272583571765,18.309102647912436,33.94529248234908
19.319832853149972,11.68972225617921,40.430592579692046
20.80376637324256,2.716690039908823,43.0257827270056
19.763797291021156,7.394250500100617,41.71524551667349
15.635330653858118,16.75189259907911,36.949313498333936
8.320538677845569,23.471883119684126,29.391762191767306
1.3226209808529357,26.408618676834262,20.17081229267562
11.27385495684286,25.572535620705043,10.51434322630195
18.702642363017954,22.02512928518423,1.370501326357179
20.861965851667936,17.315714972172707,6.235194094320089
16.162257830443888,12.774283943347221,11.405982288344651
4.941092723808427,9.051945658065499,13.948572231790326
10.458085229565,6.148666192786806,13.954028104050643
26.362122421778416,3.8576039096779513,11.20491988862746
38.848459661002806,2.2922827296135386,5.628354015102582
44.7539160358672,2.1277109830852345,2.0606986629787767
42.28657398903885,4.365734794380502,10.572267407711346
31.15756636972951,9.763764185592743,18.516998952254127
12.392446467762715,18.29117275230133,24.38500014448785
11.926042449630103,28.931260877276564,26.625413818493573
38.84664965126723,39.92158515810246,24.26529816096502
64.75005532945225,49.24976443077003,17.355434710780656
85.72452557111363,55.099298258541936,6.986438493669108
98.17077334620478,56.04574732956995,5.085217462447016
99.53497195180654,51.03354935023712,17.16394996831845
88.9382513595547,39.362427909366914,27.947366858520194
67.44399991058944,20.90279614403988,36.38982291417234
37.84695140021031,3.478043679197928,41.69906579157264
4.083895787390389,31.557517833270392,43.43898612651038
29.507294157922153,59.81852046993376,41.52234713513963
58.8703162522008,84.10212216462949,36.09625495152035
80.74136648324112,100.67215390566345,27.492032878489677
92.97377580639571,107.22816358321512,16.400715954081104
94.72408913017485,103.4006952044526,4.155135928083489
86.50851916290436,90.52788045989466,7.419548511468494
70.06570930985664,70.90055737616045,16.745620437317474
48.00894163121014,46.946271748321216,23.014835134483175
23.342412203816945,20.779565661618904,26.226795918774584
1.0134957844209367,5.773291369035683,26.780891045872938
22.51717164087117,30.909065420570283,24.792098845634655
39.07456971322271,52.72530744360951,20.10422001233565
49.01467372595812,69.46908430038937,12.641637791679813
51.17274381758444,80.05130943880485,2.6198182426588854
45.20163490168755,84.46707236943412,9.115879251631425
32.001477489950325,83.77036021192461,21.067469982290156
13.955907769498962,79.5361563040417,31.11292937505466
5.3133056952910716,73.09953714440877,36.9610748229767
21.75375120793728,65.03380503159856,37.19487836639297
32.01054132525157,55.1860678759087,31.423035696148286
34.37674521426532,43.23703874193042,20.24551044923531
29.129007739672314,29.399849560817458,5.529723451417862
18.130866758680423,14.76485395078127,10.262473603568848
3.9449126909511554,1.0578583358721858,24.897955610829513
11.050684450356776,10.053891454416549,36.55064921256634
25.096305959255822,17.710864487287267,43.66697577896402
36.95722555113637,22.215733421861835,45.00092318979417
45.554702880243,24.8072744763006,40.28013104255357
49.71293813464789,27.03912824464517,30.67715851968137
48.312276637078575,30.15428871207014,18.63898043246172
40.785197040985054,34.78286379336591,7.282978463500014
27.62130747059597,41.03072107466856,0.7120980995012467
10.52492806740736,48.753652430235945,4.231065919817949
7.949994741151374,57.722125857078936,3.84046413595308
25.136331609012565,67.54372716312417,1.0197378208181995
38.97723882266908,77.4337023579845,2.0227220809268136
48.379685424144256,86.07361647268314,2.828616677644082
53.09225258221508,91.75953134621471,0.163627220669301
53.28095476530625,92.8144567988362,5.696662973351792
49.12802469566248,88.0772376659595,13.502087802144187
40.72591233871505,77.22145269543482,21.194669828333097
28.3001845439394,60.7470525472901,26.653021471020864
12.59482270503415,39.73505259999872,28.625049534615087
4.846357304774324,15.582626280983726,26.89022689151978
21.728397585072955,10.120513801346492,21.620405892006403
35.393973927360875,35.55467234941555,13.034376680710098
43.416670018398996,58.61965215343712,2.30911631109621
44.201128649853985,77.08297693387607,8.212167672152791
37.40235579410604,89.01299835674853,16.245666398018535
24.079426660269384,93.353564095908,20.192453589003556
6.537982484004565,90.37095095489818,19.220558206318522
12.096433999983637,81.72754519141081,13.609064484653437
28.46461611730878,70.09405912453269,4.7046418436649065
39.61973641282189,58.462836674231504,5.665689190372366
43.57017505669895,49.430283273953684,15.581598510141479
39.58885851522084,44.66762617800437,23.1148791560772
28.247164502078757,44.67487398349763,26.670436902325523
11.199217372059831,48.75268268435671,25.570111795190424
9.1545052048609,55.1327463607608,20.13569220993043
30.002259705929504,61.274019745950525,11.233583446374164
48.42089490048233,64.33683532012836,0.22796070754245712
61.68282633779756,61.833307745239026,11.306621188568105
67.6317342630392,52.34339749724538,22.31802660751464
65.11194528349913,36.050580621144476,31.687563020818175
54.33339842575472,14.820756573575242,37.675007039340976
36.98109698273225,8.293453191820804,39.27543317880252
15.905427151716896,29.978868439280728,37.023705556155114
5.602107916545422,47.66953626531433,31.920666531779446
24.710366220398928,60.202904769297206,24.693192770689773
39.75399231254631,67.87223726603422,16.004905144526383
50.43761385218416,71.95841337823907,6.640285289947278
57.45374678571175,74.02714251338986,2.3667433896859165
61.41721601825008,75.18359748952552,9.95082477670889
62.66599359089294,76.22849092840309,15.236193796930287
61.75769081457018,78.05561199312011,17.658971472021268
59.3976217500271,81.33404085997739,17.32957925750872
56.354308606757996,86.14094800357962,14.857690001450717
53.31673676558591,91.68750454597595,11.030126934007464
50.69042070906469,96.32805709078323,6.900010229203296
48.42544670747198,97.94808579107719,3.4272143677525264
10.84674110735217,5.27545504609638,1.6945786601231094
24.065616250708615,11.465272082501958,2.4707504092956483
37.00476574498004,16.428785874535627,2.5927703737373635
47.61115393078312,18.55730989214043,1.949927600376974
53.72499825698431,16.740075323485318,0.4531144176500566
53.254187531408554,10.831008005093237,1.8974390389519071
44.599500713405945,1.8717112007042764,4.622865958420217
27.170213510138407,8.126915749721794,6.910615708313082
1.9906136097284166,16.69983401503406,7.877044665272669
28.12768892025789,21.683762940397113,6.94951356761567
58.93154413707428,21.877464067426068,4.075167521610595
85.24485905056645,17.222878798045503,0.49597996868977673
101.71136452897855,8.569341122262946,5.985100522983187
104.82932451606278,2.1622519504207713,10.875568853736043
94.76526959361968,12.021012586005078,13.316895498861983
74.34663305562304,18.340661855599727,11.776765155155125
47.4875314574302,19.6725644620946,5.871344942312919
18.361202783305753,15.815166346887294,3.283108544196127
9.560304654493457,7.818612616543314,13.59027456000386
33.58382791486827,2.4700946117642006,22.72180524471662
51.61249806787695,12.882422849602653,28.606436870303764
62.294191088599625,21.21097642807911,29.78112698298957
65.16741659075561,25.595948730872138,25.4994009945323
61.117492654283886,24.735542586361444,15.375650729892964
52.4640871379644,18.15233929919804,0.4029205542751978
42.495207162005926,6.426217715659583,20.361320130712375
34.594847649553515,8.783997474063712,41.61310674217984
31.0890405076476,24.922410432178125,60.039152227086575
32.529429870277525,39.072756390435046,71.29814109338561
37.62066518060731,48.643227179651106,72.30179830379757
43.799872949831645,52.008143611805295,61.70858109575481
48.197651682238785,48.860826201946715,40.485267262546685
48.457037407845654,40.081425514063575,12.507956386666994
43.180011758553356,27.25373904427586,16.40906499534336
31.933202577810615,12.0378989383791,40.553494734894116
15.043590067746281,4.272669375312003,56.01154290442472
6.555474622337949,20.802332571096688,61.40358700297625
31.346292622612406,36.807165559802606,57.67427528472538
57.16542269615248,51.2925714050268,47.08808930040642
81.25414623723671,62.85921847634416,32.34796885891073
100.54075886799865,69.91469945154122,16.34183137543894
112.13676065104272,71.18669852202522,1.7469153160451265
113.89056480234568,66.26604927487087,9.083695794381324
104.80135400393385,55.8427221554673,13.93211810765421
85.22235819689445,41.51354029905106,11.53678014420719
56.86299658126091,25.256654353050774,2.718179043092096
22.63959709313377,8.85233244873361,9.717530960728274
13.59782371638446,6.438767921356097,21.95982130901996
47.49489900758372,19.834229985880135,30.359364075524002
74.796788515456,30.746971899491417,32.51487226990996
92.07083962126562,38.51620654400241,27.747569951469963
97.36146660468513,42.381486531486644,17.25356537101505
90.54753693337541,41.74544207987256,3.8542130596035746
73.27945044460098,36.55853244473172,9.37265862878867
48.53177003464824,27.582726036938677,20.234297368053323
19.975675496651682,16.37518485277578,27.59454081509091
8.581041953879579,4.983157846888175,31.2975598093511
33.56207128628203,4.477720273606769,31.680268812816752
51.84295943567887,10.157524968610476,29.28525021141899
60.98207559156537,10.666520924649852,24.95391493952015
59.571905852602235,5.198649158959872,19.434292096115527
47.648120971393006,6.289867397202047,13.295345956911788
26.97491922639568,22.799568316171825,7.467543532536176
0.9889328202742477,42.05573490637704,2.9549890556163185
25.72419769402318,60.5848374212949,0.1162500573073804
48.300790816512695,74.2948172598155,1.133734883205418
62.54436835751933,79.50455920050382,1.2097788937202758
65.69875970534652,74.08325097339544,1.0052373676475417
56.89520097343494,58.21899374994491,1.1738224399120045
37.25133448489548,34.43701343411989,1.8557812024063667
9.695384887833065,6.82195001283982,3.21714863508792
21.4248898958044,20.24300484302812,5.159189081216763
50.952637381146445,43.274857353061705,6.968639468707693
73.7456727230271,60.35813806758968,7.877558097459699
85.60626188736012,71.15108596583002,7.550618173431563
84.10199680209644,76.39999912181025,6.090729952596827
69.01968904883427,77.30808797904336,3.8256219819478856
42.29695251621785,75.06147711626846,1.2788556265957902
7.5001261341818335,70.60107279971797,0.7798093577781876
30.88451103515091,64.53422060149806,1.9543106069662692
68.05098389614695,57.027292693563155,2.6613800708251607
99.26557118071187,47.702133141951855,3.587203306370871
120.17403414695187,35.68769648703352,5.309301151668157
127.22933740034429,19.956818912169407,8.042913665935593
118.36992805701256,0.034849462501816815,11.330749899124694
93.79702324671626,23.686182735001086,14.470391956617233
56.43414586024705,48.94878933374674,16.570842060769365
11.66650893671141,72.60303873760935,16.23080795797933
33.749273836590774,91.09436242363813,12.495517117456632
73.28562774202602,101.57141931013867,5.768657171236308
102.14768247308413,102.63780175212626,3.037498340493498
118.07139913291107,94.5216788132486,13.304707736971162
121.17450920606531,78.67037017901716,24.08847559794714
113.14478299739137,57.09537445891388,33.870977301535646
96.31229665580304,31.85819883777334,41.07536938114107
73.10470248200619,4.86777473351009,44.203374415654665
46.044006175209006,22.093302798150436,41.812772315470674
18.015186315672466,47.320852200780514,32.75871269113127
7.657574622597408,69.28334350636362,17.205170170090334
27.64446323562149,86.84471674915905,2.6842484252444563
39.4535055515194,99.38784277975834,23.6698997367006
42.26372103714896,106.66091436559879,42.24100410753903
37.27530412753513,108.4262156742994,54.77306508821757
27.322152072254116,104.16407662927091,58.32633727030781
15.903057609945996,93.13813285647787,51.72488015902548
6.081601071554286,74.92051301442034,36.02937376986259
0.24939760412387177,50.110052837607995,14.425479430589567
2.4901216094868044,20.787403498324615,8.399800548935314
0.9552924036193009,9.666305653823168,27.786360539586063
3.6921183966665985,37.403832586066336,40.50530387835221
10.830920149069009,59.200747608359606,44.986542073957516
19.923133789959433,73.25777640978923,41.22849231300549
30.32322775505845,79.35999288545852,30.492216500619143
41.060348405099184,78.42714729718456,14.739552525008023
50.779890148079055,71.85621045215369,3.70131880208893
57.917004155633684,61.10415652015107,22.175223010093713
61.02121748807041,47.6843871238399,37.69696716549502
59.08173358175302,33.3877042595018,47.6280078202401
51.725634685599054,20.332072201774682,50.33468813389836
39.28286539342152,10.589630961825055,45.25912150381199
22.754972723134145,5.499105028491874,33.041860778310216
3.704963831384403,5.072630968757777,15.500497206208182
15.91082396264217,7.9342426146865135,4.855014977260696
33.98120993245816,11.886276623743054,25.640373813209003
48.54590118925909,14.81130145794078,44.45411024832723
58.13293169885063,15.431998959540115,58.539219851163566
62.06838626043436,13.522207382879353,66.28375836499833
60.65754453772811,9.556063513167235,67.65508358499265
55.160291337499366,4.169540926268982,62.79287617209916
47.54077240153813,2.1441651954323895,52.01590415815561
40.01050460744076,8.93041632642393,36.375748678645984
34.45646599705774,15.434504995021497,17.4563272614456
31.90990831764926,20.419580900390258,2.7422297792806622
32.19961301395866,22.454607602778506,21.86026283328952
33.925344802655005,20.605972187640596,37.664330578700046
34.81911074711667,15.105917133928765,48.64237452421844
32.38871960976161,7.537203709175223,54.05158554519217
24.650465714749156,0.3219271890888385,53.91924765106035
10.734952585437735,4.269923400402571,48.81054765492229
8.839291581399658,5.0663326661977495,39.42691915058252
32.283284015294605,2.3984199166115205,26.962045313724612
56.951417586737115,2.223746702226811,13.26972859577066
79.95401361153176,7.173016529562298,0.5655512385931256
98.4995215593309,11.272301996702863,9.423654036380107
110.12819404526107,13.741490660867477,16.307032453106586
113.19226932504586,14.241794321172033,20.504521517502567
107.26508682502208,12.717613811139746,22.598091521420905
93.34698690788794,9.262966456554905,23.227814663654765
73.77489146121002,4.152820299287548,22.804298914245262
51.7907783526131,2.0102729395338796,21.509387024744576
31.359455589600884,1.7620995113702356,8.100377959869082
26.55718280115899,9.972648158050557,12.435366018690003
14.296960487965858,19.46358445057132,15.762307861178167
5.747340056747917,29.04945911674418,16.57142964389765
32.283447103226436,37.55351466840711,13.86541079708253
62.21502350459157,43.9154394459845,7.555239874776517
90.90414592667473,47.115667689671504,1.6474687103303212
112.91013483728567,45.98833238491314,12.550507488539125
123.10287006003739,39.24706267811966,23.689111706451055
117.84708402083301,25.80468293042105,33.22117001642735
95.93688309586832,5.368039290105124,39.35946376237269
59.077944759032896,20.862207343111276,41.153419451538085
11.84419185644366,49.84680209947776,38.42273329548752
39.15032201168179,77.48139097104135,31.223191175065203
86.7541196257317,99.962323181012,19.767160840895524
124.6505345941946,114.41134053869789,4.823058994756116
148.32673467313867,119.15457131977598,12.18704307261169
155.67219728779168,113.82240518511833,29.54575931954376
147.05812765730818,98.88942547550384,45.272605724105425
125.09575228567572,75.36286451344111,56.95838743163946
94.14486547696052,44.781355147209005,62.23040543608347
59.53289625315969,9.449265364445937,59.80705365134229
26.598822629450503,27.217836941542828,49.859483482455865
0.33855677871488393,60.88068041468829,33.519328049515984
18.805175346019617,87.07006159421027,12.591405372054169
28.513482051481514,102.39101704393246,10.61547176303167
31.101514645657428,105.64849486219566,33.398263938719865
29.348564701895057,98.2150188396034,52.74004342518254
26.187817672179538,83.47535480919738,65.93842639715346
23.869747511859902,65.57621254456316,71.31337260514884
23.572882466548794,48.12368966449512,68.31862591888927
25.511858656555308,33.451578215297694,57.5232048408603
29.360405808665377,22.62794119241219,40.74744077637669
34.734065447621404,15.965225828089535,20.79807965935878
41.46246079569179,13.4982327385747,0.7540530350590252
49.57010129275657,15.055034839142921,16.77911349910038
59.063821813672874,19.958597257520534,30.28538517651783
69.66725643810129,26.699090331972855,39.53710943182338
80.62857754769206,32.98811483292956,45.395123626834604
90.64928710792704,36.340776118155205,49.16884621334935
97.93610618063444,34.94730752862007,51.5543622211482
100.38218509105073,28.34268011229149,52.3091109247875
95.8801009217763,17.462032734938912,50.786287583148464
82.76130810713026,4.067219504267425,46.416576552445086
60.31864910287674,10.090188983812526,39.00289574234738
29.259881802017343,23.86970343175987,28.82731013892142
8.095915272592944,36.789142732990506,16.563543926959053
48.00159327095318,48.58859396483202,3.052728934282249
85.86475145884602,58.69640871295896,10.6713584423647
117.06632094842678,66.02915032365217,23.24806419142732
137.76298503450735,69.30948287690728,33.11118484856911
145.49051705260783,67.72073955188,38.79757218260851
139.4766457949432,61.483357265172444,39.67998292464397
120.69133024311051,51.974628867657636,36.30539326113099
91.7283607300117,41.3087285227432,30.055704165742345
56.55392038421707,31.632122136781803,22.85010054459097
20.09936598907935,24.5117013352338,16.556757033293167
12.344872110974174,20.685593168401404,12.504888244673634
35.957652406896095,20.203917084881894,11.36905221957061
47.311843409380494,22.738720648348774,12.870339057689362
45.145443807490345,27.789052305610163,15.82187040415979
30.761712264566217,34.64743396393238,18.735506674605812
7.8874429602302865,42.20296975937093,20.194450567957976
18.047765417097768,48.819061435561935,19.01863736339234
41.019983641738314,52.47838915591889,14.789848793282452
55.64186196630425,51.175886412886356,8.09081495441242
58.24326431651656,43.37763357089957,0.0007247528381870587
47.546666648489875,28.333881567934448,8.50558937333189
24.83549424440501,6.13177031259332,16.701574175178628
6.3803329846890575,22.417662119880294,23.659940884416375
41.1079663083439,55.8256565854708,28.537651726081993
73.82028089101847,91.77921949302956,31.370417639825074
99.40497189415237,126.89114257574992,32.474980604963726
113.92467973890248,156.61723442071235,31.764953465688684
115.07087708652188,175.67567902380776,28.917465683704247
102.3391449522651,179.0987486765885,23.53057206567886
77.00859795993212,163.65806870101483,15.345049785126168
41.97687330499037,129.11021423040688,4.598130576381311
1.4717989832922682,78.6938990559504,7.538395751749535
39.39145708860941,18.608287843117655,19.140915031256256
75.27391290835963,43.32666643360227,28.349167799778506
101.43246653664215,99.27697682445317,34.09352152122791
114.48815550503055,142.67868959812014,36.306211254312046
112.92378644412345,168.87690897324077,35.26859412452191
97.14955009432765,175.2438538419705,31.435907366619343
69.16032976634872,161.17075443800942,25.721442903158465
32.01336435052375,128.20252728730017,18.98181386369984
10.604826828460071,80.28035063366552,11.508926352859648
54.577237890105295,23.766206119219685,3.2145866980553315
95.40764247088124,33.199359146659646,5.710253415902658
128.3718113150526,82.15156221311618,14.750041259052203
148.9912318604602,116.18865394313188,23.617717013017113
153.86071351543,131.5926173876277,32.20940408925335
141.5576056286653,128.49625273171335,40.07394717583221
113.21354652907586,110.30587496461686,46.18722079992712
72.44295332903472,82.1959324343972,49.988102936592945
24.597327312447995,49.42150308041827,51.6351528027026
24.353355046828543,16.201560548645123,50.54324833158011
68.88777434792985,14.490795337306857,45.521107274826676
104.63511016911472,40.47212217361696,35.79769829130426
128.63478426018983,59.811930397329256,21.368684100777806
139.32575893145042,70.72394126187768,3.363762149733886
136.50619344497812,72.02750139042605,16.418930574650314
121.37939314577622,63.8699796702764,36.15924538707499
96.57565511758209,48.16134994201454,53.94540059803961
65.93228634733036,28.35041883016817,67.84569337956353
33.905604921258806,8.56873441657206,76.34782256862567
4.714156268611008,7.48837283920077,78.55418058732793
18.470048323991307,17.446372416164692,74.05722903118317
33.97483687794833,20.568028256315856,63.37063808473573
41.57976965495463,17.517781756439327,48.13105556258062
42.08364556568796,9.851035597318186,30.19555135766454
36.81484205844901,0.47718173276169845,10.733943952486484
27.341457625318323,11.426131528461118,9.593964414962715
15.457805725938705,21.038642106731224,29.092562624468346
3.2935306950357437,27.601391084892096,45.01286897441854
6.757060757766215,29.883122676777145,55.6739323890742
12.432495072681272,27.405199090597943,60.67208481212924
12.21849869819436,20.58962120660596,60.01941598914905
5.8887440170107475,10.682478809896478,54.22139302984655
5.330837609767121,0.5192458431625848,44.181568457945595
19.103388186274948,11.026975873926613,31.325656598032605
32.70771594128953,18.990093854196264,17.76844892295617
43.8050685442388,22.965873505793546,5.791846235050916
50.9246044635897,22.16312745414382,2.9301971138872394
53.5418363674272,16.677741602233997,7.882650373969074
51.82198774139339,7.652893852278138,9.426694595945927
46.27282230580993,2.806255527131719,8.274112527884203
37.52688679445286,12.088827685008093,5.451481078390116
26.328369385441768,17.838860389575363,2.1199872581260597
13.650392557834122,18.73311044392235,0.5660995090266557
0.78167495958597,14.859919905844457,1.3826395708887975
10.728898029121385,7.439453248498175,0.4624109568725076
19.321596470538537,1.9918661057992308,4.43853357304125
23.817023722345503,12.46097454500283,8.955395849514133
23.794531213172533,23.923639976382372,12.833939762054028
19.822643872678356,36.81584590107554,15.751223898299058
13.453816298028608,50.999336659976265,17.632399888816646
6.948033745764199,64.76288970756734,18.447177356094258
2.7656945703504623,74.62540705658584,18.13583898194097
2.9550894738197324,76.23425008841683,16.698792190418384
8.614719538012693,66.00438702786934,14.43691810497492
19.491400439330505,43.70131626151364,12.012466226033673
34.36073561154345,12.181282486414235,10.306789052547163
51.61888003197285,24.84224325495339,9.871749984925712
69.35288803064162,63.43527529935204,10.658779191047065
85.45249058259168,99.96838784367931,12.26536897063526
97.81656078890148,131.3515125055737,13.963273406156619
104.64986439107409,154.99542230130677,14.793535709441642
104.79873761854915,168.7153956823659,14.037444787544898
13.928795325721476,18.628360454956216,10.89889078180691
15.638818106071241,9.898274484001517,11.019596569894528
13.973405050382587,5.221606972878801,9.525459413473822
8.29863427282103,25.481080299313852,5.996283493397182
0.8011403007765866,47.500064377254446,0.3967139083611568
11.663165575840491,66.5504351942034,6.7415383581474
22.09903144293539,77.98825008036718,14.808790593180964
30.050952171039548,78.58603670107772,23.05911288776994
34.09403228220715,67.36887742074215,30.284695824641524
33.578233252475115,45.52725089842502,35.33092692993425
28.501337505870946,15.753996288149127,37.305563163187735
19.353183440211776,18.25659789627044,35.33247098042801
7.0605349491519656,52.01334418067774,28.900935031210746
7.029124959424142,81.15678243347526,18.20946125404908
21.02129372956384,102.27841929342976,4.108150250607465
32.30954220257573,112.2146248889461,11.634221279444443
38.03641183086697,108.17143197870665,25.95718904297267
36.08834305408299,89.17566954854551,35.032956767403654
25.961600066893396,56.980376241209974,36.013992984614724
9.15207384815428,16.42484364192778,28.90054504921609
11.25709567511702,25.495249288391626,16.570929749946075
31.587228734649933,61.6758852225186,3.312446569215076
48.56348289325217,86.7566589828907,6.458262254279646
59.951072256515225,98.32367048814822,9.727298263539941
64.55962915743162,96.78633111363733,6.000130050826866
61.84860910363957,84.33848039860983,3.4235833280502366
51.57803420527903,63.842181214590425,16.20911188541635
33.773490624614546,38.07093785665906,29.22299450596474
9.081806239704825,9.696572600739165,39.518714531868426
20.771025665738378,18.429794455371237,44.8885036079792
52.80474034759315,43.184455947587495,43.67141738099029
83.11387341752194,61.50552345844646,34.94622414648424
107.62761245004155,71.13168167673045,18.75050543658069
122.96242054661221,71.25559428751693,3.675209672931123
127.03992751344923,62.73338207405102,29.306004591423672
119.30094040060041,47.72610280790199,53.402556427729024
100.57489457155549,28.988735362357925,70.9333094804613
72.80025823384479,9.223115043887377,78.2348464416501
38.76849316316925,9.264857906603458,73.93396304315564
1.9404259207981893,24.58188069371966,59.173831825822596
33.78067909684473,35.17203300467746,37.0176096127266
64.44664615536169,39.8917390167901,11.653354282904672
86.636921714593,38.25680390386104,12.540575542659964
98.08861410941115,30.702046395091724,32.365016660591316
98.17624333070464,18.610072279938446,46.192809184611434
88.048738284566,4.012459955959024,53.52720647583388
70.37629571840725,10.905525005483533,54.725008503362595
48.8117676961277,24.23674983866372,50.7015527343193
27.3239328211609,34.50156898023626,43.01410116744149
9.535703196753714,40.53706639019303,33.66823238231292
1.828349740031269,41.35041393003249,24.2108913062172
5.330002310033832,36.188253299114386,15.443843508293861
1.0091391445174047,24.913512484399355,7.906315969953074
9.699099846686831,8.482047593801349,1.99982616478049
24.329937434717465,10.845486357434684,2.216517193480571
39.91748564104561,29.83160894202587,4.575142481785688
53.54064618751197,45.13017825104996,4.808574253214875
62.72109132308681,54.36227290025508,3.389747134915207
65.57904292574169,56.919427070927405,1.5834237166880525
60.834272555055854,54.10359309859862,1.1106562325908975
47.824483434577104,48.52834752694327,3.4171831997465
26.66228222767267,43.076034545472936,8.741177136144149
1.473662432132611,39.85407284592212,16.223010873412896
34.09522731632945,39.554710319474765,24.382882939080023
67.47310541491291,41.397443510228804,31.654251837392334
97.13083808209005,43.528895431143766,36.827122130217305
118.68867400178569,43.636165876200195,39.20646591188215
128.8088388569559,39.5520006755805,39.06227023753547
125.88317560735538,29.711851535551176,37.40699430293861
110.30071545465503,13.441461265687373,34.93187089656959
84.32916743995041,8.870447369338786,31.784370660984845
51.699093491808405,35.69718522713236,28.17586119771264
17.085464671718064,64.46728104000961,24.480088568326103
14.456735314625815,91.89337589602326,20.95154792492095
38.21169556011712,114.53491270154717,17.873239956042653
50.657972334210356,129.4873096028397,15.430541702509162
50.33289860682212,135.00127624691467,13.198590459049017
38.422591665985195,130.81995928115987,9.98340772527399
18.706274608888762,118.09457909189764,3.956348348031332
3.262806738726189,98.93065200171759,6.379487707750906
21.554051046506626,75.74366327104023,20.87259513194852
31.398753640726333,50.63902834137108,37.670216580617684
30.30837025593022,25.046409417844902,54.09397801229691
18.40644277748448,0.3021693395806419,67.33207593077238
1.9916223896357361,25.11754877522357,74.98913572120048
27.227683654846977,49.15141441618937,75.82506278651007
53.1758890421131,71.82891625899815,70.16071742506442
75.85918134171574,92.06522466278481,59.36782253570971
91.82923868787573,108.32156245870814,44.96296791375449
98.49369929476272,118.88337207875678,28.24808486659988
94.48126411514431,122.27421865277483,10.402363166242115
80.01355397392541,117.68231262856226,7.412941283591852
57.07152250866882,105.28748961480572,23.685072932520466
29.08876623376308,86.39846069288845,36.231081634793284
0.16394477228479853,63.34126812480694,42.483645912282384
25.95170329032849,39.09679011598506,40.524806481229525
46.67807738792644,16.74954187467682,30.489744532202142
60.8661266725739,1.1287406298674056,14.874795227010706
68.47668610731968,12.985709882772419,2.5978084059575135
69.96183616984202,18.540372663698122,18.375226878422637
65.73871215255656,18.725283008544668,29.943981484532276
56.081507008952585,15.346589056951004,35.89152722465665
41.44595325762156,10.58569892075618,35.70660212116666
22.945297045636845,6.4890904477537195,29.634367917359896
2.6007208498023062,4.557868682848622,17.985284192991255
16.881071485719236,5.520204295966359,0.6414107556060611
32.73563608122739,9.290800700250694,21.93765118877021
42.856676269580355,15.088053423294474,47.301762512288825
46.263335122821786,21.701018420514767,71.133414168735
43.14043716207982,27.873470891322558,88.56075781727844
34.51168629389162,32.71323944501842,95.61995926442637
21.793752457742453,35.981032883114196,90.79478140257918
6.482647241957581,38.12093573348903,75.64873820698317
9.92660841328764,39.97933945296421,54.013032952426926
25.870937870005395,42.29566874223559,30.5670948012759
39.68446602929256,45.19327970620255,9.101963742399722
49.731606910827196,47.949182908560246,8.462590919199343
54.678986807367735,49.20290839698733,21.726869653884172
53.745831199693356,47.54183366934239,31.16264322259949
46.80194030883209,42.188061547235165,37.34062824728848
34.30600870229141,33.43219231192491,40.57986113267248
17.18826967887229,22.58486307981053,41.27697102050713
3.1907785297566136,11.470004808235752,40.102614656875055
24.95179212390093,1.7468431919778544,38.30145091871079
45.55392669024897,5.571066006339224,37.68321089012561
61.822043573805274,10.19591257007477,39.71193047856125
70.37005403247228,12.267553720845195,44.44573088835366
68.41221847816331,11.931718837406315,49.9982351048177
54.728100655774945,9.146184691212612,53.35059932817908
30.398022234640784,3.868152184898721,52.11523397941477
1.083009150036245,3.5050770516953915,45.53588543318957
34.413787778195434,11.752846471027109,34.41695391799609
63.63580421498413,18.81271428637663,20.353737381737954
83.45892082429793,22.217767864863706,4.966016664687422
90.30153781816269,19.82903920887117,10.441582679610974
82.80281214761055,10.504294918950702,25.237695042371108
61.84660203581362,5.635335058927922,39.12435610020868
30.286336064455885,27.395679054437437,51.17706837463312
7.416231340722882,52.95094034118492,59.69728304656953
45.6045931061439,80.198524013643,62.86090670662674
78.0283173104708,106.77865548546983,59.450336505825724
98.74583098383863,129.8087723097524,49.36575468124234
104.27955520422053,146.96967730918345,33.866997687275294
94.47998309575893,156.86927293640477,15.126060702518604
71.70850310791144,158.25484737228288,4.2933928170462305
40.41450858225668,150.38578955903972,21.76001004408018
6.1943798603534175,133.54590466931768,35.57234446960484
25.43000192465346,109.37397249672887,45.26042238077189
50.15213468595545,80.78847869630826,50.74106016665066
65.58136773236139,51.46979461266836,52.06560838569827
21.44582489630663,34.093942302827884,1.4775705321171888
8.473570730741423,21.63612992915234,7.147473837284149
9.130685781504447,0.1787530461528262,12.091755769039423
29.66036502145133,29.28155883566945,15.213837951333744
50.837006913416225,61.60068336743521,15.94752350143156
69.97780705209725,91.68390568214122,14.088585282192353
84.26258073909148,113.70288733902906,9.778787006655868
91.05126616236666,122.63621598830416,3.4123491729205098
88.38897118324275,115.36215994598668,4.300117280398103
75.44423033250081,91.39266280718648,12.146997272656757
52.81369449046364,53.01517447049491,18.628187288195825
22.85671235652829,4.90738641020907,22.245500375159466
10.129750747898042,46.482969837785205,21.637046510375846
41.13857226616099,93.83688756721013,16.138358113985383
66.43965495813832,130.4286821016629,6.469249859288972
83.99233446053084,151.60278236197175,5.455613567333897
93.16391826686348,155.44094756803585,17.093021598098314
94.55886087620031,142.7494682732133,25.927385968805584
89.32187225357751,116.62582533832119,30.46899326297513
78.80052421680514,81.7041799063168,30.570596235614868
64.49262640389288,43.324957815179765,27.239641503103353
47.98357965993402,6.654108818396086,22.215988988656285
31.048957833935823,24.16543241731032,16.840283723527477
15.457872615707378,46.65785150455659,11.510332643507718
2.684218278827764,60.315302386689226,5.813852529832785
6.369642180190988,66.34845159326109,1.3832740902511962
11.578420402991144,66.93413875259202,11.213600534126389
13.494986304046405,64.25469935805044,23.971943939171666
13.119221246579562,59.74003074911148,38.69054582374864
11.596911659046068,53.87337818446256,52.993849914614955
10.017350044070279,46.582380797669316,63.84844963279684
9.373272592645831,37.94556441744034,68.97130053487894
10.56908863958889,28.74065473282179,67.60901985573595
14.416732179885598,20.44847436795024,60.18639412625552
21.47274011606353,14.717219111840746,47.66280502884729
31.77379940650645,12.585274249826558,31.01783073334789
44.626904652630344,13.920873617493099,11.173968420787695
58.575477669644776,17.44066103556486,10.607263413849322
71.6406833130183,21.281998123558743,33.0036085337889
81.75246667267625,23.77663463494775,54.519015565811586
87.18331918785111,23.98714240062069,72.55709860865991
86.80782239014368,21.73878071253481,84.06538548704454
80.12777076179573,17.219695340041348,87.1861072035138
67.15213996569504,10.494936574038869,81.96752492720358
48.294254062358334,1.3128921496500165,70.2528731170658
24.408817737954525,10.642288608983849,55.371561167049876
3.0649595769299602,25.225534379027227,41.119120531449845
31.996602315424568,41.40387408149395,29.641659456743863
59.68774749626311,57.252330207286114,20.416077451915957
83.309237491293,70.43887587113849,11.603908242429089
100.49113119326478,78.95940171224521,2.1057523046833815
109.82290729114514,81.73202079646472,7.5817189167288745
111.038297796936,78.76264786407563,15.983049313027673
104.80119540908031,70.87495848084392,21.485703429982912
92.28453221646821,59.223489701810145,23.401688263402566
74.82750456733024,44.8820123402087,22.830778680779325
53.861864701307,28.735265177594712,22.12928482182616
31.09949390914187,11.664249927623741,24.033254102129337
8.737682739599148,5.2052498734292785,30.578168430839348
10.616858953024378,20.431999626121545,41.71535375797826
24.450303674928055,32.49138170400721,55.25540260208277
31.1338850583811,40.23447135730874,68.15623176288332
30.623843997934625,43.328688177013895,77.61047300765398
24.687307595906862,42.448824825793736,81.37011258855865
16.478643459605703,39.11341787984203,78.37276043131605
9.59538130915554,35.23116331355717,69.13951573634841
7.016486493472996,32.53295800847634,54.722600422422055
10.34070244430355,32.084888707632004,35.95166230516508
19.55146705149336,34.04385653123937,13.823806562539106
33.29301235247962,37.67585242390411,9.89655610337019
49.40811231828934,41.58083660786241,32.58313777726143
65.45042112199594,44.07017790695018,51.41436912189636
79.02123832121323,43.6026906471138,63.98853124039715
87.94362515789847,39.19383548615856,69.06462786391864
90.40508360128716,30.699953298283905,67.13014993504214
85.16496619968493,18.890672367910984,59.90513928110893
71.82484721126507,5.287520241490308,49.49774013686137
51.07125529191464,8.20666695750765,37.72587954601004
24.752941630954858,19.766987129602878,26.18432168379482
4.289947208164468,28.046231851946352,16.474717055083385
32.63735401225321,32.40645628186762,9.605691037105403
56.83786969121159,32.93529952707544,5.870401437880648
73.97971468059725,30.308671898012694,5.175781761492399
82.184651785465,25.58183207036079,6.977207557170467
80.90870880811343,19.967999331497786,10.441063999649689
71.01703404955909,14.612028472045028,14.667564044032785
54.609272390707055,10.331110023609302,18.77286556863895
34.58205847128075,7.393346850584508,22.126783774317833
14.080486134898264,5.450752065002014,24.57679988512138
3.9953224775000833,3.713311481066317,26.186033431002137
17.328377741594903,1.3895932495761874,26.561640634256108
24.311565227767865,1.7623684441609397,25.00498716217411
24.038508864765753,5.047389801291046,21.03079450483138
16.28532019306549,6.86111164139694,14.17210707288673
1.578264110971706,5.239211848534878,4.011767860365988
18.648262345274443,1.266410242410687,9.354581601907855
41.94408027381144,12.780961321989206,24.758826511693993
64.97565790277487,27.753878809348606,40.31944198580345
84.01407741634803,43.23848159633378,54.890711696289706
95.69720057182379,55.68479396818237,67.7298954566792
97.79723345446446,61.91591065585518,77.50882914452578
89.67623570124809,59.895825066992266,82.93308105327401
72.23622441476049,49.07528002476917,82.73264766872094
47.42655575559976,30.354463882303538,75.59572435574493
17.56481832549577,5.841438427882906,61.07772077377882
15.18131083205284,21.419262308060887,39.92700761508453
48.89320235559965,47.75334839582998,14.270609950542935
81.62969858793835,69.30967342351435,12.100579990805471
111.07331617048885,82.72288041347537,34.65143583453583
134.41568554474722,85.90755045160286,50.29154753850833
148.68676442655885,78.69934889628836,58.103927039059776
151.48207168729104,63.02213694843499,58.32977017319651
141.7685576795152,42.41882046587601,52.52274383492844
120.37263506540914,21.05493490475976,43.43268527402908
89.91063179614547,2.602943555790864,33.63684390979911
54.17267997666968,10.534300520347728,24.690143771482518
17.238503073179032,17.434611072833967,17.02333060719197
17.27016196547806,18.374506016386285,11.091407942007207
46.542995777307475,14.351219511821132,7.731314129433276
68.54756801705567,6.7274108224053535,7.118231826972458
81.83915376091593,2.877998082180592,8.943672785657126
85.51018501677285,12.57397804662852,12.339115309711447
79.43787815708775,20.280427651883386,15.697595864465463
64.7300896193705,24.044598553194245,17.57274800547233
44.02712515373689,22.521747048483316,16.78437198323823
21.320095576599012,15.375429515535647,12.91336020089462
1.1688623873346948,3.3671866846716503,7.172615124247364
12.481534155688589,11.924060187612362,1.359790011798638
17.414403827140678,28.59466752340744,3.5815379135790866
13.698845466458717,44.83980658560302,7.70786113207994
3.417876732428741,59.12998636333387,11.722872595214845
10.28651420336844,70.15596436202155,16.695998313596597
24.34837839777248,76.71146772181835,23.39446997136702
36.59218992773804,77.73116006098688,31.50118892743675
45.91547793465809,72.55756276358694,39.611773541039966
51.87975640863373,61.284864744479464,45.73284842914177
54.108911754056706,44.94052715795248,48.371575162720966
51.943349227424,25.35521599120116,47.48691968101478
44.58752807858401,4.735948902765251,43.93128994242029
31.652988320654867,14.851219493086948,38.72193593876047
13.727813209472561,31.82327862441515,32.5010173321912
7.412573558532636,45.13113487594924,25.134353859032732
29.134979630469275,54.30565382584235,16.872028603321148
48.90995223647478,59.284935190606554,8.427566654106295
65.12919489238853,60.10746234716843,0.5427574464251376
77.1935858280315,56.941318283551475,5.6990118694934715
85.19157612716462,50.25824210494388,9.83672767666453
89.38876809242714,40.976293706410374,12.213403712025164
89.83687292367397,30.418761975712737,13.29189899731103
86.32671343082949,20.06176518302439,13.661086055791241
0.034246121948728184,11.459272594972912,4.321135371887496
1.7918802578620505,14.928461036378675,2.028317206888052
4.44297472403692,17.8402129613063,0.8725626124173627
7.127151928309777,19.18116179665451,4.1231553070397275
8.529717568266609,17.874013151015127,7.642812791841001
7.253962868940332,13.034166260274691,11.419644829421278
2.327817650828487,4.173500752093197,15.439624156117016
6.317530270932441,8.68137195029611,19.29473367707127
17.621520989583367,24.906431326549633,21.953544673851432
29.458787344696805,43.20900222661431,22.14947490473516
39.01472575219938,61.5776361542322,18.702637250723917
43.41030128393958,77.36292011488008,11.069188737880632
40.37425080436837,87.63762093356011,0.10163265047912835
28.628375916735244,89.80596526089383,12.152765627303665
8.210333448110744,82.24764523566054,23.29440349405325
18.986446151145262,64.79405030586254,30.863464961980352
49.16930428363576,38.869140706052555,32.669128937946965
77.28864866954349,7.164222807209823,27.823627326601144
97.98926293028681,27.0310856395012,17.072481593199353
106.83663938072448,60.519380700392034,2.267536280440505
101.36303244220433,90.61962592818463,13.809402366322015
81.60077887343226,115.18282389129514,27.882939258591012
50.04758996447533,132.37954412317083,37.161899738570696
11.016415572307848,140.6073345508645,39.81480464543038
30.298063275566207,138.7039445398271,34.659188072308055
68.7691655689339,126.43674971755078,21.30634551888158
100.10638693809645,104.95736946625058,1.2379646429843898
121.3223891952924,76.81758699030014,22.1509894782911
130.98434728348448,45.413011539045264,44.59154465448323
129.26378994854974,14.061735462438959,61.692836642803655
117.7851593528246,14.825301179793493,70.11486050774802
99.20015457506467,40.041998370405416,68.57838034133488
76.45695416267912,61.23944886734666,57.73235616476757
51.972618323873675,78.23663063550704,39.91338421675733
27.009877503529502,90.49983743456,18.80427088153834
1.5757229887461572,97.14722823058165,1.7679992036018253
25.022964936729636,97.47427013043064,18.99087354525826
53.19677824334384,91.63270012358547,31.062580682725386
82.13421428089958,80.96721409527875,37.07198315039842
109.39954610220039,67.73865200536096,37.67662003973898
131.3401588819241,54.359846078907225,34.87787789462831
144.1454218599642,42.57740449186156,30.39637933842794
145.06522372522747,33.04160883123254,25.125515472223466
133.26933987341985,25.433960634987834,20.247548986195262
110.02836897951948,18.993639381566513,17.554921160939017
78.2559502003363,13.073961135210334,18.326315599246993
41.75057175782187,7.398226760559354,22.539330656793986
4.516807044082126,1.9630705227364318,28.90712540379286
29.63637528312905,3.2020668058745203,35.29129475260623
57.30514648772401,8.167754409730932,39.4723609408207
75.72143620500648,13.015387065100196,39.62307554881664
83.15016022607122,17.614368621497164,34.27583016287137
79.40022033928149,21.506778814470557,22.940393106846805
66.19326254896112,24.061909271242538,6.8862926234179005
47.10074610553431,24.824415382844837,11.614457998529806
26.8950560738993,23.844235611260817,30.151939149143356
10.457792369987303,21.76441456860901,45.84119128794127
1.5909738830258953,19.58694798123337,55.75247091526041
2.1078797228590025,18.265352763869416,58.474249787648816
11.523386458334425,18.37006629612984,54.62708153982965
27.355828900019585,20.006739338385106,45.64311674350715
45.832203445374724,22.979123768069336,32.96491410721795
62.765805047779835,27.020368322474365,18.57514557325035
74.32418544751074,31.883573189796106,5.000011211227375
77.56042429073842,37.20171546496622,5.474058511599761
70.7476885092828,42.23519216542067,11.365423934618832
53.566030013082695,45.73923357344521,12.291916067656349
27.20160416103014,46.142729202576874,9.051294772214346
5.676491267039348,42.05019835496437,3.2912340224531733
41.15209853595283,32.85889660870214,3.075717626782256
74.5710000149321,19.192756940942218,8.123588011409433
101.31658123011059,2.927258618165174,10.289053455574592
117.68901244248357,13.228552641218558,9.028597653216867
121.6499000289902,26.4266517471533,4.508053515450027
113.17995221773663,34.388845347385114,3.0780169354867413
94.10714114262353,35.901742759007405,13.25945005983298
67.48304859376601,31.0008184649284,24.928905490678062
36.7422368611837,20.872506945939737,36.7651171113124
4.987225517739871,7.568613256762337,47.847141043736286
25.377052043787916,6.367660991966937,57.25699841915257
52.6324248540371,18.30461878726906,63.502692773190624
75.4823194352385,25.91685109961121,65.1186646425637
92.796427288014,27.535248220192845,60.85526187106232
103.52444204085425,22.41469555709056,49.436716231394435
106.80720713058344,10.850043596290515,30.572509376035388
102.21088972514664,5.918642674726205,5.566027172981962
89.88965898086585,25.97425155887416,23.26392818867104
70.60082850660709,47.06701541143237,52.80969671618805
45.612313574106395,66.92736464769024,79.41156897181268
16.592139812315164,83.45492150253158,99.51650504618743
14.393816220976207,94.79215597111927,110.28567817676544
44.805934096611544,99.38204741002374,110.29257950135195
71.64317586070634,96.09977936222327,99.90879295550685
91.70891817451461,84.48104797999417,80.99084754531883
102.21527299238276,64.96912812720062,56.37078295727492
101.60337953506149,39.04820574964785,29.273882540575194
90.26231009596819,9.145063319982322,2.728097276606234
70.78609167379214,21.737672953872185,20.56553326406562
47.540228593323484,50.52876367036887,38.42058494435789
25.585879829039932,74.52874092889316,49.68511328941244
9.313691480237342,91.65840071245086,54.22153644006861
1.2674376671196441,100.53186169100924,52.85447699482819
1.5397463914458316,100.47779168351022,47.52730545393555
7.944863801005312,91.64754336231856,40.61805170730663
16.85125447260002,75.25946665895245,34.140039119168655
24.26328803482348,53.81043571161277,29.525981659937376
26.762520420072555,30.944630543360454,27.472989249528645
22.065433010794735,10.801034656215194,28.009854094780472
9.176567398102675,3.0700001410806763,30.811145816940563
11.661789962012065,8.836657375990336,35.42253714437199
39.03351263706286,7.017411194654375,41.17289829856054
70.3591251326464,0.24188588212703394,46.74296832906289
101.93566811540332,7.805746737654291,49.89965426140604
129.23477367860676,13.795823376484394,47.969864056881335
147.60557399102507,15.87223199509472,38.96396860438314
153.27920920673307,13.977888972990193,22.54189034298622
144.36174577385515,9.30816022758606,0.1845267013918085
121.37642891034727,3.293067093757917,25.463662645620236
87.0663267972228,3.2788268103607234,51.10763830130383
45.55526719682252,10.550335489493067,72.86285439922209
1.2498730686252184,19.236231402002765,87.29027440884764
42.033893419153635,29.898340930977223,92.77544369195941
81.37103235210544,42.306838831984464,89.72376143686512
114.48726536718168,55.235649902906005,79.9942738815341
139.35502851584485,66.72924777871934,65.9252795352811
154.04947646575064,74.61245196889503,49.51144362329944
157.0605015584254,76.97511907451683,32.099087980769916
147.90038597456,72.4941362262527,14.409670154340342
127.5782209431831,60.6096469434746,2.793855379694126
98.58293535493165,41.67854935172508,18.197652521053087
64.32947270802322,17.15366202965823,30.616064024761357
28.346731189256754,10.34506510951203,39.87519939550377
6.327599342513217,37.23722011495485,46.57407352063786
37.25183829478796,59.55809574403111,51.421209199359055
62.27032002545523,73.8165051030846,54.89943345228767
79.17230097601947,77.83505667845438,56.895038456709926
85.78596989831046,71.24936191517033,56.87839805558192
80.63989258331846,55.48966393935743,53.98856907307575
63.87782176507901,33.32102031241477,46.76818341369897
37.90600582768734,8.203645454152195,34.48293212080602
7.269365402041637,16.302886473078708,18.46624052347749
22.333035626964875,36.98387803507665,1.8049376505276242
46.45242215188749,51.550948713702205,12.262738143537511
62.83740550881129,59.1121052959014,21.51829174630884
70.62764272679784,60.13462356246543,24.93376124598929
70.13502243042673,56.130695810874,22.86024392655002
62.429381747769696,49.16904079857231,16.942104519345556
49.009981702379264,41.311321449119454,9.397065446678752
31.715272818786826,34.094037860764395,1.827553570166715
12.787056616610098,28.215238497090194,5.016847500800759
16.048704144676645,9.751933168941358,3.1277961913454084
14.641977204283661,8.088548446446357,4.777079810472846
9.79673843481609,4.3150228523443355,14.438904647507968
1.2746959627537455,1.4807762057278575,23.686471987672572
10.232959358802555,8.811586011049616,30.46543765864625
23.129510163203864,16.755390995380527,33.26434438158894
35.26105382886419,24.057228320315776,31.181297738026597
44.43869992219936,29.358395401826492,24.06875300971799
48.97612216332183,31.449463372968495,12.462285040581872
48.01715139770003,29.489694962448073,2.5307961251134503
41.59586986547968,23.096496184062282,19.22624284754273
30.528565536901993,12.337859810514042,35.594589114908295
16.22643424812881,2.1832222658338747,49.46202210496329
0.256909632387621,19.05982246109016,58.52671956348488
16.074371961980738,36.00561748089617,60.77077498866655
31.557853565871362,50.191543285221194,55.50879671950842
44.81614205851105,58.63342614615259,43.94360396510195
54.33901556470899,58.69966234194123,28.645056717991608
58.63704810569068,48.85981276267841,12.659318506725715
56.612047237144765,29.30314279727751,1.6894491839258226
47.90756652885696,2.2063584387607693,13.556687365009536
33.05997907525028,28.55866149062533,23.133223548240483
13.519357607988113,58.263106532218,30.895601662378436
8.530667201848935,82.33912375033606,37.14764023064634
30.401960984384772,97.25603766878599,42.054400241973234
49.14522603077572,100.94478711211869,45.73275259624257
61.86902328505794,92.7813103501247,48.13002423111826
66.12379035297374,73.39044359110267,49.13079397517466
60.38834757214089,44.472962708064024,48.34560784600015
44.55091900875304,8.775740609048194,45.11840276871189
20.22990376212182,29.94999769860248,39.06269743527082
9.24761102437262,67.25538963640832,30.051384827005762
39.330087523572246,98.6673082593196,18.417019805591988
65.10691455979254,120.60064902161733,5.2610707865151225
82.35141350054161,131.14468921861362,8.243870486989149
88.4364807584229,130.3602604708011,21.442524020046495
82.85675476205125,119.93053957232614,33.842288998522484
67.22080253481579,102.32636172596675,44.83329774862527
44.75744719134529,79.91565914792241,53.87890636998302
19.559471087737435,54.44274893562169,60.40321118886389
4.220529755471511,27.05855415329574,63.651832047046184
23.053185140197005,1.2376370112945194,62.74680956158711
34.49684570283199,29.095101920730084,56.80546049269995
37.48262819978202,54.576371626650804,45.843701588467844
32.453383661450786,75.34440550895067,31.50239516412958
21.319002006925096,89.20740488782388,16.363099905215755
7.187530441501761,94.77290807773542,2.345134258430456
6.162830957214092,91.93047695426115,10.347936002723245
15.038101100622827,81.97689436629346,22.391616245871795
16.63210431177396,67.3574517529463,34.07902480228951
9.627375008025306,51.12823289204053,44.93820277935225
5.586933819857896,36.29176780849219,53.44393497423078
27.118199260943207,25.18511175135206,57.298044237460594
52.06831081313258,19.079750146630197,54.832715198708506
77.10094065959028,18.08131973000908,46.12521005969112
98.8967219949891,21.305669886326058,32.84699462507806
114.42923852470267,27.198017057115138,17.794944151623536
121.14700836315464,33.84611488487839,3.9045065634552016
117.2093457761348,39.19722438615247,7.183645948852452
101.82119310341463,41.19868402620448,14.991117685862063
75.58850572292671,37.98923970119657,19.70705595021067
40.7162990412157,28.25659729750898,22.41664943276261
0.8535896342177518,11.74156612993215,24.082000673188155
39.461803174329184,10.31446319800244,24.152451995128434
75.61098682060901,35.08094888062218,20.914213701101023
103.71656366865902,58.613385879710414,13.325981398064526
121.24528966005468,76.83343363426326,2.3028500212197076
127.24932317771243,86.64606504080618,9.979787557851964
122.2739221595452,86.72254562861072,21.219231140302693
108.0564601497492,77.65192156512062,29.129821778922796
87.13434568249575,61.47151667560512,31.671898222073548
62.45102267850051,40.904763300959374,28.04588849664245
36.991395450856224,18.731911815515815,18.992512541884885
13.443586252833011,2.462588361380826,6.243465059857136
6.058425839887518,20.25049284027795,7.870232384737625
20.056125715778535,32.342554691142446,20.99747102870662
27.771541908685837,36.85379910904326,30.942928296011562
29.04632707620289,32.87385731842875,35.773731955251556
24.30906764793693,21.04721521104616,34.73291387561231
14.648427628274492,3.73529395621537,28.380605164091563
1.9334908916252884,15.46905439639458,17.941679399772575
11.188944159808067,32.74317948783647,5.126232810357111
21.598620133683404,45.09149598030908,7.709238578798233
26.357949691593497,50.98202264863168,17.6403147220999
23.55347653641968,50.33766359259805,22.02249946065654
12.980618883588448,44.017286702949725,19.49522153132311
3.6540507781097107,33.233564240344585,10.096211807152065
23.12993920113405,19.276279520509902,5.022816110758769
41.56083904629095,3.607728620455628,23.19590034711891
55.33258518645633,11.898354945792018,40.208599027029216
61.798857289457985,24.976587859737037,51.79855830075322
59.61831931632477,33.45979400840797,54.91604132990951
48.789596226467154,36.081415142806456,48.19855391065102
30.571156146684853,33.14309906032044,32.411472714817144
7.417627583558191,26.59005906994203,10.185153367981963
17.16237047127308,19.359713195901342,14.588933230733293
39.005935526231625,14.258176517477178,37.57623548724572
54.03482686542796,12.931955319199757,55.30826410616468
59.203451063921364,15.479322930904974,65.90069037689472
53.30933378165232,20.850062376054613,68.90468444171292
37.29366352356097,27.732760303292952,65.0081494881971
13.870961845653207,35.33455894149886,55.913855733607775
13.335396396539643,43.56333678365146,43.928148672943784
40.74221257975306,52.51281499904957,30.995057095199705
65.42232083002916,61.576604991399996,18.167046818586407
85.21058514095247,68.81906878431616,5.9773877227956405
98.4559555748638,71.09482718490732,5.180272703827345
103.75057315813251,64.96709143276804,15.136666377397363
99.94354629385958,48.04189783111229,24.086916865298317
86.46174456300008,20.063641211254698,32.480641208975946
63.67924466141287,16.769560678601202,40.698054184965386
33.077942469215,58.376249675581796,48.65785703302632
2.9244310225962455,99.88952785938217,55.66588097310266
41.37096988769176,136.69234986634086,60.5707295018952
79.12502342464215,164.91818466899971,61.648532366871905
113.0177921340871,181.34194872531168,56.54551754498803
139.8139568774021,183.05574642935645,43.519168616153586
156.2392063452318,167.48470605891387,23.02698697211041
159.33785615769884,133.06025531217674,2.2871967074661668
147.1955593826086,80.4287041424628,28.65556371716183
119.79228598105416,13.590226754799708,51.98290416885537
79.58618678962054,59.79580272346669,68.54285937255435
31.44771502064355,129.4000447707544,75.9461061933284
18.15780195291131,184.39996496633253,73.63830958146198
62.49476754491999,216.1209502751708,62.43523070268473
95.95954508040413,220.14725405065423,44.07615114517626
115.11444084516216,197.16111758673833,21.24070867616748
119.08806947660553,152.31930689578644,2.5571718843921962
109.37044540873161,93.5810223724394,23.474466438420293
89.20352128393525,29.780814911167575,38.182898097693396
62.807015496639295,30.866914240454328,44.7257632141986
34.636600083937466,81.57017785528961,42.96372912091174
8.765204549909624,117.2326661238407,34.426360850077266
11.580744907952262,134.59956660226445,21.85552686821963
24.335635841836833,132.543158773586,8.674154230897399
28.77625206213988,112.41205406905485,1.8611314944616173
25.550052376932115,78.13324493439313,7.772454085635701
16.541737159458627,35.74024571309798,8.710751448544864
4.570197829145609,7.765364532194631,5.5629519731252
7.115995390513107,45.92815975729054,0.5596891522654697
15.510227392886826,74.16866211366379,3.5291282645551076
18.53352426207939,90.43325247989316,5.262130799185524
15.821383865280565,95.36931506442191,4.3718378712266714
8.586823271685143,91.5100528120053,0.815914558012755
1.25332414824127,81.8379133393479,5.137181979936293
11.624546233836682,68.90839194511439,12.782297982833429
20.788635845215346,54.50438889586651,20.99655990719572
27.658454803351376,39.784897525084865,28.44503808919721
31.85148460029072,25.64622522771117,33.880936440199925
33.507497384330854,12.985077979098202,36.428484277000464
9.54331379689065,4.231664323248508,9.430815251717657
6.725311678468387,1.034671519822134,4.517221941557441
1.4167047010797689,2.7587387918485335,2.5056800532790424
6.329022577477143,6.627155966785638,11.115784823919002
15.73643868269067,10.22676738532242,20.56797205768396
25.375891084356606,13.40164697869863,29.77288397892188
33.49036514681871,16.04470535325518,37.20623313924836
38.38956000979741,17.89503131463967,41.25547116831048
38.81849402618553,18.446552279032485,40.658590229709425
34.14219314163007,17.04459754015386,34.858124768921016
24.395681945563922,13.167233316711357,24.018367135937996
10.363452738396592,6.80072876133452,9.12278670651599
6.343916728602195,1.2787524637596965,7.524487603923778
23.704487916444922,9.68199595058923,23.082511748012216
39.78992493594799,16.988624932654837,35.657302338698386
52.5399008991565,22.182865190617775,44.35817477428566
59.68603788810168,24.873470437694152,48.88965235754683
59.22406284680064,25.290251503292115,49.2112290016289
49.90316913241911,23.938417799353864,45.33513606488881
31.866056101699918,21.211899619091756,37.94626715080217
7.0470948721814946,17.160498843799036,28.552727787260036
20.933677724232666,11.522349726749221,18.75800279542581
47.28098181743152,4.0594110553847225,9.809871317628627
67.05827255328809,5.0468513041391505,2.453215352795731
76.33440372687093,14.911319897124642,3.3822906568452598
73.11568005534566,23.94818330715384,8.573761196065266
57.84703984105779,30.246803036405172,13.95860404753969
33.22673449263528,32.191274258369575,19.678498226639523
3.4691346807304835,29.121919005456412,25.286982685810337
26.725633872008135,21.74021544568745,30.230495423844093
53.130739257924326,12.045753156469972,34.10042158827973
72.59359492526501,2.780127027746884,36.18719149245538
83.24618391169938,3.484151421948165,35.682327642427936
84.4529660612005,5.277175708280103,32.49468708918071
76.71714410777983,2.7823917447495887,27.284731828723142
61.63125633176203,2.2588691411964437,21.24172799572883
41.777120231341925,7.26277620728121,15.678455385229894
20.388265497904516,9.83674747385002,11.517073417097377
0.6774182909150919,8.64425927571403,9.111157111757382
15.009974285856336,3.6885472008452345,8.207220492440182
25.874593438767093,4.050688049644629,7.89770700246231
