48.0347126813322,8.072995306247321,0.5796959244139789
67.60837111832366,2.768287463928395,1.734789404277564
77.30626891261599,4.9820584214565145,3.252919978213604
72.00264057057274,15.438779698549332,4.922938526152091
49.949974200386215,28.21901385638549,6.464547777263989
13.269869252335614,41.7695503594396,7.543771050609162
32.696223343490466,53.29983417355928,7.80847630524356
80.8253803878841,59.33956109731609,6.951296954342649
123.67616818111817,56.89064518797116,4.753448424575178
154.70116769997315,44.59587449201508,1.0938848784678623
169.03913789353814,23.422227638882305,4.041120065959308
163.74048771157615,3.347877994863251,10.366135280920005
137.76884244367636,30.87184117096204,17.04916708691124
93.03785880960288,54.57704848062553,22.75095652321554
35.82577156927397,71.86622575178933,25.913017232868476
23.950779134267584,81.93598212894862,25.193902903110327
75.15839961539189,84.90656971703253,20.01780681836865
108.45787886954992,81.20902439707099,11.020596614150891
119.47342553632404,71.08035658393625,0.06001695424618412
110.28594392554679,54.906052447528644,11.089875665880063
88.71093417828783,33.87417791969821,20.14678766732766
65.71913955313937,10.2562679647807,25.806050587103034
51.67471705025088,12.826253070100213,27.324456907966024
53.05605360339059,32.411198496680846,24.70558079057944
70.59447169322004,46.75422170016802,18.639408280752452
99.36778672018474,55.788436521598435,10.285805929981034
130.66612086692203,60.745087480358556,1.0353447987757076
154.65418258461938,63.08304532784937,7.684831057853702
163.00589328604494,63.481492911056435,14.608910671942532
150.6564499281689,61.44874524261508,18.710934089653357
116.40966965390693,55.80637064905645,19.38295041992394
62.627297927639574,45.708626630567494,16.732394573304493
5.626983783551296,31.477999036027768,11.627042290540581
81.45952795848963,14.791052728575895,5.445629942216859
156.83086453396646,1.8866477226349163,0.35584720593040065
223.13167917467788,16.19010379230369,4.722898831475184
271.92055449151525,26.52485175794104,7.389490346552253
296.02670864117573,32.23914237082134,8.841192359462562
290.9336525606644,33.38549691765331,9.774024333289278
256.093245826858,30.47214393667953,10.685860866412337
195.5545303007501,24.462803925298072,11.777858021699684
117.51877655951115,16.96284244565614,12.905316254545177
32.82605754402195,10.279094374184128,13.612583146490058
47.26753892817456,7.017171531476578,13.304784038173683
113.28521641670528,9.205416241518952,11.534036596497206
159.0808861878442,17.33375842743234,8.2422276302377
182.4355583190549,29.86829374748065,3.846892641114547
184.72983181191648,43.57366566330872,0.8915832049337016
170.06823286265083,54.54290305539932,5.189794988615945
144.1688808446283,59.454141307315,8.468155627056714
113.2558687906935,56.464622999815234,10.388490479682192
83.09356208540717,45.456071488055265,10.783643397570227
58.147871010571386,27.73107485780475,9.68248978730195
40.94903597462319,5.499623374913716,7.447740511671347
31.763301931955095,18.514949011205236,4.707989907393545
28.67487028201554,41.31767232849694,2.1523996040435733
28.10646250708891,59.92432212689143,0.3661997216363347
25.66850970246766,71.84642886332973,0.294223723433779
17.191713023915092,75.72957936261976,0.254623791658487
0.2684100778290997,71.85922331333097,1.8410316609942015
27.580301916080973,62.1905695940661,4.11393458635145
62.97026842743522,49.758653745721446,6.5953436914778285
102.04486050533717,37.692273800169914,8.734410931874017
138.55398298196917,28.287722557826246,10.05068755727485
165.84675496506958,22.54056455764175,10.272547278569089
178.70525365724706,20.24796199025204,9.413502522575603
174.8762694282723,20.448320920296435,7.672474313618173
155.65984737861973,21.858989267360137,5.295766843005431
125.24990871595097,23.09813221357536,2.6138162721368565
89.08721137376851,22.729158036382156,0.10294706247330382
52.02202731611939,19.39734906014941,1.650311991417523
17.127991490455923,12.201078389173597,2.2969666669492503
14.345076633374273,1.1625495377134827,2.118998329373659
42.075102782697215,12.502174978330256,1.900094064861766
65.59891822509769,26.663312372447912,2.555451787142053
83.85752152348104,39.13561451273869,4.740138865204042
95.70749556579044,48.692043324497,8.446366380692547
101.03518297314201,55.65566603299233,12.921212397704371
101.62390547893617,61.66149721942879,16.976299839221998
101.02356821520473,68.65658711089736,19.51933644855225
103.26210930689501,77.67534070837999,19.919102436579973
110.99853838274322,88.06513107826353,18.00912709108956
124.12678584978659,97.59869651014016,14.026474312583542
139.64531618042724,103.38564420168439,8.530650441022438
152.87255602625902,103.0305262000369,2.2539348071929113
159.29504579160115,95.39396042535084,3.9965037846352964
156.03917081976886,80.61970854678874,9.432467421238636
142.2563119724974,59.569323098092944,13.406610318290687
118.4362852530756,33.15196922346294,15.455709970286792
85.36403721669859,2.0703715852525457,15.301365397284835
43.61469397968461,32.83565010051566,13.005170924970102
5.9837324405328625,69.9320241920797,9.156250692018315
61.258413464184386,106.31911260240575,4.811683209395602
117.85487326549142,137.97429947675997,1.2347699160457704
169.49633350900368,160.59236018123428,0.5285378080566971
209.49464642748202,170.7844453259674,0.10917393368935518
232.81323517434032,167.100456854528,2.0713302259943784
237.5537524327897,150.40246218107626,5.148721708634969
225.03996543980364,123.46759610900553,8.327209240575206
198.53104071039525,90.07830889188027,11.065365508122687
161.41131066260567,54.023940690874795,12.844664862709616
116.05940808702286,18.428859507862786,13.05714693258911
64.1920123622479,14.410246314415959,11.193855338070005
8.370885317569375,42.79287297400322,7.007731400596548
46.52262010717959,65.3005747815495,0.670682711347759
93.09801234548507,80.7003497715572,7.010740831815666
123.12266850967077,88.14882485312822,14.679469039273625
130.448382644678,87.5919194312303,20.962631860590776
113.69930288357644,80.09977243184198,24.990112183778574
77.2609864309676,67.85694592775424,26.42457835769452
29.997288020779,53.7540642527569,25.16937127566184
17.63717242309391,40.73242877206739,21.24596300907281
56.60560792739892,31.122368717297935,14.881962999297208
81.0838448625302,26.207373249364196,6.57032938454782
88.60955676255247,26.11327133382882,2.8563044803380633
79.19844319021522,29.956304412247853,12.216304867400629
54.51919498614802,36.08745852144969,20.17883924111966
17.819393829899774,42.33897370983438,25.495649213443173
25.58685810818725,46.2959976117916,27.255372998618938
68.1364456014526,45.63928041923413,25.175889320826503
100.98787182789651,38.58750689691674,19.70568368081726
116.27420111794046,24.379386387303413,11.852047895782295
109.78300516450098,3.614381903143252,2.9130140542209517
82.70160712636296,21.751551720330575,5.739587862720298
41.48359630155116,48.80673278103245,12.975216647816291
4.145373707968158,74.30995759220066,18.222388566107742
44.0774108206506,95.30446520235304,21.349764987359954
70.30599649993415,109.50575506471694,22.27216135431332
78.19240609821368,115.38308114490019,20.862426052102844
66.50738910934578,112.10582310156722,17.206500887215448
36.9113843920102,99.56540806025949,11.765854855766241
6.423751306204627,78.54192266008923,5.284704444810592
56.97804061252276,50.92168414979043,1.40379858664928
106.30352747707497,19.72287903916427,7.593827780365316
145.24329843796752,11.274846190382405,12.833359944230688
166.02259703715706,38.28055656005514,16.844284996219272
164.5133278598506,58.36627430565744,19.34130379563128
141.57445294719204,70.10717496995763,20.0240632791184
102.68084861610562,73.73527723301824,18.812060587618227
55.88930183157285,70.78496404542666,15.988510879448711
9.088006665192465,63.44449312664252,12.124804270108784
32.18436472287303,53.92929436152281,7.903773329174127
64.00732802879321,43.63845430434494,3.9112534069916682
83.63917070919585,33.348961683452025,0.4556443998168798
90.4467281943615,24.0833599322721,2.40741510850442
85.59074397600516,17.119411792776333,4.667799589464499
71.7488381186096,13.637092674167897,6.279373452369237
52.82193393955778,14.159885399323832,7.19777576272436
33.38192919701001,18.133057939586436,7.409158834495754
17.69147494009408,23.92553639913943,6.956204574112849
16.793919005006874,5.2934258943330414,7.191183781192896
48.414883289688106,3.4599155817063436,7.650465319258883
80.07584297744712,13.35397281763929,7.098904480508309
102.99907734756907,23.29658944788949,5.396081482148196
109.0619957350223,32.23477660316207,2.5701071534828537
93.38919565381434,39.13086914911051,1.214637425654547
56.00854033534646,42.988459280754384,5.649346642803071
1.8181893632234778,42.954276908461836,10.30214973713943
60.930097517608935,38.61802892568311,14.658796846398975
122.908241675011,30.229477722450383,18.209402085050577
175.51502403733613,18.731018104274487,20.58502433527811
211.26061516061338,5.747658892805415,21.62551730129395
223.08631006275544,6.535623141759051,21.3820220935519
205.01930776237506,16.454155378653635,20.04000296044857
154.62517468913592,24.044671270891467,17.687169746291588
74.74905779567945,30.470133302561624,14.150097969768318
25.526470484307914,36.98678006634109,9.110600949586532
131.03580121054927,44.34928044604584,2.3064739453721277
223.43446018779517,52.20384091238916,6.262480624617173
285.72623099392945,59.26982041531594,16.04656772700392
306.9023102152463,63.950816419232,25.843002844811554
284.98847435023475,64.85679649189096,34.10398228653333
226.79948851109685,61.23455087124255,39.47154717878116
144.9092615178977,52.90942040313472,41.1585942170965
53.34072751365428,40.095124561138775,38.94020832215371
35.949213781415175,23.278682506663284,33.00409944640596
114.38084042697437,3.250682278785677,23.933629663322442
176.0822655562065,18.66409996834349,12.664036825760126
216.4682480808504,40.53793319615239,0.38425482207719946
231.7337851414746,60.060175137768475,11.528155205465948
219.8378827039955,75.06819173527668,21.639196092627657
182.25091581785313,84.14309503621317,28.644597111315655
125.08678707969682,86.88850155718374,31.645916588746744
58.366537356481956,83.76030189967085,30.50312682891525
6.549897030590695,75.5204990539063,25.93985502090436
60.13912396753501,62.68739635068256,19.267296125827198
96.92308117985776,45.3476548776349,11.990727515952168
115.72614715040547,23.491342853703493,5.487861529447993
118.22819237902243,2.2962088677679047,0.6588660347380798
107.0224469758226,30.247462399155033,2.357718088429606
84.48092956284108,57.3053744076713,4.070103228440378
52.99443415627552,79.638623229296,5.159993883535528
16.105345854540957,93.56722259332243,6.103795416978952
20.653435549137768,96.47310367005073,7.127865821149559
50.20249762400931,87.37055982132621,8.282676678060874
65.74892808931652,67.00324909429118,9.482455699503038
63.20834357650205,37.59869849095777,10.558303564291144
42.95395212332571,2.5277956480657067,11.295396122330516
9.979311803990385,34.00835325318109,11.454067655302381
27.562630008726675,67.33049188743584,10.81543689275991
60.75323784836183,92.83872054166174,9.244674596444662
82.23435616012256,106.85094676574248,6.766983121986053
87.66069686838765,107.5486627012805,3.605636913385526
76.05106533909655,95.61442272994317,0.09661267915438843
49.33117012984771,74.16250855201451,3.5202634537985356
11.53693652653621,47.8560224157123,7.183435618525196
31.96230912234287,21.49377318130732,10.825395032281163
75.08434088516447,1.3455837429444921,14.257873325073149
111.59487386345668,19.020055348887986,17.271735242018103
135.79085685783863,31.662136501207776,19.673718493117715
143.3619690369724,40.374858102930276,21.164935912420695
132.34137491525976,46.348003023301814,21.293404079272992
103.87800384054158,50.39076281928851,19.561379867301245
62.42695280094929,52.985726218119865,15.532480294304449
15.074177985499542,54.59821781364403,9.089637520699526
30.036598295794533,55.83663742888409,0.7788711836059259
65.8016549109132,57.21339926079468,8.27342214856252
88.02778704597708,58.66382194875928,16.746125230414915
96.32530225568291,59.275484660024226,23.392958192351447
93.58713093613272,57.572492847154905,27.178459396074974
84.27905280985163,52.325728582993435,27.398405445013125
72.41082503438248,43.43799862039233,23.84200932002148
60.18150421228066,32.26558062776899,16.866172534624447
47.95395997439856,21.04480114252354,7.4004441395767495
35.41361816690586,11.679310249802882,3.127087796583414
23.01522048527082,4.598540906705587,13.082984287930698
12.682485622325428,1.5706731059064236,20.86365653229452
7.1749428739565655,9.253078589072672,25.050836598799297
8.438467569987765,20.47527413665229,24.774311928828997
15.985769503953847,35.5335003077545,20.08852022081285
26.415741580189472,52.56835292566387,12.003337256405164
34.544251336302985,68.25954700791033,2.15281946320832
35.62206207891441,79.15545378616974,7.581120472345321
27.45924827593701,82.85937158428949,15.52294675181504
11.306478723404942,78.51664966593539,20.735823670927747
8.926780747693584,66.57333218695914,23.065264043198336
28.579722565917834,48.25656427230498,22.807930269788244
44.17184305288826,25.319540308918,20.47097595661339
54.36131251057241,0.2211851906229794,16.62266188696497
59.6685053652311,23.594161899150034,11.875625099657169
61.457240720531146,41.871163572320235,6.84505373181219
60.98321721986574,50.48709040948871,2.0371956450953315
59.08478055506409,46.90898067310074,2.173776859792516
56.419989063033164,31.425115200013423,5.558712420393118
53.71714991742138,7.402958145285281,7.982994697237845
51.58239690687563,19.675766632339716,9.367850976437655
49.82796525421134,43.947677381338146,9.744497912523027
46.841674448233924,60.810797073441314,9.225754601443136
39.68727859692838,67.77222951575112,7.914875065713265
25.22950004506207,64.30699769336252,5.892577068630457
1.9018365027762054,51.15671069412351,3.3359233361230953
28.80044341494774,29.78753966124942,0.6017182734980913
61.97057186467268,2.3911859268048827,1.7981909272179286
90.3956036726743,27.769451241152705,3.2505587955396957
106.69973064896203,56.25214056523914,3.187689027876014
105.57822608790266,78.07636209367138,1.233020708782813
85.2525640352069,89.08876448645394,2.701752959638422
47.82166404666813,87.44843284206513,8.310964646272996
1.2930119566262774,74.40866005070235,14.831070459809435
54.3619615826319,53.87208363075425,21.042276101414785
102.47844838699548,30.89760077442959,25.440958856791056
136.80836585183394,9.957210565719542,26.53731867063422
150.11543164565978,6.170175164612196,23.287925730769512
138.45530726076774,16.427403587213636,15.691448558813333
102.55539341408762,20.672450235505398,4.8977529011418515
48.209586425009775,18.77674009190184,7.331817214291692
14.79173153552791,10.341709761663719,19.082701461504925
75.04832499741866,4.758203123201754,28.528913236873027
122.42968636918103,25.407252514945583,34.19280691754722
150.36280176007273,48.583213162947594,35.198335847291766
156.72773439056763,69.57219437236131,31.412500712202736
143.310200968659,83.0986816030332,23.417949194381382
114.4545772431679,84.86753823544674,12.39885948822317
75.71433574022767,72.80653926067096,0.07857354684250578
33.04377331657745,47.4991638556984,12.31643819041508
7.490539600747426,11.776671144315856,22.634669905064513
40.01676809460372,30.182019899392518,29.541580968803643
59.579824614035246,73.78621358636913,31.977373917384003
63.19523907337998,114.67123673471349,29.58591614681921
50.785061867084245,149.00125265379944,22.88786113719286
25.359795022001695,173.6055064914707,13.213387112614909
7.811893119820761,186.09525659265182,2.3180127170662512
42.618932243291475,184.99681203456066,8.198287469322429
73.40650195384428,169.86482337853215,17.136969095139165
95.58371437735832,141.3499193870831,23.578747570054947
105.4937731993447,101.23451911489099,26.887053650021855
100.13522125894478,52.48697691554756,26.8415120066611
77.3866546401685,0.6780476367733143,23.719286003783438
36.95013939614877,52.92662665643453,18.23563139412181
18.406656292868366,98.36467290855474,11.334608378955144
82.20680928310475,131.59480531452436,3.982143973519152
144.9644067759262,149.02631587388694,2.9556409393719623
197.3429126188653,150.18780636296103,8.756406609275263
232.55008593733277,137.11175870609813,12.834140955696194
246.9359495091019,112.81006551769413,14.808163044493579
240.6220862516307,80.80087439998053,14.616734517401923
216.99260484416448,44.76426209700776,12.599672927966719
181.40324443617132,8.344279794415366,9.452236662999102
139.71508247687268,24.956726760861233,5.9651493973366705
97.23522619744296,51.916375832692964,2.8096913701507105
5.271950602101828,4.264204612861121,3.4090717515112114
6.742405680698027,7.814271087463556,3.0033045824172695
8.290961909891392,9.512699098808133,1.977561682520759
9.55008823649948,7.8586081677310435,0.3916063277978373
10.273088135740835,2.9318257849690994,1.5485946882579087
10.291358731940587,3.5672864767853545,3.523708808339161
9.298724744058978,9.210254909781037,5.177222150371993
6.6877405419673535,12.071898937754325,6.201939445763492
1.621016707323273,11.72795196775698,6.41096198338301
6.5667527554086895,9.341667738982357,5.767061575654062
17.84483067425535,6.9387908221471895,4.403897096301647
31.210197426829215,6.480416412174622,2.690535116935832
44.835379365596694,9.049692658570077,1.213484994980999
56.3414962839354,13.88775755177162,0.4663017108561828
63.244730131104475,18.52416028513012,0.5111238548417819
63.867661422502486,20.831359613675495,1.0114442121094376
57.93815598107316,20.25171519508818,1.457919227587407
46.40292566383172,17.344756683090814,1.4291861291893664
30.894561722888824,12.96096904403536,0.8939930224252121
13.103865985643852,7.145008656047408,0.20099770879063536
5.501269779513037,1.102190597985862,0.306729139409571
23.49426288934361,12.92174014899343,0.5933417121071843
39.27487715374693,28.445779073724484,0.8922218892176932
51.14349164321788,45.85452007778399,1.4711824818415298
57.87537516572325,61.52948451320452,2.4908479674512867
59.51896132050718,71.2135653198179,3.9318030542813664
57.85541821772399,71.50891988928501,5.488187127800042
56.09403864053463,61.1373605899478,6.645722234827402
57.703092058684746,41.27428732924967,6.9339689364199435
64.85377079968873,15.045111849261934,6.166149871088068
77.20042037690398,13.427708610026237,4.540008949717221
91.60315225297329,39.988226791570746,2.471409221306633
102.96829375121509,61.08083836243533,0.3231833844709351
105.83399991815891,74.0897890253982,1.7563716566208623
96.05480967341968,77.47778331961972,3.793802740692878
71.97953505450704,70.90240852232729,5.801466394826483
34.881179544796616,55.32716600103745,7.608544153680715
11.290338016423537,32.97682411099805,8.729554918704274
60.62812907480903,7.094184149163519,8.457861837471675
106.23239327754004,18.514654144916395,6.304143754353965
141.33952868467344,40.05238805179549,2.387328957323778
160.5562406389607,54.28613567014216,2.594630567846365
161.03184216064156,59.026419289110954,7.68533717853024
143.27029576600407,53.49151155983185,11.882052058815667
111.19156656117349,38.54583037209092,14.314435250770202
71.29537000542756,16.71542338789155,14.519247863902482
31.159149865472266,8.147252246571103,12.443144297308953
2.2442011813910847,31.550479812411194,8.262293797676938
23.847150494988597,49.298251486748185,2.395010693214678
31.06399028790602,58.40204502461831,4.345431650107646
23.702699280226344,57.62624721457961,10.673793391750083
3.589441910840895,47.51643183681764,15.091063800304934
25.73336173256463,29.997347475316953,16.403749098077473
59.13930973533239,7.7985530841338555,14.166946948711063
90.08353924027848,16.0080749840914,8.869799024666897
111.21354461288519,38.243676925665135,1.7144032136835254
115.649935153006,55.72910819560262,5.862958783161692
98.70113172592787,65.48628319406457,12.53612774154924
59.452061867040285,65.19493487321716,17.195848941275784
1.5235612104223182,53.828767310812786,19.05307482674906
67.43279247335876,32.204347582396146,17.796187937526998
137.339389517658,3.131847785965637,13.587860919041084
197.83018600778655,29.016420442777854,7.014203784318559
240.1749626242826,59.191333340662226,0.9656077414603106
258.43251046455794,82.65558035354496,9.22902292880316
249.80129056289283,95.74214163965544,16.619553172984237
214.47328093001417,96.20959918897988,22.004374367655263
155.39884407909022,83.25900807155962,24.581656351205734
78.20908275276985,57.42826735142833,24.18438360650047
8.842402293820323,20.555782525771388,21.274823356663333
95.31293046676727,24.17744384937627,16.771281230061774
169.7389538017681,72.29535657160393,11.731408122666478
221.5465038285921,118.33456911910162,6.935356168618479
243.2681420297382,156.50043397208813,2.704904847238511
232.35068440110857,181.56378134001747,0.9704386295139134
191.85488887478857,189.7062957058196,4.25171661997772
129.72022300666742,179.06782557423315,7.328451310597184
56.769596414816256,149.8838620241471,10.364041213238943
15.887700600462603,104.28712074791866,13.42995351947742
79.150367360448,45.97631081473689,16.383268613230943
127.24459666835197,20.107862209343565,18.864141730314085
157.82688252206265,88.07614214436649,20.402919083061214
171.1110284891951,151.4533141748921,20.576438931935805
168.64832685814716,203.7453549897379,19.228782317407617
152.37854108726927,239.23276438466377,16.488526293849723
124.31205003835066,253.84918720952456,12.620375973169782
86.79408944730343,245.88755379778917,8.004355668461205
42.93618983838748,216.32049690748156,3.087611002908434
3.243945661215224,168.65584498602755,1.7474179919156922
47.23798364432688,108.39711282532417,6.16650085392873
84.89299250579782,42.290818297365746,9.85233556632894
113.24163826835016,22.48906145333379,12.621124021309726
130.88517682599667,79.12735952442239,14.469046309447457
137.7426844771543,121.91440686384277,15.502733971531383
134.34966927539293,146.977493364396,15.863726791437486
121.18970764895082,152.89489899269793,15.644288847769195
98.54755377624942,141.0169116501971,14.875891063125916
67.07137410063663,115.3119324446415,13.594276598212874
28.748024119888207,81.64038714770545,11.885122777498609
12.34500302214564,46.5876389775699,9.928564708939016
50.096706172022245,16.159710966283722,8.036195654274522
77.49608410505567,5.286121992637217,6.543421603424122
88.60241957849956,15.577795643649923,5.541228746355665
80.6150344689984,14.670578150721692,4.65957037139172
55.21329678538187,4.170425036029038,3.0625339222658527
18.599745426156332,13.271160032428629,0.25256609248246004
19.8901075471948,34.444337659822786,5.8791239034270655
50.20288767720563,55.87564905668009,13.52173653490927
64.22790288323581,74.02367031978763,21.978780796322607
57.86216246420918,85.53038110661635,29.58265557190988
31.868573803579455,87.64553133656086,34.8196092255006
8.580380114852225,78.79392284031248,36.75501115572611
55.331364247268795,59.08703149238826,35.06370031429883
99.06329067324796,30.53071785936778,29.789376418382982
130.92297840434338,3.2420939253856886,21.14648058581677
143.76225827899998,37.68853913613054,9.571509042134977
133.04284438213435,68.29703001953726,4.1086270308789565
97.57291250927338,91.44746918901862,18.599666830615796
40.11115462431712,104.91017620559083,32.16306854091752
32.42203096897464,107.8758524463258,42.80670626791835
109.57033359448268,100.66696103675856,48.78113614954225
179.10812696271051,84.4009706519518,49.16369806593329
229.6652712670638,60.831619764059845,44.12792901711697
253.381913252395,32.439521794920886,34.88171004418753
247.58924836113368,2.60249391812714,23.359148674516902
214.77477407420378,24.463149037791762,11.553818571280177
160.93343103687556,44.22816272797225,0.8112171547822421
93.21096532854726,52.8723679239395,8.3338544115455
18.05818309081156,48.520211464252824,15.83467643238408
59.2194042346754,32.159122074250284,21.784163546366667
133.61905151965078,7.758145959607385,26.259550736935616
199.28212622686036,18.62011878847026,29.329192849245942
249.18928586888788,40.525653913208934,31.08405451092677
276.3098960891245,53.04608221686233,31.577882311488995
275.78904201845717,54.22242272198933,30.751881667410252
246.99053286711742,45.42452808540204,28.554072134978572
194.19418355177953,30.56197703441623,25.072047203454673
125.52375653403602,14.498342042250206,20.451171605182413
50.70091646743314,1.330426419970356,14.885503247288367
21.185441073857824,6.8010557036953285,8.684849013826005
82.88773031801273,9.98232539536581,2.2560696621310745
129.05178656727168,9.943737889617005,3.9005021318643363
156.4859162201703,7.798871005644217,9.285282046117672
164.2328932352817,3.8577633280878985,13.483340671158164
153.2742378793713,0.7065671458104515,16.171427442057983
126.79710729741402,3.942980579610673,17.199887077319232
90.26163814377574,3.6434919565170474,16.629130301174744
50.759073907245,1.8025934533168189,14.68120651055096
15.504198991400287,12.565455326577837,11.7281757633003
10.079233785358804,26.950657253522195,8.314285388394342
19.666651967958305,0.355792366973885,0.9844113212359862
26.600554589568883,0.506628776436775,3.1211432867027624
29.539467056584368,2.5493435733225627,5.1069445641664135
26.976086454431023,5.268015690024334,6.123345780949167
18.43728244682926,7.09722592686511,5.449537410519209
4.181494214171348,6.907239019738875,2.8109639858255124
15.076361083923945,4.431914255761318,1.3832654092034666
38.073985626050685,0.22198487125987112,6.204602875494631
62.58103911097421,4.905294754081027,10.604825492282034
85.05069591456306,10.379963461112805,13.690867500096372
100.8492226608487,16.08881471202531,14.80877014070352
105.1863801736163,22.414810771958308,13.584379875015127
94.43629616025655,30.03650629479495,9.9639973030683
67.49159422999487,38.71155416602018,4.305855619316794
26.835376407677472,46.31072488178688,2.621563649894876
21.46755730116032,50.129562626427244,9.855389305486913
69.37758479881656,48.509660509213255,16.354373042055514
109.20311922097719,41.36201957014097,21.100055548732673
135.49535015651293,30.141263696617006,23.339078081722032
145.96411416274444,16.770427516898984,22.71020101456047
141.3089021642931,2.4598948831700387,19.329296296764237
124.47048504941792,12.662239724643277,13.802853730557917
99.82469629217871,29.16935849414524,7.094412682005411
72.39482284030991,47.178263620588794,0.35486570523070354
46.90515564517923,65.39550067017424,5.395346213154301
26.52757377452484,80.96437270061843,9.551636726938328
11.629278202889683,90.21175478879178,11.962129730921147
0.7644077971416181,90.09316358031711,12.81153559177565
16.057557315058965,79.44198751648807,12.407420447631281
39.66860497081752,59.48516584143291,11.045635625226993
74.3507403349753,33.44129816296499,9.040318216185529
118.48875712961964,5.463543531325779,6.738866009024456
165.467693873858,20.47877788099476,4.446650485202504
204.8011617589541,41.36176967622344,2.378905070105414
225.48114530809968,55.327261516592564,0.6984344035753979
219.47293072764853,61.56392267366093,0.47988074925721125
183.7293134104503,60.123874557561926,1.105231309283647
120.67190711120163,51.81261140656224,1.1512740581431606
37.20152967013282,38.16055773579183,0.6158139519664072
56.763197954041544,21.320701217152756,0.4383660710056925
149.49603858819492,3.780960082402953,1.864428771359743
228.55011422159245,12.092206354672246,3.4309505646251375
282.0179773414001,24.519703983350645,4.812618353135658
300.4992016368155,32.585017335973426,5.696031281487773
279.51472839135346,36.26449280823612,6.030663703994241
221.44797287753434,36.24869756040162,5.951635012667438
135.9615161165322,33.62852547470388,5.5054887623805415
38.069270411836534,29.551246296632836,4.7661029216113855
55.70374849586422,24.896560300079422,3.9430684670885077
131.36492958021708,19.994782261124477,3.1447399921429575
180.17629906064576,14.47186868612531,2.1932410961509725
199.96412351812796,7.355092667170619,0.7532347376034075
194.5810005011704,2.4890487189733697,1.3551897082712123
171.13506685461957,15.674553353056492,4.001980596840916
137.0439048243234,31.642401659562523,6.766517827617316
98.42871984707587,48.40632328174552,8.961195070007927
59.759042434458266,62.93442675232378,9.86121108309412
24.653817063144064,72.08858969153333,9.213914109627282
3.2552479349782564,73.73867971051155,7.4793691807857146
20.34156526069366,67.50241109399617,5.501049228311464
23.96726804848277,54.740817414821386,4.056088288546011
14.076483350320556,37.86384308231669,3.5750565153375002
5.716484030735423,19.359951540268703,4.08218561842573
28.337662000842155,1.1021383338859794,5.368092284953377
44.97814894673391,15.724148230437706,7.120497594967194
47.85054011037821,30.171436219895273,8.954590963495937
32.73690031447056,41.01090882302129,10.492850541255992
0.2882143960828918,46.65409254703609,11.417201600044704
44.46069528554245,45.726819499343,11.417005570647213
94.03488178674414,38.02193368143707,10.141861675625023
140.86367414737052,25.23311212025587,7.319627680328225
178.97845621210152,10.892128474479044,2.996602858588654
204.46189537918622,0.6499476323296319,2.3570112118381714
214.86731615035472,5.788140699456189,7.946300668522443
208.4059204510371,3.0522646013677197,12.791377663465509
183.71755871152138,6.33697746889509,15.997606781789989
140.5631400302882,18.983975305189833,17.2104343214443
81.01944867949607,30.601917626514258,16.767007202690184
10.318276958989774,37.42377805183952,15.360055290887242
63.44008036227484,37.142892453442336,13.65889927179467
130.82889223298443,29.15977101329247,12.150001314318871
183.27384028430805,14.315683284453392,11.101617237187718
214.94603839449442,5.531737095431157,10.541752101240377
223.60562466567737,27.806422168741424,10.332297820434503
210.25381355441039,49.356992344656426,10.264606252367429
178.0869013436559,66.66145416056251,10.028501368789039
131.4329222893419,76.32190780749352,9.243357843727404
75.21089983267488,75.85104843357075,7.5735904104794916
14.979846275226356,64.48051711289783,4.825568195412395
42.86272323346047,43.624438055221724,1.0250885230920168
91.2547251379244,16.71908575280063,3.6258394309902955
123.29920685571183,11.573586508746018,8.898982268402309
133.64933170090785,36.47658507655717,14.567816412093118
120.00096670106929,54.11047973491145,20.18261511312175
84.121902818226,62.125547845073854,24.98225116419242
31.97522525307155,59.88612559780581,28.1264132807383
27.224087964067767,48.3518267663389,28.87209895865502
82.8656680560673,29.838749802127506,26.72889409515888
125.22049116968164,7.742424510109609,21.71419268806052
147.46580312850136,13.842404474720569,14.529353116347753
146.8569408452256,30.71762167462512,6.404286828736091
124.71637792277876,39.37516018876224,1.4000946863039807
85.39497228505374,37.803825431404434,7.866456968941376
34.78455510388181,26.016118871035445,12.20589459316621
20.922544401292534,6.050168498792018,13.989123749915086
75.76009206118708,18.59298360841708,13.267753355979245
123.88559312244027,43.863095833361015,10.478119672403142
159.47229718050892,66.05806723759187,6.286158127488473
177.25003236943942,82.42481632346525,1.4748251279116822
173.83919009438773,91.35946610761361,3.160426411337235
149.3274569028998,92.27781836771298,6.841644979676612
108.0869599816467,85.37695384283337,8.79209787045642
58.06243077241688,71.47393841814265,8.420374912250823
8.586459167858743,51.938226036162625,5.508601713756397
32.35108470438812,28.608986049984107,0.18253772664024978
60.0576273277196,3.5865422097435666,7.013429337165672
73.4662824527173,21.114852197374095,14.996512316395755
74.00876238132332,43.926860317714436,22.376548429771166
64.02751367804449,63.90276222878461,27.96371018235667
45.88951353773575,80.57379315081752,31.011732765624497
22.2867307934909,93.51860537247823,31.041810202824166
2.8572104373660863,101.89579234085132,27.87051224967554
24.014765200339337,104.25906501456323,21.79917329966609
35.03990586347314,98.83447257820056,13.48239896922872
31.38808205954116,84.23818178970375,3.754157340338657
12.428911027397191,60.36385685376654,6.4438320144759205
17.643493827615,29.00474911881385,16.124483199417433
51.060793428514046,6.108000276431411,24.27896590901098
79.35864423422657,39.9347230135157,29.954893303238183
96.4154550782258,67.2529279008981,32.409295694859075
100.10803625814732,83.8710876849521,31.32405216111464
91.92094392132945,87.51299036151099,26.99054460734593
75.0834128908173,78.1443195011204,20.30539491733986
52.57470782275938,57.75044867078902,12.585097751521527
26.20697074099952,29.767091229142167,5.214811337596704
2.950544386039681,1.5972236468968384,0.776690119493527
33.49710648357225,32.001206197521675,4.964019002449326
62.97684485302553,57.53581829618673,7.42963102365496
88.13959077634682,75.24756537516987,8.464447833268697
106.01061320852645,83.62353192686021,8.355108725726085
114.92282823332349,82.90367140632287,7.297775133546052
114.73864771710636,75.0316573927889,5.5182546271491955
107.28235890137194,62.95666248336182,3.3117557540606914
95.4567301774958,49.760818705189784,0.9326634163011418
81.29449686771399,37.98296220671609,1.363475516808805
65.55129062227236,29.066886698134777,3.332281976648116
48.246616142803056,23.21594620680627,4.841119152596584
29.639403976596626,19.66960769435123,5.860338989741276
10.9199586823563,17.26474227466591,6.389664027805648
5.857840777693395,15.012166127693176,6.449140269050056
36.435803674127214,6.9606793208892395,13.853613722029483
24.559620401698854,6.617096979770575,8.92637043655368
2.9927784303579674,5.489538324043783,1.5901610102522803
26.41100891440353,2.7997835709863144,7.3121324614199175
59.778454485271546,2.3955245816934703,16.74054273036224
91.85211018693744,10.715890160707502,25.702711159587118
116.98623265298214,21.940321975285695,33.25785427500052
130.25143489278418,34.68968417021789,38.49469166671944
128.30146867056982,46.48917937798657,40.65375951719831
109.8056250988028,54.20572793479819,39.22699136538287
75.45016486150257,54.741823102512505,33.98499843934282
27.76774457737091,45.8385423788058,25.100654397273725
28.84612596621207,26.80403749187085,13.457251961589106
88.1121643646806,1.1750631182840892,0.6345501273810896
142.5545186007084,35.24591702153664,11.617485242724477
184.81067858205898,71.23990796484395,21.857166396156984
208.84542781820096,104.04876857637511,29.228859540219375
210.95529568902717,128.18322339541464,33.47938432780112
190.43729682900454,138.51337570602007,34.7656860181233
149.59825380038333,131.21010673166583,33.61691490960665
93.19079295400668,104.74149469280681,30.881086395691103
27.471132966140107,60.624123051683156,27.451367945346227
40.78426039739006,3.6660171499268177,23.960816883098385
104.93206175324755,58.50494799636839,20.69800128664133
158.74116986991825,116.60875755395493,17.72759453114245
196.49195494458363,161.38601339716666,14.98190329275786
213.30346334542094,185.41306462721968,12.313420658790118
205.9756658724919,184.61595464822028,9.555205154323026
174.19080033097504,159.1470486623828,6.576303459795616
121.5181999874727,113.3836526385731,3.1994821509338696
55.5143545972134,55.035225951037596,0.8438068685782657
13.41844695071846,6.43027969914954,5.669047622256438
74.2095223236186,61.66339613961371,11.115099427553437
117.65037438969095,103.11453100859117,16.73371338885232
138.32649223900768,126.13518616254841,21.73175215388513
135.34785912430434,129.33096824502013,25.202516467877462
111.88360770954404,114.23926682942621,26.474189010687553
73.92796456973004,84.60226862898641,25.32312809774531
28.897214149123208,45.546001383217394,22.09675874135371
15.555741083983557,2.850867107808433,17.652856061824043
52.50652697346362,37.67384416496951,13.031619321244115
76.65013259348164,70.7667580478227,8.989876218564193
85.13255718653411,92.3115468471976,5.754425544167644
78.12527469301837,99.90934973654863,3.1261383795741815
58.79769890606802,93.22611154164098,0.716342785336861
32.42547623748333,73.95758283036149,1.8323614578125857
4.797784068274718,45.36195925675642,4.59989098917628
19.47905375466507,11.472345512021201,7.243784103297966
38.077577499385605,23.72250072759977,9.197272016271462
50.9798285844239,56.8472681253894,9.956384659933915
59.53158975029895,85.30811028837498,9.26359149465212
65.10382065228039,107.1344660811848,7.301093253279537
68.0820059518905,120.74053190264239,4.666953417471847
67.68290717664084,124.84213924918059,2.126747456866288
62.5682521934909,118.65820035299109,0.41757719886372213
51.80089550398215,102.3184464838709,0.02422721640319032
35.606038624168846,77.23141750072547,0.901720701444587
15.586122164055176,46.16900090846704,2.517859456749826
5.614472535407837,12.959924432109416,4.267914148318944
24.945369178193083,18.15398309311536,5.732245538840363
39.586485203942,43.332795056151966,6.5703097713249194
47.41294588637205,59.862046684255716,6.400252449630819
47.28665428356938,66.5720565863066,4.907726464938411
39.250589428035,63.899725133363795,1.9581326871245803
24.66922123032962,53.6355378617327,2.3776164285668266
6.241180865544392,38.49249419422059,7.6232495779461855
12.26031438546909,21.65459881171323,12.81649828244993
26.602665806773544,6.386603639745446,16.81951705375234
32.98282848586822,4.278688791249519,18.66132572177439
28.95822849276768,7.825437042403355,17.81508114917194
14.103117934743224,2.578128819579296,14.461536819681116
9.85018508373753,11.916229467912364,9.54118464988162
39.40867490932212,34.525848622507326,4.439402386844608
70.13022933461464,62.379826578362135,0.40991054834727597
97.54353123684068,91.10225656188558,1.9456640699499506
117.81950287153796,115.49733983103788,2.9208047312660494
128.0777063243494,130.576539290287,3.5240027902721
126.39287881101468,132.67399502905565,4.872366743339128
111.68592544691525,120.29611397610576,7.594487408119423
83.7548375010719,94.38789286585302,11.670842400072774
43.56256155151747,57.969294443824296,16.596803038732237
6.34270056123056,15.340307786950063,21.600940010284493
61.569526935560795,28.82797177942352,25.843685488723846
116.08037982280693,70.18216586488973,28.52849216990332
162.9847775777434,105.01873087209673,28.926511675147996
195.7756883854489,130.37621717453135,26.453426378065988
209.60187569502006,144.10741672261656,20.919561779458473
202.18038615947668,145.10182842944968,12.725803421672051
174.12542153792825,133.66075776670587,2.696788825682312
128.7218173667709,111.79734980359179,8.146608135670556
71.32277440865856,83.12892866684177,18.555130490654136
8.533130443389439,52.19401946846026,27.004596915080477
52.68884692242617,23.334078366174843,31.95241632748874
105.96430056892608,0.45011263624199366,32.31455051177028
146.38575848377562,18.16336518511384,27.903149479998163
171.12071460310776,30.675482040577066,19.65533175405838
179.48755545630073,39.80579790828322,9.372130721869034
172.48409648192356,47.04794641598595,0.8934676647942748
152.03708752313767,52.56836272387291,9.36915569858335
120.42267062498964,54.981923856600496,14.877693229243544
80.24668534993855,52.03389678992921,16.80984378363735
34.93771891035226,41.893305263939816,15.046500570465598
10.806153309471332,24.43504159943447,10.00647881488407
51.23514485617612,1.8700056672181726,2.5706341968736424
80.73932660836896,21.58458275729296,6.021979626756388
95.669104808824,40.85370250104501,14.423404846295236
95.79222139536893,51.50319511082325,21.499715349883882
84.46096269779068,50.96529469858123,26.346519038193147
67.20420298802374,39.01196104826347,28.223877312098963
49.38767836341481,17.43397185763954,26.646576461423706
34.25934853877386,10.742761627461327,21.644804567446286
22.450783562009843,42.029302466747815,13.965653106502469
13.079143150483402,72.87283247172998,4.893698593635897
5.5407569476705145,99.64392454994027,4.208615049455684
0.6169515602278479,118.51609340086574,12.325086147720697
0.025307808715724023,125.67525642556407,18.85623416778678
4.692204669484537,118.07655461081566,23.479218080974043
13.07356121519238,94.58169138395075,26.056131241182594
20.93678877543185,56.95118068529644,26.635473191231334
23.09650727969929,10.044903149882337,25.554295637356496
16.261542910852768,39.10410429038205,23.311859293102298
1.2126969630347781,83.13055391734973,20.31033187254785
17.174360137067385,116.37426830398296,16.76566942926407
32.258220464056066,136.24273430628438,12.708121729812133
39.01484170415686,143.3544706170078,8.179168797334436
36.459944364488734,140.47973598158833,3.409870486224817
27.73438125787386,130.8795651674459,1.2331074053602116
17.863803855461914,116.93444243823083,5.307753620574466
10.617843810446963,99.69437199353304,8.432971397596832
6.436341356000153,79.38906389131931,10.441841923596845
2.5774164688138037,56.398394289763246,11.377092702437427
4.777589987151882,31.985402901585022,11.495716789570992
17.8599494782918,8.295660402823659,11.198615002127328
35.70135213720605,12.378507455001932,10.77868474122519
54.415236881196975,28.580253913399456,10.330279200973964
69.00456802620916,40.302052619095946,9.868893490310402
75.46581348549392,48.85091032049598,9.376948470972396
72.02449877632608,56.04055182625348,8.866431723023185
59.06033275536044,63.209105265234804,8.507598343449722
38.12063127103818,70.6135067005919,8.565188554343646
10.89930827775879,77.48132255388578,9.116240230964817
21.12076527693879,82.60069553170602,9.824142364692076
56.043601264549736,84.88387177031618,10.21388021199323
90.99278888030457,83.80987272713834,9.982916572388623
122.20228216878964,79.62453401016697,9.012030057873119
145.5852955624004,73.06852641831969,7.378226699236135
157.89524917630897,64.97512909854564,5.30122740692947
157.83167236362235,55.99760871632347,3.0729176778475384
146.45639191842596,46.58052857512826,0.9921045419153423
126.74821990733098,37.10105524704243,0.7000838758538125
46.463883591294326,8.208201649003074,11.370162842141196
77.55611030720009,12.630233314175477,10.038054825545665
101.08690920170699,15.242495244305346,6.892459222654563
108.17172148423094,14.855381377430184,2.1124742751867838
93.34827999068952,10.991723323856435,3.861345938065387
56.61998651131512,4.08732011570126,10.464750563971991
3.469471444414131,4.586590617593589,17.129459031725478
57.11528696864214,13.259701994497831,23.287000375683757
115.3539834149526,20.12098162338318,28.305186463412646
163.04358768400266,23.765304149402972,31.562146275749523
194.5974149944624,23.468135026946975,32.504016356012336
206.4687502320657,19.193569320047374,30.56459797163862
195.94733639370043,11.414785589420017,25.367235008802208
161.73986477440818,1.136541351799647,17.134336493545806
106.08062291548836,9.907794402175599,6.702330339025187
35.50356891925386,19.430905549061652,4.747363856981844
39.47607370204651,25.044884747685952,15.885140982277616
105.93562744922848,24.83921942500583,25.384041354948515
152.23095309005942,18.14740258536559,32.084613448407744
171.6143742874504,6.0708843517693465,35.26647414544656
164.30208633112125,8.536183871392536,34.8590217690578
137.07441905882956,21.713302348475217,31.27074578368534
100.25334406868723,29.60858196344683,25.150327387317944
63.878258436696655,29.775766029104027,17.399210817536
34.629439304487605,22.056306831251145,9.125389652050488
14.880243917304574,8.648237218337282,1.4141260751697884
3.8863621620498625,6.721094709998301,4.849649511676617
0.2297756954532838,20.147026101204023,9.023144001049136
1.1448950158324327,28.844920144207734,10.686628762737028
7.4026304704490125,31.8262392950535,9.766771786697218
17.88372664622431,29.754060566324526,6.796935970406919
30.858428126668926,24.192428158990307,2.8576413185843443
43.1501492882829,16.70896751538895,0.8904371394001166
50.82898584481411,8.289006726635973,3.6800005173124872
50.49662940357859,0.768562431855187,5.293949097603548
40.41287158431656,10.580195356043902,5.808593509410579
20.887488574983028,21.330866072680156,5.332644744748414
6.134705654158697,33.10712117703097,3.9856999504166506
37.802223992706395,45.88211139973017,1.8190205572592635
70.86815283485116,59.46235682443377,1.2287799448559376
101.7276614646266,73.20307681841776,5.078481674453222
126.24278254242091,85.5167387153832,9.23839885002337
139.8523401425988,93.5186665157089,12.876735038646352
138.29532348773932,93.20097446843747,15.029097551708595
118.93036350353559,80.35255788130797,14.705956682106764
82.10536703240047,52.07638378807468,11.304502104752185
31.860740761471455,8.331557764339983,5.18428563125161
24.445581864409352,47.19215747576455,2.432555221916437
77.56249977662767,107.34071792468583,10.047746271624643
118.33591790944956,162.9073141676944,16.266491344180007
139.61206748460842,204.7147705917566,19.957899300247604
137.57323072036868,225.67510495816245,20.375635461723874
112.26101805262093,222.22410596142106,17.225925106251562
67.3546629318277,194.83178716985788,10.671784401372868
9.492627309163794,147.60160485692126,1.3963557511074267
52.68261367156114,87.24354061049135,9.355064560518066
109.70653980341669,21.79158232027702,19.900556797201176
152.65890712880787,40.68526088899521,28.410762542280576
174.64092476008722,93.20378515360122,33.34388354734775
172.1367111841895,130.72275265687313,33.823669647835764
145.86129982009408,150.6760634728138,29.873577508940606
100.70969227324206,153.10278688785752,22.45140001217706
44.65162129848494,140.37667389132233,13.161999624488741
13.220521683790318,116.59128127552918,3.836733714993736
64.89488265554719,86.70450281042194,4.006717779783885
105.10042744949702,55.63108814892925,9.646613286148078
131.858461492677,27.459720929279744,13.029673916513081
145.8658855895986,4.952949833143317,14.346041158261322
149.16475315891697,10.569230057322043,13.898958727992111
143.82747413391468,18.99057185826971,12.119474018822123
131.2356026952646,20.9279512403551,9.487084259196237
112.1742101141084,17.23836603554263,6.419284853124215
87.50387598649355,8.713615405517766,3.2946294307522574
58.79647471674901,3.903485571943076,0.5418651492306064
28.46664111297318,19.59255460280125,1.3454931314730874
0.6579261415873119,36.66649395757734,1.8563928642591974
26.057712507243043,52.6055134445779,0.6262995381121949
46.086525500088435,64.27500650928933,2.3162062557376633
60.09321990329391,68.56159034599428,6.443934492896359
68.15235305267638,63.22741034307753,10.881206853489882
70.69288340929688,47.64337259244343,14.73647430507145
68.35042166591354,23.13398055744729,17.390065236554914
62.10783334190654,7.189378674187988,18.475710876533384
53.481127413152265,39.04944562968337,17.768249143958453
44.44142739119441,67.88385781774168,15.249901748882777
36.90845230283466,89.74312919822175,11.143656073221141
32.006888978352315,102.00911059832505,5.871514649653547
29.559940783439444,103.8100657680415,0.03569778987866958
28.17969564752464,96.04285932359026,5.620265021890292
25.976700576693148,81.00608938360355,10.293787962172605
21.551573037094204,61.752227415820386,13.27978798816349
14.736989443443061,41.33958663612239,14.192521240813152
6.6961019988786425,22.214854665174723,13.136594437457886
0.6355874318806326,5.87814715037498,10.676606394348086
5.43150110453006,7.141739751774294,7.7031400054358015
6.739648444531105,17.102812623899474,5.1828420818888326
4.815166181767838,24.832892573567825,3.7243519225682045
1.001640493795535,31.54478775525046,3.385731656841756
2.66376736540389,38.6256160274805,3.8173513787389894
3.9861084372686064,47.304385697192714,4.539240076050966
1.1904843462549946,58.15866449492994,5.233386535279833
6.503775437736212,70.61506426104275,5.691179658113105
18.407873327347097,82.75688151284893,5.66202297644913
32.24591694956325,91.7061994484533,4.944251458266838
44.58918000757843,94.55581093468035,3.445144487532291
51.83165778380559,89.46768084840265,1.2850347590449023
51.399799574696736,76.37564132011575,1.049115915434711
42.60030072074224,56.86482591367303,2.8284429732269913
26.661392338386065,33.245996026021146,3.5174657716260356
5.984811562632558,7.31892861382675,3.2023013462563337
16.902847016966295,20.45509162279122,2.5290871955717247
39.964478670183,50.83872728219835,2.2526337750897274
61.40451241641409,84.7902276447065,2.9071668176720533
78.82061060457335,122.0990285978132,4.640625899139575
88.56133900529267,160.45627408596843,7.083866348869818
86.07500680870315,195.47774884599175,9.475853423873794
67.50281281431819,221.6532839950476,11.068011889205783
31.915545763888424,233.71003982953795,11.330458040293761
17.093748554041436,227.75450662477886,9.959593062617039
71.51816769681386,201.84667386721677,6.912711465884075
120.9535316348428,156.07853056652772,2.3232821445740264
155.73597735027644,92.4890854616506,3.5701627408161376
169.71333989051132,15.107265396528051,10.379124345841838
161.44583604854117,69.93341039859317,17.479336536817613
133.52314557096565,154.58426933873662,23.838242330199648
90.68747026837575,229.7178484621009,27.973265384929842
38.092955130770534,286.6190965034149,28.281382932562128
19.336058586503253,318.71301004902733,23.702560571979188
76.40451611065816,322.8703081890649,14.36430750139457
126.81833685496713,299.77330661110915,1.62459845821584
163.18327910226856,253.2813847971348,12.402570086893075
178.40533646233231,189.21925848422418,25.293051521286568
168.07181751631745,114.19122401484643,34.84101290702053
132.6383707199984,34.83185836751679,39.710083579518376
78.1796209677482,42.48377786138653,39.61383003704745
15.124605171938407,111.75701054723955,34.988625621509925
44.61430734953541,167.64875934711,26.740404260779844
90.8779995005893,206.04029487242585,16.145906248154944
117.58976675829857,224.6300415098964,4.652370018736891
123.48155859914009,223.21569025196163,6.373682143462482
111.2590727453754,203.50910369793684,15.835928559567378
85.93973699603228,168.6104141663642,23.014994402204763
52.66436970417844,123.07586833498056,27.39956290778702
15.514787635790801,72.290069352161,28.77464903154777
22.093247642109965,21.306828042384613,27.50196375539792
56.86002396918951,25.36085162806885,24.444588031598393
85.37985397197862,63.88846309728022,20.725537545187258
104.5125878811997,91.40638863245198,17.36218246535426
112.18503629068715,106.40118159741863,14.970607890616385
108.14681837362338,109.05797252776878,13.634145607801878
12.680336753848886,1.0470833192243827,3.9853822171538753
10.212604027198138,10.334393603251698,8.056562346575499
5.865899416174046,19.824452605149347,11.369362123369738
0.5932783681483541,28.367185467785283,13.565498386566931
9.462244350670973,34.89750417252186,14.541758598199898
20.796143050199976,38.294260742287506,14.190365111339666
34.024441087582694,37.39528984271337,12.306923813865922
47.690982784342125,31.226148646069586,8.638576884870771
59.49021812894543,19.512065869220468,3.143380390873242
66.63353356867454,3.0894547565532626,3.8014344862311993
66.45395623155841,15.992177631948735,11.44792902408588
57.11567965806715,34.576942215673945,18.765657373829697
38.272216026425646,48.774920055407115,24.47895232373598
11.32790873549768,55.40172726351508,27.440481356994134
20.970131794663256,53.558995857216445,27.233445992582425
55.13427065521661,44.34250933925395,24.19610637353916
87.26214936001476,29.851551875660633,19.064861211173536
113.31313366649042,12.488050007335124,12.735328771007161
129.51639265551648,5.799460064732047,5.927660295548403
132.97577872026125,23.503881986081105,1.002650984193325
122.45070544666518,39.1234505323492,7.875961227251755
98.9388208000892,50.85913680819392,14.325519286382368
65.70571432666765,56.50100640863967,19.618984135357532
27.623183662657993,53.92274856870839,22.96925761768248
10.039422696680141,41.78125802879947,23.92575429851782
42.910304399139626,20.13690493027947,22.52202499648168
68.3756515985879,9.175386042343193,19.21797382075718
85.68868358821989,42.669671250948035,14.619193785824734
95.42122238355189,75.60902261708047,9.297080271566948
98.66809110165401,102.6156095566151,3.8386758602375535
96.48218897689824,118.4083835592562,1.1469951452686122
89.81389278148089,118.60563345728472,5.162893529802272
79.81043607740095,100.59751761130313,7.950877889877876
68.09679330138361,64.32160622717373,9.475788573581099
56.6789352518654,12.75798371282622,9.895900759827526
47.372172524377454,48.08382294998775,9.513504752065879
41.079723678622656,109.826691343497,8.633986965280798
37.37980645643093,162.96320561361512,7.506499835517133
34.71044833776831,198.4425627238454,6.288186830569851
31.108593489863278,209.30864542194234,5.032269632403312
25.049562324495696,192.09823583170362,3.776802530613763
15.858731112138793,147.71405178081847,2.533519636639682
3.494029578550246,81.55958404820393,1.243151864938336
12.067511483122969,2.832489070794231,0.15985046590955468
31.27030406305414,77.01244610554714,1.6976306399474717
54.73573660412272,146.37509276621662,3.3562763906934645
82.32167291723457,195.69403559645076,5.075588278702774
112.03858943397513,219.1614943577869,6.6406636791785765
139.62770295737442,215.52924892238963,7.566317337410938
159.35545369243727,187.83475927303527,7.260358398699491
165.8820481555552,142.27599799316866,5.4050688942290845
156.3550273150991,86.69284244403,2.135617745975804
131.66196703772164,29.111180071302414,1.9464785906277156
96.14938277329789,23.3817842021707,5.751317162603995
55.929907814917,65.40224187303008,8.013565892804353
16.708413468121197,93.73805763531743,7.832032649703295
17.77637333011058,107.58823904946658,4.899832986219907
46.048965456384906,108.55042982093768,0.3931058936428006
68.04270421059553,100.20832719080961,6.843727336056671
83.89384413960406,87.26053161648738,12.829830517310265
93.27051969254377,74.36878321168798,17.069878093591747
95.63787679869588,65.06038411027956,18.87272890319207
91.14193004465466,61.041938539554344,17.90715499531898
81.32028831121792,62.132734905869135,14.176930426926818
68.98830772942878,66.71631306783041,8.162026822587398
57.23660713086976,72.39788623879718,0.741511162765621
48.147291413521906,76.58032428125885,7.043642075855551
42.06307543929197,76.81544240121632,14.208581082835508
37.895136695316914,71.01430529134923,19.949694016656608
34.2879233369753,57.69550693059603,23.664490371557964
30.832850072740193,36.33252194918755,25.001319045257112
28.488854056462127,7.720101353694328,23.985466146216112
28.879082493983404,25.887691839341542,21.135116634615617
32.84201708778008,61.08323058087185,17.345926988912975
39.1690278994892,93.99584432457374,13.494202297507513
44.39462247890498,121.1158203854464,10.245142628354555
43.89608599678173,139.9258078798397,7.995607278708115
33.813659018006256,149.11241421084964,6.514884880833687
12.853715289040627,148.40476094941388,4.911166677998747
16.891652910219307,138.30426501802395,2.280570035076581
50.46434068659889,119.9477226527108,1.8744023054037369
81.5352007479755,95.15307986599483,7.727138782337236
104.14776346727614,66.5105273226096,15.022478333583267
114.07981352966257,37.264462048582246,22.85847525429287
109.48993888647999,10.847278460537586,29.89781181569284
90.96610539314474,9.822293055999292,34.87177146606135
61.27024225370927,23.01078920367563,36.95188145846893
24.931169487032776,28.497031833308885,35.76709784445214
12.318274875178089,27.438559917453286,31.287285629968544
44.38892314817395,21.948016964124257,23.91597980671196
65.9653164458641,14.624906353057645,14.471409222644777
73.64268955210683,8.2410532423007,3.8911927492138467
66.69074820299883,5.587346177155686,6.960951585670277
47.12921547205613,9.261776283535173,17.3068673881576
19.055735428269287,21.19460066651179,26.34938093493832
12.464796314698717,41.91852707482596,33.21294701156294
42.48777961053899,69.86235227207328,37.1486611128782
66.9640281688002,101.11079062439791,37.79769514993755
83.13164915092175,129.93772954018073,35.20061126214841
89.63833109143324,150.0358732215329,29.66764001743375
86.59760150441352,156.02648720469136,21.741395751847993
75.58676227180243,144.72361757662267,12.245678172551413
59.3752896659158,115.74177727471778,2.2661216750559356
41.218609474299555,71.39134994496953,7.118581994307044
23.787157004511034,16.136593465523042,15.096036894059624
8.131716686475492,44.0705122067932,21.093065326552065
6.731735425212445,102.40493647204832,24.77286487172386
23.249114937616017,151.80384670161223,26.050160836156227
43.88120617760001,185.8218457036205,24.907111483304163
69.3827905968459,199.74357560380156,21.332102286935235
97.6499047236124,191.7139522332643,15.584865465918062
123.79270661834086,163.3984144723612,8.442396323517492
141.5013057677559,119.73034700131669,1.0882378841676523
145.13629356417792,67.6705941761407,5.214853807503827
131.6963279958254,14.377695655748063,9.416379538807465
101.90243220164058,34.459822485832696,10.940509044935377
60.0752685635198,75.45515150702688,9.855403551569168
13.044228238418645,107.29788264519514,6.840765236758447
31.41085685238851,129.81406841790354,3.0110613041419376
66.08526944846359,142.99517877381766,0.40982189568496485
85.53710215797122,146.57339544668213,2.5918367103170525
86.91596853686353,140.31494363827085,3.426110998701059
70.48280922194819,124.69843908053126,3.229462839882755
39.77236588293538,101.39015315923533,2.2583955997125456
1.2444312734984349,73.11080391268189,0.6906797815626187
36.72358017345871,42.91666937036503,1.227507148563696
65.44263013290252,13.338209543598111,3.217866422014727
77.78566344816865,14.088115173841157,4.979948082158669
69.86342680592429,38.623053205619584,6.129741911463638
42.04413737002547,59.62895653485017,6.306445870601221
1.021178342769947,75.91904946577401,5.4206175965273555
51.39026005985248,85.67881740139312,3.714152677514939
99.55433360171547,87.12632438402989,1.5983387464919199
136.50743024987545,79.59360531356687,0.5028158783679333
155.68000488241574,64.37391888608231,2.2557737624231615
154.25085869877836,44.77549753603666,3.498468030527565
133.54441207462324,25.247067570279835,4.186704723646895
98.40696448900007,9.95252424092197,4.268246991087975
55.72074611224796,1.4677871895894963,3.706387099276236
12.562976812062816,0.17452515454937403,2.5137509030459935
25.379516661104148,4.540821881834426,0.7227633569671978
54.65654756866846,12.015377217483287,1.5454280531574196
73.96404917606442,20.29918871304913,4.02420201941942
83.60514272686382,27.94856285490728,6.350615384417909
84.87680616887756,34.13019916151555,8.18740817883782
79.47586135809878,38.33665049246376,9.329149901860061
69.1839580133612,40.12739310545804,9.709844440490288
55.82119390641296,39.099536118679474,9.390310273372373
41.282359944053944,35.09956463863542,8.524746839782882
27.458890260475012,28.49300986048556,7.28156991481313
12.439499081107675,6.449217303318847,1.7914524372054288
17.73547309160227,5.225133401819468,2.6883329787085164
19.927325523037045,1.6434928987724435,2.648387089117643
18.03161091180709,4.045298189517023,1.149745865017456
11.812534900277655,10.895478428968103,1.787763655410709
1.7682384840355205,17.57656438700304,5.393939093288868
10.907650339963809,22.82311221989373,8.570029610935848
24.43037134728025,25.79744164903911,10.512036544146346
36.5133423803012,26.15777366210015,10.900412871038489
44.66327463868677,23.836460804578728,9.78310136769958
46.62428562440178,18.7112173569503,7.4847799974041695
40.68243527422605,10.41609019826709,4.4012723638148294
25.87128120560523,1.497686082391363,0.6874946503660652
2.875893918265176,17.008495822292023,3.668711917644853
25.17185945748008,35.0469376708349,8.511889581278036
53.62106794424872,53.380537470615906,13.422977686472306
77.54488286581683,69.01041575744853,17.76525768178178
92.45542208372848,78.95249717733897,20.857575386556203
95.11408175581307,81.11328594360045,22.250085027956644
83.87370243602265,74.76769944138954,21.829536381375647
58.91561135382406,60.464338719244324,19.82228733272807
22.64977564717749,39.48547520158036,16.775837810949138
20.17007622930728,13.24971738645892,13.345503383707815
62.6486233621183,16.88403338786233,9.831634183553655
96.71173236225927,49.33577262272403,5.951307137660552
114.8208137940704,81.76473358416675,1.2096193014836785
111.99565710679832,110.7091801501083,4.594217374723505
87.53118493411917,131.82805006241895,11.141486436477251
45.606587022190055,140.78370460149065,17.660609513664212
5.444530991104398,134.45916255566183,23.13744506890351
55.05904573990688,112.01010545302042,26.615009690114732
92.92465971409703,75.33134252176917,27.59406277442592
111.19214631292681,28.809567633186735,26.091620174700925
105.91720182286471,21.47117475217766,22.44029141677584
77.45475722741907,68.74548051168622,17.326899518128116
30.001213731770875,106.54809628680086,11.744942187607343
29.29773888639287,129.5656874549075,6.779421969483127
91.40489832666269,134.37147813375654,3.4284668843125634
146.5389735378186,120.02405490634173,2.2531367785038356
185.52255587353028,88.40987639809086,3.0686128491630367
201.38513217318672,44.13840359538877,5.021005463705115
190.98314462221046,6.162108833792355,6.904272993817696
156.06779227326862,55.03145285420877,7.557584135691288
103.19238101899212,95.50651792977102,6.2969497648512105
42.15206432525384,122.2276226695672,3.0689420341024514
16.737728539169453,132.0482766315571,1.771177161593226
65.52166062276035,124.14155147528594,7.5702479604586035
100.50179938978114,99.80981249798431,13.418532844262044
122.41716991653941,62.21873898544985,18.469544935278638
134.93642944430482,16.127932470308195,22.136170229170087
142.3561274709982,32.53985867589209,23.967108089995406
147.6806670825897,77.47072035049591,23.613388781901094
151.8978002480731,113.05618657100321,21.031508472459503
154.5403653437889,135.53370636863588,16.69136885397927
154.82928405889908,143.72660144853572,11.548414151503245
152.42543671811617,139.0358630835444,6.841319734509229
147.29385041705615,124.65120361639435,3.7659068706418677
138.95337902614736,104.34915773775991,2.9693959453060597
125.89597675204416,81.43921045720491,4.214016478146383
105.88620901210709,58.29310567012415,6.508306166208043
77.21023638958155,36.51014604214569,8.513066594912042
40.148564159200305,17.350988252926445,9.028364793097527
2.3684930921049587,1.991233200366631,7.435007432603745
45.51365710525124,8.665686914351912,3.805494809327749
84.41209942110119,14.523910035520307,1.3395886917672153
116.02185490240709,16.74325201906832,7.218654320293347
139.90306969691844,17.698904691298907,12.878344003739626
157.4400263409802,20.332754749022904,17.500005365176612
170.10117517266633,27.132779220345995,20.609217229624836
177.96984993310895,39.24293069089547,21.82236887785182
179.59162693973204,56.10368441621164,20.681908605140563
173.24655658506117,75.71005273470284,17.039064438437425
158.7511131647956,95.28301095722227,11.482390864288268
138.48050839079,111.99704986658423,5.248832175345635
116.75852994857539,123.49725841800316,0.19852819238506964
97.85623613430307,128.15871200247133,3.5473409084898546
83.75980637847242,125.19462396105322,4.005296589444847
73.04205010676145,114.73121038385803,1.6664599883218856
61.534129699680165,97.85016954959387,2.5033887319125756
44.42212209184197,76.46647030299057,7.177323270235522
18.609523219786833,52.940133455963306,11.205536267790754
15.869823015450129,29.49820352885358,13.857862552207301
55.91933707845246,7.6851011301565615,14.8155010898907
96.54753001062511,11.8953305020965,14.011541110954003
132.27830898192317,29.40219613577217,11.539659614343957
158.1079194833122,45.267067319556645,7.71099981755883
169.90636841489624,59.695534200975196,2.974208585487296
164.66207308526046,72.44304416920782,2.3073490070800013
141.05040174883143,82.94937332346166,7.799992388340271
100.45138087478736,90.67000508668062,13.000034776629235
47.92476081284742,95.32758450300733,17.381406381943197
7.676841942394151,96.89109324836522,20.71218959594498
55.01144783573563,95.32239985468148,23.117294959333908
82.89392177221843,90.33220828137371,24.881902585990776
83.5157630288108,81.40691924809795,26.26686633974452
55.055939910606895,68.17870725054553,27.37218513314635
2.6778064226950695,50.945085671035976,27.882262681350287
62.473542699313064,30.99697202386194,27.036888164561123
125.95935070783815,10.470277021085332,24.12525944610129
173.5307886171494,8.292645976851036,19.011115154325246
194.342992391925,23.578424192874987,12.225926283723235
183.10637894640843,34.89972767833155,4.663956895063485
140.7866694478453,43.02641064787934,2.852555881038004
73.90094062636055,49.44052791498682,9.769168025827604
7.1803710026348515,55.495464195927035,15.722659500902225
90.38817474317074,61.70578714442095,20.560868643133567
164.05574646079776,67.49217417735545,24.409184879955674
218.61165936095537,71.4134916508719,27.42642468368218
247.7142939240809,71.70315669682336,29.59399682552646
248.81650389429467,66.81870690348293,30.859450280724552
223.2019177722398,55.77929749962312,31.189701389587412
175.50048746083755,38.28325091638557,30.456466841231865
112.7174656536129,14.756179838839163,28.438393451759712
42.90679464604491,13.520580826887409,24.86818962995228
26.22876140251174,44.22400767670124,19.54811100037594
88.42284829907376,73.93696645815885,12.522678806170681
139.32472141103372,98.45707631933335,4.1282065038674025
176.28880113706253,113.57795243373025,4.959148009762578
197.7478214514164,116.17715248830797,13.685948381153366
202.68124828620813,105.20299039783966,20.78720041933964
190.55142388033508,82.11944839564224,25.14327482285116
161.80166727899564,50.58232261185518,26.233321004833854
118.62386156904302,15.474485754758343,24.29572036592602
65.42250260958515,18.283468341789828,20.075028792856116
8.525042879566918,46.660673731342946,14.60503858448487
44.90621307949019,66.91448815469268,9.008760502017285
88.34827881968633,77.52307458716474,4.129992551632156
117.18175101121436,77.94380935740593,0.36056744690518483
129.2981931230295,68.51480253728444,2.1780049819163754
124.97427246619483,50.58110179850344,3.481807118907954
106.36657452961894,26.66026201156846,3.6933287128315246
77.02887810519648,0.33851998770220293,3.1009651712093347
41.60494635561833,24.32265145460694,2.0483412092233766
5.593478795267428,43.731107659076095,0.8256676009648691
25.13034709308153,55.63307142738729,0.3308437955927772
45.2236804342076,59.47208256174408,1.1669016013573037
51.044241794258895,56.02881269186785,1.5211524033264716
41.63301580677712,46.56684970388658,1.4962484967302752
18.998230427450974,32.03056336259448,1.4914900193361142
12.496241081729966,12.798841988263938,2.091824904800539
47.36408482906601,10.851912460405323,3.701314486529282
80.30133026375012,37.888688746470564,6.233050318561529
107.39592184927835,66.07926956404425,9.286044211181657
126.36548748500445,92.44144578188978,12.38308952430904
136.01183008929027,113.98915710338387,15.020489240751273
135.95340090165226,128.4004466455525,16.773257363976455
126.55971335071882,134.56529873159062,17.4178484432016
109.10365218191149,132.72981962265575,16.989962820098214
85.91810472031203,124.1955374085726,15.727826472639391
60.268296183364164,110.75647664614647,13.929874720612553
11.563177077400281,10.785948184892508,11.035466492162238
15.522420314665974,9.787082510772935,9.339190153683964
16.089208212839864,6.88919643286767,5.767406918962388
12.134530685152292,2.3113569248967605,0.590354585855409
3.7544799699011704,3.4841929458450904,5.5951054286964705
7.5829969549797935,9.778445412394525,12.024998624914035
19.34099627525859,15.568898938568449,17.93964492500221
28.617757744063745,19.64235612101027,22.638981119012396
32.916520769669766,20.727314800364596,25.467746807048265
30.75610930715304,17.809309688939813,25.938395814673022
21.88072506035504,10.497285500371783,23.888814267956707
6.98454678895582,0.7134967769782796,19.49344412029292
12.710204223720638,14.261198134703351,13.246421990304677
35.22882649825713,27.31954897333839,6.006636594501561
57.26252034267717,36.2369244370261,1.0742640949071778
74.37896419552064,37.95087262317658,6.927545771012658
81.78156825045744,31.080805849180926,11.027425098831516
75.4391838230649,16.235029384032504,13.413770133076296
53.679662568925,4.119498096891731,14.337751206202185
18.27834287152898,26.43843985948022,14.15730473342896
25.499237466876437,47.08792010742984,13.372622604677105
70.07082093519662,63.158262757552166,12.316524501969878
107.66596692356762,72.97649784572104,10.932864900678073
132.3607213103637,76.04725114052547,9.051193736395692
141.27236825310223,72.68498309288007,6.759393965304406
134.49195380362747,63.563701832777404,4.546591611172869
114.04899990691054,49.422916267414124,3.1720848433949107
82.80328477219744,31.13632692137968,3.317097313441131
43.900100669551556,9.93686447800806,5.256928331949193
0.9854081878217094,12.418349103289177,8.75262598630366
41.3511678608722,33.79124829020355,13.097090624657737
77.69997508566036,52.18054089942212,17.250983060375464
102.90599577348426,66.33221151535726,20.110093708605277
113.78942537593478,76.07868985281488,20.784450884014603
110.52897479218454,82.12450016820151,18.807114594251512
96.75067819610902,85.33338967409557,14.217054629002952
78.0636266103577,85.90768155449751,7.4575152364445625
59.73140795646038,82.96343772499306,0.7634230264158395
44.71775189140098,74.861907313635,9.634840272702284
33.147758010413575,60.22415679137496,18.332031466977597
23.398025071164504,39.106738553585096,25.912975852622022
13.966581325079192,13.65290873641519,31.37861993846112
4.860505246783348,12.209761920858494,33.958864161357965
2.3390634989743266,33.93343317258744,33.280910704842064
5.676601146513412,47.831804566292476,29.4000268324847
4.362016534496487,52.15621197618455,22.785844512127237
0.4480515293350858,47.297026877986845,14.205475610476391
6.15057925726046,35.188421608716034,4.567600491863989
10.079787973917075,18.386212441622945,5.043605389501372
10.781574511164157,0.6205634558972295,13.399672151324527
8.340398031105208,19.541929779803628,19.5127161891628
3.631725932956983,36.016000868881605,22.892624590321788
2.83106679650368,47.38327723541079,23.47674774814169
11.531397641571276,50.90412775158257,21.447610133175274
23.567723065657113,44.506106075536294,17.01676405713773
39.50044474002541,27.729137555132112,10.444045813296048
58.2653452432713,2.324652307689816,2.225641439560998
76.96261188254823,27.89001015912093,6.879610000295011
91.73249188556122,57.952239455417,15.88178035576629
99.201236691951,83.07659012917281,23.579204105794815
97.61043094009003,99.79981222460417,28.740645097290297
87.02046005771977,106.53536130370502,30.410503364849312
68.64807326472028,103.47364553454555,28.164987445333473
43.98494372855107,92.06409642850804,22.276821323558032
14.426579386706704,74.46452811545737,13.721583418565867
18.323357287091735,53.20511989179112,3.9895566845768293
51.445099039243836,31.04843142465674,5.333213272265519
80.58264817196275,10.862609068665561,13.17081776416446
100.43526550208645,4.700766362718785,19.172054721819983
106.33054930063243,13.756887484629324,23.305434330013327
96.11609474075368,15.775412580948805,25.500255400778123
71.38663976300298,11.93467858018122,25.627130668352194
37.32128543874621,5.020708380448789,23.646986913868275
1.163501097331919,1.1805232213292003,19.832340721294408
29.9748191087848,2.8477368744064413,14.763417610327906
51.03677016118991,2.8441303976375045,9.138736067944556
59.939231928504846,16.91053699490226,3.7441589474060986
57.405128453288725,38.15531759134563,0.6476251890292809
46.13382229054114,63.31922718829717,3.521287775504927
29.883011773137802,87.76112425694731,4.683674054693537
12.822727815597311,106.50222659576445,4.248208473653559
0.9613686837032936,115.38827076590006,2.6683569114426735
8.142368669102613,112.02390762106688,0.7028112586680424
7.141898045916769,96.19944648357605,0.8233252039360076
0.8360487156040968,69.71119462699686,1.3915740313645546
11.394338929860922,35.69703223574536,0.8589168740128944
17.784455342449743,2.1755362127310587,0.7695905050951609
13.107019863638346,40.31418138151844,3.3507158443782927
6.801818492110969,75.40137227648539,6.5088919349250824
41.0540335455713,104.2687819730831,9.734098725906147
83.16245512454338,123.75847245464861,12.368450301632464
122.70709983501054,130.92528142222508,13.547125820543323
148.60358042818117,123.72523850551443,12.488560178964427
152.60971492222995,101.92204434126793,8.798353696124282
131.6034044615637,67.7275517022695,2.5825877469765017
87.89223465766504,25.73153830174221,5.341677030848427
27.918665594610683,18.045030579719025,13.328833903763272
39.64864215078011,57.597649497387756,19.247771517349392
105.48617321302578,88.24769520360356,21.28788267315536
160.504183354808,107.31007852649918,18.64004324486804
196.49743851719242,113.92168444329211,11.589972494896369
207.21766270578084,108.34581971911781,1.374802546659313
190.02376725720038,91.37807586876282,10.199559713062238
147.50636283932823,64.3085537987715,21.395699622968134
87.94161062103534,29.4676689243154,30.78911937498222
23.68768161063294,9.140227744146543,37.15064667229599
32.297185888252805,45.8183084172369,39.55552576064736
70.50468453204914,74.15401184433391,37.63301374749237
87.62946162721958,88.80003549160897,31.56669964059271
86.72277086141662,87.30868788470538,22.054395239908583
74.8421219178048,71.05604289210271,10.385782002544152
59.541311585521115,44.69184245610816,1.7658362398152976
46.074589756959405,14.335792374562677,12.807988628104397
36.574783218774996,14.62905874100412,21.55755562349191
31.091974535171428,39.10805959647777,27.477726628141077
29.290344945131697,58.4913830352948,30.87862970491448
31.381672192747757,73.62227326966358,32.73242607126525
37.67389922781838,85.30035164475913,33.9895590531225
47.2610451337791,93.21655306476765,35.006124970736785
57.070866662708866,95.90974974998173,35.55263422204681
62.32143473981156,91.64539041196862,35.111611572869016
58.402982227221415,79.54178227814919,33.123858831782044
43.175938442914465,60.21666936333615,29.202316805134544
18.31844429744292,35.58280147477533,23.27806301839336
11.157458644404452,7.990287952783122,15.527137042122853
38.96262432365534,20.65679186654153,6.300292342681383
59.99805710243525,49.23493088370278,3.802585488006378
71.92531475386299,77.03092572089132,14.01431938170728
75.1872478897485,102.98320736570209,23.555467425220282
71.79168463456854,125.12689056328232,31.653157024514073
63.783161675869295,140.71532497135473,37.593609979124516
52.36182539996323,147.0375882779803,40.85508229631422
37.98081555802092,142.52471136858142,41.19968999961958
21.053222468131533,127.56589649592766,38.71499258280863
2.6419517673407906,104.59876592170531,33.81817340835375
15.365443828987837,77.43392720254538,27.159498159258078
30.62459390682172,50.13321351241752,19.490389507219362
40.908513577423086,25.9090660744885,11.562716944644455
44.563443329615495,6.4026613794291585,4.038344624242537
40.727985056800314,8.533165825487785,2.50858197931737
29.462243640655696,20.576568914712126,7.665219657633749
11.986056155306875,32.33708167839855,11.341462017414704
9.731477255606414,44.878144261879456,13.605754835156604
33.60137915271855,57.41309891145161,14.54312190813874
57.38852156374646,69.27342364844345,14.297924900793015
78.67732230102044,80.07872742373414,13.047937897201487
95.12564221445473,89.63991227251935,11.055148930495395
104.9200298742487,97.69077421142032,8.679298274393918
107.18367406179593,103.6341995788083,6.30338808933072
102.12888122885795,106.49813004925146,4.267279948615588
60.72519309548139,28.931907229848147,3.1089704569893586
43.19445783552719,4.711331490874555,3.4692806327339216
12.63607321189645,45.875434376086595,4.0107002545264345
27.21166833374811,88.90577315291888,4.472835446591609
70.62298691664827,127.54673927840682,4.658599977090772
111.27936493253922,155.82920700735377,4.32549235713556
143.52591446645982,168.82561415784937,3.1348417697485544
163.11612821886575,163.11329207599366,0.8386754904509188
167.38689887699596,137.3667994079591,2.6165289388950255
155.11407506082304,92.66392574172878,7.100402729399253
126.36705222019638,32.603481658406594,12.270331078444466
82.74136841161528,36.2333897284635,17.538747772370307
28.146963142813984,103.905646236761,22.199969953248857
30.719382156612895,159.73238880939965,25.497463362465965
85.50978186647946,196.45277546155936,26.633522229497107
128.50696180157237,210.81001791504534,25.051693056070157
154.5816162762156,202.90138779115426,20.590494397991037
162.25785133287275,175.92219239979116,13.410996444190857
153.60429132504055,134.595832180431,4.216829930039539
133.0080463760906,84.27875207837324,5.604728559222279
105.58109931246732,30.459117536003934,14.486887468244083
75.84025314819213,21.833087315326043,21.36190960738475
47.08502774261855,68.04549596824197,25.746437719990464
21.51805501680956,104.50628629660282,27.556195915783047
0.6807194121347593,128.68171283234645,27.268794548818864
14.224822571684097,139.28399213755526,25.840470161804564
22.366845032506927,136.3733337854607,24.07001509016257
23.612583694804552,121.10782450779688,22.198776338677618
18.85427231221623,95.60666359285949,20.085356531180018
10.035795430226571,62.775034767915784,17.524441709902998
0.2295270082002049,26.119810124450655,14.318366685243623
9.298031418388359,10.448667320231925,10.272181034836878
15.088097046604707,43.07174313749158,5.312340184899427
16.400411924527628,68.4915194483644,0.4418418842305599
12.94633312697158,84.62224744374028,6.666598464820912
5.174240024235173,90.87630607463294,12.872537440016146
5.960397387948087,88.04880116366986,18.491331070654542
19.166036114183232,77.86036162057266,22.860707912537585
32.980428062666704,62.35816402455192,25.276542319424046
46.00945846938226,43.49830797553876,25.26522442351693
57.216316321756175,23.031869702243274,22.82968040579761
66.1426160563425,2.623306195330052,18.42920911115532
72.87285202425956,15.984058937962512,12.802461097024288
77.63314519240139,31.002381854423597,6.905257486448257
80.15334774800591,40.90852462226708,1.7609405499656996
79.15252133519677,44.87306704034919,1.9085682889406788
72.32203569534613,43.052654797530536,3.86482225404523
57.01476698016117,36.583529619985576,4.257224517136299
31.514771890470353,27.270655738256952,3.4909319738678395
3.635916026939196,17.126695124918793,2.202460269638021
44.86810981035926,7.984881578768247,1.1896892128524457
85.83394701250792,1.3173669797716878,1.1529633946003497
118.73969680291698,1.7686551650066473,2.438426398964828
136.3031346265999,0.5072947767258268,4.854360955562232
133.67531875928788,5.445158376092879,7.806006811471651
109.67402675284875,15.779438218849787,10.736987682421518
66.95194574137028,29.257022927401767,13.225107708477003
11.290713264694313,43.62284367535666,14.861954768844827
49.54252997066171,55.86368910772712,15.308167548533238
106.95786721033551,62.807120635696194,14.341200268072289
152.4731473171493,61.913754451847005,11.898694748531398
178.54845193911416,52.01474933030327,8.073832131879323
179.59649384392407,33.73591185960642,3.00316398193815
153.2387170729813,9.449579984055338,3.134891223181215
101.53022753335893,17.213556328919246,9.906227677128049
31.54911183443375,42.11949735583165,16.442555939888276
45.29656219377896,61.445747454533375,21.672709782953273
115.47833080228865,72.3698889875334,24.780899367543817
166.54793112525394,73.51746273195741,25.46724377594873
190.24186800897246,65.12933360183311,23.93757296965873
184.3059657107637,48.95814895788271,20.73526984307637
152.34182711350445,27.928829431193225,16.5186526193767
101.9368294933131,5.569633088556591,11.780876969647702
42.06698920936032,14.747435118951687,6.8156662800238115
19.02118236610757,30.591687596907953,1.9769127820356758
74.67038346775561,41.03935336026161,2.3596044606409126
119.56195810623812,46.76138485537208,6.0486776627194425
149.1582247577224,49.4968998392777,9.194884433553915
159.7012599652311,51.057988895695246,11.970657443749989
149.10364906302124,52.26503139657241,14.423570209614214
118.2419430704135,52.32045513871903,16.466992803775184
71.69874936546842,48.99687631405194,17.987208283346135
17.2032341979577,39.62563110069146,18.892398193759863
36.25195539339599,22.4668672877674,19.02566716966496
80.82327026986212,2.1858501018501735,18.063068156533138
111.60698213046386,31.721659418561114,15.664181521405432
127.04154979848806,61.86867904837727,11.725388148768388
128.01407118571677,87.95349328644191,6.530229618644996
116.50304864927375,106.18502923280339,0.7723613072406299
94.74718662848282,114.4337600143282,4.6201750022406305
65.40883400997322,112.32105117508792,8.715957884032733
32.35311997297878,100.84364324397994,10.719353749094562
1.114112414480527,81.95516022431035,10.077056349935212
21.743835747480972,58.37487151998252,6.6151946830733745
30.468077859897328,33.560446757233485,0.6035926600185433
22.398309159495636,11.526069699567906,7.219194668767638
0.5427904436601608,3.813885800582115,15.541544377898818
32.038124235695975,9.763902643196875,22.64355604788119
63.27052740737986,5.9925431987507505,26.895240901028195
85.69361800817,4.932354495930938,27.197296172659414
93.45147322838568,18.07311960006341,23.184009340140527
84.53095145531697,27.66535097760897,15.161750984756255
60.46968465387592,29.08296670769319,4.033511594727201
25.16060879010005,20.359258706496203,8.807972573832336
16.410857300911243,2.59771923381942,21.749657494479543
58.959533549030745,20.813557497125622,33.171565335310504
97.23321847226741,45.68608088656356,41.76455836722236
126.30725735836727,68.43230158408743,46.83897403566122
142.24083183470788,86.75668447278919,48.23836331048278
143.07569603379758,99.51458122219023,46.09050750547034
129.72736357609222,106.12105307838497,40.70041350909604
106.15573106025047,106.07354525371413,32.66004454338879
78.47776297116346,98.97200272301643,22.901128402476125
53.22831783604811,84.99917151358973,12.548624452791449
35.450122567462586,65.45211751747979,2.700840283446584
27.38528762958668,42.868462239388904,6.017507876825225
28.210224219986237,20.55111151247168,13.676490514163067
34.7796304817812,1.687180959382253,20.557551194766663
42.90948611428325,11.486476893328591,26.619039181283277
48.64689946973137,18.064324110922946,31.442543461175223
49.193578356290274,18.295516824695863,34.4891159196716
43.3648102914225,13.098684872473862,35.3221328959747
31.63293388109305,3.6522357992194827,33.692128199843005
15.804924884651367,8.6862202273386,29.638392037381873
1.6648702278614451,22.155675531794966,23.53850587477305
18.655604202901205,34.35044699422249,16.08467769042315
34.3868702190852,42.307327648499424,8.226787811889148
49.94461119539571,43.06187754551838,0.9503427210563556
67.87527679019306,34.49784832707782,4.96614975672578
90.78629798387807,16.122954896445638,9.084576478094647
119.44111461227682,10.557515728287703,11.307743602381118
151.31474935320165,42.213467980302745,11.744362210987575
180.4752245283048,74.32663979698876,10.690259092482496
199.04486359617295,102.04857387675378,8.65629223649371
199.72717062424044,121.0392007767334,6.286754706518561
178.24881032291208,128.13483570605783,4.204047302100259
134.67842324223503,121.78240550678233,2.7396778788629517
73.27656868324534,102.23936151553724,1.8355002155664206
1.2408613981975025,71.5463431625926,1.2335948845703535
72.79634235995023,33.27283689187931,0.7067078876183949
139.8362818764365,7.92691927153251,0.16560798836112903
191.1319908883915,46.85969606281654,0.45094544104675344
220.05790247781127,78.81050706393479,1.2525916800675476
223.30091609250738,100.4047175484716,2.241110911026991
200.86998826116115,109.96114945410923,3.244095285845749
156.73906753744714,107.725154981343,4.0267285704264175
98.70322353810899,95.6807211560448,4.402451211440765
37.09898254415222,77.02257022575742,4.259019172739233
17.503163576360667,55.45590215670397,3.5490031832825832
56.966637124366606,34.49234578639591,2.3493049159584043
26.679011385329378,25.442596476175044,1.8129627234786476
7.961715097162815,21.405401216761337,2.5721467561568865
15.726152838912984,12.734511267048731,2.8719461555365693
41.93136706522908,0.7930606858379231,2.4884007424396173
68.14998213101367,12.952287281069838,1.5330041867599722
91.72433271818697,27.634720835575692,0.3667836976502693
109.73122123906143,43.02863271321953,0.5369607868744459
119.1397079467649,58.92120286790439,0.8619803555126894
117.49307440964961,74.19840138923743,0.8076208247194566
103.64735814806434,86.3739052797479,0.9435992500742951
78.19535540690651,91.95946945142424,1.608722001462164
43.660206861222406,87.52690336416535,2.6458526149809463
4.462859841498781,71.07285238694213,3.6130551478590567
34.53200942079944,43.244546889709866,4.008148177717702
70.26361863168904,7.427469700960691,3.410796847111798
101.68366331519692,31.715456559440984,1.6988228022072067
128.58022614428182,69.85420839554179,0.8054992992555475
150.4295265030428,103.76206334546332,3.4473984739401895
165.31907135131758,131.2240557582101,5.552007509138716
170.1922939652875,150.24163632161614,6.647265113582306
162.13150157938256,158.47846283713363,6.452662797207308
139.68923471737293,153.5910922541968,4.876887963541062
103.85367916529309,134.3195606889956,1.9493129056308591
57.92522165847225,101.77420699372655,2.281791374768724
6.718202465533262,59.90897837620285,7.632482654592354
44.331100931990555,14.750711617806486,13.74000952743124
89.8181613477715,27.319158904692575,19.978230719003413
124.65585993106106,61.43795825407088,25.1936600492493
144.50168129713984,85.30112999596015,27.93028996376081
146.5353714171312,99.02357145929241,27.14522788375601
130.506371289063,104.16990616209405,22.60737439176352
99.53892487440345,102.664771034104,14.775347890638054
59.96666174361903,96.22591682972454,4.6193640081044425
20.018348629964468,86.44126037312054,6.506404875942315
12.324108179070468,75.09405804590921,17.182968475823213
31.453627496821102,64.1905751440247,26.26490511300561
35.334315333457745,55.45651164188972,33.0144321918262
25.437427597094683,49.545172863263865,37.047369603842185
5.708297226709797,45.50727167752344,38.26939086703693
18.77816282594519,40.96603437880557,36.94959369179772
42.84454509260874,32.99235038169296,33.59443251048625
61.71726915704679,19.26906660161904,28.67941246418238
71.27997524407846,1.0192234174453292,22.615781250663126
68.46119940098288,26.930503620754163,15.776780325487126
51.93711796090985,56.090391648678754,8.499726330661867
22.939316859351948,85.27599179244285,1.0803674319696324
14.36473688803253,110.90782669243956,6.223091582907044
53.3721128175109,129.30927482088924,13.107936361746278
86.51597102902663,136.9122137741896,19.23944789323906
107.33262404739986,130.68784939319448,24.347061878204386
112.36029498738397,108.8862936788051,28.177304084464364
102.12360765985134,71.90101237626085,30.358991618189666
80.80571528248579,22.89584461143477,30.439065290012902
54.68897256438967,32.20143508762612,28.08686549746435
29.980095418223762,85.53565461285466,23.32255531329518
10.88769955222189,128.844595351385,16.702055816820028
1.3441030271996908,155.24418351939073,9.262832111717785
8.144153345657491,160.76921274307264,2.2534242893850105
12.315025486715333,145.25479362949156,3.1193248490951566
16.429505687107707,112.30964754160958,6.010810515730576
21.721444396521154,68.37032363790344,6.30475964899663
27.946507903728012,21.110101507610633,4.6941577028363985
34.10433550750082,22.334601590759227,2.373282833671396
39.458464921877,56.79021415427317,0.5954853008045065
44.12472556602507,79.69686259200601,0.33262877663934526
48.79078856418455,90.86600736546245,1.9466735215212077
53.81264689518851,91.62657533503759,5.038000819272977
58.402310943210395,83.88389753427776,8.806765752820091
60.627875439507534,69.54398879169362,12.474135667263873
58.446684297365465,50.47279683136545,15.263644875798667
51.223883329839666,28.784395764757384,16.365871323607426
40.73516920271489,6.990944260334922,15.211803459662834
30.80438011936725,12.306576295642467,11.606368992632467
25.517139789987645,27.11743156500036,5.684019825999192
26.876707914202324,36.73924689359077,1.9753873749816653
33.22692034388646,41.86734560522768,10.345482291896326
39.46400348789652,43.91855508484614,18.123226724396027
39.062943906319155,43.90791453319468,23.81530294557335
26.921816003708997,41.5532126546654,25.987891924439282
1.5558512031499314,35.256284273638165,23.81307575905413
34.42868525784673,23.099462678972067,17.476241620246608
75.623343620654,4.3255546128928355,8.084397180461266
115.99315158193208,19.586077543668843,2.732261818859946
150.67419973400632,44.966799844809906,13.287138248381432
176.5446260058417,67.19068413396481,22.27676142883316
191.67185519660418,82.45098418301072,28.843351098754756
194.42657839150752,89.11392491318836,32.296994341727576
183.13682932959506,87.92980566385498,32.083211942847214
156.65406715816616,81.08571382364046,28.05913684789187
115.45262295619331,70.75736315278537,20.640168114610603
62.475493298027594,58.04764570438811,10.675228395484135
3.1033993399282087,42.866798754526485,0.6809751238721387
55.80492618940895,24.694797595493696,12.025051523614346
107.30239620520216,3.630675719168852,21.914978888598608
145.55572784472,19.03220362060279,29.13986571586038
166.53906331526915,41.05869932486165,32.90351680149215
168.31467766041004,60.120963954625026,32.971786132371
151.22212933016053,74.68304065271035,29.70738828349633
118.14957272898958,84.36887244745422,23.93607618376435
74.67091699094092,89.63974034820062,16.73250277624846
28.610175924274788,91.08625061491406,9.18086389130039
11.251330596503442,88.86540683498093,2.1610299879683144
37.15995375789079,82.64760292452048,3.742661361286164
44.3636944847433,72.05141085679116,8.353837557119736
32.222156540206875,57.25098368727525,12.036757998944982
4.023314885931485,39.35216553205887,15.474965354914296
34.272544718551345,20.286038727466487,19.222000020640937
75.63304645252545,2.2954114244157573,23.308014506310542
113.13246625047864,12.671451679667731,26.98945544332652
140.42916421939213,23.384894500380433,29.07750067457989
151.86610408392474,29.47651233715409,28.6320718781827
142.83055417444913,31.342672320935215,25.248475218856267
110.79168082432795,29.95854086227341,19.061375825741425
56.787943232009816,26.679338818533857,10.767130370667486
13.460874233621285,22.95674194772828,1.4512288413699825
89.74564918182698,19.925724816778203,7.750440842743622
159.1980139472681,17.92205506160663,15.83393749378489
209.25978274825096,16.14510215894356,21.918418021410705
230.76252906118526,12.776725854433707,25.274385195869662
219.97540930239603,5.710800257762919,25.486353525615336
179.0143711431097,6.286269576881366,22.621591194153403
114.7962486975256,22.49271213273693,17.299552752146376
37.245266474801056,39.81896533624561,10.695263276619567
42.44228684163515,53.43547459694263,4.329048093561238
113.1518681635804,58.33331342059905,0.43018401559507563
164.97360607798944,51.18913256636081,2.772469007486151
190.37320971071873,31.720993302036934,2.657788950123026
185.53028039713107,2.91104381512591,0.8682243359481588
151.49046598716424,29.984290241937146,1.4532138015405867
94.5076110968652,61.094474152964125,3.4558718490246405
25.094363240447525,85.50349869536461,4.7379995613174675
44.202958045868975,100.0944969297328,5.1848732000163995
101.65303265652513,103.51428211965127,4.814124150030889
138.86071363006906,95.6886517112439,3.6520047407473886
152.13934174322873,77.46670233536139,1.6589955969601657
142.51732261820308,50.725894306935515,1.213769255683701
114.7681446803174,18.80231842086818,4.809532659292611
75.98969156511069,13.320408403863082,8.613192510539193
34.20031662076828,39.63247940014023,11.85687565226765
2.8773629629632955,54.64615439147619,13.822673075185405
28.947739911910073,55.32004606079207,14.079879234285867
40.21278809027113,42.39031242259333,12.509270797507545
36.73006969134901,20.363051155635503,9.327991014834137
21.81962470324244,4.441740260062494,4.93890615299417
0.07315925413823264,26.46092711659901,0.27257764318178174
23.740466303237554,42.46006154172429,5.916012232231105
45.63750550951672,51.98962298766082,11.556359797176281
63.00382491398129,56.63076903832512,16.65832777396258
74.65969267549207,58.54145604739639,20.596178506007394
80.47390581721749,59.089272738999384,22.7899540483063
9.738010569450362,3.1056598110432057,15.847152940097246
15.846651508168526,5.304824683364397,15.45303136330586
20.616062470831388,6.001934308423881,12.276436312525554
23.50113282392106,4.964848629063213,6.332555823980215
24.03877417313483,2.501305818176659,2.0095899249205664
21.840339314526865,0.8971371289328334,12.065207476470077
16.78671538041935,4.8746491598805015,22.81805472985753
9.177792470748923,9.251355418124065,32.952631117986755
0.15087467907161672,13.759757148274407,41.03031688839659
10.027892497333047,17.697395675668133,45.69007569550817
19.271559806338793,19.828855643602463,45.89131556350355
26.702061442473827,18.662170002098023,41.22092297105983
30.994868705499435,12.966630916327025,31.987328637001628
31.63287849794465,2.4037973696274446,19.11646165111689
29.764897834776697,11.87424178292184,3.9665890150578624
26.873941973870984,27.206911036687032,11.940619305144711
23.693984411787365,40.311137298224736,27.06189829618772
20.365068386611743,48.511400463034484,39.9454924003501
16.49159081778605,50.61640829209153,49.46631933563909
11.713459365469634,47.07055936077704,54.9273430351739
6.072718854745364,39.38669157756504,55.97624092328643
0.15606649952469226,29.319415460844798,52.52571764324894
6.55957650937528,18.259394642934776,44.84329342089558
12.848137119610634,7.0911348068671245,33.7268731348155
18.831605145803096,3.579732153995778,20.40891074974986
24.228634681969638,13.18493286252847,6.237740692148859
28.58819757140423,21.16985493337033,7.506993804627373
31.260788952891236,27.187549821464977,19.683216739767694
31.607098356645626,31.332226792086253,29.33353350033312
29.182697393235284,34.182950142420744,35.681228390073066
23.832514627351316,36.566052451054034,38.14440024864123
15.71174567066447,39.16621766736949,36.42602443992077
5.238238026737552,42.23740855769842,30.77107436318431
6.845848066788116,45.552422475017224,22.17901402039538
19.379841207561874,48.57076783978153,12.164218193865876
30.765582393658587,50.68942422683678,2.2914912348195586
39.158819056593444,51.40258904709307,6.177149268096068
42.89633337487575,50.308042524111215,12.450680738194974
40.95645226914156,47.037783013762855,16.099979210851185
33.269514626944044,41.24471467403727,16.99391612692834
20.713452720350457,32.69320351587549,15.42757180293369
4.829743591149932,21.384529645859065,12.033342089127181
12.514853762331043,7.611374649445884,7.539706122060346
29.355587041898573,8.110105542806838,2.7095507755276933
43.73046356036056,25.1743337421278,1.6969767760418308
53.82944224556477,42.961162887557954,5.113101104879775
58.33750209905917,60.732785593786744,7.328659393217398
56.92081258037528,77.39815176357008,8.49072720992317
50.61747485358213,91.34059392970116,8.949265563271434
41.74169452527167,100.47083190833322,9.018112948585788
33.094189947189705,102.59810845137032,8.869029117771257
26.73907887215081,96.05119040865176,8.521481040806696
22.96129002440144,80.3040848833767,7.791550216358285
20.041403045672066,56.37844816295352,6.42584259802831
15.096580476534557,26.89989377575404,4.376669268392324
5.610792870352734,4.225688451154838,1.8891942644557964
9.145419680568985,32.45626164235165,0.5738752478963982
27.58061169623063,53.43756798379421,2.4554489091140446
46.43236543292792,63.856713019073425,3.2454705894222546
62.16465131064658,62.17621025468188,2.6829777531915444
72.28263427345045,49.07002510693511,1.004373139216674
75.88623405509937,27.387265607688917,1.0847963048125646
73.27837624544274,1.557119787893173,2.7134166469587018
65.11332841852682,23.430542101540862,3.1487317956654546
51.83483066817275,43.141104318814314,2.0694275364861814
33.82705074521106,54.54535561494066,0.40194429444936725
12.14489045919581,56.33253376071744,3.863475604541857
10.804059473159512,48.684654065919325,7.679830125904278
31.293587175302104,32.80431186361717,11.071856679020081
45.2383972903285,10.536729930200996,13.28705517524463
49.6709218860207,15.744014480330966,13.68579444742235
43.91788764819151,43.063851670740775,11.871949613199368
29.803687699880356,67.89163046691323,7.926520905060296
10.795261358093045,86.58655640959132,2.48694371468809
9.390877776819591,96.23662716662609,3.428457982226688
27.952943901717234,95.53751357855012,8.59263378013087
43.420695230855635,85.24139454556727,11.732190143677316
55.28560864603086,67.8628027595056,11.80275117084809
63.27802941784353,46.713386316886286,8.377004945500335
66.85731311029579,24.74170941392003,2.0412163685915687
65.18792901544886,3.791416346704595,5.654590621049355
57.52056785419857,15.361839750327402,12.712958105274234
43.625777078894274,32.307043761086746,17.316315973550918
23.986735497600694,46.14363672243026,18.480704569978208
0.267224904258862,55.1062863578921,16.245547508370226
27.53891389583117,57.004295310483855,11.270757072623828
55.82336818424512,50.28476321630487,4.5416270628692645
82.64933217263184,35.130787994587145,2.7751482583330764
105.14341301533494,13.954201459331005,9.610638042272097
120.39035077582393,9.02340546118914,15.199995312465415
126.12665933632731,28.938233871142806,19.106920835869804
121.50957494552569,41.686025061732444,21.16283344128955
107.51778636736293,44.93674615654989,21.36895843885992
86.70071248895535,38.431888019184335,19.84317506883489
62.28363465411436,23.644205365398662,16.83849475942998
37.045944267003115,3.1061979150090706,12.790916421076568
12.534448560124085,20.229222092628472,8.325751712567344
11.08456900815975,43.40824437449874,4.035906599653699
34.533469025543525,63.7039068136313,0.1639587496534558
58.57844100542406,78.74528547708094,3.4641743160545726
83.21609096385467,86.64277618366505,7.202323072970068
107.1937940987588,86.13592616996905,11.143269783166934
127.97491588967904,76.72541428027294,14.858753848100106
142.05061920399612,58.77502586830741,17.57421469466833
145.55731923373838,33.60425525541904,18.50092961767775
135.1051745745417,3.562630486659544,17.18212796899442
108.63974941596423,28.00865752284418,13.769876720759505
66.23655778785195,57.07876765719155,9.104960566597256
10.562006913108425,79.60460998081136,4.620226893938093
53.22388190003621,92.49644025868514,1.8466990363984845
118.07480925971241,94.51185694829906,1.5825636970405321
176.01655184629482,86.64159967427244,3.4965618973314045
219.19613324454264,71.71831141144912,6.4922578163743765
240.84547166171865,53.34703237670373,9.304225239933798
236.15897294312995,34.677793838179895,10.873680116150677
203.16382641700787,17.6476220035287,10.481988631258913
143.5754919470289,3.0472743244267484,7.799539552187938
63.32926194284984,8.746070584714218,2.876249606399683
27.66207180467544,16.994193868800295,3.984641172590351
116.88902654781029,20.417665991212576,12.213270497601032
191.6971917680745,17.85637003243268,20.812136604599445
242.06891694959856,9.41097451058707,28.4885173649229
262.759872909312,2.758312119371249,33.982363343430535
253.96525604380474,14.647419741818666,36.28610166422077
220.31170801166485,21.705097244617896,34.92400301202743
168.8689499640133,20.618683969995438,30.1849620263176
107.17153936984194,10.626894539387102,23.0008372467455
42.079977202184544,6.368164176522214,14.65844968105615
20.29664580688295,26.901885104134557,6.425022004912077
74.21619244532951,47.55033496056162,0.9325846369335377
114.24933506344458,66.06786808426621,7.312990146400592
136.02338499822258,81.47538806823553,12.929987411767936
137.5870439144463,93.24647017933268,17.854475656299808
120.58789020836834,100.33835809659199,21.929425105513427
90.39996748154573,100.90021853689807,24.915039607032327
54.85927174601532,92.97503037094468,26.48832479656479
22.04699125657706,75.79028984166388,26.336550635850944
1.9453250195220078,50.7864243558874,24.416807431418622
14.34829245927519,21.635964214197376,20.994010113036406
15.700907997408976,6.8682208028304625,16.53218618345008
8.796934657146608,30.468277115603566,11.621553878163407
2.696056969543135,46.733887842659634,6.842750952764624
15.579804571914398,55.16991641982204,2.7706744443856706
27.64051792312473,56.745207021315935,0.00018793382343275738
37.34489744420468,53.265466348140265,1.0146448992021602
43.5682353495245,46.53522508456122,0.1707285361861023
45.52397979992138,37.93760950133881,2.138801177595591
42.967373255107425,28.506318527930716,5.114059669164798
36.45417973627424,19.216511256641624,7.821731523180307
27.3707569772903,11.124173326166915,9.520956666497732
2.941959643466856,15.007171710997344,8.42999621743404
4.793459851796694,13.154931596873277,12.452740729841395
6.489877521277464,7.786234058034969,15.292395499200268
7.73854273767991,0.6160912992684892,16.21022488343598
8.172131217449266,11.021100631889723,14.801098653629696
7.399565359514847,22.195818944982232,10.857437694865318
5.111920081712693,32.97287564571894,4.350655976993302
1.1827997621377409,42.352323735342885,4.300817549961491
4.206426594599334,49.4000853048808,14.075944461928158
10.502485209571578,53.08567703464766,23.505521143072304
16.785173974404877,52.176651868366925,30.950495159990993
21.81212284826374,45.26849240686966,34.97408326493464
24.2018689991052,31.099580026646674,34.72466414098319
22.982381577459854,9.316637739956873,30.21626492561404
18.08128847806453,18.836714279596077,22.30439493470067
10.167669779052897,50.603286211441706,12.316853945497403
0.3468236530633252,82.19349436834948,1.8457682010720398
10.055577133031866,109.35693865330296,7.4371330797043
19.801178405252724,128.0816213264718,14.300715927342864
27.839606961148046,135.1317722348453,18.24486121390445
33.280582075361465,128.46768085161034,19.40593612439745
35.344882646948044,107.58798682236166,18.327097664301757
33.31614585074829,73.72089335176267,15.622988799958636
26.702069728728215,29.916168882408815,11.886335811007504
15.507331035498932,19.104951528705104,7.833405636486731
0.5392170025782668,67.40006248591938,4.263874966235039
16.398246327250444,108.59788752852302,1.844519427855431
32.64987112918791,137.02759581256282,0.9252069534275565
45.17711140972608,148.94734604879199,1.4239233578260315
51.25705918213238,143.5826669879988,2.8981839514345213
49.19153574625287,123.58143801141702,4.805006383250249
38.761127780217045,94.58035194171869,6.692285598466678
21.278340834001607,63.86315828706452,8.338243929897198
0.7747868611832217,38.39402135786985,9.76133696783118
24.36504021738531,22.84155691653945,11.05186414836813
46.548899318494215,18.300731144867978,12.434109271262237
64.91518392337049,22.169722789371043,14.32737706048764
77.71239920152337,29.195204459115082,16.965766723624977
83.7103321878702,33.306840576676684,19.943565261309672
81.9735939784273,29.570652180533397,22.138084489500606
71.76148656246792,15.568688818581851,22.19677640530642
52.69259392896838,8.148966770551104,19.22369892023074
25.16620944918811,38.52923729212875,13.013648733084995
9.159716338198935,71.05673642693556,3.975518317603818
47.126305997353015,100.90533625670392,6.9589786879870354
84.30461975064264,123.88852670774689,18.60936410721177
115.7652711506098,137.05319311061135,29.84620942271714
137.16866414708335,138.95796918841666,39.63841432142979
145.77739812715504,129.75703689136188,47.093440408081
141.00820642850132,111.11975244624499,51.543528818001796
124.34050125481266,85.96268182472468,52.41836404096309
98.69639138927793,57.94136619676575,49.27639361934009
67.61420914587138,30.699977140510903,42.156693826396605
34.580429034253164,7.038946099775931,31.725904704564552
2.6923304536436903,11.702183858212692,19.173525679492446
25.450328361254794,25.802915167479924,6.021967767897497
47.848429120565044,36.744716161187185,6.188193770545564
63.372962469960925,46.277861960268105,16.296453738733316
72.160679381331,55.362039317387925,23.794770561613007
75.87983603749757,63.45502699201725,28.70144824965371
77.54119681365776,68.47233943081945,31.271027909465367
80.6900482399452,67.5394001105877,31.88944725991564
88.16980960100278,58.255122392057814,31.023824278551118
100.91105893971856,39.94569831033158,29.120290470265434
117.28327255067346,14.398018579774622,26.535940626202976
133.38827954944483,14.286322522045404,23.581740832154058
144.22438477825696,40.66688792181703,20.551301717389702
145.26045154893592,59.37103343461478,17.616752619366693
133.81248788358772,66.41331206258945,14.786503381427972
109.71057996706666,59.988073785264284,11.865417049254464
75.07834688984764,40.58488251947296,8.343812658339573
33.44404155282765,10.584566446559775,3.6436824414400566
11.33666615195917,26.360743039808305,2.342527325756778
55.88214678854671,65.90696030569465,9.026497229916133
97.5525097383311,103.45632355054703,15.282801619128463
134.2163752870831,134.53467559608785,19.72015138086638
163.80599691613264,155.23534000541937,21.151001679287166
184.01444940200017,162.72218285024962,19.215472213219563
192.39691368881324,155.67658960150135,14.531199394183533
186.88886786653325,134.51509120644982,8.28931944693104
166.520045290078,101.23816138203672,1.8654257447051918
132.0301510779831,58.978604360732405,3.4659039574601933
86.11638699509491,11.450075082268404,6.752004907589434
33.25317096454798,37.49744122459106,7.431694204592312
20.779748954464836,84.07386054974799,5.363944589734789
69.52748147661939,124.56044114244217,0.8690465875686044
106.56490837542258,155.33933787184768,5.27388333243981
126.3078020409014,173.11407407813437,11.971390053840208
125.00675712176823,175.37171136848295,18.02296660504621
101.83808360311362,160.97591232477203,22.183089120910356
59.78982519407764,130.68505954964354,23.373640621121467
5.863281439815961,87.40177153748375,21.170019192394697
49.829577064786015,36.072377441000626,15.97251314932092
96.07978275946489,16.760229232768687,8.843817558783703
123.22205754799926,63.735910971693954,1.3211640140395167
125.59291114106875,97.73629576456118,5.099495902216074
102.94374542282496,113.14193058309736,9.65267526275472
60.33914946313817,107.11031716925248,12.431703482489755
6.731390243369531,80.52408141343595,13.922524391289242
47.18187924057782,38.21994746473087,14.542752530237944
91.11146346486089,11.75185096747251,14.524181489768226
116.86145092684731,59.77839503761152,13.993246984298668
119.53575882882492,96.79588148284438,13.051492876143728
98.41980627215514,116.21049015586699,11.80610017550716
57.510396838253456,115.05689836922657,10.36708238006323
5.421256708774747,94.14859865325536,8.864391394840021
45.797823019301056,57.413778240048764,7.427406989469286
83.15682211930307,10.875880257022155,6.184391248119665
96.11510324334138,38.3243206786568,5.286691868951797
79.82299446492402,82.7356235291997,4.760134432714591
36.89669754478658,115.37008942599721,4.388465449640514
23.192990653716954,130.68031762932378,3.807769012387843
86.98184930351069,125.7369189342729,2.7288678103132407
140.9978585317364,101.21910837146598,1.1859854079206644
175.2966411174728,61.69984109290069,0.4307917658624723
185.22962334814278,14.83406571851977,1.5613868071588457
171.1291233413593,30.51008492202767,1.806949215687258
136.6436252500922,66.53175737123925,1.1667744831414724
86.93139549726381,88.3079743840422,0.09995262811676199
27.666344148401244,94.49684084663942,1.6072953677760617
35.02365352756349,86.80006256985114,2.8498471502989027
94.33640810012082,68.64340920786975,3.3608335781921728
143.11361219358525,43.85624308574632,2.86212595836138
175.0378707445386,15.93719114671441,1.2300604203736574
186.3081062249335,11.988255966238063,1.5837248297560136
176.86669323504177,36.86994776178573,5.511579928482474
150.33450727678604,55.64857324330798,10.382519094408877
112.55442517080687,65.7013099880684,16.03485259122763
69.44773522266412,65.66320281987151,22.202221884382045
25.294935715885412,56.135212229017526,28.29788717043006
17.64945448325657,39.77597189402453,33.38464521354181
58.14414944892813,20.596681245458363,36.268656908282445
94.34392428592761,2.736404070801164,35.71870667501396
122.71194237357923,10.728092514565835,30.855949031389454
138.29286290861185,18.432117131781947,21.608492217552744
136.36572930875397,20.634139744757594,8.94270836092497
114.70165317463551,18.603755684461543,5.392417849212408
75.27689404601108,13.918441875363069,19.417727641139543
24.550231376154287,7.993700372419723,31.36558917601577
27.883034235088616,1.954739567126693,39.89033135661919
71.74415230829439,3.2684256708518684,44.121013916541976
98.69919027255152,6.866996857939947,43.67335876348264
105.33018763061023,8.192086805335837,38.65964020083862
92.96262148517614,6.820647432170587,29.678451579960978
65.22377230053793,2.738737144755432,17.792714103655914
27.072821161066727,3.461115965864205,4.506474772450473
15.942200064645336,10.647128536655481,8.33073417025851
58.184896011577955,17.443358300555765,18.832230974499886
94.3501740725959,22.603307657136593,25.518914033446812
120.00252660701514,25.313976377317914,27.705175283679548
1.3890323521264532,3.917193992320969,1.3427011175078947
12.492189448228658,1.002913089878782,2.714623537961134
22.974501587085683,2.2323214762359913,3.617321192384209
31.921817549778368,4.74620805506752,3.829025412306509
39.002309056564926,5.495975665634897,3.193248538292421
44.07217217451351,3.7706927611899683,1.668402463753631
46.685307526314,0.47088871240994246,0.6780847676277265
45.664895560766396,6.346531821116187,3.623751356848981
39.2770123446096,11.99912992370811,6.695167450222664
25.81068207805674,14.853355379462581,9.232123575153587
4.557782069003362,12.200391637087977,10.60882325894202
22.84736723294557,1.994833632784353,10.34498347723792
51.61473511235904,16.3614593551007,8.108561559653163
75.64723283422751,41.39456605777628,3.8981307820515445
90.53732595533522,69.285333381118,1.7543978420450077
94.03997541201224,94.33669679649536,7.929582284596237
85.95164349517165,110.23230056037352,13.6103172267428
68.20232534480033,111.68225140118349,17.928532561836576
43.64543872195513,95.94144938571448,20.381283771476824
15.170903620329792,63.639845216242676,20.782499695847967
14.81908235090225,18.623093704444848,19.069668969565978
44.613775713767915,33.0821721614436,15.360536228217248
72.52581268817649,84.77104375115916,10.134855356373324
96.37823176713722,130.43970727615127,4.1845851132788425
113.23767655247617,165.60991513390172,1.5896750742450032
119.80051490554574,187.51462369920588,6.323802019789649
113.48179019013028,194.86830980437915,9.382930066161707
93.44398011463737,187.60318251874378,10.579245391297313
61.33020606676844,166.81125729426415,10.181549592907901
21.13436560391337,134.8547539316644,8.74798371257464
21.736162599686466,95.36750097425602,6.975371761579953
61.68038380726988,52.81520351051653,5.605746489040936
94.02312361925091,11.553420843522494,5.333074955130599
115.534031607525,25.28893565896779,6.673521674226615
124.39506978788296,56.55668305304635,9.787140145820219
119.93073776137159,82.96819295755117,14.389094296592207
102.40106004329587,106.09910703995705,19.739570513501704
73.12274971701197,126.94885953015903,24.545139884483685
34.803792758793094,144.88527569050635,27.1226671797176
8.222903736676615,157.59397417354688,25.995791831808216
50.18473697644024,162.13558089411865,20.450643158326557
84.64809871717134,156.56900007494343,10.853728152933925
105.75727612676731,141.23563256107758,1.37050723392183
109.57543271193987,118.97831923000419,14.198153727431855
95.06558351175799,94.16271824973235,25.503490714082776
64.39496169187285,71.03970206758963,33.38239951367073
22.489640280549718,52.31182681725105,36.52710684071319
24.086690180076836,38.57057078156767,34.54478704815731
68.5665453590401,28.729199529614988,27.8960064893663
105.23020280832012,21.018924808165888,17.587894124342657
130.1468867304108,13.878199765014974,5.098288515058825
141.24817872743878,6.282826364806478,7.492719869097426
137.88997245479274,2.4614351373892522,17.830693136077784
120.3023616495507,13.094072412432771,24.025317465513254
89.29405032423207,26.499319495400247,25.036060726514243
46.42082375729151,43.339294753148685,20.724450136009715
5.5026207626677754,63.471656050873314,11.901676128150413
61.98266057395152,85.57882349996358,0.1786269854202496
116.98079598786367,107.29134400010258,12.429440256146393
163.77198829619326,125.79862100249049,23.897295157841743
196.27077602495592,138.6303392249514,32.51208448786707
210.3010967790387,144.22242221182188,37.06765355465367
204.30141436579422,142.0737062250322,36.85974982957465
179.26304963421657,132.58573439128608,31.735115520236707
138.1156642666198,116.82677806424097,22.279178280694424
85.01345072822456,96.34582272588943,9.752368960977101
24.908659313786483,73.01422921272015,4.259428350420963
36.53863357292404,48.790118039484014,18.054708021073345
93.04058257946429,25.32813347999682,29.877180543715433
138.17556002468015,3.5660960195625933,38.19811251776241
166.4532262922741,16.424058552051736,42.06612668461649
174.67810318291026,35.10487216854827,41.094984481128854
162.9915807694407,52.74138176602141,35.37424200691027
134.9879352506106,68.67041266184864,25.644419406855178
96.7389933824316,81.06282534211883,13.385825980321345
55.08066543166176,87.46751310562726,0.6335124463712157
15.895150897780043,85.94948588640952,10.287581036928849
16.89402135000447,76.2330853361508,17.202462809236014
41.399523051248266,60.254731187324545,18.818423644131762
57.20952366378154,41.81469373947255,15.185420988358532
64.73193083327399,25.463144945690658,7.46442498332908
64.91440443276504,15.148196599603505,2.426193770802662
59.391555881262285,13.217493388417001,12.101891504096683
50.70043549025776,20.054987638431214,19.35947886811854
42.08148331558729,34.240372676434646,22.780274968174584
36.62519405452743,52.92495244628914,21.785185692362028
36.01876597939825,72.16721724264316,16.43540204709277
39.53654691773312,87.26318996619474,7.280093592399588
43.91970245304207,93.32885371262928,4.69219878391588
44.394616983502075,86.26789616613684,18.011942408915985
36.49726382390538,63.985769948859414,30.75161248374755
17.91638708718965,27.43287742208031,40.80881984390302
10.46248753139267,19.06591543754657,46.46807423838296
44.74153152467746,68.49670432494004,46.83167753837409
79.26426159648102,112.68377684608772,41.89614558570406
108.2676388388823,144.11753961474457,32.57984249422547
127.18162270160705,157.49255368935107,20.528738450119818
133.16999998358887,150.59908739889042,7.450643075731661
124.96097217858606,124.54359669879616,5.290955714438175
102.41660228346366,83.47504537500936,16.460245985651504
66.38954576874478,33.980165979977706,24.94856991985197
19.072259381337528,15.83120788505788,30.160783089623322
35.384179792446105,57.62206138320789,32.01414361781074
90.47867281659705,84.42809935336633,30.662005752130128
137.77457879051272,92.22858300776618,26.524500321598328
168.35200941396445,80.98992511124624,20.412735391888095
174.93959570911983,54.67813801712005,13.38871696628229
154.02483941112632,20.109582392457302,6.497619403898239
107.13919464218137,14.90831095962784,0.5602728798979256
40.75022661252805,43.41934454095965,3.9893824957506476
35.174649258951376,60.53659217882885,7.07939199848432
109.36999572102633,63.811912030230076,8.761337043060047
171.45311562581543,53.008578094187385,9.10222191263155
213.39568203400927,29.770241244911375,8.170151185161854
230.09505560897162,2.5197549834649666,6.001798928362733
219.30481815526156,38.8412288633983,2.733326962052072
181.40332725188364,72.99986554164786,1.2697173362228478
119.39545379879533,98.72340891661567,5.461319869922233
39.11393166856128,111.25816785177561,9.27271956927325
50.80284714089987,108.83593804723246,12.267101068656093
139.62442077051628,93.23822111130602,14.117842832916779
216.11179914936986,69.06798966754603,14.552677795884925
270.6848706967622,41.99917582922646,13.430998474024554
297.41901860143366,16.839749129805153,10.692927130384993
295.0364984849146,3.6824783862478805,6.230683281235164
266.53714115485917,18.963482183585167,0.04746186340997246
217.70946947264653,29.64844941632867,7.444372180873142
155.25483550756374,36.59053194159818,15.313104702836666
85.40847517732564,40.33998014167134,22.27729184236378
13.4950648411153,41.36312646682863,27.103201670710543
55.74279415704152,40.611153585067676,28.943173890813863
117.61789291324081,39.799851092379804,27.469104156169855
167.41983440528597,41.01079949313374,22.88413872041007
201.02149428713997,45.75937757482164,15.772702531797174
215.89908148023613,54.12377404742236,6.914894764496726
211.99308671676525,64.53311626353295,2.7710477896335752
191.88459763609885,74.372708127145,12.251375292633645
160.156334946497,81.02875147386277,20.408531151004894
122.24253101562746,82.7142823157358,26.246460759910534
83.28778818192549,78.63576005151876,29.191800043082306
47.40773338248771,68.56356437625628,29.001244981260697
17.45270793462228,52.29336934249563,25.583613190365856
5.058144864481837,30.500145293008334,19.34982409626658
19.551358634609283,4.726726404762039,11.328490282614242
25.96847285178255,23.462127919982912,2.8019916183860443
24.922759125040574,52.031858125900285,5.046514560170206
17.909535227161122,78.29651548878577,11.415562786415713
7.272272400697967,99.26336624836283,15.89537030174398
4.206652206336122,112.3832293828586,18.362235283702596
13.966252683170067,116.3142197093408,18.92427385794139
1.9602614587483258,4.219077928592194,2.7822676403936746
0.11439540066695618,7.592599236989019,2.9052694710790528
2.879857919901475,20.84008761665641,2.21032913078316
7.270363304013802,34.63077429310716,0.4695062540633781
12.750231828495204,47.938557261533234,2.3833186287309998
18.32603289498353,59.25487830112855,6.083080149314316
22.492848115720033,66.47646948715413,9.975335920066701
23.59982384012911,67.07776708711782,13.184277452710074
20.331881946781973,58.768167179130714,14.877104202711372
12.090877569975342,40.213009486129884,14.439676802472865
0.7570654950189232,11.682863567662345,11.567937063641898
16.654136120304166,24.20912234835752,6.35191279498035
32.78938068983763,62.072118871427165,0.7161255637697497
45.759143768297896,95.33021538940443,8.84954284404023
52.605622880189024,118.70829381843839,16.941775461861194
51.3804286660456,128.58387125239028,23.5030815645401
41.66061431735269,122.97413913078172,27.073981606841688
24.972941024143967,102.08457030529159,26.77690185889156
4.466057401286223,68.07369340978309,22.468403079235507
15.909929673777937,24.965215639895636,14.75457001853605
32.52495433705271,21.715161409925447,4.919205805580353
43.06474856016604,65.85118369290672,5.355232067385421
46.823684212277705,101.52474113880024,14.321809099105552
44.356502130601385,123.98036445250192,20.491455505597102
36.756067107522796,130.2965482183968,22.92215047205809
25.146199988655574,119.78431313449892,21.418280961505772
10.775937553352803,94.25864730071953,16.492095316342013
4.504838027228714,57.909831785689185,9.125703332235357
17.882844066009916,16.846486989219564,0.5654418165769263
25.92441458617541,21.943361769054512,7.869056714997907
25.750258564080646,52.09306955828073,15.004658698641851
16.506388062048327,69.38978536283444,19.910841100992705
0.25087397102497294,72.80960541689588,21.872277842058093
