File Name: not saved
Channel 2: 'Channel 2', 32020 values, raw ADC, no filters.
Channel 3: 'Channel 3', 32020 values, raw ADC, no filters.
Channel 4: 'Channel 4', 32020 values, raw ADC, no filters.

102	144	-35
7	163	-42
-77	147	-56
-139	104	-54
-182	41	-27
-202	-26	14
-191	-69	18
-143	-58	43
-58	22	17
36	150	-35
106	272	-6
120	317	45
71	241	34
-18	64	13
-110	-147	13
-172	-301	-23
-195	-337	-51
-195	-257	-102
-189	-121	-167
-175	-11	-149
-129	20	-103
-28	-23	-81
135	-84	-56
324	-103	-26
466	-52	11
496	43	51
406	127	120
226	153	158
40	105	101
-83	19	12
-115	-59	-113
-89	-95	-214
-70	-93	-242
-111	-82	-176
-217	-89	-64
-338	-121	-7
-392	-144	7
-339	-125	28
-168	-42	87
57	84	112
255	204	65
363	268	21
357	250	24
271	173	8
161	79	-9
75	15	-15
28	-1	-35
13	14	-11
-1	26	-7
-34	4	-36
-88	-56	-93
-145	-134	-162
-182	-194	-135
-185	-208	-55
-159	-178	-46
-121	-116	-57
-94	-50	11
-83	2	49
-82	35	47
-65	59	74
-17	85	78
75	114	40
190	143	6
291	163	-19
340	163	-45
309	132	-33
200	72	-36
44	-19	-17
-116	-132	-20
-245	-246	-100
-319	-332	-93
-347	-356	-78
-338	-307	-68
-304	-189	8
-249	-38	-9
-168	100	-22
-61	189	-8
53	211	-15
150	178	10
207	117	-3
225	53	-58
212	-4	-97
195	-55	-65
182	-101	-41
164	-137	18
111	-148	77
6	-125	94
-148	-65	81
-304	11	-40
-389	78	-173
-354	121	-246
-185	135	-201
69	135	-137
325	132	-43
494	136	36
533	136	65
439	117	68
268	72	-15
78	9	-74
-84	-53	-50
-186	-99	18
-234	-116	43
-237	-114	-4
-212	-109	-58
-173	-105	-9
-126	-99	0
-89	-78	3
-60	-35	-11
-42	22	-38
-20	71	12
15	95	-2
67	88	29
129	64	69
172	56	24
175	76	-4
119	110	24
15	124	-9
-114	78	-62
-231	-34	-44
-304	-181	-26
-308	-286	-36
-236	-289	-43
-101	-167	-37
69	40	-38
231	240	-16
337	343	12
355	310	29
280	170	47
149	6	34
12	-96	-21
-81	-98	-40
-107	-29	-45
-85	45	-88
-55	63	-105
-56	7	-108
-93	-86	-107
-145	-152	-60
-180	-154	-34
-176	-99	-59
-130	-31	-36
-59	2	-31
19	-15	-42
105	-54	-32
195	-66	-36
285	-27	-11
352	43	-14
352	93	-15
258	67	7
80	-37	31
-141	-175	53
-325	-270	38
-418	-265	9
-400	-169	-30
-296	-28	-59
-165	75	-70
-52	99	-55
20	54	-11
57	-1	22
80	-6	46
97	58	26
111	169	-7
113	256	-67
100	268	-130
72	190	-53
34	59	28
-14	-67	45
-76	-149	96
-153	-170	80
-240	-161	10
-308	-149	-90
-325	-158	-178
-271	-175	-225
-136	-176	-215
49	-136	-105
238	-51	13
383	60	76
446	165	90
407	237	82
283	260	56
119	244	31
-30	203	18
-102	149	52
-77	86	78
25	13	49
138	-69	23
183	-154	-79
114	-222	-148
-59	-244	-154
-260	-207	-128
-385	-113	-78
-366	12	-19
-207	127	-41
22	192	-116
210	183	-63
277	109	-34
212	7	-53
63	-79	-44
-81	-106	2
-152	-72	65
-124	-6	42
-26	53	-7
87	72	-55
169	41	-43
186	-19	-14
140	-69	-17
49	-80	-57
-58	-44	-104
-154	24	-116
-205	88	-117
-193	127	-87
-121	131	-2
-6	118	74
107	99	85
188	84	72
201	65	37
143	25	36
29	-46	74
-113	-150	85
-256	-261	63
-366	-353	5
-421	-390	-56
-403	-358	-130
-300	-259	-219
-124	-111	-195
90	53	-57
302	201	32
465	301	45
540	345	16
526	329	-17
432	274	-27
287	204	-78
120	135	-63
-41	72	11
-181	5	-11
-276	-80	-3
-320	-176	38
-308	-263	79
-249	-309	106
-166	-288	87
-80	-199	34
-11	-67	8
33	57	12
53	147	-60
60	180	-91
58	163	-92
54	110	-90
50	31	-62
45	-69	-68
44	-181	-54
44	-274	-56
48	-308	-50
43	-242	-22
27	-81	-7
-5	127	4
-50	299	19
-93	352	-6
-125	272	-36
-136	103	-55
-127	-57	-68
-108	-131	-40
-87	-92	-48
-69	10	-64
-57	87	-89
-48	81	-86
-42	-9	-25
-44	-121	8
-60	-178	41
-94	-143	81
-136	-42	78
-172	50	63
-179	76	59
-140	21	10
-47	-58	-64
87	-94	-121
241	-37	-142
374	93	-144
451	225	-104
432	282	-24
325	233	53
150	104	122
-27	-32	172
-140	-111	164
-148	-113	28
-53	-68	-111
85	-34	-170
184	-47	-202
180	-104	-242
50	-173	-206
-154	-209	-94
-344	-190	-32
-438	-129	32
-392	-51	80
-222	22	9
2	92	-9
207	163	-25
338	241	-42
366	305	39
302	325	32
175	273	24
28	148	79
-103	-7	98
-177	-138	102
-184	-202	28
-124	-188	-38
-32	-126	-81
48	-66	-149
86	-41	-183
77	-53	-139
46	-79	-99
34	-86	-39
54	-54	1
91	-2	-7
110	45	15
80	66	11
0	53	14
-94	17	22
-159	-19	28
-171	-49	-32
-140	-72	-36
-106	-92	4
-103	-98	-10
-138	-72	3
-188	-11	-8
-215	81	13
-195	160	41
-140	170	8
-78	83	-64
-30	-86	-111
4	-265	-87
49	-378	-92
128	-355	-79
240	-208	-51
341	-7	-34
381	156	8
319	213	6
167	169	11
-20	78	-7
-169	18	-21
-224	32	-9
-177	108	-14
-61	192	-29
65	219	-56
158	171	-39
195	67	-14
182	-33	15
129	-88	58
44	-85	98
-64	-47	150
-190	-20	117
-297	-27	12
-352	-60	-70
-328	-101	-144
-225	-114	-189
-84	-96	-151
41	-56	-44
106	-16	65
101	15	98
53	40	32
22	67	-38
44	101	-49
123	123	-81
216	116	-116
263	62	-118
223	-24	-90
85	-116	-26
-93	-171	-45
-240	-166	-40
-296	-105	19
-245	-23	8
-126	43	9
-15	66	-35
23	43	-80
-35	-2	-57
-157	-42	-36
-258	-56	-35
-258	-40	-50
-118	-7	-41
129	29	-22
386	55	11
543	60	8
518	41	-49
318	-1	-57
29	-53	10
-226	-98	17
-334	-106	9
-280	-60	27
-118	32	8
41	140	-15
107	215	4
66	218	-4
-29	139	-93
-84	22	-69
-34	-70	-15
107	-87	15
266	-16	-2
345	92	-30
287	158	46
120	115	15
-77	-39	-56
-209	-244	-114
-228	-390	-151
-161	-391	-63
-70	-232	20
-30	27	56
-57	261	40
-122	373	21
-167	325	-21
-149	161	-57
-68	-18	-86
36	-123	-106
118	-127	-72
149	-67	-66
131	-22	-62
90	-43	-4
54	-129	47
27	-217	45
3	-242	74
-37	-168	83
-91	-31	53
-148	90	29
-186	124	-5
-188	53	-47
-156	-70	-81
-100	-169	-52
-42	-168	-60
11	-57	-69
52	106	-40
86	244	-20
111	287	12
122	230	14
111	104	15
79	-24	-10
28	-110	-70
-28	-139	-104
-76	-126	-72
-103	-100	-31
-109	-69	7
-91	-38	22
-52	2	-2
-2	45	-46
49	82	-39
89	93	-18
105	80	-34
102	61	-76
91	62	-97
90	100	-27
111	165	19
144	222	20
167	233	7
150	178	-3
79	68	-7
-24	-58	20
-124	-163	-3
-177	-222	-34
-172	-235	53
-126	-217	40
-88	-190	-25
-92	-158	-37
-145	-117	-131
-219	-59	-133
-255	3	-64
-214	54	-22
-89	74	-13
83	49	-40
237	-3	-22
316	-55	-31
296	-75	-57
193	-49	-107
57	12	-116
-55	74	-50
-111	97	-37
-104	67	-38
-49	-6	-19
13	-89	20
56	-134	38
67	-115	22
55	-34	13
39	77	7
41	171	11
63	208	43
89	169	59
93	67	38
53	-60	22
-27	-177	6
-128	-254	-3
-206	-275	-13
-237	-245	-37
-208	-169	-28
-139	-63	22
-65	58	50
-12	181	21
4	278	-17
-5	339	-40
-25	345	-75
-42	312	-83
-49	240	-84
-50	149	-102
-39	48	-85
-12	-57	-39
40	-160	-37
107	-253	-64
172	-318	-45
199	-344	-30
169	-318	-30
87	-250	-30
-12	-159	-68
-76	-58	-91
-72	31	-80
-4	113	-44
86	183	-14
141	243	10
124	274	43
44	259	69
-50	185	45
-95	62	-11
-52	-77	-24
50	-186	-74
152	-229	-90
170	-194	-24
66	-113	50
-125	-31	121
-320	0	172
-406	-35	147
-335	-117	42
-131	-191	-90
107	-198	-208
266	-111	-248
287	56	-222
186	239	-183
50	358	-81
-22	354	72
5	226	104
101	21	82
175	-170	35
159	-269	-63
36	-246	-90
-130	-121	-101
-247	32	-81
-247	139	-52
-139	162	1
2	106	22
86	24	-31
62	-31	-55
-33	-29	-58
-130	24	-23
-149	91	-12
-68	135	10
57	138	21
145	112	28
126	81	24
6	59	-2
-161	45	-1
-285	14	-6
-312	-53	3
-243	-159	22
-128	-269	40
-32	-341	9
15	-334	-35
23	-238	9
34	-86	87
85	72	79
184	179	47
302	210	26
399	169	-25
425	95	-81
358	26	-100
212	-13	-104
19	-19	-113
-166	-5	-116
-294	12	-114
-331	21	-105
-270	24	-93
-139	28	-72
12	41	-81
124	64	-86
167	84	-61
138	85	-20
82	57	20
45	-10	58
58	-107	76
107	-214	45
144	-300	20
122	-338	20
12	-307	39
-152	-213	42
-314	-81	11
-410	49	14
-402	145	-26
-307	188	-107
-167	181	-126
-37	150	-123
51	117	-79
97	98	7
116	85	123
129	67	184
138	38	166
136	-5	87
111	-48	-47
63	-77	-147
0	-84	-211
-59	-76	-219
-100	-69	-135
-115	-77	-47
-109	-103	-37
-88	-134	-53
-59	-159	-52
-30	-154	-59
-6	-116	-59
13	-47	-53
19	39	14
23	126	58
29	200	50
49	244	95
81	258	90
111	233	57
118	174	-29
83	94	-143
6	6	-124
-88	-67	-43
-152	-112	20
-156	-114	-6
-94	-78	0
6	-15	46
97	50	16
143	90	-26
139	85	-101
118	35	-110
121	-40	-54
172	-108	-59
258	-133	-67
320	-97	-85
302	-10	-46
178	96	-2
-29	168	21
-248	174	56
-392	110	29
-412	-4	17
-300	-116	30
-109	-175	49
89	-154	29
234	-58	12
280	75	4
242	198	-70
138	272	-108
18	281	-127
-87	224	-103
-152	123	-74
-166	-2	-39
-139	-130	26
-89	-246	29
-37	-336	41
-7	-387	49
-16	-401	51
-66	-383	19
-148	-346	-48
-244	-304	-90
-319	-253	-120
-344	-183	-117
-291	-78	-55
-161	64	37
23	223	99
206	356	116
329	417	34
350	390	-17
268	286	-51
128	161	-144
-7	64	-157
-85	23	-128
-93	28	-51
-58	41	11
-23	23	-32
-19	-38	-52
-37	-120	-18
-56	-182	36
-46	-192	34
-10	-150	-16
29	-80	-46
40	-17	-36
12	14	-8
-22	17	-15
-18	11	-14
59	19	15
198	43	26
331	72	3
380	85	-61
292	70	-78
87	32	-24
-162	-15	-55
-351	-49	-52
-415	-60	9
-344	-51	54
-188	-27	54
-25	7	-31
90	47	-78
137	91	-84
139	132	-85
123	157	-53
107	150	-39
88	107	-27
52	38	-11
1	-35	-32
-54	-94	-28
-92	-123	-35
-103	-122	-40
-95	-103	-31
-92	-80	-5
-111	-61	21
-144	-48	54
-179	-37	84
-184	-15	65
-156	17	16
-103	53	-62
-50	85	-133
-1	93	-187
51	71	-123
124	14	-16
223	-64	20
314	-140	72
352	-184	74
299	-176	74
162	-115	47
9	-25	8
-82	60	-11
-58	112	-39
57	117	-39
188	89	-72
238	57	-147
164	45	-159
-7	59	-80
-177	86	-55
-253	101	-1
-199	84	86
-50	31	94
93	-37	79
150	-99	39
88	-133	5
-56	-137	-30
-206	-118	-36
-295	-85	-84
-300	-44	-179
-234	-1	-198
-133	39	-153
-27	70	-93
79	84	-61
181	74	-12
266	43	11
314	4	22
299	-30	24
211	-55	22
75	-74	89
-63	-94	100
-173	-114	79
-235	-126	49
-262	-116	26
-277	-67	38
-291	11	21
-290	98	-5
-245	159	-52
-134	168	-80
32	119	-83
211	33	-37
351	-48	-56
407	-95	-153
357	-90	-95
216	-48	-40
18	-1	-20
-198	26	37
-383	24	69
-491	5	56
-489	-9	-8
-366	0	-55
-144	29	-149
107	61	-203
306	68	-120
391	35	38
342	-30	166
211	-106	144
65	-154	28
-27	-157	-92
-56	-111	-156
-56	-41	-205
-84	23	-215
-156	65	-137
-232	87	-19
-248	104	-21
-147	132	-85
61	169	1
297	183	50
454	139	55
459	19	58
314	-166	75
104	-349	85
-71	-456	37
-150	-418	8
-124	-230	-38
-47	53	-40
24	336	-30
62	519	-35
84	543	-44
115	419	-52
163	209	-42
197	-8	-57
170	-170	-55
62	-247	-46
-96	-251	-18
-237	-204	42
-288	-133	77
-229	-51	72
-99	30	32
18	96	17
55	131	13
-3	122	12
-117	70	31
-209	-7	0
-222	-84	-13
-145	-136	-35
-24	-159	-62
76	-155	-54
109	-137	-72
69	-116	-81
-7	-93	-58
-67	-64	-42
-70	-37	-60
-5	-16	-72
105	-3	-62
204	8	-39
245	38	-18
197	104	-2
68	199	17
-93	295	-4
-222	336	-25
-262	282	-9
-201	127	-18
-77	-82	-33
42	-264	-81
90	-352	-160
35	-313	-141
-95	-179	-61
-237	-23	50
-333	80	151
-342	95	164
-273	34	155
-162	-50	130
-24	-108	45
123	-109	-66
279	-57	-144
425	16	-128
521	82	-106
506	116	-99
373	115	-53
145	87	-26
-82	40	-36
-206	-7	-74
-186	-44	-92
-54	-58	-135
85	-49	-141
127	-28	-91
42	-16	-87
-113	-33	-72
-225	-83	-19
-205	-142	31
-53	-176	84
143	-157	108
260	-78	81
225	38	59
59	149	80
-136	225	51
-251	251	-23
-237	237	-40
-134	195	-66
-36	131	-60
-20	45	-68
-91	-58	-80
-189	-154	-10
-229	-206	-39
-165	-176	-27
-22	-64	-16
135	89	-43
228	215	-46
234	256	-59
181	187	-15
116	41	12
71	-108	35
38	-202	34
-6	-215	36
-82	-162	2
-160	-84	-52
-195	-16	-69
-152	29	-62
-31	64	-68
111	102	-75
211	138	-27
228	161	-27
171	149	-52
94	102	-11
43	32	37
32	-28	81
25	-75	103
-21	-110	82
-123	-152	38
-247	-212	-32
-324	-275	-96
-302	-313	-159
-182	-290	-176
-25	-203	-86
86	-79	53
105	41	150
42	117	120
-33	141	49
-51	132	21
11	124	-11
115	131	-109
195	145	-163
196	142	-170
125	100	-125
33	27	6
-11	-51	-22
17	-99	-91
90	-100	-84
150	-66	-31
133	-27	-32
46	-5	-21
-66	-2	43
-141	-2	29
-133	22	-11
-53	75	-71
41	142	-127
89	195	-181
61	203	-166
-21	169	-86
-104	106	-3
-136	41	33
-105	-20	9
-40	-88	-25
0	-177	-28
-24	-291	19
-120	-403	24
-245	-473	28
-333	-454	49
-329	-337	53
-214	-154	62
-20	44	69
189	202	60
336	290	48
373	315	58
296	299	60
151	256	48
13	191	21
-53	99	11
-23	-20	4
72	-136	-69
165	-210	-106
171	-201	-106
64	-105	-135
-135	41	-129
-344	175	-92
-459	244	-78
-426	228	-34
-235	150	28
42	70	24
302	29	-36
458	35	-83
462	64	-3
344	67	26
169	20	51
11	-77	75
-84	-183	36
-109	-251	26
-105	-253	-7
-111	-192	-56
-152	-107	-115
-208	-36	-125
-237	-6	-127
-206	-8	-96
-105	-21	-35
29	-18	-24
135	8	-28
169	46	-24
116	78	-13
26	83	13
-39	69	36
-28	56	65
53	62	102
155	90	68
206	120	-16
160	127	-72
34	88	-120
-109	8	-195
-191	-89	-188
-181	-159	-91
-88	-173	26
18	-124	69
76	-33	37
54	60	1
-21	131	-31
-95	166	-31
-121	165	-31
-82	142	-40
-5	105	-57
62	57	-48
88	2	-34
66	-54	-15
21	-99	3
-23	-122	-4
-50	-122	16
-65	-115	-21
-80	-117	-84
-96	-134	-92
-113	-152	-79
-118	-137	-52
-108	-74	-38
-83	32	-9
-59	135	21
-40	181	31
-29	131	16
-16	3	19
7	-142	53
44	-233	58
97	-224	19
158	-131	-28
229	-24	-55
292	34	-27
340	19	23
343	-35	-2
280	-58	-33
161	4	-55
13	143	9
-101	290	69
-136	356	33
-89	284	-23
-6	96	-72
35	-131	-76
-18	-297	-54
-158	-346	-18
-314	-286	-15
-392	-186	6
-337	-111	36
-172	-91	-46
15	-105	-147
118	-102	-192
85	-45	-197
-41	63	-112
-161	183	-63
-165	256	-82
-22	252	5
203	183	62
399	97	5
446	43	5
313	43	7
63	81	9
-191	116	-10
-344	109	-32
-355	50	-31
-264	-35	-18
-158	-106	24
-100	-127	38
-110	-92	39
-151	-29	24
-162	25	19
-98	35	41
36	5	26
200	-40	-42
333	-57	-97
380	-29	-69
330	32	-1
200	90	43
42	103	25
-91	55	-19
-163	-25	-3
-161	-90	9
-107	-98	-1
-32	-47	-20
16	30	-70
20	79	-90
-12	62	-69
-49	-9	-50
-52	-85	-58
-2	-108	-43
92	-43	-7
180	95	17
216	243	-2
162	326	-56
28	290	-89
-141	136	-94
-290	-97	-86
-363	-334	-39
-343	-501	31
-241	-556	50
-94	-490	37
50	-343	0
158	-175	-34
209	-47	-39
206	8	-27
162	1	-8
107	-21	-15
70	4	-32
71	113	-32
109	290	-28
158	469	-31
184	568	-12
154	536	-5
61	378	1
-68	162	-5
-189	-37	-34
-259	-167	-46
-251	-232	-35
-175	-263	10
-65	-301	25
40	-339	60
113	-326	24
152	-218	-68
166	2	-86
162	275	-99
141	494	-52
102	559	60
34	428	190
-54	157	205
-138	-144	-13
-195	-361	-172
-209	-432	-172
-177	-372	-212
-126	-244	-280
-82	-126	-319
-60	-55	-204
-60	-24	-64
-68	0	-32
-55	40	-14
-10	92	11
61	127	29
132	117	36
175	60	60
167	-26	39
106	-101	31
16	-135	17
-75	-121	16
-136	-70	26
-154	-16	37
-129	23	75
-77	36	87
-17	39	85
32	47	64
62	74	45
77	116	34
86	156	36
98	170	26
115	136	5
126	59	-15
117	-37	-5
69	-118	-1
-12	-148	-23
-110	-117	-65
-188	-46	-97
-209	22	-104
-162	45	-119
-67	12	-128
31	-61	-140
87	-118	-111
77	-111	-63
12	-15	-23
-68	145	4
-122	305	-44
-123	404	-84
-77	388	-49
-8	261	-58
57	59	-38
107	-151	4
145	-322	-2
175	-421	31
195	-441	55
191	-395	26
143	-309	-34
48	-196	-107
-82	-76	-117
-214	30	-25
-311	110	49
-339	155	60
-296	165	7
-191	150	-40
-51	118	-37
93	77	3
212	26	43
277	-30	35
280	-82	41
234	-112	-10
166	-103	-74
107	-49	-82
81	35	-108
75	119	-85
62	166	-16
17	153	8
-69	84	-8
-169	-14	-51
-241	-106	-30
-245	-159	-38
-184	-159	-68
-91	-111	-30
-12	-46	-27
18	5	19
5	24	30
-22	8	22
-31	-20	39
-21	-30	42
-10	1	-19
-32	69	-50
-96	139	25
-168	168	-4
-195	118	-3
-132	6	-23
21	-117	-95
216	-181	-70
373	-140	-18
425	-8	4
351	149	-21
193	243	-55
22	223	-68
-102	97	-55
-138	-64	-55
-111	-183	-39
-59	-209	-13
-26	-153	14
-33	-66	38
-69	-2	38
-113	19	-9
-134	19	-46
-124	32	-18
-90	68	-74
-38	119	-104
12	140	-77
59	114	-49
101	45	-10
130	-21	0
131	-44	11
93	-16	0
13	39	34
-91	68	41
-172	43	9
-191	-38	0
-130	-134	-22
-12	-195	-36
105	-194	-97
155	-132	-153
107	-42	-180
-20	45	-162
-159	106	-55
-234	127	26
-206	105	17
-88	36	4
51	-65	43
141	-173	63
144	-233	57
74	-200	61
-12	-66	44
-55	122	-12
-36	279	-58
20	321	-88
62	209	-58
48	-9	-17
-20	-236	-4
-94	-361	27
-111	-322	84
-29	-144	49
133	99	-4
309	315	-12
407	438	-75
373	465	-123
211	399	-143
-14	277	-68
-212	113	40
-319	-80	55
-313	-281	6
-227	-446	-9
-112	-519	9
-6	-469	-56
72	-292	-101
136	-52	-70
187	169	-49
216	294	-19
196	298	-53
117	201	-93
-1	65	-67
-117	-49	-38
-168	-117	-20
-131	-143	-27
-23	-158	36
95	-183	44
151	-215	-6
107	-235	-27
-28	-211	-58
-203	-133	-41
-344	-15	-16
-403	106	44
-366	197	111
-250	228	134
-101	194	83
38	118	-1
136	23	-46
175	-53	-96
160	-88	-101
99	-62	-67
20	10	-55
-50	100	-82
-92	158	-137
-99	133	-164
-86	19	-171
-64	-155	-100
-52	-308	-53
-50	-358	-34
-50	-261	24
-41	-47	49
-16	191	57
20	350	26
62	358	19
98	230	28
126	45	22
153	-92	0
187	-117	-13
234	-40	43
280	71	111
317	136	150
306	117	158
234	40	90
100	-30	4
-72	-29	-46
-244	57	-99
-358	187	-172
-387	287	-237
-325	299	-243
-191	211	-197
-38	61	-106
99	-89	22
187	-195	45
210	-239	-46
172	-241	-89
94	-230	-70
-4	-230	-72
-91	-242	-89
-138	-249	-61
-136	-233	-11
-95	-180	39
-42	-90	47
-18	25	22
-40	143	37
-96	237	29
-133	278	34
-105	249	39
13	156	36
186	27	12
329	-85	-19
363	-134	-3
250	-106	-18
32	-21	-45
-193	67	-50
-325	106	-35
-321	72	-21
-201	-16	-14
-52	-109	38
44	-154	100
62	-127	125
30	-52	119
17	32	14
63	80	-75
161	77	-139
250	42	-299
263	7	-232
178	-9	-123
17	-12	-91
-153	-25	4
-284	-70	-40
-360	-142	-12
-402	-207	-10
-433	-221	4
-446	-154	22
-397	-26	-11
-236	108	12
40	183	-12
371	163	30
645	59	38
746	-69	12
642	-143	14
385	-119	21
96	4	-9
-97	166	-30
-136	289	-8
-55	311	2
57	215	13
107	53	18
65	-115	15
-41	-217	-34
-142	-229	-59
-177	-159	-93
-143	-57	-133
-77	30	-98
-34	74	-35
-44	68	-13
-87	35	4
-118	-3	3
-91	-25	-66
-1	-26	-55
116	-7	-7
201	22	-39
198	51	-62
98	71	-50
-71	76	-39
-252	57	-55
-382	19	-57
-423	-32	-14
-378	-79	21
-272	-111	0
-142	-118	-33
-27	-100	-40
54	-64	-75
97	-19	-83
114	22	-51
125	53	-26
144	58	31
172	32	167
186	-22	303
166	-86	272
94	-122	163
-14	-105	24
-130	-28	-172
-209	77	-309
-228	154	-379
-186	147	-301
-108	39	-117
-24	-121	25
54	-253	66
131	-272	15
219	-153	-9
314	58	8
386	260	41
381	350	57
269	294	49
66	126	34
-164	-51	5
-325	-150	-17
-361	-128	-1
-257	-27	-55
-67	77	-140
113	117	-25
221	77	71
234	2	-12
178	-45	-92
107	-27	-81
62	45	-78
45	119	-86
39	138	-53
21	85	-64
-13	-14	-67
-46	-108	-32
-58	-153	39
-48	-142	71
-33	-108	93
-35	-79	111
-61	-72	75
-101	-67	2
-124	-37	-90
-107	36	-133
-52	138	-135
14	224	-70
56	248	-35
55	194	-39
15	85	-54
-35	-33	-78
-75	-109	-54
-85	-131	-26
-77	-130	-9
-63	-142	4
-51	-199	-5
-35	-286	-18
-5	-354	34
28	-348	63
44	-246	45
18	-64	40
-58	137	33
-156	301	-22
-217	394	-102
-194	410	-159
-79	372	-167
87	290	-128
222	161	-55
258	-22	57
183	-247	85
40	-453	39
-91	-562	-27
-148	-502	-37
-114	-283	-21
-22	6	-54
71	238	-43
128	305	-18
140	194	8
129	-14	9
110	-174	-3
90	-180	13
54	-18	22
-2	215	6
-69	387	0
-126	390	9
-149	221	24
-132	-25	4
-93	-221	-15
-57	-282	-8
-36	-209	-38
-26	-81	-23
-4	14	-19
39	24	-96
89	-32	-99
119	-92	-50
104	-98	-17
50	-30	28
-8	80	7
-31	180	-33
-4	227	-17
51	213	-40
89	168	-43
66	114	-42
-14	76	-28
-120	47	52
-198	18	49
-215	-23	3
-174	-72	-54
-112	-116	4
-66	-147	44
-53	-159	-94
-54	-159	-105
-36	-147	-121
22	-121	-173
109	-78	-211
192	-18	-251
234	43	-193
215	86	-113
144	89	22
51	54	151
-41	-2	285
-108	-49	371
-148	-63	320
-156	-36	222
-133	22	116
-82	84	-21
-12	131	-261
52	150	-407
89	134	-356
84	95	-249
48	48	-107
19	21	-16
32	29	47
100	85	72
199	170	24
280	243	19
288	247	-7
202	145	-9
44	-51	1
-130	-286	-25
-257	-460	-25
-305	-509	-31
-277	-411	-35
-209	-227	-32
-143	-61	-21
-100	-1	-27
-74	-62	-33
-38	-184	-20
18	-268	-2
96	-235	-4
169	-77	-3
200	134	6
167	299	-22
74	340	-4
-49	261	91
-158	124	144
-201	15	126
-167	-16	126
-65	21	113
59	69	63
158	74	-24
196	20	-176
170	-56	-217
99	-99	-181
25	-70	-241
-20	13	-225
-30	102	-164
-16	134	-137
-5	91	-72
-22	0	-12
-67	-79	28
-126	-93	32
-172	-38	81
-187	41	152
-165	88	184
-114	59	170
-54	-35	131
4	-141	129
52	-196	57
91	-167	-56
115	-66	-91
124	50	-235
113	127	-359
83	135	-365
38	86	-252
-12	23	-59
-56	-20	-8
-99	-25	-4
-135	-13	29
-168	-5	42
-182	-23	8
-162	-52	14
-95	-69	-2
16	-52	-16
137	4	42
229	77	74
257	136	65
216	161	45
138	149	32
62	120	-5
24	93	-39
19	74	-56
22	45	-30
0	1	-23
-57	-62	-30
-124	-125	5
-160	-156	-22
-132	-145	-60
-47	-105	-96
52	-74	-108
115	-81	-71
122	-123	-15
91	-158	84
68	-122	138
96	5	104
163	195	42
228	357	-63
222	402	-127
119	284	-138
-58	53	-114
-237	-175	0
-333	-286	52
-318	-226	16
-215	-44	2
-101	139	21
-42	213	1
-64	133	-55
-127	-45	-85
-165	-223	-58
-123	-298	16
0	-253	-54
151	-138	-169
258	-41	-120
266	-17	-52
180	-56	-4
36	-112	18
-104	-129	43
-203	-107	83
-258	-82	79
-279	-110	3
-280	-208	-69
-255	-330	-41
-180	-394	10
-51	-330	50
111	-118	134
260	178	194
351	460	124
358	634	0
299	668	-111
216	589	-217
153	453	-334
120	311	-324
96	181	-202
48	53	-104
-43	-81	13
-162	-207	38
-278	-300	51
-360	-319	74
-394	-263	77
-385	-156	82
-324	-47	34
-209	17	16
-24	26	-25
214	1	-32
458	-23	-48
625	-19	-107
636	7	-130
476	32	-113
198	22	-52
-82	-26	-9
-256	-94	22
-274	-139	48
-184	-131	51
-81	-66	16
-50	30	-24
-112	117	-26
-206	162	-43
-248	158	-60
-173	123	-59
2	88	-64
195	77	-47
318	90	-15
312	115	26
201	138	-26
49	153	-63
-68	160	-76
-118	154	-135
-110	122	-125
-82	43	-96
-67	-99	-21
-70	-278	48
-79	-439	79
-71	-502	105
-49	-422	102
-22	-213	112
-11	44	93
-17	235	22
-26	274	-43
-20	149	-62
10	-60	-45
56	-241	-32
97	-291	-60
110	-196	-77
89	-23	20
41	124	103
-16	166	172
-67	92	245
-99	-42	215
-92	-149	150
-34	-169	12
78	-105	-139
222	-2	-279
340	77	-439
359	101	-445
234	79	-311
-26	47	-127
-344	35	13
-595	47	25
-684	64	-20
-589	60	-27
-370	29	-24
-133	-17	-31
27	-54	-17
86	-68	-54
88	-63	-111
105	-45	-80
172	-26	14
279	10	87
350	82	150
333	199	133
225	342	85
84	461	29
-8	493	-27
-15	393	39
44	166	24
97	-138	-3
79	-432	-30
-21	-633	-89
-152	-692	-89
-241	-602	-84
-237	-406	-47
-156	-171	-16
-59	34	45
-5	158	48
-12	190	46
-42	144	-4
-40	68	-148
26	5	-241
131	-15	-207
212	8	-82
215	44	-24
123	71	39
-14	69	116
-126	47	155
-161	31	120
-109	46	52
-20	95	15
52	154	1
74	193	-3
48	178	22
13	116	68
0	27	81
16	-44	59
40	-71	-86
42	-51	-226
5	-4	-284
-55	36	-275
-102	49	-174
-100	29	-145
-37	-2	-123
60	-29	-12
150	-37	52
189	-31	62
155	-25	97
61	-32	66
-55	-59	20
-159	-95	8
-217	-120	-24
-223	-122	-24
-183	-96	2
-116	-47	11
-34	9	37
57	60	58
152	102	-5
242	131	-23
306	150	-36
318	158	-57
253	150	-54
115	119	-62
-61	63	-50
-224	-9	-45
-315	-88	-3
-310	-154	21
-209	-183	12
-63	-162	18
68	-82	24
150	45	1
162	191	-67
131	301	-81
89	332	-76
60	244	-76
45	51	-59
24	-192	-82
-28	-405	-74
-117	-504	-13
-214	-460	41
-280	-317	87
-280	-150	84
-204	-50	44
-80	-58	-7
42	-149	-96
120	-241	-177
136	-257	-157
103	-170	-34
63	-11	23
52	142	47
81	222	119
129	205	127
156	130	80
131	57	37
42	31	42
-83	53	47
-204	85	-24
-277	84	-75
-276	34	-96
-212	-34	-205
-114	-74	-255
-22	-53	-177
31	26	-99
36	123	-24
9	186	15
-26	187	26
-40	139	26
-19	86	14
34	67	11
102	96	40
147	142	42
144	160	12
89	109	12
-8	-14	2
-114	-165	-56
-196	-283	-133
-232	-316	-192
-212	-248	-201
-151	-112	-108
-64	27	21
28	118	49
117	140	17
196	117	-25
269	93	-77
328	104	-86
363	153	-79
366	203	-45
333	211	7
261	149	13
161	27	16
49	-109	38
-58	-205	91
-142	-227	88
-188	-175	49
-189	-86	27
-153	6	25
-96	78	69
-36	131	65
6	174	61
22	221	51
14	251	-23
-11	244	-123
-45	192	-181
-86	85	-172
-128	-53	-173
-170	-201	-129
-195	-332	-59
-191	-436	-37
-135	-498	-12
-33	-504	-8
94	-445	-11
206	-315	8
258	-144	9
231	15	20
132	109	31
12	110	32
-88	38	46
-129	-49	52
-113	-86	43
-68	-43	17
-35	55	0
-44	142	24
-94	158	58
-158	85	49
-193	-38	-15
-182	-137	-90
-120	-158	-140
-31	-84	-190
46	45	-236
96	169	-164
107	248	-30
92	277	31
68	282	91
46	290	94
25	298	13
0	275	-26
-31	185	-84
-69	19	-127
-99	-187	-86
-107	-368	-27
-91	-449	41
-51	-404	131
-12	-249	190
13	-45	128
10	134	9
-15	240	-43
-44	261	-60
-45	213	-194
4	137	-283
109	66	-201
239	23	-97
342	10	16
373	23	-13
299	54	-56
138	89	-29
-51	112	4
-202	106	-24
-259	51	-19
-210	-53	36
-91	-196	-27
41	-333	15
131	-410	45
154	-378	9
129	-230	-63
92	-13	-132
74	189	-142
81	290	-67
93	256	71
82	109	66
31	-54	81
-46	-140	53
-123	-101	-15
-173	37	-58
-180	180	-105
-151	233	-90
-112	157	-43
-84	3	54
-78	-125	127
-89	-131	126
-104	11	108
-108	233	90
-96	414	26
-62	445	-37
-17	287	-84
36	-2	-128
82	-318	-163
101	-541	-158
84	-616	-72
26	-540	3
-51	-368	21
-123	-164	-8
-156	19	-43
-136	150	-59
-81	214	-65
-24	207	-52
-4	136	-61
-35	18	-72
-100	-110	-93
-142	-210	-58
-116	-245	3
3	-204	35
194	-109	74
388	10	56
506	115	51
491	188	18
340	224	-16
97	224	20
-147	197	30
-306	143	1
-333	74	-48
-234	-1	-57
-54	-53	-36
135	-61	-68
280	-17	-96
352	64	-27
351	139	41
291	165	49
194	114	42
63	0	12
-93	-133	-30
-262	-230	-109
-417	-248	-155
-520	-190	-172
-534	-91	-132
-447	0	-8
-287	46	-52
-105	43	-71
32	13	-39
93	-3	2
78	12	24
27	57	7
-9	104	123
1	127	142
56	114	84
124	67	20
163	4	-97
147	-66	-154
81	-137	-108
-4	-213	-49
-66	-280	81
-87	-315	195
-64	-285	228
-20	-173	152
23	0	-47
56	177	-196
82	287	-325
106	291	-422
133	197	-325
160	64	-129
172	-27	-27
158	-32	34
115	44	45
50	139	46
-23	183	53
-93	138	43
-147	20	62
-180	-100	51
-193	-158	39
-184	-127	16
-157	-47	-30
-115	12	-44
-65	-3	-18
-16	-97	3
29	-202	-3
64	-238	11
86	-147	4
92	48	-3
86	255	4
77	364	-22
78	313	-21
104	120	9
150	-116	42
203	-272	94
228	-282	93
196	-164	9
95	3	-33
-57	119	-46
-217	137	-47
-339	85	-53
-392	38	-68
-374	58	-52
-303	145	-63
-210	233	-140
-116	233	-194
-23	106	-107
63	-103	-55
143	-290	-57
200	-356	-30
216	-264	-4
184	-84	12
121	70	36
52	100	66
10	-14	-1
2	-190	-44
11	-314	-58
16	-301	-79
-3	-160	-66
-33	22	-83
-44	150	-61
-5	169	-40
91	114	-40
206	59	26
284	68	-11
275	139	-32
164	211	10
-6	215	16
-174	126	52
-273	-6	21
-276	-97	42
-202	-75	112
-102	51	168
-23	198	158
6	268	79
-3	203	-21
-26	36	-102
-35	-137	-268
-21	-221	-452
8	-174	-235
41	-48	-63
65	62	-48
78	80	-11
78	-6	-79
57	-137	-45
10	-219	-39
-72	-199	-17
-178	-83	-9
-280	59	-15
-333	150	20
-305	139	31
-191	47	45
-16	-72	47
162	-155	53
297	-166	63
351	-102	107
328	2	105
239	114	30
119	204	-26
-13	248	-17
-136	233	-40
-232	139	-33
-279	-19	42
-251	-212	49
-143	-379	-2
17	-457	-38
178	-420	-65
275	-285	-150
269	-116	-192
181	18	-190
71	76	-116
16	74	-69
62	61	-28
184	81	81
302	143	36
340	208	11
238	222	13
32	155	41
-203	41	100
-372	-55	74
-426	-77	41
-377	-5	-43
-281	106	-82
-195	178	-97
-150	150	-144
-128	31	-142
-97	-116	-91
-39	-213	-2
42	-215	80
121	-150	93
172	-80	-8
182	-60	-83
144	-94	-163
69	-129	-196
-40	-101	-66
-160	13	83
-259	168	175
-290	274	135
-221	261	68
-61	129	-95
121	-55	-308
240	-188	-282
226	-199	-95
89	-98	-3
-83	41	36
-169	127	56
-97	120	49
105	46	19
320	-16	-42
410	0	-46
302	99	10
54	228	91
-195	298	68
-315	260	-3
-241	125	-36
-50	-34	-12
113	-140	11
132	-148	12
-6	-78	8
-197	8	6
-295	48	27
-198	25	-19
66	-34	-40
373	-69	-19
569	-48	-61
562	28	-111
373	109	-59
103	137	-13
-126	85	-5
-247	-39	20
-262	-180	4
-231	-282	-13
-198	-309	-38
-185	-263	-61
-168	-165	-54
-121	-43	0
-47	74	15
32	174	-19
78	243	-31
80	253	-45
49	183	-65
20	38	-116
12	-152	-156
13	-319	-113
-4	-391	-69
-64	-337	-90
-161	-175	-71
-257	16	-15
-300	147	8
-253	160	57
-120	58	76
64	-98	90
250	-229	123
386	-263	95
439	-192	56
409	-54	-19
297	88	-70
119	174	-64
-93	188	-51
-300	140	-20
-453	78	15
-516	39	12
-474	48	-8
-348	100	7
-177	163	37
-8	201	41
122	188	30
206	120	-8
245	16	-95
254	-84	-156
253	-144	-193
248	-145	-154
245	-83	13
244	17	-45
229	120	-161
190	183	-132
120	182	-125
20	113	-45
-94	-6	6
-193	-131	101
-252	-222	174
-257	-242	151
-215	-190	86
-150	-93	-21
-84	4	-1
-34	57	-40
-7	51	-173
1	1	-186
0	-54	-154
-4	-80	-103
-5	-62	-54
0	-26	-56
12	-8	-24
25	-29	56
29	-85	162
17	-131	241
-12	-123	187
-42	-41	53
-48	92	-83
-13	219	-209
56	283	-287
132	259	-267
171	165	-157
141	53	-57
57	-19	16
-42	-31	107
-98	-1	111
-80	34	65
-4	41	52
76	25	-6
98	14	-80
38	43	-121
-84	118	-72
-212	197	-13
-291	209	-16
-299	96	-30
-245	-139	-35
-162	-423	-16
-68	-631	-11
31	-655	1
151	-484	15
284	-185	-2
395	94	16
429	228	70
354	170	115
181	-7	145
-24	-175	139
-184	-216	91
-251	-99	17
-225	106	-68
-162	288	-123
-117	353	-92
-111	294	-47
-116	174	-61
-75	76	-60
36	35	-23
194	21	-1
312	-28	-17
320	-145	-51
203	-294	-95
13	-381	-116
-141	-322	-125
-183	-111	-128
-107	166	-84
21	372	-35
98	405	-22
64	261	-42
-63	45	1
-209	-113	54
-287	-123	22
-255	-5	20
-148	139	45
-31	200	64
33	128	5
35	-23	-48
9	-152	-50
-4	-166	-108
14	-56	-132
38	100	-184
42	197	-171
16	164	-86
-20	18	26
-24	-157	151
18	-254	122
86	-232	16
127	-109	11
104	34	35
26	125	-155
-44	142	-265
-42	117	-215
56	110	-157
208	153	-46
314	228	22
299	276	91
147	243	47
-66	117	-11
-231	-58	-13
-269	-207	8
-181	-272	59
-46	-242	29
35	-158	35
8	-84	33
-104	-55	-14
-221	-68	-2
-253	-72	30
-170	-17	29
-14	114	20
135	285	53
208	417	57
195	438	0
127	312	-77
66	71	-124
36	-209	-137
20	-434	-113
-22	-541	-44
-120	-519	36
-253	-404	126
-363	-263	229
-375	-147	237
-253	-69	129
-29	-13	-5
224	51	-139
404	138	-268
457	237	-334
389	301	-246
260	299	-66
136	218	24
59	96	7
26	-19	-18
-5	-80	-42
-70	-84	-37
-177	-66	-3
-291	-72	-8
-365	-126	13
-350	-196	9
-245	-237	-9
-88	-201	16
60	-89	-22
150	43	-51
164	125	-44
128	116	-26
88	38	-2
78	-31	19
101	-20	52
136	99	67
142	268	69
91	385	4
-21	356	-46
-163	166	-61
-288	-115	-81
-354	-370	-149
-338	-495	-219
-244	-471	-211
-103	-344	-158
41	-202	-53
152	-106	-49
203	-63	-48
191	-34	-5
137	35	51
76	150	109
42	272	126
52	340	184
101	317	209
150	214	112
159	89	-52
105	6	-134
1	-14	-56
-110	14	49
-172	34	-11
-148	9	-108
-39	-64	-196
107	-148	-221
219	-183	-153
241	-145	-99
155	-45	-89
-10	74	-98
-183	162	-43
-295	191	33
-299	162	41
-193	96	34
-30	16	87
122	-58	67
198	-122	9
169	-160	-11
50	-157	12
-97	-101	40
-209	5	31
-240	135	10
-180	257	-33
-68	341	-38
52	373	-47
136	362	-66
181	299	-67
196	188	-68
203	16	-59
204	-203	-37
184	-434	1
126	-602	16
24	-639	32
-91	-523	37
-176	-291	20
-191	-43	24
-136	126	24
-43	166	30
33	96	65
52	-4	103
17	-59	108
-38	-35	86
-68	38	20
-47	99	-76
9	98	-181
61	30	-249
71	-57	-233
31	-112	-123
-40	-101	-5
-96	-37	-15
-111	43	0
-89	105	39
-59	135	0
-55	143	-46
-88	138	-122
-138	119	-127
-167	71	-68
-145	-3	19
-65	-81	89
46	-117	68
148	-76	-7
201	33	-147
191	153	-272
127	196	-360
32	110	-306
-62	-89	-108
-134	-313	37
-166	-444	100
-147	-411	104
-83	-221	77
16	35	102
123	233	133
214	294	39
266	225	-49
271	103	39
239	21	101
180	32	65
111	109	74
36	179	60
-43	164	34
-124	41	56
-195	-136	61
-242	-288	-58
-245	-338	-84
-204	-273	-110
-141	-133	-185
-87	6	-151
-70	81	-122
-92	80	-33
-134	32	-2
-161	-18	-8
-143	-37	-13
-78	-17	28
16	26	56
101	71	10
151	116	-36
162	161	-95
143	204	0
124	237	57
116	244	64
115	225	61
107	185	-24
81	149	-47
35	129	-54
-11	120	-99
-38	86	-96
-35	-8	-4
-8	-171	97
26	-358	112
53	-482	63
75	-474	22
97	-309	-65
131	-52	-151
165	178	-147
170	274	-116
117	193	-79
1	-8	-69
-152	-224	-108
-276	-334	-151
-319	-305	-177
-257	-168	-110
-111	-9	-4
51	92	46
172	117	45
222	93	-8
203	72	-41
155	77	8
99	86	16
40	62	9
-42	-18	5
-156	-134	5
-288	-232	45
-386	-253	67
-397	-184	80
-303	-63	36
-132	43	-36
40	86	-113
139	66	-151
132	25	-115
48	21	-55
-42	80	-2
-67	188	36
1	296	108
137	345	152
271	330	138
337	244	76
302	135	-25
175	24	-72
11	-68	-103
-143	-147	-125
-253	-213	-103
-305	-264	10
-300	-296	86
-248	-291	55
-156	-250	3
-35	-179	-106
87	-88	-106
175	14	-80
200	123	-51
144	228	79
32	313	96
-88	353	71
-152	335	34
-118	256	-109
11	137	-279
180	14	-268
309	-90	-188
323	-153	-169
199	-183	-59
-11	-186	22
-221	-173	26
-320	-135	37
-260	-62	-13
-68	39	-53
171	150	-27
341	224	-3
371	219	-36
254	122	-50
63	-47	49
-104	-227	56
-181	-352	46
-159	-378	12
-89	-308	-43
-39	-192	-43
-53	-92	-54
-118	-50	-26
-183	-63	-63
-197	-97	-69
-142	-99	-21
-47	-52	2
36	25	-7
66	91	-40
50	107	-7
25	79	10
37	39	9
104	46	22
188	116	22
242	223	17
221	294	31
135	265	56
34	131	32
-23	-53	12
-16	-186	51
18	-190	80
16	-54	72
-76	142	21
-237	290	-51
-392	301	-74
-444	174	-84
-336	-9	-91
-106	-140	-48
141	-138	35
294	-9	102
290	163	71
162	268	-36
6	236	-174
-91	77	-309
-93	-138	-332
-44	-314	-261
-20	-393	-86
-63	-384	63
-163	-325	161
-248	-263	221
-248	-221	166
-137	-177	113
42	-107	-1
211	-2	-159
302	110	-292
291	194	-273
210	209	-138
109	160	-14
27	74	57
-28	-4	16
-67	-44	28
-107	-53	30
-139	-45	-5
-142	-44	18
-100	-47	-13
-18	-43	-28
80	-16	-11
152	37	-22
180	91	19
164	119	112
122	114	182
75	100	173
29	111	116
-19	169	-17
-77	247	-190
-136	278	-340
-188	192	-312
-215	-37	-154
-222	-346	-24
-210	-616	45
-195	-709	55
-175	-570	85
-128	-248	-11
-36	113	-105
101	359	-109
254	406	-56
366	283	9
388	113	-34
312	22	-25
178	62	-47
60	183	-38
17	268	-15
51	215	8
119	14	20
145	-254	-3
90	-449	61
-29	-473	51
-150	-309	54
-188	-38	53
-125	225	14
2	391	4
110	435	-27
125	402	-75
34	340	-109
-114	283	-90
-245	225	-58
-303	144	-29
-288	29	-16
-245	-106	22
-209	-228	63
-185	-315	28
-140	-362	-40
-40	-390	-69
109	-413	-55
252	-423	-97
314	-393	-106
259	-295	-42
114	-129	-18
-32	68	9
-91	238	4
-33	331	-13
96	331	-25
197	266	-12
197	187	21
81	127	55
-83	98	74
-206	75	25
-233	35	32
-167	-28	60
-74	-98	-39
-16	-141	-82
-19	-137	-81
-54	-94	-123
-69	-40	-98
-31	-9	-11
49	-19	11
122	-56	-101
145	-85	-137
105	-77	-145
33	-28	-126
-23	40	-126
-32	92	-118
1	101	-40
39	64	-24
46	11	29
11	-30	39
-50	-33	68
-104	-1	127
-120	46	132
-99	89	74
-58	110	0
-27	119	4
-28	121	-13
-65	120	-72
-130	106	-54
-194	65	4
-215	-13	-8
-163	-110	-42
-18	-185	-52
199	-204	-74
423	-147	-108
566	-41	-77
558	61	-23
365	109	46
60	78	178
-237	-5	271
-408	-90	236
-372	-121	82
-165	-89	-86
104	-21	-298
301	27	-398
331	18	-391
204	-40	-276
6	-107	-116
-156	-123	-84
-210	-65	26
-162	43	49
-71	140	69
-10	171	104
-4	124	82
-31	38	95
-37	-18	77
6	-6	9
86	68	-57
144	153	-53
137	179	-67
51	120	-31
-67	6	-5
-158	-99	-7
-178	-131	9
-130	-88	14
-69	-15	55
-47	8	65
-84	-62	62
-147	-212	31
-182	-362	-34
-156	-426	-139
-68	-351	-233
30	-159	-205
91	65	-120
85	230	-37
33	279	15
-24	227	19
-46	123	27
-20	40	84
29	5	169
77	4	211
98	-2	144
96	-49	39
81	-135	4
60	-225	-50
32	-263	-139
-14	-219	-147
-71	-103	-109
-120	39	-39
-127	153	5
-76	192	0
23	159	-24
127	90	-46
183	37	-48
165	35	-81
81	86	-118
-18	155	-147
-81	196	-161
-80	183	-170
-32	117	-197
10	38	-114
4	-15	11
-68	-21	103
-179	-2	222
-271	8	199
-296	-28	201
-232	-107	160
-100	-189	-26
57	-219	-201
198	-162	-243
292	-34	-32
336	105	98
336	186	113
302	169	57
237	74	-40
148	-39	-170
39	-103	-325
-69	-90	-288
-159	-20	-185
-207	52	-100
-208	76	-112
-160	41	-41
-70	-20	10
39	-57	-27
151	-43	46
233	15	-4
254	71	22
207	82	34
105	28	4
-17	-66	23
-117	-150	1
-168	-177	66
-178	-129	71
-166	-34	72
-165	68	62
-180	141	59
-198	171	61
-195	170	38
-166	148	20
-125	110	-24
-108	50	-7
-137	-46	61
-188	-164	130
-205	-263	151
-123	-288	111
76	-209	53
340	-47	-27
569	124	-143
653	214	-238
536	169	-256
261	3	-190
-61	-192	-129
-305	-309	-115
-390	-270	-95
-324	-94	-49
-180	127	-4
-47	282	23
20	299	51
30	197	69
31	68	110
69	18	101
152	89	-4
242	239	-90
280	357	-127
222	333	-151
68	124	-156
-134	-217	-119
-319	-556	-36
-415	-752	20
-399	-721	3
-290	-475	-11
-136	-118	-35
12	210	-37
117	399	-12
171	408	-23
181	279	-43
160	99	-68
122	-39	-77
71	-95	-47
9	-74	14
-62	-28	79
-135	-12	121
-188	-46	133
-198	-114	87
-150	-167	37
-45	-169	-38
93	-111	-77
219	-21	-20
299	56	64
302	92	180
242	85	112
147	70	-40
54	77	-122
-3	120	-246
-25	170	-357
-26	186	-408
-32	137	-214
-62	29	-19
-110	-93	-77
-157	-173	-84
-181	-173	22
-172	-107	85
-139	-19	46
-101	28	43
-68	10	107
-41	-53	93
-11	-104	48
35	-81	37
95	41	-4
156	229	-1
184	405	-34
159	483	-44
82	418	70
-32	213	64
-144	-64	-11
-224	-330	-45
-255	-501	-139
-240	-531	-115
-191	-424	-5
-120	-224	102
-36	2	152
64	183	129
172	275	28
268	274	-177
325	203	-252
317	115	-221
234	61	-103
103	60	42
-34	105	57
-133	145	10
-168	130	-2
-148	25	-18
-100	-167	-27
-57	-391	-58
-36	-578	-38
-33	-655	19
-35	-595	9
-32	-399	-55
-28	-126	-192
-24	150	-165
-21	357	-87
-2	456	-74
49	438	-12
135	345	70
231	230	138
280	141	141
248	106	112
122	116	38
-54	130	22
-211	106	49
-287	19	86
-261	-111	65
-167	-237	-19
-63	-300	-49
-4	-265	-121
-3	-150	-188
-42	-2	-235
-83	114	-185
-92	150	-56
-68	108	49
-20	20	102
35	-59	15
86	-99	-108
120	-94	-126
123	-64	-61
88	-36	-40
12	-20	24
-80	-11	77
-144	8	58
-137	40	65
-49	79	33
86	103	-33
202	101	-84
237	81	-138
183	58	-158
81	55	-105
5	74	-56
1	97	-27
58	93	3
116	47	-5
104	-29	-16
1	-105	-21
-148	-142	-23
-255	-134	-13
-252	-95	-28
-145	-64	-14
-5	-78	-4
66	-137	-18
22	-209	7
-105	-242	24
-221	-192	58
-229	-46	47
-98	166	30
107	384	35
285	540	3
342	579	-6
265	473	-1
111	235	17
-26	-77	19
-81	-378	-15
-62	-575	-7
-24	-612	78
-28	-487	63
-94	-265	-44
-180	-57	-71
-230	53	-25
-198	37	16
-97	-62	-13
22	-154	-42
104	-163	-162
113	-74	-141
68	60	16
8	158	-50
-32	165	-6
-46	97	78
-50	17	91
-68	-6	49
-106	45	-171
-140	122	-333
-141	154	-456
-82	105	-455
30	3	-267
166	-62	-33
281	-21	112
346	136	113
346	325	114
285	424	104
180	353	51
52	127	57
-61	-140	75
-143	-321	51
-176	-332	-28
-160	-196	-66
-116	-18	-35
-77	97	-68
-71	93	-66
-117	3	-39
-202	-100	3
-285	-151	24
-321	-138	2
-279	-97	22
-139	-63	11
69	-51	16
302	-29	31
493	32	20
569	135	18
517	233	7
337	265	1
91	194	-42
-139	47	-52
-285	-99	-17
-318	-166	-13
-250	-120	-3
-135	5	14
-29	135	7
36	200	8
61	177	10
68	94	-11
78	-3	-4
90	-77	-10
86	-126	-39
42	-164	-38
-41	-195	-13
-147	-205	-30
-232	-166	-52
-262	-70	-19
-233	47	-1
-154	127	4
-59	117	29
17	11	44
57	-140	71
62	-247	74
46	-253	39
33	-151	3
42	-2	-44
86	106	-120
153	119	-197
214	41	-209
237	-62	-186
183	-126	-141
51	-106	-64
-126	-21	5
-290	70	31
-371	115	41
-335	94	64
-200	32	45
-22	-25	-10
125	-48	-62
192	-33	-90
183	-5	-64
132	8	-67
91	4	-116
89	5	-135
115	38	-78
137	117	45
121	217	154
60	287	279
-23	275	350
-97	158	333
-134	-31	186
-134	-227	-113
-116	-345	-339
-107	-343	-530
-119	-225	-647
-149	-52	-501
-172	88	-267
-169	140	-141
-126	95	-34
-46	2	102
59	-69	145
172	-65	129
266	14	113
324	119	138
325	183	130
269	168	87
172	84	49
56	-17	-32
-46	-67	-33
-121	-42	8
-163	32	-3
-185	103	1
-189	113	10
-174	51	-17
-130	-57	-14
-50	-161	32
58	-218	51
169	-218	79
241	-176	81
254	-114	26
202	-37	4
101	58	2
-16	179	-20
-133	301	-63
-227	379	-84
-291	358	-92
-315	218	-85
-288	-8	-44
-214	-249	-23
-117	-416	-12
-36	-452	-31
-2	-358	-67
-19	-187	-60
-48	-14	-65
-37	108	-23
56	164	69
215	169	121
369	149	91
431	115	60
342	64	56
131	-13	-25
-113	-109	-81
-279	-196	-136
-300	-238	-183
-193	-201	-147
-47	-94	-105
40	45	-69
22	161	-37
-72	206	-30
-156	169	-71
-152	76	-117
-44	-29	-107
115	-106	-72
236	-137	-38
254	-134	-12
169	-112	13
36	-88	61
-69	-65	101
-103	-37	70
-74	0	39
-28	43	58
-1	76	42
-5	90	-16
-10	82	-77
14	65	-122
78	58	-94
144	68	-5
170	96	-3
132	121	17
44	129	83
-42	110	77
-89	70	82
-85	26	109
-66	-11	69
-81	-41	-89
-142	-78	-236
-226	-125	-360
-267	-179	-375
-221	-216	-170
-87	-205	52
77	-124	228
193	17	224
213	174	85
151	287	-117
67	305	-239
26	210	-272
56	36	-267
122	-150	-78
163	-279	1
127	-313	90
18	-254	124
-115	-149	86
-212	-50	96
-232	12	32
-184	41	34
-108	81	20
-45	159	32
-11	278	59
18	391	87
66	424	102
150	325	86
244	95	56
310	-187	-24
313	-417	-35
244	-498	-45
125	-411	-88
-7	-230	-105
-125	-59	-119
-218	2	-72
-282	-56	-43
-325	-170	-64
-350	-237	-79
-345	-179	-81
-308	-7	-41
-239	201	-38
-148	339	-23
-42	349	24
72	247	61
192	115	50
310	39	42
389	48	56
396	109	13
311	143	-17
147	105	-62
-48	-4	-110
-194	-119	-123
-242	-166	-96
-183	-110	-8
-65	17	60
32	134	76
57	171	-30
-6	106	-147
-110	-22	-164
-184	-136	-175
-177	-177	-126
-85	-126	-67
47	-26	-95
159	56	-81
202	65	-33
171	-11	45
89	-138	59
7	-259	19
-45	-314	36
-57	-278	26
-36	-160	17
2	0	36
46	149	74
85	244	85
110	268	44
117	233	-43
100	165	-128
66	98	-164
28	48	-99
-1	17	-34
-19	-14	-49
-31	-58	-3
-56	-114	-12
-104	-164	-40
-161	-180	-23
-197	-155	17
-188	-96	71
-123	-41	161
-22	-24	209
72	-52	179
123	-100	-3
117	-111	-154
72	-39	-138
29	127	-240
16	345	-180
41	534	-135
86	588	-98
118	452	-78
117	139	-162
83	-265	-91
35	-635	-13
-10	-841	65
-47	-822	49
-93	-589	-29
-156	-233	-28
-229	117	-12
-285	362	-43
-285	451	29
-204	414	144
-59	313	160
91	218	113
184	158	17
170	124	-68
52	86	-148
-110	27	-169
-241	-46	-91
-277	-105	-5
-210	-123	41
-69	-108	65
78	-83	75
175	-80	41
210	-101	-14
190	-121	-65
156	-97	-64
137	-7	-27
151	126	21
194	244	47
245	287	30
279	225	40
276	87	16
224	-59	-35
117	-148	-106
-22	-157	-195
-166	-114	-227
-270	-78	-113
-298	-85	-31
-244	-129	-32
-132	-168	6
-16	-150	-40
50	-55	-40
40	85	56
-25	209	123
-100	265	134
-129	236	113
-91	148	66
0	56	-11
90	-2	-126
126	-21	-229
85	-24	-246
-28	-46	-138
-163	-98	-46
-268	-170	-25
-312	-229	37
-286	-250	40
-214	-224	42
-116	-156	76
-16	-62	149
84	43	152
175	148	13
252	225	-121
302	244	-194
314	190	-186
277	55	-165
199	-114	-93
102	-248	-11
6	-286	9
-68	-203	-47
-116	-45	-58
-141	104	-17
-150	169	8
-147	125	28
-128	18	-37
-96	-77	-34
-46	-87	-55
10	0	-99
65	137	-3
107	257	2
130	300	-59
135	260	-34
123	162	-56
97	50	-35
52	-53	87
-6	-147	205
-80	-229	238
-158	-291	117
-218	-305	-39
-251	-249	-121
-242	-127	-159
-195	21	-190
-129	147	-99
-56	207	76
10	202	96
74	163	22
138	121	21
212	97	-4
299	74	-144
366	33	-240
387	-34	-202
326	-107	-125
175	-147	-14
-34	-128	84
-244	-60	85
-392	14	68
-437	49	-36
-377	25	-140
-248	-37	-162
-108	-88	-154
3	-91	-21
74	-39	91
121	32	119
172	88	149
234	103	167
280	90	167
283	83	95
208	97	-23
69	119	-107
-92	104	-192
-213	10	-187
-255	-165	-54
-215	-368	101
-126	-509	188
-40	-517	111
15	-370	-18
29	-117	-104
26	138	-160
29	308	-182
46	342	-172
68	272	-109
71	163	-11
48	89	8
-4	81	-16
-60	115	-17
-108	138	-52
-137	93	-71
-157	-28	-52
-175	-195	-18
-189	-334	-28
-188	-390	-55
-153	-330	-42
-78	-179	-62
28	3	-84
140	158	-82
229	240	-11
271	247	59
267	195	87
226	124	109
157	56	116
79	3	158
0	-38	99
-69	-74	60
-115	-97	87
-127	-99	12
-111	-62	-65
-84	15	-135
-63	122	-165
-66	231	-150
-89	305	-121
-107	321	-64
-94	278	-41
-31	198	-59
68	112	-82
171	38	-48
234	-16	-25
226	-72	-43
152	-149	-78
42	-251	-90
-52	-354	-36
-101	-421	2
-85	-416	15
-23	-329	-35
49	-192	-3
101	-56	17
111	29	-9
84	54	-65
33	35	-95
-11	13	19
-30	21	-19
-15	59	-32
28	101	22
80	111	-24
115	79	-11
107	23	-2
46	-13	-24
-65	5	-1
-204	70	20
-321	150	27
-379	190	74
-350	165	52
-245	89	21
-100	3	9
27	-39	-10
109	-28	8
137	15	27
141	45	18
159	30	-82
203	-26	-163
257	-86	-152
270	-102	-61
205	-60	16
46	13	24
-156	66	10
-325	56	-46
-402	-23	-94
-350	-135	-42
-212	-216	45
-60	-233	34
32	-178	0
30	-94	-56
-48	-22	-136
-139	13	-178
-174	21	-188
-111	33	-123
42	74	-44
234	144	26
388	215	71
439	249	81
358	224	72
170	138	64
-60	19	59
-242	-103	52
-311	-194	26
-252	-242	12
-108	-237	46
36	-179	46
113	-80	36
97	40	45
21	149	21
-45	210	-19
-40	204	-77
44	139	-171
170	49	-128
260	-31	-42
258	-78	-15
156	-91	54
-11	-97	-47
-173	-117	-179
-274	-148	-232
-295	-159	-263
-241	-114	-254
-145	1	-189
-35	149	-65
68	256	18
153	254	66
202	121	98
211	-95	231
175	-298	234
111	-387	96
41	-322	-48
-12	-143	-187
-36	51	-190
-39	162	-179
-39	147	-94
-48	35	-21
-70	-87	47
-94	-137	145
-104	-79	113
-96	57	94
-79	198	54
-59	274	-57
-47	256	-134
-30	166	-107
-1	49	-28
39	-38	-18
75	-77	-16
79	-70	-1
34	-44	-45
-55	-27	-61
-152	-27	37
-215	-43	56
-211	-59	24
-141	-63	69
-40	-49	20
46	-16	-7
85	26	-4
74	65	-30
45	93	-59
45	112	-59
98	128	0
191	150	27
280	174	25
318	185	38
260	158	56
115	72	58
-68	-63	105
-231	-218	115
-304	-333	57
-271	-362	-26
-157	-296	-172
-7	-160	-255
119	-6	-302
198	112	-241
230	174	-133
229	195	-92
213	204	-46
175	215	-28
105	224	2
-10	194	47
-144	101	90
-255	-56	105
-300	-245	122
-264	-408	91
-190	-495	-26
-127	-486	-135
-129	-393	-205
-191	-250	-162
-256	-92	-124
-250	56	-211
-122	182	-262
102	274	-160
338	332	-4
484	345	141
478	324	260
326	266	298
106	186	194
-91	93	40
-201	-16	-129
-217	-135	-300
-184	-258	-332
-150	-357	-214
-141	-404	15
-150	-376	168
-142	-268	124
-98	-117	72
-19	31	54
69	132	-23
139	171	-14
180	159	64
197	126	25
203	105	-3
204	112	-30
183	139	-80
117	171	-92
3	188	-96
-145	170	-32
-279	111	19
-347	16	58
-325	-102	89
-223	-209	122
-88	-265	120
30	-238	62
97	-122	-3
116	41	3
113	189	2
121	250	-99
149	201	-61
184	66	-35
196	-80	-51
160	-170	-62
77	-170	-150
-39	-106	-128
-147	-40	-64
-221	-23	-57
-245	-67	-125
-221	-135	-210
-160	-167	-160
-74	-127	-53
24	-24	51
119	91	144
191	166	76
230	174	48
234	132	51
212	91	-47
183	78	-63
150	103	-51
103	132	-40
17	129	-10
-116	67	8
-281	-41	80
-433	-160	87
-500	-246	48
-442	-263	51
-267	-214	-15
-44	-102	-141
133	35	-226
204	171	-181
165	276	-108
79	322	-72
27	300	-69
61	218	-74
164	109	-27
262	9	-25
277	-55	-56
175	-86	-60
0	-111	-44
-166	-164	-26
-229	-264	64
-170	-387	172
-37	-466	179
85	-434	76
124	-257	-38
78	33	-118
2	349	-182
-30	578	-173
17	638	-179
118	517	-125
198	273	22
189	7	124
83	-192	163
-66	-285	181
-173	-287	201
-178	-249	176
-99	-216	108
-14	-204	39
4	-196	-78
-78	-174	-176
-200	-118	-203
-259	-47	-176
-183	23	-65
27	80	-19
269	129	-38
416	185	-30
381	243	-91
186	272	-180
-61	227	-92
-236	84	4
-261	-132	33
-166	-334	81
-46	-429	66
2	-361	20
-52	-156	-91
-161	78	-58
-237	215	24
-226	193	11
-134	41	20
-28	-131	-6
25	-211	38
14	-139	36
-16	35	23
5	209	26
116	279	12
280	223	26
407	84	-74
407	-43	-183
259	-90	-246
13	-56	-282
-213	1	-178
-325	15	-27
-296	-43	18
-168	-139	19
-28	-206	31
56	-178	28
69	-51	11
42	128	23
28	286	1
51	359	-68
106	334	26
156	233	16
164	106	-24
115	-2	45
22	-72	8
-86	-108	-4
-182	-122	-31
-241	-123	8
-253	-116	28
-213	-101	10
-128	-74	5
-22	-35	-27
71	12	-30
120	62	-27
115	115	20
74	164	54
37	203	87
37	223	58
82	215	-41
138	171	-100
155	88	-156
97	-28	-214
-34	-159	-190
-195	-280	-122
-321	-372	-83
-362	-420	-42
-308	-432	-29
-179	-416	-42
-23	-376	-48
125	-305	-2
248	-190	43
340	-24	65
392	173	101
395	356	116
337	461	87
216	450	16
63	325	-32
-87	145	-68
-198	-21	-8
-245	-111	168
-231	-117	225
-176	-75	139
-111	-33	-7
-63	-27	-156
-42	-47	-252
-48	-64	-279
-71	-42	-186
-96	17	-32
-95	83	26
-57	119	-32
19	101	-134
111	48	-201
178	2	-179
175	-2	-105
85	41	-48
-74	95	-4
-247	113	-9
-364	61	10
-378	-49	45
-279	-174	18
-103	-257	3
86	-263	18
236	-203	-8
301	-103	-50
291	-9	-29
234	56	14
170	90	77
133	109	126
133	122	129
157	132	147
167	124	102
132	83	32
36	9	-33
-106	-80	-89
-245	-152	-119
-329	-181	-135
-325	-159	-32
-241	-94	-14
-113	-17	-126
2	48	-166
65	83	-109
75	88	-90
52	75	-147
37	58	-68
52	46	26
94	36	54
136	28	67
151	16	76
120	10	82
51	17	84
-31	38	99
-105	61	85
-149	66	78
-156	35	34
-130	-36	-28
-85	-127	-97
-32	-192	-173
17	-192	-147
51	-103	-100
76	52	-141
91	215	-165
107	318	-159
118	301	-97
117	171	-13
91	-27	10
30	-210	13
-54	-303	-7
-149	-268	-22
-223	-139	-46
-253	14	-53
-232	110	-35
-162	106	-9
-59	23	55
52	-77	126
151	-118	134
211	-68	77
214	43	-9
162	141	-64
74	143	-67
-12	27	-11
-51	-159	98
-32	-311	161
22	-329	117
57	-186	-15
22	54	-128
-87	265	-183
-218	334	-150
-289	227	-56
-234	15	-4
-50	-166	-8
178	-199	-71
352	-60	-120
386	168	-115
276	345	-97
103	364	-122
-47	203	-127
-110	-51	-74
-103	-260	16
-87	-322	38
-123	-225	2
-212	-52	41
-297	70	56
-306	65	8
-200	-66	3
-22	-239	38
138	-340	68
200	-304	72
136	-137	82
5	75	115
-102	236	64
-110	279	-36
-10	215	-78
143	90	-107
262	-23	-100
288	-77	-36
219	-76	-6
94	-48	-74
-29	-31	-119
-116	-36	-142
-156	-48	-165
-159	-41	-95
-139	-4	-70
-96	53	-64
-33	103	-28
42	116	-55
107	92	-107
137	51	-21
117	29	56
59	48	62
-10	94	149
-57	130	104
-70	113	-11
-62	20	-104
-47	-126	-139
-45	-270	-112
-53	-346	-88
-63	-311	-20
-59	-161	61
-42	59	109
-24	274	61
-18	415	13
-27	432	17
-40	327	30
-40	132	1
-18	-80	-38
19	-246	-12
54	-313	31
76	-273	-12
82	-162	-92
90	-33	-77
119	51	-65
172	69	-49
229	32	-45
238	-17	-18
166	-32	-1
10	0	-15
-188	52	-8
-347	80	-35
-389	46	0
-291	-41	65
-85	-131	138
143	-163	131
299	-98	23
326	43	-97
229	188	-143
63	259	-157
-104	212	-135
-222	71	-39
-281	-91	4
-296	-194	-13
-272	-200	-97
-212	-130	-114
-108	-43	-62
35	3	-23
175	-1	16
262	-19	65
245	-3	82
123	66	32
-51	155	-25
-193	188	-107
-231	103	-189
-145	-103	-227
16	-352	-181
170	-527	-101
242	-530	-27
204	-341	23
94	-40	58
-28	250	112
-99	412	130
-93	412	84
-28	295	17
60	150	2
127	60	26
151	44	66
130	67	117
72	71	158
-4	26	154
-85	-55	60
-159	-123	-52
-221	-139	-160
-255	-98	-224
-255	-35	-208
-213	0	-195
-131	-11	-140
-18	-54	-102
106	-82	-145
216	-51	-181
284	51	-78
295	198	44
258	340	56
190	432	85
116	451	51
50	388	38
-14	243	78
-95	22	43
-203	-253	0
-319	-536	-13
-405	-745	31
-415	-813	68
-325	-696	0
-163	-426	-77
20	-109	-132
162	137	-189
225	228	-229
222	162	-223
194	14	-40
183	-102	81
201	-115	63
225	-21	123
216	110	76
170	198	24
92	202	8
27	138	21
4	78	33
19	77	-10
30	145	15
-9	238	3
-110	282	-6
-236	241	13
-307	125	-23
-269	1	-144
-112	-66	-130
100	-46	-75
263	31	-175
299	98	-201
183	97	-89
-34	10	-13
-257	-123	45
-404	-248	115
-434	-305	87
-358	-286	53
-227	-214	4
-79	-122	-56
56	-40	-91
171	26	-106
265	84	-83
329	140	-15
346	191	51
306	223	100
216	229	183
107	210	217
6	179	225
-59	135	180
-93	79	2
-111	-2	-171
-140	-109	-316
-182	-212	-409
-221	-274	-306
-228	-253	-127
-178	-144	-26
-81	12	44
41	148	41
149	197	6
211	143	-28
229	20	-74
212	-95	-74
184	-136	-78
147	-85	-85
87	25	-76
-15	121	-33
-160	145	49
-321	81	114
-450	-32	141
-494	-136	169
-428	-187	120
-270	-182	48
-67	-165	36
122	-175	-23
254	-235	-121
312	-316	-113
312	-359	-33
271	-312	4
216	-158	57
150	58	59
75	258	2
-2	362	-48
-65	340	-92
-96	210	-70
-80	43	-21
-18	-83	-26
61	-123	-72
128	-75	-172
147	16	-167
104	96	-50
16	122	-52
-84	90	-68
-145	27	-27
-140	-25	87
-68	-34	119
31	8	-10
112	90	-100
129	178	-147
72	237	-211
-27	248	-219
-126	209	-176
-177	135	-53
-175	48	69
-140	-19	82
-104	-57	91
-87	-63	95
-76	-48	119
-46	-34	87
25	-33	5
126	-49	-56
216	-74	-70
253	-96	-82
210	-104	-32
107	-97	61
-8	-84	9
-87	-69	11
-111	-64	42
-95	-63	1
-78	-66	-42
-85	-67	-47
-117	-59	60
-142	-39	74
-119	-1	81
-29	53	72
107	118	-34
245	170	-151
341	188	-238
366	160	-246
314	91	-254
208	13	-132
67	-40	49
-84	-52	93
-228	-38	118
-342	-34	172
-410	-71	222
-420	-153	248
-374	-233	210
-289	-260	101
-195	-192	-74
-116	-49	-247
-53	101	-341
-2	181	-339
52	138	-272
111	-2	-155
162	-163	-60
184	-244	-34
169	-192	1
120	-21	24
65	196	40
35	356	28
46	388	9
90	274	61
149	52	64
192	-204	55
203	-416	65
178	-516	74
130	-471	83
74	-291	69
19	-32	17
-24	221	-102
-54	377	-174
-69	385	-158
-70	259	-147
-60	77	-140
-47	-59	-37
-40	-87	45
-46	-11	24
-65	96	39
-89	138	70
-109	67	58
-117	-87	47
-110	-232	26
-93	-273	-18
-71	-177	-102
-47	13	-230
-22	192	-263
7	274	-217
39	233	-156
67	117	-64
85	14	-61
79	-12	-42
44	31	108
-16	81	279
-93	71	394
-174	-31	350
-243	-186	222
-271	-319	76
-244	-348	-195
-149	-253	-403
9	-77	-447
195	105	-371
358	224	-173
452	259	-35
436	230	22
318	182	49
144	145	37
-20	122	79
-116	92	37
-117	39	16
-49	-25	20
33	-76	-97
72	-77	-97
44	-29	-2
-37	43	41
-133	98	-22
-195	106	-18
-210	77	40
-189	35	66
-163	17	87
-148	23	116
-135	23	145
-96	-29	91
3	-158	26
153	-334	-11
309	-492	-67
405	-563	-154
383	-502	-166
239	-340	-91
25	-135	-22
-177	36	14
-298	137	-18
-306	179	-97
-241	197	-115
-162	229	-98
-121	272	-108
-117	299	-161
-110	271	-155
-43	174	-104
104	31	-76
288	-111	-18
428	-201	41
436	-211	40
279	-151	42
4	-60	62
-287	16	74
-481	43	78
-509	14	56
-386	-53	72
-191	-129	80
-22	-175	109
59	-167	112
52	-95	12
14	25	-45
10	161	-62
84	268	-129
214	317	-124
344	295	-58
399	213	-1
333	112	-31
167	27	-163
-44	-17	-178
-213	-23	-181
-281	-11	-130
-242	-6	-46
-132	-27	-9
-18	-63	7
46	-100	-22
45	-111	26
6	-88	21
-31	-39	-18
-26	16	-25
23	51	14
95	58	105
144	38	-9
144	9	-105
86	-13	-55
-8	-21	-99
-100	-16	-21
-162	-14	99
-174	-25	130
-144	-51	66
-88	-84	1
-22	-109	29
36	-112	24
82	-86	20
110	-35	-51
124	23	-9
131	74	-6
136	104	-72
141	114	-113
140	111	-183
122	105	-157
69	100	-184
-15	95	-108
-122	83	-4
-222	54	-1
-279	10	45
-279	-46	57
-221	-106	60
-123	-163	13
-20	-211	-33
64	-248	-62
123	-264	-56
156	-253	32
164	-201	127
151	-113	205
107	-8	222
42	84	144
-31	139	8
-85	149	-185
-96	126	-353
-61	97	-362
-7	86	-224
21	97	-57
-4	119	26
-83	128	42
-173	110	-12
-215	69	-64
-174	15	-36
-53	-36	24
90	-82	141
190	-117	213
201	-144	209
132	-155	140
34	-135	-6
-39	-79	-182
-64	1	-276
-60	77	-264
-68	122	-241
-120	123	-97
-198	88	35
-251	41	26
-221	-5	15
-88	-48	61
100	-106	127
266	-184	103
336	-261	82
291	-292	69
167	-233	-64
39	-72	-181
-40	145	-269
-59	337	-281
-51	414	-154
-62	341	-84
-109	158	4
-169	-45	42
-186	-173	26
-127	-170	28
2	-65	-15
154	68	11
261	150	81
288	145	150
248	76	151
194	-1	79
182	-27	-19
231	14	-106
309	101	-94
342	185	8
269	227	-12
69	211	-84
-217	147	-89
-509	50	-84
-707	-70	-55
-762	-210	-88
-680	-353	-41
-503	-460	20
-305	-492	-53
-131	-416	-10
1	-241	62
105	-24	32
204	164	43
310	274	20
407	298	-18
453	264	-9
415	211	5
288	150	-11
113	60	-52
-42	-77	-80
-116	-249	-60
-85	-393	-43
18	-430	-57
116	-309	-44
136	-57	-49
51	218	-22
-107	395	-1
-255	398	9
-312	250	44
-245	54	43
-83	-76	31
99	-86	14
221	-16	-3
245	41	-51
193	12	-92
113	-109	-46
54	-243	7
29	-292	68
10	-200	116
-35	-4	180
-123	197	140
-232	299	-124
-307	260	-281
-308	128	-351
-223	-6	-331
-87	-64	-223
44	-34	-142
122	33	-3
140	65	42
114	20	-3
79	-81	14
49	-178	43
23	-200	100
-10	-135	212
-51	-15	228
-88	96	164
-97	141	28
-68	110	-122
-21	29	-175
13	-48	-189
7	-90	-137
-32	-87	-38
-58	-54	77
-30	-16	137
75	20	130
210	53	57
291	99	-161
256	145	-311
86	174	-226
-141	159	-167
-312	79	-128
-333	-54	-64
-185	-206	-13
57	-320	-3
275	-357	-6
366	-303	60
306	-179	32
151	-31	21
3	96	-4
-65	174	-29
-34	205	12
45	207	30
101	195	8
86	171	-40
0	131	-37
-106	68	-35
-180	-7	15
-193	-64	69
-159	-71	94
-116	-14	134
-93	85	187
-95	174	152
-94	203	13
-56	145	-71
28	27	-86
136	-102	-145
214	-187	-192
219	-207	-128
130	-185	-90
-23	-160	-91
-182	-164	-76
-281	-195	-19
-300	-228	-20
-243	-233	-12
-153	-196	-30
-75	-134	-45
-22	-64	-51
8	-5	-139
44	60	-121
100	136	-69
170	218	11
225	276	97
234	268	109
184	180	112
94	37	54
-1	-93	-48
-69	-153	-155
-96	-125	-182
-94	-47	-97
-86	7	40
-91	-9	147
-105	-85	175
-115	-152	166
-95	-137	107
-35	-16	-53
55	165	-185
151	305	-196
226	327	-142
269	219	-76
280	60	-18
262	-44	-3
216	-30	-38
138	81	-32
28	192	-7
-104	201	12
-228	64	21
-310	-158	8
-325	-355	-2
-274	-423	-80
-189	-334	-160
-111	-154	-125
-68	11	-92
-70	80	-69
-89	45	-20
-93	-27	6
-60	-57	13
-4	-4	-14
49	106	-6
72	209	46
57	237	49
29	178	50
16	72	89
35	-19	99
79	-60	66
110	-58	28
99	-51	-47
39	-76	-116
-34	-129	-114
-78	-178	-70
-55	-177	13
30	-109	94
136	2	118
210	105	95
216	153	-28
167	137	-142
94	90	-230
42	49	-313
26	47	-290
35	76	-202
37	106	-84
15	103	-12
-30	58	26
-76	-12	51
-96	-77	99
-92	-107	181
-86	-97	199
-106	-46	133
-163	24	7
-241	93	-84
-308	128	-209
-325	89	-308
-277	-47	-242
-170	-273	-93
-23	-517	94
135	-666	271
280	-611	361
386	-316	285
425	130	130
373	560	-19
234	785	-184
36	712	-275
-144	387	-273
-240	-8	-195
-215	-273	-87
-94	-297	-30
48	-117	12
133	109	40
120	221	42
31	144	24
-70	-53	-27
-117	-230	-75
-91	-268	-119
-26	-159	-121
20	4	-105
4	95	-85
-62	45	-25
-133	-98	76
-140	-224	112
-59	-227	22
77	-91	-45
210	106	-117
269	252	-153
234	275	-114
128	197	-47
1	97	52
-95	48	126
-137	63	116
-136	89	89
-121	54	64
-109	-58	4
-110	-192	-4
-120	-261	5
-133	-207	-7
-139	-55	0
-136	90	9
-117	127	31
-75	23	68
-12	-155	64
58	-286	38
111	-272	18
127	-115	-9
98	89	-19
44	210	-23
11	174	-4
24	17	-42
93	-151	-147
180	-207	-257
234	-108	-319
205	97	-259
86	301	-162
-79	409	-71
-224	395	-8
-277	299	39
-217	183	64
-77	85	53
78	-8	60
172	-121	60
172	-254	2
88	-353	-52
-32	-345	-63
-125	-197	13
-150	38	105
-99	236	109
2	270	63
111	93	28
191	-214	-12
229	-487	-16
221	-562	3
180	-384	-58
117	-41	-115
40	289	-120
-39	438	-111
-113	351	-171
-164	100	-202
-185	-166	-96
-170	-313	1
-130	-308	19
-87	-208	14
-59	-121	36
-58	-107	54
-82	-148	63
-113	-167	101
-132	-89	140
-129	92	103
-100	310	-30
-55	458	-182
-5	464	-253
40	335	-188
81	145	-134
120	-1	-42
159	-49	83
195	-5	54
216	68	70
211	106	21
166	87	-43
81	31	-61
-28	-7	-77
-137	4	-4
-206	53	49
-217	101	100
-164	94	123
-70	21	59
24	-88	-62
89	-170	-80
111	-178	-162
105	-100	-262
93	22	-181
94	126	-64
100	163	76
85	113	112
22	7	91
-88	-111	19
-213	-195	-82
-304	-229	-138
-319	-218	-156
-259	-179	-52
-164	-133	-10
-89	-84	56
-63	-35	124
-66	13	69
-41	55	-51
65	82	-99
254	91	-22
462	94	-20
603	112	25
580	157	103
393	223	181
105	268	172
-170	244	46
-336	114	-118
-354	-115	-245
-271	-379	-223
-166	-582	-156
-103	-637	-50
-102	-510	-32
-135	-254	-2
-156	28	17
-133	215	-28
-76	252	-10
-10	149	6
41	1	11
75	-88	-16
110	-57	-49
155	78	-64
196	235	-30
200	316	12
135	268	43
3	110	27
-153	-81	-3
-264	-218	-14
-289	-252	-67
-218	-196	-74
-98	-103	-63
6	-28	-18
50	12	22
39	35	-18
16	77	13
31	150	1
107	228	-51
219	260	15
311	209	63
325	90	133
245	-39	119
104	-109	-60
-45	-80	-174
-149	21	-164
-187	115	-170
-172	123	-85
-140	15	61
-119	-156	41
-116	-292	-23
-121	-306	-86
-111	-175	-177
-78	39	-238
-26	225	-202
20	294	-59
49	226	70
61	76	136
65	-62	155
79	-124	115
101	-104	84
123	-54	42
119	-35	-69
71	-69	-141
-16	-125	-290
-118	-136	-338
-194	-66	-176
-210	70	-45
-154	206	102
-41	261	151
94	193	168
211	30	211
283	-143	162
301	-249	50
260	-238	-56
175	-131	-93
64	10	-84
-55	120	-36
-165	168	-8
-244	166	0
-280	149	44
-273	150	17
-227	174	-63
-151	201	-125
-56	205	-104
44	163	-133
128	70	-145
184	-65	-115
194	-218	-118
159	-360	22
86	-453	121
3	-460	174
-68	-384	172
-111	-236	72
-125	-81	-4
-120	20	-80
-109	20	-135
-95	-65	-88
-71	-174	27
-34	-226	86
23	-167	65
83	-11	16
120	171	-6
120	299	-88
78	318	-145
11	244	-95
-55	141	-2
-100	80	52
-116	88	9
-106	135	-8
-82	163	-7
-54	125	-51
-28	24	-86
1	-91	-106
28	-155	-72
47	-135	-24
52	-51	-37
45	41	-133
34	84	-126
33	58	-28
50	-6	-24
81	-47	24
100	-21	64
90	72	51
42	182	45
-25	241	-44
-81	205	-95
-97	77	-143
-66	-89	-168
-15	-226	-116
25	-283	-89
28	-263	-15
-5	-196	61
-43	-131	72
-54	-103	9
-17	-110	16
52	-127	65
120	-121	43
143	-81	38
111	-16	19
34	42	-14
-54	68	-65
-120	55	-64
-151	15	-46
-145	-25	-38
-123	-46	-4
-95	-37	31
-60	-1	62
-22	53	57
25	130	18
76	224	-63
122	324	-104
154	404	-86
172	431	-23
182	391	51
179	290	87
158	174	122
109	85	180
33	49	161
-59	39	54
-143	-1	-55
-201	-124	-149
-227	-334	-249
-229	-562	-341
-226	-700	-309
-222	-664	-176
-206	-449	-140
-158	-149	-165
-64	105	-112
54	204	-23
162	137	86
206	-18	141
182	-132	137
114	-127	121
61	-7	98
72	148	57
148	233	16
241	197	30
268	79	8
183	-34	-70
-6	-61	-85
-229	9	-107
-389	118	-139
-422	178	-62
-336	136	7
-191	11	46
-71	-118	36
-17	-169	-7
-9	-119	4
6	-11	1
78	65	12
202	49	82
323	-60	87
363	-195	-14
266	-263	-80
60	-211	-133
-184	-58	-181
-364	110	-222
-415	206	-242
-325	177	-111
-156	53	-3
27	-79	50
166	-129	98
242	-48	62
270	134	37
268	335	10
245	457	1
205	449	-9
138	317	-6
54	122	31
-28	-60	15
-88	-183	-13
-117	-234	16
-117	-244	19
-113	-240	-52
-114	-240	-66
-123	-233	-42
-125	-196	-87
-107	-122	-137
-68	-19	-1
-18	77	92
27	134	-21
58	140	-47
79	106	-1
97	60	-12
120	27	-18
138	10	-4
139	-12	-50
109	-55	-93
52	-121	-109
-4	-183	-92
-38	-192	-71
-28	-122	-49
9	20	-47
41	189	-52
35	309	-25
-19	331	20
-98	240	147
-161	84	231
-173	-72	209
-130	-162	130
-62	-155	15
-13	-66	-107
-12	56	-229
-56	160	-257
-116	203	-134
-151	166	40
-135	53	82
-83	-110	-21
-19	-273	-76
28	-390	-103
46	-417	-142
54	-333	-113
71	-166	-78
107	24	-24
156	166	16
196	207	30
214	147	34
203	30	17
170	-70	24
116	-105	-14
31	-61	-50
-96	22	-26
-262	96	21
-431	118	81
-540	85	127
-531	23	91
-378	-40	18
-127	-83	-35
140	-108	-96
337	-122	-152
401	-125	-176
346	-98	-78
234	-23	59
129	90	141
68	206	140
38	267	43
-4	233	-76
-84	110	-114
-186	-47	-110
-259	-163	-122
-255	-185	-134
-148	-113	-113
27	-1	-60
197	80	-97
301	93	-114
306	47	-76
242	-5	-5
154	-16	85
93	27	147
71	89	155
65	117	104
44	74	38
-18	-31	-91
-107	-148	-214
-191	-218	-241
-234	-218	-172
-221	-164	-94
-160	-92	-33
-85	-31	38
-24	22	76
19	98	57
49	224	-11
85	382	-16
125	505	76
161	527	97
164	390	64
117	117	61
25	-199	41
-89	-448	69
-183	-541	56
-232	-475	1
-225	-312	-25
-172	-142	-142
-97	-41	-232
-21	-20	-209
44	-43	-126
95	-57	-86
128	-35	-104
142	17	-4
131	65	94
98	80	129
49	58	118
-4	22	-1
-45	3	-115
-74	9	-71
-87	25	1
-91	26	-80
-88	-9	-66
-75	-70	9
-47	-129	44
-10	-148	18
31	-112	-106
62	-38	-117
75	50	-104
68	126	-108
53	183	-92
42	225	-42
44	251	9
57	252	-1
76	211	5
87	125	14
86	3	22
64	-114	41
27	-192	42
-21	-204	37
-71	-163	26
-117	-95	39
-148	-30	42
-163	24	17
-172	81	9
-185	147	-17
-205	215	-40
-218	252	-36
-198	215	-32
-120	95	-33
23	-85	-1
200	-254	14
350	-359	-27
411	-368	-27
346	-301	-30
182	-214	-128
-26	-144	-173
-191	-109	-149
-264	-78	-156
-246	-22	-120
-172	61	-6
-95	145	105
-44	180	123
-20	144	124
5	51	93
46	-41	-10
100	-83	-104
141	-47	-155
143	28	-103
107	83	-30
52	67	17
12	-24	26
0	-136	8
8	-202	0
4	-170	-80
-31	-41	-175
-85	124	-203
-122	256	-120
-107	298	-11
-28	243	34
83	126	52
172	10	20
200	-61	41
155	-75	91
69	-40	66
-6	8	16
-40	41	-26
-31	40	23
-7	7	98
-1	-45	138
-24	-96	175
-69	-118	143
-106	-102	68
-118	-51	-2
-100	17	-77
-63	79	-260
-22	121	-387
22	148	-217
67	174	-95
117	211	-33
157	244	10
169	243	-89
132	166	-62
52	-1	-69
-47	-226	-39
-136	-429	-41
-183	-533	-157
-184	-482	-74
-145	-301	-81
-94	-66	-54
-46	119	55
-10	193	56
18	162	64
39	88	13
52	47	-13
57	70	7
46	129	-18
31	155	-31
8	86	-10
-20	-71	-6
-55	-257	-20
-108	-372	-25
-168	-356	-31
-212	-225	4
-207	-50	38
-139	75	69
-24	103	116
92	54	103
152	1	80
132	5	26
54	87	-68
-18	213	-123
-25	317	-128
59	352	-110
199	313	-98
314	230	-107
332	131	-94
228	31	-53
42	-88	-41
-145	-233	-35
-269	-378	-44
-304	-469	-47
-262	-449	-27
-194	-304	22
-125	-86	72
-56	117	120
18	223	155
106	209	86
182	116	13
210	26	-85
163	-6	-194
51	20	-177
-65	62	-54
-127	63	91
-87	12	127
39	-58	74
193	-86	35
292	-40	-9
286	63	-67
183	164	-74
28	204	9
-101	171	57
-159	102	38
-136	51	2
-64	46	-81
2	68	-173
26	60	-202
-5	-20	-224
-75	-156	-198
-150	-281	-129
-191	-315	-107
-184	-218	-27
-126	-30	30
-43	154	39
30	237	21
64	179	15
47	19	-18
-2	-147	-23
-48	-230	54
-46	-187	28
20	-46	-38
132	127	-24
234	264	14
266	322	30
201	292	90
65	186	127
-80	26	201
-166	-157	213
-162	-326	151
-92	-429	37
-17	-427	-172
6	-316	-336
-39	-133	-460
-109	43	-408
-139	149	-279
-88	153	-129
32	86	24
155	13	60
208	-12	86
151	23	52
11	84	17
-143	115	15
-240	86	2
-247	14	-2
-189	-55	26
-121	-72	80
-88	-35	75
-87	21	108
-85	43	137
-38	8	96
66	-60	34
194	-106	-12
280	-69	0
275	56	-13
169	221	13
-5	345	57
-170	358	43
-267	254	11
-271	69	-67
-184	-114	-170
-45	-237	-238
101	-278	-235
214	-254	-225
260	-200	-225
221	-144	-194
107	-90	-144
-41	-34	-35
-166	23	46
-206	66	89
-147	74	127
-7	29	128
139	-46	113
221	-117	76
198	-141	32
89	-102	-16
-39	-21	-45
-120	54	-33
-113	81	-20
-32	48	-6
65	-17	-18
121	-61	-47
104	-43	-61
23	38	-41
-80	153	14
-158	238	43
-185	251	35
-157	182	61
-101	61	84
-44	-64	60
-7	-160	-7
4	-204	-36
5	-211	-56
11	-192	-77
42	-156	-43
97	-100	-64
156	-29	-84
194	47	-99
178	106	-84
107	127	-109
5	102	-131
-83	48	-121
-114	3	-128
-68	-7	-51
31	20	-45
134	66	-10
195	99	140
183	101	225
111	72	254
9	41	231
-84	26	135
-148	30	-108
-187	38	-356
-209	24	-413
-221	-10	-387
-202	-55	-262
-145	-81	-137
-45	-66	-91
70	-20	-40
161	41	47
188	90	121
136	117	112
34	125	126
-72	121	124
-140	95	120
-150	25	84
-109	-103	-7
-52	-274	-53
-7	-429	-86
13	-492	-56
16	-413	-42
20	-209	-49
32	41	32
51	233	107
66	289	106
65	215	75
49	84	3
22	-12	-89
-5	-15	-139
-33	57	-153
-67	139	-107
-110	161	-3
-159	94	64
-191	-23	35
-190	-116	-20
-132	-139	-13
-28	-96	-1
100	-31	11
214	-9	34
275	-48	26
269	-118	40
200	-155	5
100	-113	-68
3	2	-133
-56	137	-155
-69	221	-107
-44	215	-32
-5	138	55
16	48	137
5	0	150
-44	7	48
-107	35	-52
-154	24	-131
-155	-55	-233
-102	-186	-283
-16	-300	-241
68	-322	-96
120	-228	-15
125	-46	21
99	135	99
75	244	119
86	244	140
135	171	106
201	85	50
237	43	24
204	62	-21
89	106	-144
-84	120	-197
-264	58	-43
-405	-77	-25
-455	-240	-31
-416	-359	-3
-310	-379	1
-175	-277	8
-54	-74	-15
31	168	1
84	366	-38
115	461	-81
139	417	-52
162	255	-96
172	37	-190
163	-145	-176
126	-237	-75
77	-222	109
34	-142	192
18	-82	133
34	-87	-2
55	-159	-100
57	-233	-133
15	-238	-133
-55	-127	-82
-120	67	-8
-135	261	82
-75	365	86
46	340	29
188	227	-13
295	101	-2
332	38	-33
299	49	-43
214	76	-60
103	50	-109
-20	-60	-28
-148	-208	10
-272	-309	8
-366	-288	46
-392	-144	69
-338	41	77
-215	158	48
-79	135	2
12	-3	-63
23	-161	-93
-26	-222	-78
-85	-130	-25
-96	66	16
-51	261	7
7	341	-2
17	269	-34
-59	88	-79
-191	-106	-78
-297	-235	-33
-278	-279	-3
-108	-273	0
159	-274	-27
407	-296	-52
517	-309	-74
446	-263	-91
250	-131	-45
39	57	-27
-81	231	-13
-69	313	24
24	286	57
117	195	35
140	115	-5
85	106	0
-12	163	8
-93	221	4
-119	203	-7
-102	77	-19
-76	-122	-8
-64	-304	1
-76	-379	-60
-86	-312	-127
-78	-137	-56
-43	53	-19
3	181	-71
44	208	-10
75	158	28
97	90	76
117	56	39
123	71	-35
101	106	-63
29	113	-140
-77	58	-77
-181	-57	-45
-235	-193	12
-202	-296	57
-101	-312	-111
21	-232	-267
105	-86	-227
115	74	-150
64	188	-46
-1	231	61
-33	204	38
-10	148	52
50	96	20
111	67	-27
139	53	-40
121	20	-43
68	-52	-33
-1	-161	-10
-70	-260	20
-132	-304	8
-180	-253	2
-199	-117	-33
-180	49	-45
-117	185	-14
-27	244	-14
52	237	-1
86	194	68
52	162	123
-29	153	118
-121	139	158
-172	83	147
-147	-37	63
-48	-191	-46
97	-315	-153
237	-337	-197
328	-238	-238
340	-62	-202
273	106	-105
154	185	-1
27	150	37
-58	35	20
-75	-72	30
-22	-109	64
57	-49	71
119	64	48
121	158	57
60	175	-2
-25	108	-30
-95	-8	12
-108	-114	18
-77	-167	4
-36	-157	-37
-38	-110	-79
-105	-62	-36
-214	-40	-53
-318	-38	-120
-358	-38	-141
-312	-15	-129
-191	36	-50
-40	103	-3
95	161	46
181	182	107
212	156	99
201	92	-6
154	6	-100
86	-74	-138
3	-134	-163
-81	-167	-92
-138	-176	16
-152	-173	86
-117	-159	64
-47	-138	-35
32	-101	-78
95	-45	-88
132	28	-88
150	102	-74
155	162	-65
149	190	-36
121	183	-43
63	157	-124
-28	126	-63
-126	104	6
-202	80	-15
-230	32	52
-201	-56	19
-142	-183	-12
-84	-314	-74
-48	-395	-87
-35	-388	32
-19	-280	81
20	-111	78
90	48	32
164	137	-81
210	140	-115
200	83	-61
139	27	-58
59	20	-82
2	78	-50
-11	169	-10
16	243	8
54	264	60
77	227	44
80	157	27
75	82	-7
85	19	-44
111	-31	-21
128	-72	9
102	-95	3
13	-78	-12
-115	-6	11
-229	104	-2
-262	207	15
-191	241	2
-53	169	-28
75	13	-13
111	-158	20
35	-263	48
-123	-263	74
-279	-179	119
-357	-83	113
-328	-42	49
-224	-79	-90
-99	-160	-214
-6	-213	-186
44	-192	-107
76	-101	-13
115	9	99
169	74	151
212	67	100
222	11	-53
183	-38	-215
113	-40	-311
48	9	-259
13	68	-141
10	89	-128
13	47	-126
-4	-33	-25
-48	-98	105
-98	-98	225
-112	-15	240
-72	118	97
15	244	-92
107	313	-262
164	298	-378
159	200	-389
98	52	-194
14	-102	97
-61	-228	228
-106	-297	190
-118	-289	105
-103	-215	74
-72	-94	89
-37	30	76
-5	114	66
6	140	29
-10	119	-5
-46	84	-11
-76	62	-111
-60	65	-170
17	67	-182
151	38	-98
277	-37	-49
333	-135	-122
269	-210	-63
97	-216	-64
-118	-147	-54
-285	-35	-84
-341	58	-104
-279	93	52
-148	68	77
-26	31	66
35	34	58
25	104	26
-15	215	40
-38	309	11
-10	330	32
65	264	68
148	149	51
199	30	7
195	-54	-38
138	-116	-45
44	-194	-13
-66	-315	21
-183	-460	6
-290	-566	-14
-361	-550	-16
-372	-374	-15
-289	-81	16
-112	215	24
122	406	33
346	424	14
491	300	-56
496	127	-51
373	8	-16
182	-8	-29
0	49	-49
-107	114	-104
-128	120	-145
-106	63	-117
-99	-15	-62
-150	-54	34
-248	-33	175
-350	15	192
-392	29	76
-333	-35	-78
-187	-162	-261
1	-280	-372
175	-309	-350
284	-213	-179
321	-31	-14
299	153	76
240	253	100
165	240	34
86	144	-70
5	34	-86
-70	-37	-38
-133	-61	-21
-170	-68	-12
-184	-95	30
-177	-148	4
-158	-196	-66
-135	-200	-13
-105	-143	37
-62	-48	86
-3	41	166
78	90	217
170	98	172
257	99	44
320	131	-78
336	202	-167
287	267	-228
175	274	-238
26	182	-152
-126	12	-88
-231	-175	-44
-247	-301	-33
-173	-322	-70
-46	-250	-49
72	-132	-38
129	-27	9
106	45	62
25	100	65
-57	170	96
-94	261	98
-70	349	60
-14	372	57
25	287	42
9	93	-29
-68	-167	-141
-180	-393	-140
-273	-519	-68
-314	-502	-36
-291	-376	36
-226	-200	67
-139	-39	62
-47	76	21
48	155	-23
150	230	-70
250	313	-96
331	398	-61
368	431	-50
346	365	7
261	181	61
136	-85	55
-4	-349	25
-130	-507	7
-214	-492	14
-242	-316	-37
-194	-48	-93
-81	188	-107
77	298	-105
226	244	-108
311	84	-124
296	-90	-28
184	-188	33
25	-164	44
-115	-54	61
-184	68	-34
-176	131	-114
-130	104	-192
-96	11	-227
-110	-94	-115
-162	-155	-41
-209	-159	18
-210	-121	120
-156	-75	128
-69	-45	93
2	-26	5
29	-7	-79
15	27	-88
-12	70	-64
-16	98	70
18	88	216
69	36	271
106	-26	238
104	-69	48
66	-60	-207
17	3	-382
-8	92	-375
2	169	-214
44	201	-48
91	185	23
114	132	22
104	74	10
62	19	-44
11	-19	-88
-34	-49	-126
-54	-76	-145
-39	-96	-88
7	-105	16
71	-95	55
130	-71	79
156	-45	82
126	-27	70
48	-25	76
-55	-29	16
-141	-29	43
-183	-11	17
-174	21	-31
-132	55	3
-91	67	25
-63	43	56
-54	-9	34
-40	-69	21
-5	-106	-25
52	-98	-46
113	-48	-66
149	21	-82
138	77	-112
91	97	-106
29	79	35
-21	45	37
-48	17	1
-54	7	-81
-60	7	-176
-75	-6	-109
-96	-46	-48
-108	-107	30
-99	-151	52
-68	-141	59
-25	-58	103
16	69	-17
62	183	-181
116	215	-231
186	140	-228
257	-13	-133
291	-174	38
239	-254	155
71	-214	129
-188	-86	78
-470	53	49
-664	116	14
-697	60	-90
-555	-79	-183
-288	-218	-205
1	-270	-183
231	-188	-80
369	0	-10
428	211	46
450	358	118
470	393	109
488	324	42
469	205	-19
383	100	-48
223	46	-49
22	28	-25
-167	8	43
-298	-55	108
-364	-169	126
-383	-296	84
-375	-378	24
-346	-355	-12
-289	-229	-34
-194	-32	-48
-68	157	-85
54	262	-26
139	259	18
156	164	-32
117	46	-109
60	-26	-151
30	-16	-104
45	60	-194
86	145	-230
105	174	-90
69	103	8
-20	-53	103
-126	-248	87
-195	-406	1
-194	-470	-38
-124	-416	70
-24	-257	129
59	-49	96
105	147	87
118	279	49
124	319	79
148	268	-29
180	163	-178
196	51	-270
164	-29	-189
77	-56	-11
-43	-45	31
-153	-23	57
-213	-17	15
-216	-33	9
-175	-54	-28
-121	-55	-39
-70	-17	65
-18	53	99
52	128	-22
147	174	-157
242	168	-259
302	112	-328
283	29	-273
172	-45	-121
14	-98	60
-135	-115	116
-207	-106	102
-189	-81	83
-113	-49	80
-48	-21	33
-49	7	-65
-126	39	-69
-232	84	-68
-300	148	-116
-272	221	-75
-140	268	3
44	241	52
216	104	98
313	-140	80
314	-416	58
245	-600	36
154	-582	10
79	-340	26
31	41	7
10	389	-53
1	522	-104
2	366	-86
19	8	6
52	-357	53
89	-519	-8
96	-381	-33
48	-10	-35
-62	397	-50
-197	627	-14
-298	577	38
-316	291	52
-236	-57	25
-99	-300	38
22	-343	42
66	-235	10
19	-87	-56
-84	-12	-74
-172	-44	15
-191	-127	16
-129	-183	-113
-16	-155	-276
89	-59	-245
151	41	-142
162	90	-157
144	62	-139
123	-4	-87
105	-56	-33
75	-57	4
12	-11	42
-80	41	20
-178	68	37
-235	52	107
-223	13	134
-143	-26	70
-27	-42	-124
81	-41	-157
150	-33	-30
172	-29	35
172	-25	129
166	-7	142
159	29	70
147	71	43
113	94	-36
56	78	-82
-18	23	-101
-87	-46	-63
-134	-86	7
-141	-71	9
-102	-4	-58
-25	90	-127
78	168	-122
175	200	-117
234	171	-7
229	105	74
160	21	0
60	-51	-44
-15	-97	-86
-23	-102	-83
42	-68	-21
132	-2	44
181	87	94
130	179	113
-21	248	106
-214	268	1
-364	227	-137
-420	114	-214
-377	-52	-147
-284	-247	-77
-205	-427	-51
-169	-540	-1
-156	-540	36
-115	-401	70
-14	-145	86
140	166	99
288	448	80
363	607	46
338	607	-6
228	449	-108
95	197	-178
-8	-64	-156
-57	-273	-63
-74	-393	-21
-85	-433	-27
-110	-412	-37
-142	-351	-44
-158	-257	-49
-143	-138	-54
-110	-11	1
-88	99	36
-98	165	23
-135	174	21
-162	139	7
-132	93	9
-28	57	-7
132	34	-42
288	7	-63
383	-50	-37
373	-135	-25
269	-219	-77
111	-258	-97
-49	-217	-81
-166	-106	-70
-222	32	-88
-217	135	-84
-169	169	-18
-95	131	46
-15	65	47
51	16	77
96	6	100
103	27	69
83	45	20
41	40	-41
1	11	-27
-29	-21	19
-43	-28	82
-47	-5	100
-45	32	5
-42	56	-98
-35	56	-203
-17	43	-215
10	43	-179
37	79	-80
60	138	78
69	193	196
71	195	211
71	126	102
81	2	-18
87	-132	-194
80	-221	-316
40	-234	-317
-28	-179	-232
-103	-92	-104
-147	-14	-9
-131	29	-48
-64	35	-27
20	24	62
70	17	51
60	28	126
-1	59	124
-61	105	108
-61	154	98
24	188	-54
172	197	-121
314	158	-151
370	67	-168
302	-67	-52
123	-210	-20
-105	-312	7
-313	-321	61
-450	-222	52
-497	-49	39
-456	129	-43
-346	239	-48
-188	238	11
2	142	9
182	14	37
309	-68	13
346	-62	9
291	22	37
172	122	15
54	168	16
-10	112	10
-12	-27	2
14	-189	-17
6	-312	-37
-69	-354	-32
-206	-322	-41
-328	-260	-36
-363	-195	15
-273	-148	4
-79	-98	-28
133	-35	-17
280	45	-20
320	119	-45
260	150	-111
156	123	-159
63	55	-133
4	-13	-81
-36	-43	9
-86	-25	117
-157	15	126
-224	34	52
-250	5	2
-211	-61	-37
-118	-122	-154
-14	-126	-241
56	-54	-189
65	65	-112
33	183	-12
-1	244	1
0	236	-34
51	179	26
134	122	50
216	100	43
262	108	9
260	119	-30
212	96	-35
133	23	-34
39	-69	17
-56	-139	17
-137	-151	13
-182	-104	45
-174	-34	44
-117	5	-21
-36	-13	-63
38	-70	-31
74	-119	-47
69	-100	-183
46	11	-165
38	183	-35
57	341	-72
99	400	-21
119	305	107
82	74	95
-22	-223	34
-163	-482	-19
-281	-606	-80
-321	-552	-160
-262	-349	-182
-139	-80	-125
1	151	-50
97	261	40
130	231	74
121	105	54
105	-29	31
110	-85	-4
127	-20	-52
122	131	-11
63	290	40
-50	365	69
-170	304	94
-232	123	87
-182	-103	48
-29	-278	-43
160	-332	-116
291	-253	-120
287	-90	-38
152	78	-20
-47	183	-23
-202	195	-5
-231	132	11
-124	45	37
54	-12	3
204	-8	14
240	53	16
143	135	-19
-37	178	-30
-226	135	-5
-345	-11	40
-375	-232	64
-321	-460	90
-231	-618	70
-134	-644	-12
-48	-527	-111
27	-311	-164
89	-71	-172
128	117	-167
135	221	-55
109	253	9
66	260	-60
39	277	-151
49	320	-214
97	357	-245
148	345	-267
158	261	-215
97	112	-132
-27	-56	11
-164	-185	130
-250	-231	117
-245	-190	79
-153	-92	79
-26	22	76
68	110	41
96	151	38
61	134	2
18	72	16
22	-22	59
92	-120	63
196	-192	92
267	-207	142
254	-158	149
156	-67	87
22	22	-9
-62	61	-54
-53	37	-39
40	-34	-200
147	-102	-339
188	-113	-174
126	-53	15
-16	48	34
-157	140	-42
-224	181	-140
-189	155	-65
-97	97	-17
-19	51	-11
-18	42	51
-97	66	-12
-200	85	-62
-249	66	-27
-197	11	22
-54	-49	-2
113	-71	65
216	-35	91
212	41	59
106	110	113
-39	125	39
-143	76	-65
-155	-8	-183
-69	-74	-186
63	-93	-18
175	-74	48
212	-64	-16
158	-111	-117
33	-225	-65
-112	-359	-30
-222	-434	-59
-264	-384	7
-241	-198	-8
-164	54	-2
-74	269	4
1	357	35
39	287	68
50	117	-19
52	-53	-83
74	-129	-82
121	-78	-77
187	62	-75
245	203	-55
262	260	-45
222	199	-54
129	51	-88
12	-109	-99
-97	-218	-96
-176	-240	-107
-223	-188	-75
-257	-111	-13
-288	-50	43
-320	-24	65
-321	-15	56
-267	4	65
-139	60	57
41	157	6
229	267	-45
368	356	-81
411	379	-99
363	313	-61
245	155	72
121	-59	152
28	-273	96
-13	-418	81
-16	-441	27
-9	-339	-27
-16	-158	-30
-46	22	-9
-83	117	129
-99	98	194
-76	-8	97
-9	-121	-64
80	-168	-247
161	-112	-356
197	18	-403
179	153	-368
107	224	-172
6	202	7
-94	113	65
-173	7	98
-224	-70	100
-250	-114	51
-260	-133	16
-262	-145	112
-243	-148	145
-194	-112	68
-110	-19	0
8	119	-63
130	255	21
219	331	74
244	317	114
195	233	95
86	135	-21
-37	79	-123
-135	64	-257
-185	42	-252
-179	-52	-270
-145	-248	-260
-108	-490	-179
-87	-669	-67
-74	-676	5
-47	-466	0
14	-114	57
115	241	133
231	461	199
320	487	184
346	362	140
299	192	72
196	88	-89
85	80	-200
8	124	-168
-19	139	-125
-8	71	23
0	-67	141
-26	-204	98
-97	-253	65
-183	-181	22
-241	-19	-22
-235	150	-112
-165	244	-142
-62	233	-90
21	140	-79
53	31	-47
30	-35	-9
-16	-38	-31
-46	-1	-3
-30	32	34
21	19	9
77	-50	-20
99	-154	-78
70	-250	-101
8	-301	-96
-56	-282	-76
-88	-206	-11
-72	-90	100
-20	25	158
46	113	137
111	157	113
165	162	42
197	143	-41
210	118	-181
192	94	-250
140	61	-147
56	15	-63
-40	-54	-48
-125	-131	-66
-177	-196	-62
-190	-222	-58
-182	-196	-64
-181	-144	-1
-200	-89	61
-231	-59	98
-244	-62	129
-202	-75	83
-89	-69	12
81	-21	-69
266	66	-121
413	171	-163
468	260	-147
407	301	-93
251	290	-40
35	233	51
-172	147	78
-311	43	98
-352	-64	81
-294	-170	37
-173	-257	-15
-42	-300	-117
50	-281	-157
79	-192	-28
52	-50	172
-2	110	297
-49	243	306
-71	305	160
-68	279	-1
-57	181	-215
-54	51	-373
-58	-60	-333
-62	-109	-211
-54	-80	-124
-35	3	-127
-12	85	-158
0	112	-245
-4	56	-178
-10	-62	38
6	-182	89
63	-233	75
155	-181	118
254	-40	38
319	115	-65
312	208	-79
231	194	-47
102	88	39
-24	-38	76
-110	-112	81
-142	-97	69
-134	-23	55
-115	38	26
-104	21	13
-107	-77	4
-104	-198	-12
-77	-254	-16
-13	-186	-40
74	-8	-22
157	185	-39
206	279	-59
208	215	-25
166	17	9
93	-215	36
7	-355	34
-88	-333	46
-183	-166	94
-271	55	51
-337	223	-52
-363	274	-108
-339	219	-155
-263	119	-130
-167	37	-98
-66	5	-75
20	-1	-60
93	-19	-95
166	-68	-90
244	-129	-110
313	-159	-42
339	-120	32
299	-18	34
190	99	72
53	169	53
-56	153	2
-101	60	-41
-77	-56	-2
-29	-137	9
-10	-140	-13
-50	-71	-17
-124	33	-67
-176	131	-127
-151	193	-170
-39	219	-124
113	219	-55
229	204	19
245	168	51
169	93	32
42	-27	46
-54	-176	62
-83	-313	70
-48	-393	64
3	-380	72
18	-280	65
-18	-131	130
-85	8	142
-143	93	-24
-172	110	-155
-178	70	-192
-185	17	-179
-209	-29	-140
-226	-50	-29
-197	-57	11
-92	-66	-24
74	-83	-9
237	-97	-71
325	-84	-163
296	-27	-170
172	66	-175
34	169	-178
-37	241	-142
-9	254	-45
86	205	55
165	116	87
154	27	12
42	-31	-7
-119	-43	9
-239	-21	-16
-256	16	23
-165	48	37
-15	68	65
113	77	85
175	69	89
166	35	71
117	-36	51
64	-143	44
24	-259	17
-8	-333	35
-48	-319	76
-89	-201	131
-116	-18	162
-98	159	149
-36	256	56
44	235	-70
110	119	-217
124	-24	-297
91	-121	-237
37	-134	-232
-3	-80	-204
-20	-7	-204
-27	35	-282
-59	36	-211
-136	17	-138
-244	12	-116
-339	34	-29
-365	61	28
-285	62	97
-107	18	194
122	-44	243
340	-76	164
483	-24	40
512	108	-35
439	261	-111
285	345	-161
99	289	-79
-79	97	59
-214	-158	114
-300	-355	129
-329	-413	81
-315	-317	3
-268	-139	-23
-197	13	-51
-119	68	-103
-43	19	-76
16	-66	-30
56	-104	-6
85	-43	26
116	85	14
163	202	7
224	218	16
269	106	13
262	-81	-19
175	-244	-65
24	-292	-69
-150	-199	-63
-272	-20	-29
-305	150	-8
-237	231	-13
-120	207	9
-18	127	-18
24	56	-37
2	38	-48
-38	56	7
-53	62	60
-20	17	116
42	-75	207
95	-158	205
106	-171	182
78	-94	-35
45	35	-292
42	135	-394
81	144	-409
130	47	-349
145	-96	-234
91	-199	-3
-19	-200	74
-136	-106	43
-195	22	-9
-164	106	-47
-55	103	-13
76	30	24
162	-52	112
167	-82	98
93	-43	46
-24	34	-12
-132	91	-23
-197	84	-2
-203	15	-56
-159	-78	-145
-84	-140	-269
-2	-143	-328
64	-90	-201
97	-10	-30
85	58	27
38	93	66
-24	88	110
-69	56	185
-75	11	176
-35	-31	123
36	-58	107
111	-56	37
164	-21	-23
188	38	-85
188	96	-60
169	109	-8
130	60	-35
67	-41	-56
-26	-150	-51
-139	-201	-42
-239	-155	-77
-281	-13	-69
-241	169	-20
-112	319	20
62	379	79
225	332	108
317	210	89
314	65	49
234	-49	-2
116	-113	-26
9	-122	-43
-63	-90	-78
-106	-38	-57
-139	8	-43
-185	22	-50
-247	-17	-68
-308	-114	-72
-335	-238	-71
-305	-330	-91
-209	-322	-80
-65	-179	-44
86	77	11
200	358	-6
242	546	-19
201	545	-38
89	327	-54
-48	-45	3
-166	-452	105
-224	-757	207
-201	-856	205
-117	-727	124
-8	-427	47
83	-70	-34
127	218	-160
125	351	-252
102	307	-241
91	139	-179
106	-45	-112
135	-143	-13
143	-97	74
97	67	89
-12	260	-24
-159	372	-186
-281	345	-242
-332	193	-298
-273	-5	-218
-130	-149	-103
46	-181	-101
195	-118	-20
265	-35	46
254	-1	101
192	-44	104
123	-118	142
86	-148	248
93	-82	175
125	68	108
153	225	120
147	295	32
95	230	-102
15	64	-157
-68	-107	-113
-126	-189	-75
-151	-137	-25
-137	6	-21
-107	155	-50
-79	224	0
-61	190	-9
-60	95	-62
-61	10	-115
-55	-5	-125
-29	48	-77
14	124	-61
59	158	-52
94	120	-8
100	26	13
72	-72	-8
18	-124	-12
-43	-117	26
-92	-78	38
-104	-53	31
-77	-76	41
-26	-138	33
24	-206	31
47	-230	39
37	-187	39
0	-83	22
-34	51	15
-34	178	41
8	273	28
80	325	-2
147	332	-58
170	284	-128
131	185	-102
49	34	-95
-49	-130	-120
-133	-264	-86
-183	-322	-32
-210	-286	-28
-226	-179	-50
-235	-64	-18
-223	1	16
-178	-7	48
-94	-59	19
10	-98	-26
96	-72	-43
136	19	-101
128	132	-115
99	198	-104
86	180	-52
111	93	-2
156	0	37
184	-33	113
166	10	171
102	84	155
36	106	80
14	19	8
52	-168	-111
121	-373	-207
150	-488	-203
85	-452	-105
-71	-279	69
-262	-60	117
-390	97	24
-389	141	34
-264	89	32
-87	18	-109
51	1	-199
87	62	-213
27	160	-223
-78	215	-157
-156	183	20
-169	66	53
-122	-68	-29
-51	-151	-14
13	-137	-13
64	-48	-91
110	57	-156
157	127	-139
195	129	-33
203	82	112
170	21	147
107	-24	139
54	-49	85
44	-62	-53
83	-79	-83
138	-88	-113
158	-66	-125
111	-1	-49
6	103	-4
-107	213	60
-176	280	100
-172	279	127
-113	204	65
-46	89	-117
-14	-24	-122
-20	-96	-6
-35	-109	-46
-30	-68	-63
11	4	-45
65	68	-14
96	93	17
74	43	-69
5	-84	-52
-77	-257	17
-129	-410	67
-129	-460	158
-87	-358	233
-22	-118	234
40	174	152
93	404	-9
144	466	-167
191	335	-248
216	85	-270
193	-161	-230
106	-281	-151
-33	-230	-23
-178	-47	24
-273	158	25
-291	270	19
-236	236	-19
-148	68	-31
-77	-143	-86
-50	-313	-140
-64	-373	-137
-90	-322	-68
-96	-208	-19
-70	-98	-32
-30	-40	4
8	-42	62
24	-76	64
24	-94	55
22	-61	39
35	20	5
70	123	18
126	205	68
191	229	79
252	189	36
292	110	7
297	36	-15
241	-1	-34
120	10	-70
-52	57	-105
-233	116	-82
-360	168	-50
-379	203	-108
-277	226	-122
-88	229	-37
114	200	51
252	120	74
280	-11	43
201	-173	51
63	-306	-92
-71	-362	-215
-161	-314	-155
-187	-186	-67
-166	-41	12
-123	52	130
-80	61	158
-42	4	-59
-12	-61	-222
12	-81	-229
23	-28	-192
11	64	-185
-21	143	-64
-56	158	87
-68	105	78
-30	21	85
64	-45	56
187	-59	15
284	-32	-52
310	-4	-97
234	-8	1
87	-42	22
-75	-80	1
-176	-78	24
-174	-24	5
-75	54	41
68	104	106
180	85	173
210	4	131
144	-85	21
27	-116	-78
-91	-53	-208
-160	72	-238
-174	186	-231
-154	208	-129
-137	112	40
-152	-56	64
-193	-214	38
-241	-271	4
-262	-209	17
-247	-66	10
-189	69	-34
-104	130	8
-6	100	79
104	13	74
225	-63	10
357	-87	-34
484	-52	-92
583	0	-92
614	26	-127
547	3	-150
381	-55	-91
130	-108	-28
-159	-121	3
-433	-76	16
-641	7	57
-750	86	41
-727	126	4
-589	106	-11
-357	46	-20
-82	-26	-18
164	-68	-21
324	-61	-13
360	-12	-15
279	49	-57
124	77	-74
-38	48	-32
-145	-31	7
-175	-118	24
-133	-166	62
-65	-139	65
-17	-54	9
-12	41	-81
-43	96	-133
-76	84	-116
-77	23	-72
-24	-40	22
64	-59	99
160	-29	49
228	15	-4
245	24	-18
222	-23	-59
171	-98	-81
120	-144	-103
80	-111	-127
53	5	-128
32	144	-84
7	231	-40
-19	213	4
-43	110	65
-52	-1	103
-44	-37	87
-19	41	59
15	195	69
46	333	13
65	366	-105
67	269	-255
54	89	-268
31	-85	-175
-1	-171	-145
-40	-154	-16
-84	-81	70
-125	-32	91
-161	-63	172
-180	-175	209
-176	-308	224
-149	-376	199
-103	-322	46
-48	-151	-128
2	68	-193
44	244	-241
82	300	-126
119	211	-86
164	28	-195
209	-163	-186
238	-273	-163
229	-267	-26
171	-166	32
64	-39	48
-72	29	87
-206	5	19
-302	-90	-17
-332	-182	-37
-288	-199	-21
-180	-107	-43
-27	58	-45
130	215	-25
254	299	-43
302	271	-17
272	174	5
165	77	76
27	38	178
-85	68	233
-133	123	178
-112	143	61
-63	104	-21
-39	26	-62
-80	-36	-186
-175	-33	-268
-272	29	-88
-303	92	22
-229	85	8
-71	-28	3
99	-208	-56
210	-362	-31
221	-391	-8
151	-263	-40
61	-35	-15
11	183	-32
18	282	-79
58	228	-107
81	72	-136
58	-77	-107
-6	-134	-2
-76	-86	60
-119	15	116
-133	72	180
-132	40	182
-137	-70	100
-139	-182	-33
-107	-214	-108
-3	-135	-245
166	17	-377
346	162	-365
467	235	-238
439	214	-85
278	143	58
32	84	171
-196	67	207
-321	85	196
-312	88	167
-209	29	96
-75	-97	5
33	-243	-48
87	-341	-179
97	-343	-273
75	-235	-271
31	-69	-163
-26	90	-77
-95	187	-115
-152	202	-45
-170	153	20
-136	71	90
-63	-7	115
14	-66	104
54	-99	116
44	-107	83
-3	-89	57
-47	-53	18
-52	-12	19
-15	23	34
44	45	29
86	58	10
87	77	57
64	108	77
46	142	14
67	152	5
130	109	-48
204	8	-119
244	-115	-151
208	-204	-238
104	-207	-262
-39	-115	-200
-165	22	-103
-231	122	-33
-228	121	19
-176	11	48
-114	-151	37
-74	-262	57
-64	-254	43
-71	-114	22
-75	93	-11
-46	275	-41
8	357	-36
81	320	-23
139	206	1
158	83	38
124	-2	29
42	-35	16
-61	-39	9
-158	-40	5
-211	-53	75
-208	-68	142
-148	-72	155
-52	-61	113
38	-44	47
91	-44	-136
86	-64	-315
30	-98	-373
-39	-124	-389
-80	-128	-339
-55	-109	-152
34	-79	30
159	-60	62
253	-54	126
266	-59	137
183	-60	81
24	-51	-1
-142	-43	-87
-256	-40	-115
-278	-46	-120
-221	-43	-32
-118	-6	110
-26	72	194
38	171	152
78	241	60
109	221	-27
145	88	-125
175	-116	-197
178	-305	-147
129	-376	-35
40	-268	33
-54	-12	95
-111	290	85
-100	503	100
-34	530	56
46	362	-36
96	89	21
92	-156	-18
50	-264	-48
10	-210	-52
9	-47	-48
56	117	26
133	199	8
203	169	-63
234	70	-186
206	-22	-192
127	-56	-109
4	-33	-12
-147	7	40
-305	10	30
-439	-47	47
-508	-140	56
-472	-217	31
-329	-229	-46
-122	-169	-32
72	-64	-48
175	30	-117
156	84	-122
51	89	-104
-65	68	8
-115	50	87
-68	41	111
34	32	80
124	0	13
137	-60	-30
74	-127	-107
-15	-161	-159
-52	-129	-142
0	-31	-85
119	97	-39
241	198	28
287	235	79
234	209	87
113	161	102
-2	148	9
-51	183	-103
-19	237	-149
53	233	-81
102	94	36
75	-178	120
-35	-510	166
-187	-752	105
-328	-784	0
-400	-572	-145
-382	-205	-236
-285	143	-232
-139	317	-164
10	252	-104
134	33	-89
210	-186	-55
230	-254	-6
205	-137	31
151	81	48
89	259	49
22	285	7
-37	166	-3
-91	-4	21
-125	-96	11
-126	-48	24
-85	92	58
-4	218	38
84	228	-22
139	114	-116
133	-41	-180
74	-120	-181
-5	-56	-94
-47	112	56
-24	274	184
55	316	271
154	199	306
215	-17	258
216	-213	46
160	-291	-132
76	-237	-182
-8	-114	-297
-86	-17	-400
-162	0	-355
-241	-49	-206
-304	-99	-51
-321	-88	-39
-261	-10	11
-129	85	110
28	126	99
154	80	60
204	-31	-109
170	-130	-67
90	-157	10
16	-92	-105
-26	26	-116
-36	123	-121
-47	152	11
-82	108	102
-136	36	91
-178	-7	42
-169	2	30
-102	51	72
-4	102	66
72	120	100
100	96	54
85	53	-6
71	23	-37
114	21	-38
224	43	-16
363	71	-16
446	85	-101
401	80	-89
211	58	12
-74	35	16
-346	7	26
-503	-24	-4
-497	-61	-7
-352	-99	-40
-140	-125	-107
52	-134	-91
175	-133	-92
232	-136	-80
232	-153	-53
198	-176	-7
130	-177	11
17	-130	-40
-135	-31	-70
-297	88	-50
-405	164	9
-412	150	34
-303	30	26
-119	-142	8
59	-286	-7
172	-319	-5
195	-210	-27
162	-6	-37
138	205	-43
170	328	-30
245	319	8
325	190	21
341	10	34
262	-140	16
115	-210	-10
-48	-187	-15
-167	-109	-39
-221	-20	-68
-222	35	-97
-206	41	-76
-198	1	-74
-191	-64	-86
-170	-122	-15
-116	-145	32
-45	-115	65
10	-39	134
23	60	155
-4	148	95
-41	191	-28
-46	186	-135
2	149	-254
81	114	-348
143	104	-345
138	122	-200
60	138	29
-59	115	113
-161	35	91
-191	-89	56
-151	-207	33
-61	-268	-3
26	-248	20
80	-150	91
97	-25	68
99	83	51
111	142	5
138	157	-92
170	147	-41
180	135	79
149	131	102
82	120	65
-7	93	31
-95	45	-134
-162	-2	-360
-195	-29	-236
-200	-24	-64
-172	1	57
-115	19	154
-41	10	44
36	-32	-34
99	-87	-162
140	-121	-187
157	-120	-155
159	-83	-98
158	-33	19
159	5	46
157	18	52
139	16	4
101	9	-7
35	9	13
-45	14	48
-125	19	91
-182	20	113
-204	17	114
-195	13	84
-161	-2	-25
-113	-42	-166
-63	-117	-226
-18	-215	-228
29	-291	-157
79	-296	-15
129	-192	87
166	-5	97
162	194	89
100	325	12
-20	324	-45
-167	203	-52
-287	25	-50
-316	-117	-31
-234	-175	3
-63	-157	49
121	-111	75
237	-88	89
234	-103	27
120	-128	-46
-35	-117	-78
-148	-51	-113
-172	47	-138
-109	127	-130
-21	140	-79
29	82	-38
11	-11	-1
-54	-85	78
-110	-103	161
-115	-72	200
-64	-22	143
-1	13	29
22	30	-105
-16	43	-282
-83	81	-379
-116	138	-323
-63	190	-176
68	194	-4
224	124	49
314	4	95
285	-117	113
156	-175	54
-11	-144	-10
-124	-48	-56
-141	56	-56
-77	106	8
13	76	53
64	-17	1
52	-109	-13
5	-148	16
-34	-104	51
-29	8	91
22	136	116
95	235	123
151	265	96
169	229	-33
153	153	-139
116	61	-256
69	-12	-339
16	-61	-165
-51	-89	-81
-123	-104	-27
-185	-114	76
-213	-123	18
-194	-127	18
-134	-113	10
-56	-79	-24
16	-22	-32
75	41	-21
119	89	9
154	96	-3
172	48	28
167	-42	20
116	-143	59
29	-204	55
-70	-194	16
-147	-106	32
-178	30	-105
-168	155	-183
-150	223	-141
-154	209	-91
-193	129	-51
-237	23	-60
-234	-66	-63
-149	-118	-45
22	-134	-15
216	-127	26
360	-118	51
385	-100	42
273	-70	26
77	-24	20
-123	26	12
-242	59	19
-237	64	-2
-122	40	-25
39	27	-49
175	59	-114
229	160	-155
184	300	-91
81	408	-47
-31	410	-65
-94	260	2
-97	-11	33
-63	-313	32
-39	-526	-22
-63	-572	-77
-132	-452	-86
-205	-242	-91
-226	-59	-31
-162	12	7
-35	-39	28
94	-152	25
161	-234	3
131	-226	-18
41	-125	-28
-40	2	-50
-48	86	-58
29	92	-40
144	40	-9
226	-7	44
221	2	170
137	82	304
35	190	260
-26	265	155
-18	266	124
22	200	26
37	109	-243
-14	45	-377
-121	34	-338
-219	56	-252
-243	78	-122
-167	67	22
-33	31	104
86	7	111
128	26	69
81	97	-91
-7	181	-97
-67	218	-78
-53	162	-155
29	15	-169
127	-166	-130
183	-299	-54
163	-322	-59
82	-234	-39
-18	-85	-8
-95	38	-6
-129	80	53
-124	35	77
-100	-52	86
-67	-113	98
-31	-111	95
11	-55	70
55	11	-8
95	38	-48
117	16	-72
111	-30	0
86	-45	60
50	-8	-23
7	71	-86
-38	139	-123
-93	144	-93
-156	70	-52
-215	-53	-34
-252	-162	-15
-245	-210	32
-191	-187	31
-105	-122	-24
-11	-58	-54
66	-13	-30
120	27	15
154	93	44
172	197	46
185	319	-5
193	405	-40
196	412	-90
198	325	-123
198	170	-99
192	-5	-36
155	-165	-12
62	-286	3
-93	-373	11
-290	-420	-9
-459	-409	-32
-526	-322	-99
-452	-166	-129
-249	14	-99
-1	148	-24
196	180	60
277	109	105
254	-5	118
180	-77	78
131	-50	14
130	57	-60
148	166	-241
118	188	-371
7	85	-301
-159	-95	-113
-303	-246	36
-335	-263	107
-237	-130	143
-64	92	130
87	279	75
139	325	-13
98	206	-42
31	-17	-30
31	-223	12
130	-317	52
273	-270	54
358	-131	-25
296	1	-150
90	54	-211
-170	3	-167
-357	-106	-29
-390	-205	74
-277	-226	128
-115	-153	141
0	-22	171
11	105	160
-44	174	90
-86	174	22
-50	128	-46
65	85	-57
199	81	-37
276	118	19
258	171	62
159	198	42
37	171	-12
-58	95	-74
-115	2	-211
-153	-64	-373
-199	-85	-325
-251	-56	-245
-281	-14	-106
-245	19	74
-133	23	87
26	11	132
172	2	158
249	10	54
240	38	-104
171	65	-97
94	72	-84
50	48	-149
46	4	-70
58	-40	-55
48	-66	-89
0	-66	-83
-76	-47	-57
-143	-21	-48
-160	6	-21
-98	34	32
30	68	50
190	106	67
317	135	58
355	130	-2
274	74	-10
78	-34	51
-172	-162	44
-400	-263	44
-529	-300	56
-511	-253	36
-361	-137	24
-136	6	36
82	132	-9
223	213	-85
258	230	-50
211	187	-27
132	98	-18
78	-23	-13
68	-152	-47
100	-262	-22
141	-319	-21
162	-299	-38
147	-198	-35
102	-48	-66
50	94	-68
7	169	-65
-23	144	-75
-47	32	-14
-75	-117	95
-107	-238	123
-139	-276	64
-159	-222	-39
-163	-100	-129
-154	35	-164
-141	139	-179
-134	190	-121
-124	194	-37
-102	178	-47
-54	169	19
14	177	145
85	187	189
130	179	191
128	131	105
82	40	-4
8	-70	-64
-58	-174	-204
-95	-233	-393
-93	-229	-362
-64	-169	-151
-31	-81	-37
-2	-4	-11
18	41	-42
43	48	-87
77	41	-134
116	40	-122
149	60	87
158	96	222
135	121	205
89	115	188
33	67	134
-17	-1	69
-50	-67	-68
-71	-101	-137
-86	-94	-142
-98	-60	-151
-103	-23	-17
-92	0	51
-61	4	-26
-12	1	-86
40	6	-76
89	30	-102
114	65	-105
119	99	-67
105	110	12
80	96	65
46	51	54
6	-7	59
-40	-65	-9
-91	-111	-10
-137	-133	52
-173	-131	69
-194	-112	76
-191	-89	89
-174	-77	34
-135	-81	-88
-81	-97	-123
-15	-103	-43
48	-80	14
95	-4	-17
116	110	-8
117	237	-2
119	332	-9
151	350	-3
236	279	-23
359	138	-36
470	-21	-62
503	-140	-74
396	-177	-86
149	-126	-91
-178	-30	-80
-473	51	-36
-627	62	24
-572	-5	63
-336	-116	74
-12	-196	31
280	-187	5
430	-76	-19
403	93	-93
230	233	-198
-5	267	-253
-217	177	-186
-351	14	-84
-390	-136	24
-361	-207	78
-300	-180	78
-242	-111	49
-198	-70	-4
-167	-108	-2
-131	-202	4
-78	-286	-16
-3	-280	9
81	-160	78
150	24	61
187	179	0
188	222	-40
160	131	-176
128	-29	-284
106	-170	-246
99	-210	-161
93	-139	-54
71	-13	4
26	93	29
-28	122	104
-65	80	184
-67	16	249
-25	-6	267
40	34	188
99	129	72
124	233	-63
110	299	-172
69	324	-247
23	313	-200
-20	274	-88
-61	199	-64
-109	69	-34
-162	-123	-28
-204	-346	-71
-212	-526	-192
-169	-585	-157
-82	-495	-1
18	-292	72
99	-72	160
137	65	190
141	85	126
135	33	77
140	0	-22
165	62	-114
184	221	-71
175	401	-111
124	501	-186
42	461	-170
-38	305	-165
-93	123	-90
-107	6	-5
-86	-14	27
-40	28	62
16	48	24
84	-11	45
155	-138	43
212	-274	-13
230	-343	-8
172	-312	-17
39	-205	-51
-143	-89	-126
-325	-17	-151
-451	-2	-141
-489	-21	-32
-458	-40	87
-387	-56	90
-302	-82	109
-208	-132	86
-89	-196	84
66	-225	99
234	-170	61
360	-15	76
392	197	82
306	381	16
139	461	-35
-28	405	-130
-121	257	-207
-105	92	-180
-16	-18	-124
74	-56	-56
99	-51	-22
40	-59	-40
-58	-110	-74
-138	-194	-113
-156	-271	-147
-115	-292	-108
-60	-248	-43
-30	-153	-50
-27	-54	-48
-12	14	-30
54	45	-3
188	58	33
339	79	19
423	121	26
382	174	87
212	221	100
-15	227	21
-195	185	-7
-259	100	26
-205	-11	79
-97	-124	155
-22	-216	221
-26	-263	225
-93	-253	108
-163	-171	-60
-169	-37	-238
-100	114	-363
15	235	-308
117	282	-124
167	240	51
166	127	139
140	-9	115
124	-125	-9
117	-186	-102
94	-190	-145
29	-158	-190
-79	-121	-205
-190	-99	-215
-255	-91	-192
-241	-91	-194
-159	-83	-182
-59	-61	-128
1	-32	-64
6	-5	48
-22	14	71
-28	25	83
24	34	94
132	51	95
245	84	133
291	138	147
242	215	174
107	305	204
-54	379	200
-175	392	207
-225	308	79
-207	111	-151
-165	-166	-194
-133	-443	-251
-125	-619	-198
-117	-618	-111
-85	-432	-142
-15	-133	-85
82	156	-84
166	326	-42
211	331	-33
209	208	-4
172	52	50
130	-54	48
86	-79	74
36	-55	89
-36	-41	90
-129	-75	7
-215	-133	-71
-253	-153	-145
-203	-84	-182
-72	71	-157
90	248	-63
211	345	70
237	301	87
152	131	46
9	-81	27
-126	-229	36
-193	-249	56
-183	-157	33
-134	-24	7
-96	67	15
-99	72	9
-122	10	-21
-118	-74	-57
-44	-125	-92
100	-126	-101
262	-91	-88
365	-42	-70
340	0	-61
183	35	-55
-45	62	-54
-248	80	-60
-344	74	-48
-292	44	-54
-133	5	-68
55	-18	-57
195	-5	4
229	33	47
162	64	46
41	43	88
-70	-30	113
-125	-116	72
-113	-147	0
-52	-70	-90
17	93	-166
66	261	-198
79	335	-116
60	253	66
36	48	201
20	-170	225
20	-283	139
25	-240	62
21	-80	-1
-5	82	-142
-49	135	-252
-99	51	-239
-130	-112	-185
-130	-241	-168
-101	-250	-43
-52	-134	10
-3	28	-85
40	138	-51
77	139	-132
107	52	-158
131	-40	-55
142	-61	-26
129	10	19
85	126	3
18	206	-6
-53	193	21
-109	92	36
-132	-35	38
-127	-120	53
-106	-120	65
-87	-56	37
-76	13	-55
-70	39	-55
-60	9	-30
-28	-45	17
34	-81	48
123	-63	-38
225	-3	-38
318	61	-99
368	90	-92
346	54	-11
244	-25	63
62	-118	94
-149	-182	44
-332	-192	48
-426	-159	39
-416	-94	-36
-311	-30	-99
-177	15	-105
-77	35	-109
-44	40	-86
-64	43	-43
-77	57	-2
-17	88	-3
141	125	29
354	154	116
524	154	134
558	116	91
398	48	-3
88	-29	-76
-264	-89	-118
-537	-109	-159
-621	-78	-119
-504	-7	-5
-255	81	22
23	147	-16
223	153	-20
288	84	-31
234	-49	-14
113	-200	51
1	-306	138
-48	-306	184
-26	-190	163
51	-3	104
132	170	-24
167	238	-193
125	160	-302
11	-25	-294
-139	-218	-241
-268	-307	-135
-325	-233	-30
-288	-30	30
-175	197	48
-36	335	-1
78	325	-40
136	200	-100
141	54	-136
126	-20	-111
120	5	-91
132	68	-79
144	81	-61
125	-25	22
52	-227	98
-57	-421	116
-169	-492	172
-234	-381	186
-217	-133	176
-125	128	112
6	275	-12
129	260	-105
208	128	-180
226	-7	-201
194	-46	-195
132	32	-99
61	168	48
-1	254	37
-52	225	23
-84	84	51
-91	-91	4
-77	-208	-26
-46	-225	-42
-20	-157	-24
-16	-71	-23
-47	-22	-3
-100	-11	48
-151	8	-63
-160	90	-262
-108	237	-327
-8	386	-249
113	430	-141
206	300	-21
240	9	74
209	-330	120
136	-562	122
54	-570	98
-14	-358	76
-66	-38	3
-117	224	-92
-172	305	-119
-218	187	-81
-227	-30	1
-167	-207	96
-43	-239	127
105	-124	155
216	52	124
230	181	29
133	194	-2
-20	110	10
-161	7	-8
-208	-38	0
-136	-2	57
19	77	86
188	132	31
285	117	-68
273	44	-101
151	-33	-103
-36	-56	-162
-226	-15	-201
-369	55	-219
-428	89	-261
-399	41	-178
-288	-76	-100
-130	-213	-52
34	-296	-25
163	-290	-31
216	-208	13
200	-100	38
132	-22	49
57	3	52
8	-13	85
-8	-31	86
-17	-22	109
-45	18	87
-100	70	21
-156	104	10
-162	108	-42
-82	88	-26
81	72	28
270	86	65
414	130	129
447	188	186
365	224	97
219	210	-64
79	136	-151
5	20	-203
-6	-112	-189
1	-225	-157
-31	-288	-133
-126	-286	-142
-253	-218	-138
-350	-98	-81
-345	45	-129
-223	166	-206
-20	227	-215
191	197	-123
331	81	-6
358	-78	-3
283	-216	45
150	-273	112
6	-226	90
-107	-102	93
-184	37	124
-229	120	110
-250	117	98
-247	48	36
-206	-21	9
-126	-26	31
-14	48	-4
97	169	-50
166	254	-21
167	241	-18
95	118	-84
-14	-52	-21
-104	-178	39
-121	-187	82
-49	-76	90
80	84	11
204	195	-56
257	192	-179
199	81	-99
52	-68	54
-123	-167	56
-262	-170	-4
-310	-96	-115
-263	-17	-139
-168	0	-139
-67	-58	-117
-6	-147	-33
8	-189	42
-8	-132	95
-22	8	141
-5	165	90
49	252	-41
137	228	-141
225	105	-282
275	-46	-335
260	-152	-317
165	-180	-192
5	-139	-16
-176	-85	29
-321	-58	56
-383	-76	90
-338	-116	132
-210	-131	122
-51	-101	109
82	-21	98
151	78	34
155	154	-12
125	180	-45
99	153	-40
96	96	-43
107	36	-35
111	4	10
76	2	29
-1	13	34
-94	13	32
-163	-19	35
-173	-83	-7
-118	-153	-74
-24	-192	-112
69	-171	-109
126	-80	-72
132	54	-29
104	182	7
65	253	24
41	243	12
31	163	-32
28	52	-51
9	-41	-71
-30	-95	-99
-81	-109	-31
-122	-104	64
-126	-105	65
-83	-114	63
2	-129	59
102	-129	30
180	-105	8
200	-62	-46
153	-13	-88
44	33	-80
-83	81	-47
-182	139	1
-217	214	34
-175	287	-5
-94	324	-57
-25	284	-92
-15	155	-171
-77	-35	-81
-169	-227	15
-230	-340	2
-202	-337	-48
-76	-227	-204
101	-66	-272
261	60	-273
345	101	-137
345	45	80
299	-61	207
261	-156	149
259	-185	35
270	-133	-32
239	-30	-76
114	86	14
-106	179	76
-373	236	87
-584	253	47
-675	233	4
-610	171	-59
-424	58	-70
-191	-94	19
23	-253	-4
181	-353	-16
270	-344	77
302	-214	145
291	-9	74
249	182	-23
187	275	-120
123	225	-122
70	64	-171
39	-124	-227
15	-248	-89
-21	-246	-49
-84	-131	-15
-163	31	24
-223	159	19
-225	197	-6
-145	142	-95
-6	35	-76
135	-54	32
219	-88	17
212	-51	-47
126	26	-48
16	103	-91
-59	140	-94
-72	121	-43
-30	54	-3
25	-33	-1
52	-116	57
32	-178	85
-28	-203	57
-95	-192	80
-134	-143	95
-130	-63	155
-88	27	123
-28	106	6
28	138	-46
66	106	-68
93	20	-142
116	-90	-203
152	-170	-193
200	-179	-112
241	-102	-30
238	27	48
163	159	56
5	241	-3
-198	249	-83
-377	197	-133
-459	118	-115
-411	49	-159
-248	4	-108
-48	-26	-53
104	-54	-16
150	-86	28
105	-106	38
34	-99	43
14	-49	27
69	27	40
166	102	68
221	137	168
169	120	235
11	61	189
-182	-9	60
-304	-60	-53
-287	-84	-168
-140	-82	-278
45	-72	-268
163	-75	-193
155	-81	-36
46	-84	98
-63	-68	119
-87	-36	79
17	8	29
186	49	26
317	80	8
324	107	-36
189	139	-76
-12	179	-42
-177	210	-41
-227	202	-86
-157	129	-93
-37	-13	-82
45	-191	-4
40	-352	33
-35	-425	-16
-117	-374	-97
-138	-208	-106
-80	16	-90
24	213	-61
107	313	65
118	287	134
52	166	76
-54	5	-23
-148	-129	-95
-191	-195	-194
-181	-184	-282
-139	-124	-250
-94	-47	-116
-57	20	2
-30	60	70
5	67	79
47	29	64
97	-57	124
142	-178	155
183	-299	139
216	-358	80
248	-309	22
273	-144	32
273	90	-4
231	305	-90
132	410	-200
-7	364	-167
-163	206	-55
-297	22	-24
-383	-97	33
-408	-107	85
-375	-36	-25
-300	40	-147
-199	52	-178
-93	-14	-198
3	-119	-110
79	-189	65
121	-174	215
132	-79	246
116	41	194
90	119	27
66	121	-249
50	63	-397
44	-1	-282
40	-24	-93
33	9	12
21	71	147
12	119	234
11	123	206
18	91	96
38	46	-55
65	22	-200
99	22	-280
130	32	-278
155	29	-151
165	7	42
152	-18	102
111	-24	108
47	9	89
-26	67	59
-100	121	55
-156	125	56
-193	63	46
-215	-49	50
-229	-174	49
-239	-258	8
-239	-268	-32
-217	-196	-66
-160	-71	-44
-67	68	-99
48	177	-151
159	223	-183
230	196	-176
237	113	-59
175	14	9
78	-61	40
-29	-81	0
-108	-44	3
-152	11	-8
-165	34	-72
-156	-21	-59
-121	-156	32
-50	-326	77
72	-451	103
232	-456	90
378	-322	58
456	-81	28
417	182	-77
261	381	-118
49	462	-102
-133	434	-36
-218	338	-11
-195	228	-20
-117	142	16
-64	85	54
-100	35	30
-212	-29	-50
-336	-117	-95
-387	-226	-38
-306	-329	43
-107	-403	18
141	-422	-53
352	-368	-152
462	-243	-252
458	-69	-272
366	106	-149
238	233	-35
112	277	75
-3	233	172
-108	140	203
-211	57	194
-300	21	59
-350	32	-63
-345	51	-165
-274	32	-182
-160	-46	-188
-32	-153	-197
71	-225	-145
126	-204	-80
129	-84	10
96	85	60
49	225	120
14	266	161
0	203	187
6	77	183
17	-32	94
24	-69	-30
19	-36	-97
8	30	-88
-3	76	-62
0	72	8
18	30	54
48	-10	6
82	-13	-118
101	24	-242
100	80	-270
70	114	-208
18	109	-136
-43	67	-35
-97	18	36
-128	-14	-3
-127	-27	-16
-97	-35	26
-54	-62	20
-19	-118	-1
-12	-192	29
-32	-254	52
-69	-268	49
-103	-228	16
-105	-140	16
-74	-37	35
-18	59	9
44	131	-63
95	174	-38
125	197	27
139	194	18
147	171	25
145	122	-13
133	55	-13
92	-24	-7
14	-101	31
-92	-163	49
-197	-206	-14
-267	-223	16
-276	-206	-8
-215	-142	-8
-107	-30	20
12	116	-20
107	260	-121
158	344	-230
158	331	-228
122	215	-173
69	47	-66
18	-103	1
-16	-170	10
-25	-140	2
1	-57	-39
56	-1	-121
121	-38	-172
171	-165	-99
175	-325	-14
130	-416	40
50	-368	80
-20	-180	100
-42	74	130
2	287	130
91	381	140
169	343	128
181	233	18
94	129	-55
-69	84	-111
-257	90	-168
-393	96	-138
-442	47	-91
-392	-70	-4
-281	-222	34
-161	-338	96
-64	-372	141
-6	-308	133
31	-192	169
66	-72	87
109	8	-39
154	50	-128
179	81	-206
172	119	-302
135	166	-393
82	195	-478
33	174	-395
2	97	-137
-8	-13	46
-10	-112	77
-17	-161	36
-33	-137	83
-50	-58	142
-52	43	193
-32	136	190
12	197	152
62	221	108
104	204	-46
115	150	-155
96	62	-136
49	-34	-16
-10	-115	69
-66	-144	93
-114	-113	128
-143	-36	108
-156	48	93
-142	99	66
-104	97	2
-46	53	-53
19	0	-108
70	-32	-227
99	-32	-353
99	-11	-389
85	11	-265
71	24	-34
76	31	27
98	41	99
120	58	119
121	56	72
80	13	78
4	-85	51
-90	-209	70
-164	-311	34
-191	-334	21
-166	-258	-9
-96	-113	16
-16	36	23
42	127	-36
61	133	-45
44	78	-79
13	12	-38
-3	-19	-35
12	-7	-67
59	27	-69
121	49	-55
165	48	-49
166	36	-42
111	31	24
27	49	21
-65	74	-9
-136	79	-1
-169	53	-2
-178	19	21
-182	13	24
-202	64	20
-232	161	51
-245	237	57
-208	221	9
-99	67	-44
56	-185	-95
210	-443	-114
302	-585	-105
297	-548	-83
203	-351	-50
77	-94	9
-28	104	51
-77	165	22
-74	98	16
-61	-14	69
-67	-77	99
-99	-32	35
-120	101	-4
-95	243	-76
-1	309	-232
129	254	-312
233	104	-251
251	-64	-157
167	-169	-139
25	-162	-77
-103	-64	2
-152	57	7
-104	131	8
-2	116	65
84	28	186
96	-82	181
24	-150	72
-86	-150	34
-166	-89	-72
-162	-14	-269
-67	34	-303
77	40	-173
201	21	-37
245	21	38
191	65	-7
59	154	9
-89	252	43
-195	308	-12
-218	287	5
-154	187	23
-39	46	49
71	-86	55
129	-164	30
119	-176	49
60	-139	57
-8	-81	25
-47	-25	-20
-45	24	-6
-20	78	8
-2	145	-55
-7	209	-149
-22	228	-106
-12	160	-19
46	-22	7
144	-281	72
224	-533	81
212	-669	40
69	-620	11
-172	-391	32
-412	-77	16
-547	187	-57
-497	296	-106
-288	221	-131
-13	40	-64
212	-119	-17
302	-149	-15
262	-25	-35
154	178	-24
58	341	12
23	365	28
31	241	40
36	33	14
-2	-150	-40
-83	-225	-43
-156	-184	-40
-159	-83	-70
-61	0	-81
111	18	-87
287	-21	-56
387	-69	-23
353	-70	-9
190	-8	-6
-46	95	-4
-281	188	6
-435	226	-54
-456	200	-120
-336	136	-115
-113	77	-70
140	47	-40
334	45	-50
391	36	-20
277	-14	80
26	-119	145
-260	-254	163
-466	-356	83
-502	-372	-36
-341	-270	-91
-54	-82	-161
240	126	-254
432	268	-204
459	296	-8
342	209	158
169	63	184
19	-68	131
-56	-136	91
-58	-131	-12
-31	-90	-111
-5	-45	-172
4	-16	-229
13	16	-246
36	84	-238
70	191	-101
95	305	-9
91	359	38
67	294	216
52	104	276
80	-141	253
141	-332	142
184	-378	-57
132	-260	-280
-56	-48	-363
-342	138	-176
-621	197	-49
-756	98	0
-675	-98	-29
-409	-280	-49
-79	-354	19
166	-289	66
245	-129	56
187	35	13
83	135	32
30	154	41
68	121	53
152	93	63
209	99	48
191	120	49
111	116	-7
32	45	-128
7	-85	-158
43	-219	-101
90	-281	-61
86	-224	-38
8	-58	-9
-110	135	41
-189	259	69
-179	244	103
-76	100	38
59	-90	-47
154	-210	-71
172	-181	-130
145	-4	-125
129	233	-101
164	404	-72
238	408	11
279	233	60
210	-43	72
5	-292	101
-281	-403	110
-526	-339	87
-615	-153	55
-501	47	-1
-232	160	-80
76	148	-150
295	37	-205
357	-92	-261
277	-164	-235
125	-145	-192
-5	-57	-117
-65	42	40
-47	99	57
11	87	54
62	22	45
78	-53	14
48	-99	26
-3	-98	-10
-56	-64	-23
-89	-33	-37
-95	-32	-39
-75	-60	-14
-40	-95	15
0	-92	9
39	-28	-24
75	84	-22
107	201	-39
137	261	-71
154	233	-33
147	121	24
104	-17	10
23	-115	-24
-83	-130	-45
-177	-69	-24
-229	16	1
-217	68	2
-156	52	-52
-81	-13	-112
-36	-81	-134
-48	-105	-62
-103	-66	147
-159	7	275
-164	71	347
-94	94	343
28	75	184
151	40	-46
216	22	-330
200	32	-517
113	47	-525
7	40	-424
-68	-8	-192
-88	-81	44
-61	-143	94
-28	-158	87
-11	-111	130
-20	-29	205
-35	47	166
-26	82	95
20	76	60
91	56	-95
148	64	-116
160	125	-3
113	213	59
27	279	37
-64	265	-55
-128	143	-65
-150	-62	-92
-134	-281	-138
-99	-429	-119
-55	-455	-63
-4	-354	22
47	-181	67
99	-14	84
138	85	12
153	92	-77
140	35	-140
114	-32	-222
93	-61	-289
85	-39	-234
85	18	-57
69	71	28
25	89	29
-47	65	38
-124	19	52
-166	-13	52
-155	-15	72
-92	15	90
-16	48	90
40	53	78
60	20	52
58	-44	56
69	-98	27
111	-104	12
178	-35	41
221	94	31
196	237	4
84	331	-25
-96	327	-42
-273	215	-40
-387	37	-46
-402	-140	-71
-344	-254	-99
-257	-277	-84
-195	-233	-26
-178	-182	8
-178	-176	18
-144	-229	-23
-39	-289	-44
135	-279	-26
331	-141	-12
463	115	-47
478	403	-113
358	589	-88
144	568	-23
-76	334	28
-231	-21	23
-276	-338	19
-225	-475	17
-126	-383	-23
-44	-125	-103
-13	147	-158
-34	301	-151
-74	275	-130
-93	106	-36
-77	-92	129
-34	-209	184
7	-196	152
23	-84	128
15	47	56
3	119	-56
16	106	-184
66	38	-273
147	-22	-273
219	-25	-160
253	30	3
231	106	65
162	151	-32
85	127	-58
29	41	-64
21	-75	-93
54	-173	-84
109	-218	-129
156	-202	-58
172	-134	24
149	-43	107
85	41	116
-2	95	53
-103	102	95
-198	58	104
-269	-15	129
-310	-86	182
-315	-115	149
-285	-82	34
-236	10	-81
-178	119	-189
-119	193	-262
-60	187	-225
2	101	-116
72	-33	-87
140	-153	-75
190	-205	12
199	-168	-35
165	-60	-68
94	65	-26
16	158	-33
-41	177	-41
-59	122	-97
-40	15	-71
-5	-102	-7
20	-190	37
14	-215	40
-17	-171	-17
-57	-71	-28
-82	48	-27
-72	143	4
-34	177	61
18	139	111
52	55	159
58	-28	169
27	-68	94
-25	-44	-1
-77	17	-86
-115	67	-159
-128	57	-149
-121	-31	-64
-98	-159	33
-67	-263	87
-30	-278	44
16	-181	-33
65	-4	-62
107	179	-81
126	295	-60
117	305	-25
79	228	-40
31	115	-51
-5	23	-70
-19	-17	-84
-8	-13	-85
10	-1	-62
20	-14	0
8	-60	35
-22	-120	41
-61	-162	24
-96	-159	-3
-116	-117	-23
-123	-64	-99
-114	-28	-169
-91	-27	-90
-43	-47	-11
30	-64	-57
121	-49	-17
208	2	0
262	70	-38
268	123	-37
223	137	-15
151	113	25
77	74	-25
20	53	-96
-16	67	-91
-47	101	-39
-79	118	42
-112	74	194
-125	-36	294
-104	-187	320
-46	-309	217
31	-347	-6
90	-270	-193
104	-106	-397
61	72	-534
-17	191	-443
-99	205	-209
-153	129	-53
-165	16	29
-137	-69	87
-85	-87	152
-21	-40	184
42	32	135
93	84	118
123	98	112
121	85	81
81	76	56
14	94	48
-57	137	-54
-105	180	-125
-107	186	-97
-63	138	-74
5	45	-157
63	-61	-253
87	-150	-96
64	-196	-4
11	-205	-40
-52	-191	-40
-101	-171	-89
-131	-154	-113
-144	-136	-58
-144	-116	65
-129	-96	66
-84	-81	10
2	-80	-20
121	-80	-51
241	-53	-51
302	22	-27
273	152	62
139	301	82
-50	410	21
-226	422	-35
-315	317	-45
-291	127	-36
-182	-66	-92
-55	-187	-77
23	-199	-23
35	-126	12
2	-35	32
-19	5	26
16	-32	52
107	-121	63
206	-196	51
254	-212	39
216	-154	15
107	-64	40
-16	5	87
-101	22	100
-122	-5	60
-98	-31	-56
-72	-17	-202
-78	55	-315
-110	158	-311
-131	244	-190
-106	273	-53
-22	230	12
94	129	24
190	-4	61
225	-137	56
188	-259	34
106	-343	18
8	-371	-34
-71	-322	-71
-130	-196	-92
-162	-27	-50
-159	130	-2
-115	210	91
-25	177	196
86	43	231
165	-126	228
166	-248	133
75	-263	-45
-76	-160	-320
-198	18	-444
-227	202	-246
-138	328	-107
23	362	-61
167	313	-2
222	211	6
169	102	-18
62	9	-95
-23	-48	-91
-36	-75	-111
19	-79	-46
81	-71	26
86	-64	7
12	-61	6
-109	-62	-40
-210	-60	1
-236	-46	11
-180	-18	38
-83	25	80
-2	72	97
25	116	110
5	144	79
-36	155	36
-65	139	-37
-79	96	-49
-89	23	-91
-110	-72	-134
-131	-169	-135
-118	-242	-135
-43	-263	-116
97	-224	-99
254	-142	-107
363	-53	-57
373	4	33
283	15	59
153	-3	93
52	-9	112
25	38	129
59	149	112
89	286	57
59	385	1
-42	380	-70
-155	250	-124
-202	32	-97
-137	-184	-24
10	-312	-3
140	-299	22
156	-166	3
21	4	-39
-203	114	-12
-387	106	13
-415	-13	-16
-261	-171	-64
-2	-274	-96
226	-260	-109
318	-123	-90
254	68	-35
107	222	37
-14	259	102
-47	150	150
-1	-64	95
58	-308	-28
65	-481	-98
7	-512	-167
-80	-384	-247
-127	-131	-254
-107	163	-172
-41	400	-45
19	505	39
25	471	61
-15	334	84
-58	180	115
-55	85	149
4	66	123
83	84	-9
116	60	-90
60	-55	-104
-66	-248	-158
-209	-427	-154
-299	-485	-101
-299	-370	-19
-222	-118	101
-111	147	78
-7	289	-34
75	244	-142
141	55	-198
200	-152	-89
237	-254	10
222	-196	41
131	-34	-17
-22	118	-65
-195	170	-7
-329	104	11
-372	-3	16
-321	-56	2
-193	-4	-55
-33	123	-112
130	233	-116
280	236	-45
406	117	29
481	-52	55
476	-173	43
385	-163	24
222	-36	40
47	125	49
-74	219	2
-110	190	-16
-75	64	-19
-24	-76	-47
-15	-142	-35
-77	-110	-31
-181	-11	-35
-276	79	-17
-314	99	5
-282	47	58
-210	-41	85
-126	-108	116
-53	-129	76
28	-117	13
132	-107	-25
263	-123	-48
387	-154	17
444	-160	-25
396	-101	-75
242	25	-33
42	175	-27
-133	283	-65
-215	291	-119
-191	197	-138
-93	41	-157
24	-92	-205
100	-140	-189
109	-81	-84
46	51	-14
-68	183	-48
-200	244	-114
-308	195	-87
-347	50	35
-291	-131	170
-148	-274	255
30	-326	235
171	-283	133
200	-187	43
96	-103	-96
-95	-80	-224
-288	-123	-219
-386	-191	-134
-350	-224	-47
-202	-182	16
-22	-71	6
115	51	-42
169	127	-20
152	125	-23
114	71	-40
93	28	-37
102	45	-45
124	135	-22
135	243	32
123	289	70
96	221	77
68	51	47
42	-150	14
10	-288	9
-46	-294	-15
-120	-171	-18
-186	19	-36
-201	194	-59
-138	291	-94
-12	298	-164
131	235	-209
226	154	-194
238	86	-100
172	47	20
78	30	28
8	26	38
-14	24	213
5	14	302
22	-12	288
6	-70	191
-51	-154	-16
-117	-243	-236
-156	-298	-400
-138	-282	-360
-67	-194	-154
25	-54	-7
100	77	5
129	153	42
106	153	61
42	104	29
-35	51	3
-101	34	-11
-132	55	-46
-109	79	-131
-40	57	-162
46	-30	-135
105	-167	-84
87	-297	-8
-18	-362	44
-175	-331	41
-304	-213	37
-315	-51	57
-158	104	81
135	214	91
473	268	53
716	272	30
762	235	18
600	170	-14
280	95	-21
-77	22	-20
-363	-27	-34
-518	-39	-17
-540	-21	-41
-459	17	-119
-333	51	-111
-194	68	-58
-62	70	-20
46	71	-4
122	81	28
155	93	48
139	91	24
93	53	1
36	-24	-27
1	-123	-56
-11	-206	-64
-10	-243	-59
-23	-232	-70
-69	-190	-37
-147	-152	-32
-222	-136	-33
-253	-141	-24
-214	-142	-15
-109	-115	12
28	-54	-16
150	24	-16
216	92	1
227	131	-54
199	138	-152
166	130	-171
148	126	-72
132	128	101
101	127	243
19	106	232
-111	64	167
-249	6	69
-337	-54	-127
-321	-107	-252
-200	-156	-214
-11	-195	-132
163	-215	-143
252	-186	-209
227	-81	-297
120	98	-278
5	305	-197
-55	457	-55
-34	477	103
35	350	108
87	120	117
69	-113	68
-26	-258	65
-153	-282	129
-243	-229	112
-241	-171	80
-143	-171	55
5	-221	85
140	-263	63
212	-241	26
206	-125	-18
144	36	-71
77	168	-61
33	207	-58
28	161	-25
45	81	-8
60	38	-46
54	64	-78
24	128	-34
-15	162	-26
-52	114	-6
-70	-6	54
-70	-143	-18
-64	-219	-40
-57	-188	-54
-55	-67	-104
-52	82	-107
-43	197	-80
-20	244	-13
9	230	14
36	174	14
46	106	43
34	23	34
9	-66	-16
-20	-149	-37
-33	-186	-57
-32	-152	-59
-23	-52	-52
-23	56	-13
-48	99	46
-100	31	40
-160	-132	7
-200	-301	-21
-194	-374	-48
-129	-292	-45
-16	-85	-25
113	145	1
222	287	-18
274	282	-20
258	160	26
181	9	-14
74	-80	-35
-32	-70	-60
-103	-1	-46
-125	63	-23
-107	67	-91
-57	15	-112
-6	-57	-75
32	-103	-14
49	-98	42
50	-60	160
45	-17	234
49	18	164
72	60	-71
105	129	-282
132	215	-278
132	278	-351
93	251	-313
18	106	-92
-67	-129	48
-129	-357	110
-144	-474	72
-110	-420	37
-55	-230	5
-17	-9	-32
-24	132	-20
-78	143	-11
-143	59	-19
-184	-31	-20
-170	-50	22
-104	20	76
-17	121	87
50	174	24
69	135	-25
46	30	-24
8	-66	-78
-12	-92	-136
-1	-32	-171
26	50	-132
39	84	-23
16	22	40
-40	-100	39
-100	-202	29
-124	-209	78
-91	-101	94
-10	68	94
78	207	149
135	244	90
143	186	-3
113	85	-69
80	16	-218
68	10	-254
86	38	-209
111	41	-122
111	-23	13
66	-142	60
-16	-254	77
-105	-282	43
-169	-191	-24
-189	-11	-56
-172	183	-55
-132	308	-45
-92	325	-9
-50	253	32
-1	142	48
63	45	29
133	-21	-19
184	-70	-56
181	-125	-53
105	-188	-46
-24	-238	-25
-162	-245	68
-242	-188	137
-216	-84	178
-85	31	189
112	115	158
291	149	93
387	139	-92
366	113	-338
245	85	-368
94	60	-247
-30	27	-235
-86	-23	-219
-82	-77	-171
-55	-109	-72
-51	-108	-5
-91	-74	21
-151	-44	49
-200	-53	19
-202	-113	1
-156	-192	79
-86	-234	117
-35	-190	87
-28	-57	78
-59	106	50
-97	225	76
-98	236	38
-47	145	-30
49	12	30
151	-81	22
211	-81	-72
207	3	-132
138	113	-155
40	181	-150
-50	171	-164
-101	106	-182
-103	24	-209
-65	-27	-152
-17	-45	26
15	-50	170
19	-70	275
-7	-115	332
-45	-161	260
-75	-177	113
-75	-149	-37
-42	-91	-227
8	-32	-323
53	3	-341
74	21	-282
63	47	-108
34	99	22
4	169	130
-12	215	109
-14	196	78
-12	98	35
-14	-45	-48
-18	-159	-53
-6	-181	-89
39	-91	-88
111	68	-46
183	221	-12
210	291	1
155	252	22
23	132	71
-144	-9	78
-276	-114	32
-325	-151	11
-279	-127	66
-167	-84	65
-48	-53	-30
30	-63	-70
52	-114	-33
42	-183	19
30	-233	-30
45	-229	-50
83	-153	0
116	-20	38
125	134	80
99	247	64
48	277	40
-2	209	-49
-32	72	-139
-43	-76	-203
-43	-182	-289
-51	-219	-292
-77	-194	-160
-115	-137	35
-147	-81	116
-148	-38	24
-98	-1	-5
5	39	34
143	88	-38
277	131	-75
363	153	-32
358	139	21
261	100	-19
97	50	-84
-76	11	-89
-200	-7	-64
-245	-17	-15
-215	-33	-36
-161	-65	-62
-122	-103	-43
-129	-125	8
-161	-113	101
-174	-59	176
-130	14	176
-22	76	119
115	98	21
230	77	-62
273	33	-101
238	5	-143
154	13	-133
71	48	-19
26	77	-2
23	44	-20
32	-66	-25
18	-238	-135
-32	-393	-83
-98	-449	-6
-133	-346	3
-103	-101	27
-17	204	-16
75	453	-18
97	552	-10
-4	477	-2
-209	300	2
-418	110	-19
-511	-5	-78
-392	-26	-166
-83	9	-203
301	29	-124
588	-15	10
624	-115	115
394	-223	155
8	-274	91
-358	-249	42
-535	-166	22
-473	-81	-6
-247	-32	-25
7	-26	-12
163	-32	45
187	0	26
134	82	-37
89	193	-10
97	283	51
150	305	54
183	244	81
156	121	48
64	-11	-66
-37	-118	-172
-97	-181	-237
-94	-202	-228
-57	-196	-107
-43	-168	64
-74	-118	109
-129	-46	34
-148	27	0
-85	80	-41
55	87	-140
206	46	-199
275	-15	-260
214	-66	-249
40	-82	-105
-159	-69	-10
-279	-53	24
-260	-61	92
-112	-93	138
85	-112	77
242	-82	70
291	14	119
229	134	118
94	207	54
-43	165	-87
-133	4	-164
-153	-202	-138
-109	-341	-84
-37	-316	-72
32	-125	-69
74	141	-32
82	344	8
69	372	22
53	228	50
45	-5	65
40	-187	44
23	-225	-10
-22	-118	-12
-93	44	-4
-166	150	-24
-203	139	-8
-176	40	-19
-87	-62	-4
34	-89	3
129	-17	-4
164	100	6
129	171	1
52	150	-36
-12	38	-102
-38	-84	-160
