File Name: not saved
Channel 2: 'Channel 2', 31030 values, raw ADC, no filters.
Channel 3: 'Channel 3', 31030 values, raw ADC, no filters.
Channel 4: 'Channel 4', 31030 values, raw ADC, no filters.

164	72	0
199	77	-77
179	97	-141
128	108	-109
79	76	-132
52	-6	-46
46	-110	40
41	-183	16
16	-181	24
-31	-108	-25
-75	-4	12
-85	67	37
-35	70	-7
61	13	36
171	-60	21
241	-92	-11
222	-61	60
114	18	51
-60	102	30
-234	153	38
-343	161	-24
-350	137	-36
-262	106	-67
-136	71	-36
-29	18	40
5	-71	31
-35	-186	-2
-117	-291	-103
-175	-339	-150
-164	-296	-74
-70	-171	-38
72	-21	-30
211	94	-88
301	131	-95
319	99	19
278	32	53
204	-21	19
115	-44	-5
21	-49	7
-82	-70	-36
-186	-122	-94
-273	-192	-7
-312	-242	-36
-285	-230	-72
-195	-150	-65
-81	-24	-112
17	93	-89
72	164	-137
79	174	-45
62	150	-12
50	132	-58
62	150	46
93	195	115
121	241	158
135	244	258
127	181	274
106	66	170
80	-57	60
54	-149	-183
27	-170	-341
-7	-130	-341
-41	-60	-221
-64	2	-84
-58	32	-65
-23	35	22
32	35	60
86	55	20
117	100	-54
116	147	-124
86	164	-100
37	123	-53
-17	33	-64
-68	-70	-44
-114	-139	-18
-140	-142	4
-141	-86	56
-116	-10	37
-72	25	-10
-38	-13	-70
-29	-118	-58
-56	-233	-28
-100	-300	3
-121	-271	49
-91	-153	79
0	6	90
121	145	65
222	215	77
255	213	48
214	166	-6
124	115	-25
39	87	-32
1	76	-83
17	60	-97
52	15	-40
55	-54	-14
-12	-125	9
-147	-157	9
-296	-122	-1
-386	-34	12
-366	66	-4
-229	124	-52
-23	105	-65
178	10	-20
299	-113	-52
301	-202	-144
203	-214	-127
53	-138	-89
-80	-13	-91
-153	105	-44
-156	162	36
-108	135	53
-45	51	15
1	-51	17
15	-126	-25
4	-152	-49
-20	-128	-86
-34	-80	-66
-30	-32	44
-6	0	22
30	14	41
65	17	32
91	15	87
97	13	136
85	10	44
52	-1	47
10	-15	-30
-33	-30	-169
-63	-36	-261
-71	-32	-372
-52	-7	-394
-12	35	-153
31	90	49
62	145	45
61	181	65
33	187	69
-7	155	103
-42	96	109
-48	34	68
-29	-4	93
-3	-5	104
2	29	45
-31	74	-65
-92	94	-102
-152	74	-89
-167	13	-150
-113	-63	-209
2	-122	-153
136	-141	-60
236	-120	48
257	-80	116
194	-46	162
81	-45	151
-25	-72	52
-75	-113	9
-53	-141	-31
16	-138	-43
83	-103	-54
101	-53	-126
51	-13	-109
-50	-3	-65
-156	-24	-77
-225	-62	-44
-226	-93	9
-170	-94	24
-88	-57	71
-15	8	69
30	81	24
55	142	41
76	174	-1
114	181	-3
170	169	28
216	153	-10
229	138	-112
175	123	-181
68	100	-195
-64	52	-169
-174	-15	-106
-223	-96	-36
-195	-167	63
-123	-202	79
-42	-183	40
8	-112	-39
15	-16	-88
-3	68	-31
-20	108	-7
-11	89	33
18	29	42
45	-30	-17
42	-54	-12
-10	-31	-23
-92	17	24
-174	43	54
-214	11	24
-195	-83	-46
-122	-199	-52
-22	-276	-15
69	-264	-128
132	-163	-134
159	-11	-179
158	121	-203
139	187	-128
120	180	-36
104	138	149
94	108	103
90	119	56
84	158	89
70	183	57
42	161	10
0	81	-57
-55	-26	-77
-109	-117	-22
-144	-157	25
-158	-144	-20
-143	-107	16
-113	-68	-27
-77	-51	-75
-38	-45	-27
3	-33	-46
44	-5	-23
87	35	24
126	67	-9
151	83	5
158	68	56
134	33	-167
85	-19	-207
6	-83	-35
-92	-151	19
-190	-210	62
-262	-237	76
-278	-207	91
-221	-110	93
-99	27	32
49	158	-44
166	233	-94
212	219	-166
183	143	-81
106	53	55
34	7	54
8	25	46
28	90	-39
65	152	-92
72	166	-98
24	122	-172
-67	35	-205
-160	-53	-91
-199	-123	-2
-170	-165	41
-88	-190	56
2	-205	28
55	-199	12
62	-162	-34
38	-81	-28
22	23	19
36	112	42
80	148	4
123	117	-17
134	48	39
101	-11	6
28	-23	-100
-51	9	-211
-114	50	-137
-143	50	7
-144	-14	75
-123	-118	142
-88	-207	98
-33	-221	68
39	-140	-6
118	-1	-31
184	137	-72
212	211	-169
190	204	-201
122	138	-276
33	66	-282
-51	22	-219
-118	16	-55
-167	32	79
-214	43	152
-261	43	171
-296	35	168
-297	33	167
-244	34	94
-140	18	40
-11	-32	11
107	-121	-49
184	-213	-97
212	-261	-82
208	-221	-58
196	-88	0
186	85	-26
167	218	-45
111	243	-12
10	135	-33
-123	-59	12
-240	-257	22
-288	-376	-11
-239	-368	4
-104	-249	-40
57	-77	-34
188	79	-59
238	168	-155
211	183	-193
150	150	-155
98	103	-10
89	72	92
107	61	123
124	63	91
104	60	29
41	45	1
-40	17	-17
-106	-16	5
-126	-47	-30
-111	-67	-80
-86	-78	-67
-85	-75	-137
-116	-56	-129
-157	-23	-11
-164	27	16
-108	93	21
7	163	104
136	233	138
226	275	168
231	278	113
153	224	-3
35	108	-114
-66	-45	-324
-110	-199	-337
-93	-300	-179
-52	-311	37
-27	-227	81
-39	-77	-20
-76	77	0
-99	182	-55
-75	204	-31
9	154	78
130	64	15
254	-20	16
335	-78	-30
346	-104	-259
283	-115	-261
151	-125	-98
-34	-137	-13
-239	-142	66
-421	-133	175
-538	-110	285
-542	-85	285
-436	-66	196
-248	-56	87
-39	-37	-141
122	6	-312
205	76	-339
209	153	-251
175	200	-85
139	189	-32
131	113	27
138	8	107
135	-78	84
100	-100	70
28	-49	103
-53	35	7
-120	103	-223
-147	105	-184
-130	40	-74
-88	-61	-119
-37	-145	-99
4	-174	-112
25	-144	-136
24	-86	-48
3	-39	48
-34	-28	80
-70	-45	91
-93	-64	117
-85	-52	112
-47	-6	50
7	57	-7
51	106	-20
65	110	32
46	70	31
5	4	13
-32	-60	43
-43	-97	-18
-26	-92	-81
7	-50	-118
37	17	-85
57	90	-37
66	145	-38
80	169	-16
106	145	-2
138	89	4
159	19	-15
147	-28	2
101	-36	3
34	-11	28
-28	25	14
-63	33	-32
-70	4	-4
-63	-49	-118
-66	-84	-170
-85	-65	-24
-108	6	21
-103	100	-98
-46	166	-91
59	164	26
183	90	50
270	-17	5
285	-108	-76
210	-151	-31
77	-145	-16
-68	-127	-136
-181	-128	-55
-237	-168	129
-245	-224	180
-222	-259	155
-190	-243	45
-162	-162	-149
-132	-37	-353
-99	93	-410
-57	194	-298
-12	247	-130
39	251	22
90	224	20
143	182	38
184	143	43
196	113	58
159	88	150
59	56	151
-72	6	110
-193	-74	70
-253	-175	38
-218	-275	-103
-110	-332	-104
22	-318	8
113	-222	26
129	-66	56
84	96	1
27	210	-7
14	247	-52
66	210	-80
158	135	-39
230	69	3
228	38	32
131	36	-27
-27	37	-7
-191	11	40
-303	-46	22
-325	-114	57
-268	-149	30
-154	-117	-118
-22	-28	-186
102	80	-259
191	150	-227
226	143	-98
195	68	-32
107	-28	72
-12	-87	85
-115	-70	24
-159	5	-2
-135	86	53
-61	112	52
7	51	-25
30	-66	-94
-8	-183	-155
-79	-236	-59
-130	-196	-5
-126	-90	-8
-58	27	39
36	104	11
115	123	40
148	106	19
135	84	-22
106	81	-4
94	89	1
107	87	11
128	51	4
126	-12	-36
77	-80	-39
-19	-127	-54
-131	-141	-243
-225	-130	-188
-269	-116	-84
-256	-112	-36
-193	-113	70
-97	-94	64
16	-39	87
126	54	70
214	159	-13
265	241	-227
261	277	-203
204	262	-46
113	215	5
14	156	122
-67	86	38
-123	0	-10
-156	-106	43
-176	-222	26
-190	-312	43
-189	-339	48
-160	-286	61
-89	-171	1
13	-49	-82
121	28	-87
199	39	-89
224	12	-63
184	3	-10
107	51	-13
22	155	-123
-42	252	-118
-68	266	-22
-65	153	37
-42	-61	49
-23	-282	12
-18	-406	22
-34	-368	-7
-63	-196	-60
-91	13	-77
-104	158	-66
-85	181	-11
-33	114	30
41	33	34
115	11	36
170	60	-6
192	137	-42
184	168	-15
162	116	-20
130	14	-41
90	-68	-85
20	-66	-40
-95	13	18
-251	106	20
-405	129	23
-491	34	-49
-455	-134	-49
-277	-278	0
-14	-301	-56
239	-180	-99
375	17	-81
346	174	-101
181	202	-66
-28	99	-19
-167	-56	61
-177	-153	63
-79	-129	4
52	-11	-3
123	113	-52
94	151	-13
-12	79	42
-119	-52	-48
-158	-147	-58
-104	-137	-22
6	-34	-62
111	96	-51
162	170	-57
148	148	-162
101	60	-162
59	-19	27
48	-29	16
55	29	-27
51	110	43
17	139	65
-44	86	107
-102	-31	36
-128	-144	-48
-106	-195	-97
-50	-164	-141
12	-83	-100
52	-7	-38
61	26	-1
45	16	19
22	2	104
8	15	84
7	68	29
18	132	48
34	171	-68
51	164	-114
62	114	-31
59	58	24
38	22	-38
-4	7	-74
-58	-9	-93
-108	-56	-135
-126	-135	7
-102	-216	121
-37	-250	61
49	-207	-10
124	-102	-55
165	15	-69
155	88	-49
104	92	-21
32	50	11
-35	12	30
-83	17	4
-109	55	-67
-119	77	-92
-126	23	-91
-126	-107	-112
-107	-257	-89
-52	-325	4
38	-238	66
141	-13	63
212	247	78
206	404	33
99	362	-86
-84	139	-132
-271	-138	-74
-383	-330	-88
-354	-343	-86
-190	-200	-46
37	-16	-43
230	81	5
291	37	59
200	-102	45
6	-229	-76
-194	-248	-70
-299	-137	-27
-272	28	-4
-149	159	71
-6	192	183
74	144	203
64	85	130
-4	81	67
-65	142	-128
-64	211	-236
11	211	-261
119	102	-193
195	-82	-61
193	-249	-25
119	-309	26
13	-230	-43
-66	-62	-69
-85	98	-101
-44	169	-109
19	131	52
67	35	84
83	-38	66
74	-29	49
63	60	-6
69	174	-47
91	244	-55
111	227	-47
113	132	0
96	13	10
69	-74	-26
51	-102	-50
42	-79	-78
30	-40	-64
-4	-21	-40
-71	-28	33
-152	-52	48
-209	-67	13
-204	-62	-7
-119	-34	-79
20	2	17
171	27	68
275	41	-7
300	48	49
245	63	26
139	86	5
20	115	13
-85	132	-41
-166	122	-62
-230	83	-87
-277	17	-165
-304	-52	-184
-298	-105	-176
-247	-127	-116
-157	-123	-11
-46	-108	-35
54	-94	-1
121	-98	98
141	-109	99
135	-118	49
121	-103	-17
115	-61	-62
120	-8	-82
117	33	-70
85	41	42
11	11	66
-89	-42	48
-188	-86	52
-237	-99	12
-211	-85	-46
-118	-59	-143
17	-47	-100
132	-54	-43
190	-64	-21
166	-47	19
87	14	2
8	106	-17
-21	200	-117
28	244	-128
124	224	-14
205	137	-1
196	20	0
62	-99	16
-169	-202	-3
-412	-286	18
-565	-344	68
-561	-353	164
-394	-289	150
-148	-137	39
90	71	-70
234	267	-187
256	373	-192
204	351	-137
135	223	-8
102	66	82
107	-22	140
123	-3	105
111	89	-75
63	170	-188
-1	157	-199
-53	31	-74
-62	-149	-113
-34	-281	-144
11	-292	-24
42	-178	-71
49	-5	-19
42	128	32
41	164	44
56	109	15
86	28	-32
111	-11	61
111	14	91
91	75	16
54	114	-64
16	86	-44
-16	0	-71
-47	-98	-150
-83	-149	-68
-123	-133	-13
-158	-69	-71
-172	-8	-52
-151	18	-13
-100	7	44
-35	-7	120
29	16	136
80	87	106
121	180	94
154	244	26
171	236	-60
163	148	-138
118	13	-170
36	-113	-151
-67	-195	-147
-155	-212	-23
-196	-179	-39
-176	-117	-57
-108	-45	-50
-21	30	-47
49	106	0
82	177	12
77	225	57
44	233	3
11	182	-10
-13	83	-14
-20	-46	9
-11	-176	116
2	-283	183
12	-352	173
9	-370	91
-5	-339	-27
-29	-263	-155
-48	-154	-231
-52	-34	-219
-31	68	-115
10	134	-54
59	147	12
97	117	-33
105	65	-71
85	17	-16
42	-7	-55
-5	0	-103
-48	35	-91
-86	81	1
-118	117	28
-147	120	16
-159	67	2
-142	-42	-4
-89	-192	2
-10	-334	72
66	-408	107
105	-368	14
85	-206	-48
16	27	-143
-61	250	-83
-108	382	-18
-92	388	-7
-26	287	72
49	153	47
89	51	14
66	15	-15
-3	22	-65
-75	23	-165
-107	-13	-108
-89	-88	6
-45	-160	59
-20	-180	141
-42	-126	9
-100	-22	-91
-148	81	-131
-132	136	-200
-36	131	-183
114	95	-60
253	68	-4
318	79	-68
279	120	59
169	155	145
41	149	51
-41	89	-6
-57	0	-16
-34	-80	-25
-8	-121	9
-11	-121	-2
-36	-97	-96
-56	-68	-105
-40	-49	-41
17	-31	-57
86	-5	-70
131	29	-5
119	54	-4
58	49	-18
-17	8	11
-67	-55	-34
-76	-108	-83
-52	-111	-69
-27	-61	-21
-30	12	63
-60	61	50
-95	55	-15
-99	-10	-62
-60	-99	-7
4	-161	-34
59	-163	-20
76	-104	78
44	-23	81
-5	42	152
-31	70	113
-6	66	80
69	63	64
159	85	-43
214	128	-162
204	161	-172
125	150	-171
14	79	-123
-95	-31	-115
-165	-131	-143
-191	-176	-139
-194	-153	-101
-188	-91	57
-184	-41	71
-174	-45	56
-148	-102	-109
-97	-168	-82
-31	-190	-5
29	-134	-20
66	-23	58
67	84	-13
48	122	34
25	61	34
26	-61	11
54	-174	12
99	-200	39
139	-118	87
150	35	-34
123	174	-154
66	224	-120
8	164	-56
-28	39	-95
-24	-58	-62
16	-58	-56
72	51	-90
115	214	-56
122	328	33
88	313	79
15	161	13
-72	-64	-26
-161	-257	-44
-233	-326	43
-279	-257	106
-296	-102	122
-273	41	28
-212	101	-40
-114	61	38
5	-22	34
122	-70	72
212	-32	79
254	82	-9
249	205	-96
205	257	-265
144	202	-402
84	67	-237
30	-65	-32
-20	-120	35
-71	-74	91
-126	26	76
-175	93	152
-202	63	170
-197	-66	21
-153	-226	-115
-81	-313	-189
1	-265	-215
75	-99	-214
118	106	-107
132	247	-6
118	255	-25
90	139	-34
58	-25	36
36	-152	43
28	-186	48
17	-131	32
-4	-37	42
-49	40	63
-112	69	47
-170	60	19
-194	38	-58
-151	28	-43
-42	33	-14
104	43	15
237	41	112
301	28	151
276	10	101
183	1	-25
66	4	-138
-22	7	-248
-58	-9	-267
-56	-56	-166
-48	-127	-69
-65	-196	-6
-110	-237	-48
-160	-216	-76
-180	-135	-8
-152	-14	11
-87	113	-53
-15	202	-12
33	223	20
52	158	0
62	34	100
86	-107	168
145	-206	69
216	-224	-20
271	-153	-89
271	-28	-90
204	88	-41
87	139	-30
-44	105	48
-153	14	57
-226	-75	69
-262	-100	20
-272	-41	-60
-256	74	-90
-212	183	-102
-133	230	-100
-26	192	-143
82	96	-2
160	0	128
180	-44	151
137	-24	-33
52	39	-266
-42	90	-197
-120	85	-123
-165	13	-127
-176	-98	-60
-165	-196	24
-138	-244	12
-103	-213	95
-59	-118	216
-12	10	112
33	128	-19
75	206	-6
111	228	-56
144	196	-160
175	129	-242
193	51	-301
187	-11	-138
148	-43	54
81	-50	64
0	-50	57
-67	-69	110
-109	-119	124
-126	-186	133
-140	-236	74
-161	-228	-13
-181	-147	-67
-178	-16	-70
-121	115	-47
0	191	-19
159	187	-25
296	116	-87
351	28	-135
294	-36	-134
143	-51	5
-39	-41	61
-186	-33	15
-247	-54	13
-221	-102	8
-132	-148	-34
-28	-166	-89
58	-147	-102
119	-113	-71
151	-86	-20
155	-72	60
132	-60	68
83	-13	40
20	69	49
-32	171	-19
-49	241	-37
-27	237	-90
19	154	-107
48	31	-14
33	-64	47
-35	-90	57
-130	-43	26
-206	33	11
-231	95	-34
-191	117	-89
-111	114	-92
-19	122	-85
59	158	-124
118	202	-124
167	208	-61
209	136	-62
238	-6	-24
225	-169	97
149	-278	35
12	-289	-17
-150	-211	20
-278	-102	38
-325	-25	87
-277	-13	79
-165	-50	85
-42	-81	90
33	-61	15
44	16	-145
12	115	-173
-20	185	-109
-4	193	-136
72	138	-108
193	53	-147
308	-24	-140
373	-70	-74
346	-89	-99
226	-95	-108
34	-101	-40
-193	-117	68
-392	-142	107
-516	-174	123
-536	-204	103
-448	-226	126
-281	-213	171
-83	-150	139
103	-30	51
239	124	-26
306	269	-111
314	354	-130
270	353	-156
197	272	-267
107	154	-176
16	43	-76
-61	-26	6
-109	-66	55
-124	-104	-11
-117	-161	-54
-100	-231	8
-88	-273	37
-84	-254	-32
-72	-159	-55
-44	-21	-124
6	101	-140
64	150	-76
113	109	86
127	11	124
109	-80	-1
75	-105	48
39	-50	55
20	52	-75
8	147	-190
-8	178	-176
-36	136	-51
-65	43	29
-74	-47	87
-46	-98	130
12	-90	160
69	-32	139
93	43	3
55	106	-139
-22	130	-93
-98	114	-37
-121	62	-66
-70	0	-18
33	-48	11
139	-61	-70
192	-33	-112
161	20	28
64	65	3
-48	75	-102
-126	35	-47
-145	-31	38
-110	-85	80
-48	-82	38
8	-18	52
50	82	64
86	159	12
126	168	-102
164	95	-156
180	-27	-138
144	-133	-96
49	-174	-27
-88	-134	-32
-221	-51	-37
-300	22	-51
-303	40	-72
-234	-3	-61
-136	-71	-55
-49	-119	-21
1	-110	91
23	-46	101
40	49	95
74	142	91
128	213	-2
180	257	-51
205	272	-139
184	253	-185
126	183	-137
44	58	-29
-42	-105	-22
-113	-257	-3
-165	-336	-15
-190	-307	-36
-184	-183	-47
-139	-30	-98
-64	65	-25
18	48	-10
77	-75	95
86	-237	74
49	-349	14
-1	-346	17
-21	-232	49
12	-66	143
85	65	80
142	106	-57
128	54	-213
24	-44	-247
-140	-126	-192
-285	-154	-154
-333	-127	-132
-257	-72	56
-89	-20	131
89	18	52
196	43	81
197	72	30
116	105	-37
11	131	-47
-48	139	-19
-40	127	-44
22	113	-134
96	116	-150
139	154	-75
136	208	45
91	244	68
24	228	133
-43	142	196
-99	19	72
-132	-96	-36
-137	-153	-81
-110	-133	-134
-50	-59	-222
28	27	-174
104	83	-83
158	93	5
175	66	84
163	32	155
128	13	149
86	13	-41
40	20	-16
-8	14	62
-59	-15	-5
-110	-63	-91
-145	-112	-109
-152	-147	-53
-130	-159	-40
-86	-141	-48
-35	-100	-94
8	-31	-86
40	56	-132
69	150	-157
102	221	-33
139	233	-53
169	168	-5
163	36	83
116	-110	55
29	-212	51
-62	-212	41
-122	-102	-14
-121	71	-156
-59	231	-112
24	296	26
76	235	9
49	66	36
-66	-131	0
-236	-289	-10
-388	-354	51
-456	-322	24
-403	-225	-32
-245	-109	-34
-40	-9	16
141	62	34
245	110	33
268	135	-1
240	132	34
208	90	34
199	7	-72
201	-103	-50
181	-199	-30
102	-244	-100
-30	-213	-85
-177	-107	-42
-277	38	29
-277	168	116
-180	238	77
-30	218	84
102	117	108
155	-31	-5
121	-170	-128
31	-253	-267
-56	-253	-330
-100	-179	-309
-92	-72	-179
-61	16	-32
-40	50	6
-51	27	-19
-80	-29	-36
-95	-69	7
-71	-61	110
-4	4	189
86	99	225
166	181	183
210	217	-45
216	199	-219
196	145	-282
165	89	-309
130	49	-311
87	32	-83
30	21	155
-43	8	202
-116	-14	210
-172	-30	115
-197	-26	41
-191	2	1
-164	41	-64
-123	70	-127
-72	68	-67
-4	40	-20
82	6	-150
175	-5	-158
245	19	-11
258	75	-15
206	127	45
101	143	92
-14	103	16
-96	12	-9
-124	-100	-30
-110	-192	-31
-89	-240	-45
-88	-235	0
-113	-188	22
-136	-122	53
-125	-47	31
-56	33	-31
57	119	-15
175	198	-39
262	247	-30
283	238	-24
239	154	-16
142	15	44
11	-125	57
-136	-210	40
-277	-196	-56
-383	-93	-47
-423	47	-61
-377	149	-147
-253	154	-102
-96	58	-8
35	-99	74
96	-249	52
85	-345	33
46	-368	8
42	-326	-86
111	-257	-204
232	-174	-131
336	-81	3
346	17	46
226	103	172
10	154	163
-212	141	127
-343	78	114
-325	1	-31
-187	-35	-248
1	7	-270
143	114	-131
183	230	-175
131	287	-177
36	247	-79
-35	127	-45
-52	-13	-17
-16	-109	-13
39	-134	37
71	-106	128
65	-72	130
22	-62	65
-36	-75	34
-92	-76	54
-130	-36	-120
-147	43	-312
-140	127	-248
-112	166	-311
-65	135	-282
-7	57	1
46	-17	181
84	-37	135
97	0	12
91	60	52
81	86	21
78	47	27
87	-37	116
99	-112	87
104	-120	91
89	-47	62
52	66	-8
6	157	4
-33	168	22
-47	103	-33
-32	4	-150
12	-69	-282
68	-88	-224
120	-60	-24
139	-28	26
107	-26	96
20	-51	103
-115	-71	61
-256	-52	47
-358	16	29
-383	103	36
-313	152	-18
-172	127	8
-11	36	-1
115	-75	19
167	-143	42
140	-136	0
72	-56	-8
7	51	-65
-12	138	-97
29	178	-108
115	169	-43
215	130	86
294	76	60
331	13	-48
316	-56	-154
251	-126	-181
139	-179	-161
-11	-204	-162
-186	-203	-122
-354	-200	-6
-472	-221	123
-503	-267	120
-428	-316	109
-264	-318	31
-63	-241	59
117	-90	60
216	79	-78
215	195	-70
130	215	-48
9	150	28
-96	55	21
-147	-3	-50
-143	0	-187
-105	39	-279
-57	59	-323
-21	22	-332
2	-65	-133
19	-147	-9
37	-158	93
58	-70	130
74	80	145
81	221	128
81	286	85
89	253	93
110	161	-26
151	70	-165
192	34	-141
216	55	-60
205	99	15
155	118	175
78	89	192
-11	31	170
-92	-22	74
-161	-36	-97
-212	-13	-205
-244	26	-289
-242	45	-241
-195	30	-131
-106	-6	57
14	-34	142
129	-26	135
206	18	137
229	71	66
195	96	-17
131	64	-149
60	-20	-134
1	-126	-82
-52	-209	-125
-104	-237	-52
-164	-202	28
-223	-127	84
-253	-51	105
-237	2	53
-159	20	-22
-31	21	-79
117	27	-34
248	54	-3
329	105	42
333	161	112
254	202	38
113	215	-34
-61	199	-12
-218	154	-45
-319	70	-56
-340	-53	-141
-286	-227	-162
-197	-423	-56
-113	-590	-72
-72	-655	-110
-74	-573	-116
-88	-344	-23
-68	-30	11
12	254	-32
142	415	47
285	409	71
383	279	6
403	122	-48
340	27	-74
225	32	8
96	102	42
-19	154	51
-115	117	87
-198	-13	112
-269	-183	102
-312	-309	-105
-304	-321	-69
-237	-216	-30
-121	-49	-124
-2	100	-117
78	174	-254
101	168	-105
75	112	-30
44	63	-176
42	48	-238
77	67	-145
123	88	-55
139	85	-6
103	49	89
13	-5	3
-84	-52	39
-149	-76	94
-150	-68	168
-97	-43	59
-23	-9	-43
39	30	-26
72	72	-56
84	118	11
94	150	46
114	155	57
141	120	-104
158	51	-202
144	-24	-78
97	-78	42
31	-87	-11
-24	-59	-11
-48	-17	56
-38	12	111
-7	22	106
23	27	27
30	48	21
16	95	-69
-14	145	-136
-41	163	-115
-51	121	-68
-38	29	-45
-8	-66	18
19	-110	110
29	-69	105
1	20	87
-69	79	18
-177	22	-88
-287	-176	-156
-366	-453	-122
-375	-685	-35
-300	-741	62
-164	-572	129
-10	-238	65
103	122	19
140	364	16
104	420	5
36	328	-48
-3	196	-126
20	126	-109
104	147	-32
195	202	-21
236	193	-137
182	60	-195
52	-170	-92
-92	-390	-51
-187	-482	-32
-181	-387	56
-90	-144	11
36	120	-24
133	294	74
169	316	46
150	229	-23
119	123	2
115	88	-14
147	138	-117
186	225	-193
192	262	-273
139	197	-302
42	40	-117
-66	-139	134
-144	-260	393
-174	-277	438
-169	-204	242
-165	-96	-47
-182	-9	-294
-215	30	-468
-237	34	-476
-212	32	-261
-128	44	-130
-4	66	8
119	81	49
203	68	86
225	39	75
196	8	44
138	-5	60
77	-2	39
22	-5	102
-23	-34	70
-62	-97	34
-93	-166	97
-107	-204	108
-98	-180	30
-65	-93	-38
-17	19	-156
36	109	-105
87	141	-15
132	121	52
171	80	114
195	59	69
199	78	128
166	118	91
93	145	-10
-1	127	-156
-94	57	-116
-156	-30	22
-172	-88	-38
-161	-78	13
-147	-1	-23
-155	109	-88
-181	195	-127
-206	210	-162
-186	130	-108
-105	-21	-48
26	-202	27
169	-356	20
260	-437	-19
265	-427	-86
183	-340	-109
44	-204	-100
-102	-68	-95
-216	28	-35
-285	61	-24
-302	36	-32
-263	-25	13
-179	-86	66
-39	-116	112
125	-97	123
277	-30	138
363	62	124
341	158	57
219	222	-57
46	236	-238
-106	196	-298
-178	112	-156
-153	12	-34
-71	-72	-1
5	-117	69
24	-111	127
-25	-64	83
-104	0	-41
-161	56	-130
-152	93	-86
-80	105	12
27	105	163
120	101	264
166	103	232
166	104	87
138	98	-198
111	83	-399
95	56	-378
85	28	-306
64	2	-193
28	-15	-42
-20	-23	-34
-64	-19	-61
-87	-3	-60
-83	21	-68
-58	45	15
-34	51	200
-22	29	235
-20	-27	54
-20	-99	-98
-3	-152	-202
34	-150	-228
85	-79	-71
132	35	65
157	141	127
150	181	155
115	120	103
69	-21	20
20	-186	-65
-28	-296	-36
-91	-304	13
-170	-206	18
-258	-53	45
-321	77	20
-329	132	-59
-247	100	-77
-83	16	-162
120	-55	-275
299	-60	-94
386	15	23
354	143	33
226	267	55
46	335	-20
-115	318	31
-222	218	4
-267	70	52
-277	-92	135
-277	-241	168
-277	-362	128
-262	-449	-23
-199	-482	-88
-81	-448	-177
84	-326	-147
254	-129	-142
372	106	-156
401	324	-107
338	457	-85
216	465	-12
90	345	69
-8	135	155
-62	-104	127
-84	-316	78
-98	-453	-41
-120	-492	-127
-148	-433	-81
-162	-294	-94
-145	-107	-68
-93	81	-89
-20	222	-123
44	278	-114
78	243	-58
69	147	33
30	41	50
-14	-18	94
-42	-9	108
-40	51	47
-16	121	0
13	149	-69
28	122	-55
18	57	22
-10	-1	59
-37	-20	164
-48	7	238
-31	58	225
11	93	161
64	93	-11
116	65	-224
154	43	-413
172	56	-452
179	103	-317
167	158	-57
137	178	171
89	135	115
21	40	2
-51	-66	-175
-108	-135	-295
-134	-142	-215
-132	-93	-160
-117	-33	-80
-113	-5	121
-134	-32	233
-173	-99	79
-202	-160	-136
-191	-177	-147
-125	-129	-145
-23	-37	-203
76	60	-24
127	121	160
113	120	151
47	72	18
-26	3	-56
-69	-49	29
-65	-70	102
-33	-59	144
-6	-32	219
-10	-6	213
-43	4	53
-76	2	-110
-68	-4	-169
-1	-5	-158
114	6	-165
232	26	-95
302	46	-38
300	57	-36
223	49	12
107	21	3
-6	-31	49
-87	-93	16
-120	-144	22
-111	-169	61
-80	-145	9
-45	-80	17
-23	11	-90
-14	93	-86
-17	132	-35
-21	114	-49
-11	43	-47
23	-44	-77
82	-116	-155
143	-140	-133
180	-113	6
162	-54	-29
81	9	-16
-46	51	-13
-175	63	-24
-269	44	3
-295	2	-25
-258	-65	15
-195	-149	51
-136	-230	188
-108	-282	235
-101	-264	45
-95	-166	29
-61	6	75
7	193	-20
98	330	-79
183	362	-238
229	282	-88
225	138	-12
182	-8	-184
129	-94	-166
91	-104	-178
72	-61	-142
64	-8	-65
36	16	108
-23	15	120
-116	5	130
-209	14	141
-263	50	-68
-248	97	-300
-161	131	-282
-29	135	-173
91	115	-123
158	86	45
156	70	71
104	61	71
44	40	12
14	-7	-107
23	-82	-71
51	-159	-57
55	-200	-38
11	-181	22
-85	-110	-7
-186	-24	66
-241	37	103
-213	49	-23
-104	20	92
39	-16	183
154	-25	65
190	6	4
142	59	-41
52	103	-64
-19	110	-134
-24	76	-97
44	15	-44
151	-44	14
231	-84	140
240	-102	34
163	-106	-88
34	-106	-229
-95	-102	-283
-178	-91	-198
-191	-63	-62
-145	-25	87
-69	12	91
-1	38	107
40	53	39
49	68	7
23	97	36
-28	140	14
-90	191	15
-139	222	-12
-153	215	17
-111	174	48
-15	106	-8
116	31	-32
242	-43	-97
322	-117	-173
333	-196	-97
269	-270	-12
150	-322	100
-1	-321	216
-159	-259	272
-300	-157	196
-392	-60	68
-417	-17	-42
-369	-37	-239
-253	-91	-357
-116	-118	-302
-4	-78	-249
44	28	-209
25	150	-66
-30	215	100
-74	188	68
-67	80	-22
-9	-43	102
74	-113	126
143	-94	44
175	-11	-25
178	71	-83
175	103	-137
191	63	-91
212	-11	-27
214	-65	-67
157	-64	7
31	-12	42
-129	57	6
-263	103	-43
-319	103	22
-270	69	81
-138	29	-10
12	4	-64
126	-1	-15
169	1	68
147	4	17
92	4	-140
41	16	-289
18	45	-273
11	86	-211
3	112	-126
-25	99	-23
-81	39	31
-143	-49	205
-194	-124	219
-203	-151	77
-153	-118	7
-52	-44	-33
83	26	-122
214	60	-268
306	44	-182
341	0	0
306	-41	51
223	-48	79
118	-10	122
15	51	112
-68	102	10
-124	108	41
-161	55	56
-176	-45	28
-175	-157	36
-153	-236	81
-121	-252	143
-92	-190	144
-84	-69	131
-101	77	52
-130	204	-68
-148	274	-234
-119	273	-303
-38	210	-258
79	118	-278
192	32	-226
256	-15	-95
259	-9	-97
204	32	5
123	85	123
51	109	119
7	74	106
-15	-26	64
-28	-165	24
-48	-296	-10
-78	-361	-13
-96	-325	-60
-84	-192	-17
-24	-11	46
71	150	10
169	229	-32
226	199	-74
204	85	-57
90	-49	-19
-93	-144	45
-285	-171	95
-426	-144	106
-468	-103	102
-401	-82	51
-263	-92	-30
-119	-106	-77
-20	-89	-103
16	-29	-138
13	51	-134
14	109	-188
53	105	-314
133	40	-338
226	-44	-243
278	-90	-57
268	-58	85
200	41	163
113	157	116
48	224	0
16	199	70
2	90	32
-25	-63	-155
-80	-202	-189
-148	-282	-113
-189	-286	49
-170	-225	194
-92	-118	231
15	12	188
94	142	68
115	244	-111
89	299	-251
64	279	-116
88	198	-13
169	83	-32
262	-12	44
302	-53	-11
229	-27	-56
42	35	-57
-188	84	-32
-380	78	104
-452	10	199
-389	-84	139
-237	-154	51
-70	-162	-142
46	-102	-265
99	-7	-51
107	80	87
111	123	224
131	122	190
159	88	13
169	47	-155
132	15	-311
52	-14	-294
-50	-42	-246
-132	-72	-91
-159	-96	0
-123	-97	12
-45	-71	33
37	-28	29
86	17	26
89	55	46
52	86	51
5	127	43
-20	190	19
0	261	-31
63	307	-31
148	282	-12
214	170	53
232	-17	58
175	-213	87
56	-352	111
-94	-390	18
-241	-334	-74
-341	-238	-136
-374	-156	-76
-333	-127	-66
-236	-142	-108
-104	-166	-95
26	-160	-140
125	-110	-163
172	-39	-63
151	21	-46
77	45	-64
-30	38	-53
-125	20	-97
-181	16	-179
-181	34	-109
-135	57	76
-71	68	90
-22	43	182
-2	-10	138
-6	-76	18
-10	-127	-7
16	-142	-98
89	-117	-170
191	-49	-190
290	45	68
341	149	259
320	227	126
225	251	-74
90	205	-245
-44	100	-283
-143	-25	-245
-189	-122	-91
-193	-150	108
-171	-109	194
-141	-37	232
-110	17	150
-75	19	-59
-30	-21	-132
19	-60	-66
63	-47	-53
94	36	6
107	161	110
107	265	164
101	298	84
88	237	-50
66	117	-198
29	-7	-189
-20	-88	-182
-69	-113	-280
-101	-106	-63
-107	-96	170
-89	-98	278
-61	-98	294
-45	-70	196
-38	-6	56
-26	78	-150
14	142	-332
85	149	-359
166	98	-261
215	18	-130
186	-36	-13
74	-34	22
-91	17	77
-244	79	130
-321	97	117
-300	51	93
-197	-36	70
-66	-110	81
44	-116	53
113	-35	36
153	101	17
178	225	-31
202	268	-74
211	209	-106
189	70	-156
130	-81	-172
55	-176	-49
-1	-182	-4
-16	-121	-2
3	-59	4
15	-64	-47
-20	-167	-137
-119	-339	-228
-255	-507	-182
-366	-578	-94
-405	-503	-39
-343	-297	-25
-214	-29	12
-70	204	90
41	339	187
104	362	233
139	319	192
171	265	127
214	241	56
249	227	-105
251	174	-331
191	41	-391
75	-175	-254
-64	-418	-36
-188	-596	17
-257	-627	38
-255	-486	70
-191	-223	26
-86	67	29
26	279	17
118	365	60
163	325	21
155	225	-22
98	135	-51
23	99	-108
-39	119	-77
-60	158	-56
-39	180	53
-4	158	20
18	100	-25
0	29	65
-47	-27	60
-91	-54	208
-92	-55	183
-39	-42	-125
48	-21	-241
129	7	-84
164	41	-44
148	75	-157
103	96	-162
65	90	-143
60	57	-76
81	8	-49
96	-32	2
72	-44	-12
8	-24	-2
-79	13	61
-145	36	60
-165	28	93
-129	-13	139
-63	-62	106
1	-90	40
44	-76	-32
66	-17	-90
80	55	-43
99	110	-114
129	119	-111
159	88	26
172	35	38
155	-8	-4
94	-19	-70
-10	5	-118
-150	49	-30
-292	85	16
-393	88	-63
-417	43	-143
-329	-38	-172
-153	-127	-131
48	-186	-100
196	-178	26
234	-94	123
148	39	78
0	165	2
-133	209	-92
-185	132	-71
-139	-56	-55
-41	-288	-36
51	-464	-39
91	-498	-47
81	-375	20
48	-149	77
26	70	236
22	174	331
17	120	194
-15	-52	126
-81	-238	39
-148	-326	-245
-169	-271	-460
-118	-94	-490
0	108	-364
133	237	-182
236	235	-52
266	123	-21
232	-18	77
162	-103	116
89	-80	142
23	30	249
-39	168	245
-106	257	160
-173	260	-32
-211	188	-122
-193	85	-164
-115	11	-137
-1	-11	91
97	15	168
144	57	1
130	86	-125
79	87	-230
28	67	-244
8	45	-128
19	28	-76
34	14	33
33	-11	90
4	-51	20
-33	-100	7
-58	-135	211
-52	-138	299
-22	-106	182
12	-48	57
28	9	-90
19	45	-190
-3	60	-359
-20	62	-410
-23	71	-309
-16	92	-133
-6	116	-11
-4	120	-19
-9	85	-77
-14	14	23
-21	-75	178
-39	-141	135
-82	-165	133
-148	-135	120
-213	-72	107
-239	-7	80
-186	41	57
-51	74	79
128	106	16
280	151	-127
357	204	-168
325	236	-144
214	209	-148
86	106	-114
-10	-55	-132
-44	-216	-70
-40	-315	6
-26	-311	66
-27	-215	123
-36	-93	133
-28	-9	150
12	-4	76
77	-64	-16
123	-137	-123
111	-155	-176
29	-90	-162
-94	28	-184
-194	143	-144
-225	196	-89
-173	168	72
-81	80	112
-8	-15	-26
4	-81	-26
-40	-116	-105
-96	-138	-49
-118	-175	-16
-85	-215	-95
-26	-228	-120
11	-171	-111
-3	-38	34
-53	126	80
-81	253	138
-27	274	200
121	179	155
314	10	85
454	-144	-38
454	-211	-155
295	-167	-136
20	-41	-20
-256	96	10
-443	185	32
-497	199	95
-431	153	33
-307	78	-145
-185	4	-312
-97	-54	-308
-38	-98	-130
13	-124	-83
74	-130	-112
144	-104	-67
198	-47	24
219	23	-10
203	85	-94
163	110	-11
120	99	-4
84	61	70
57	26	149
23	13	166
-20	22	167
-70	40	122
-112	48	96
-126	42	-2
-102	35	-101
-43	40	-109
25	69	-13
86	106	13
118	124	26
120	96	-24
97	24	-57
63	-65	-51
33	-128	-42
13	-129	21
10	-66	24
15	21	91
24	81	57
21	72	-35
4	2	-155
-24	-92	-265
-46	-150	-222
-44	-134	-182
-7	-48	-48
57	66	24
121	158	-35
151	190	-88
129	163	-183
54	104	-76
-39	40	93
-120	-18	123
-167	-83	196
-182	-169	213
-181	-270	234
-178	-351	175
-170	-361	-25
-133	-276	-278
-56	-113	-408
50	61	-344
150	165	-179
186	150	12
129	27	48
7	-127	-4
-118	-229	0
-161	-215	64
-88	-99	84
68	53	85
222	160	-10
266	166	-76
164	85	-82
-58	-28	-8
-300	-101	175
-455	-97	189
-463	-27	30
-339	64	-195
-156	131	-303
9	157	-258
111	153	-76
156	149	170
175	165	225
198	196	208
228	215	45
241	191	-173
215	121	-209
149	16	-229
63	-84	-232
-8	-149	-262
-45	-163	-127
-50	-134	-4
-47	-88	-34
-48	-50	37
-55	-34	80
-50	-36	121
-22	-40	164
29	-25	213
81	17	190
101	77	92
77	132	59
15	152	39
-45	122	89
-81	54	116
-79	-20	48
-59	-60	46
-54	-49	-9
-78	-6	-107
-122	25	-132
-151	2	-185
-129	-88	-225
-47	-202	-264
74	-274	-248
187	-248	-172
254	-112	-64
257	77	24
210	230	8
139	277	0
68	201	-40
6	51	-86
-55	-94	-54
-119	-173	10
-179	-177	84
-213	-143	121
-207	-123	129
-161	-141	16
-98	-179	-118
-50	-192	-132
-35	-149	-119
-51	-46	-70
-64	78	100
-48	171	213
18	200	196
116	169	175
210	98	-3
265	20	-231
260	-48	-468
196	-96	-409
92	-119	-206
-30	-112	-144
-154	-64	7
-262	13	-8
-342	97	-93
-375	145	-102
-339	129	45
-235	54	186
-81	-37	245
86	-93	335
212	-77	368
269	0	302
253	90	135
193	139	39
128	125	-120
89	63	-308
81	2	-345
89	-24	-196
85	-12	-224
46	8	-376
-18	-1	-249
-94	-49	-65
-145	-108	4
-153	-121	67
-105	-52	133
-18	89	54
82	244	-10
167	343	19
216	331	125
222	210	155
180	39	105
107	-116	59
16	-203	10
-72	-217	-36
-145	-187	-120
-189	-153	-86
-194	-135	-6
-170	-132	77
-122	-123	99
-72	-90	22
-41	-37	-24
-37	19	1
-54	58	-19
-71	68	-24
-63	64	35
-9	58	-55
85	71	-127
184	103	-201
242	140	-96
216	166	59
101	168	35
-66	145	35
-217	110	-69
-292	79	-104
-257	53	-118
-131	31	-36
28	-4	-42
165	-65	-47
229	-151	-8
216	-247	-65
152	-322	-95
64	-354	-170
-25	-330	-77
-101	-260	-42
-155	-177	-23
-172	-113	47
-133	-89	48
-46	-103	83
65	-131	87
145	-143	78
144	-113	160
42	-39	321
-129	64	359
-291	170	225
-372	255	-76
-321	300	-372
-162	300	-530
36	259	-659
192	180	-493
249	85	-103
204	-7	-53
101	-71	-39
0	-93	85
-58	-72	89
-61	-36	112
-32	-13	69
3	-23	47
27	-62	108
37	-101	65
52	-103	57
81	-52	43
119	38	-9
148	131	16
150	195	1
116	210	-89
59	194	-134
4	173	-109
-29	162	-33
-29	153	1
-7	113	-14
14	25	-18
9	-103	-19
-29	-227	69
-87	-289	134
-136	-258	191
-145	-143	207
-100	-4	49
-8	96	-91
100	119	-144
184	71	-203
216	-3	-254
189	-56	-229
119	-66	-40
44	-44	45
-6	-10	78
-27	8	142
-33	13	130
-57	19	112
-126	41	-26
-236	79	-97
-345	110	-93
-392	119	-133
-343	92	-112
-189	40	-31
13	-19	-42
187	-80	-132
269	-143	-106
238	-224	-31
133	-308	20
23	-371	28
-34	-361	36
-23	-256	57
25	-69	48
63	130	38
50	257	-47
-13	250	-99
-94	110	-59
-145	-81	26
-143	-218	41
-89	-225	-129
-15	-90	-261
49	114	-183
94	282	29
119	334	264
142	258	408
171	111	381
193	-21	167
184	-70	-246
128	-37	-630
30	35	-544
-89	77	-348
-191	50	-232
-249	-38	53
-252	-138	312
-210	-191	488
-152	-164	369
-92	-65	59
-46	55	-205
-13	147	-441
14	171	-573
46	134	-447
78	65	-93
104	4	28
117	-19	90
106	-5	119
72	20	108
21	26	149
-30	-13	111
-65	-88	46
-72	-169	-5
-46	-206	1
10	-175	49
83	-78	99
154	47	152
211	143	205
245	171	184
256	126	106
240	46	32
192	-13	-70
117	-13	-186
10	49	-172
-112	132	-91
-237	182	-20
-325	155	4
-366	58	16
-345	-63	-21
-277	-145	-174
-188	-143	-226
-100	-58	-215
-30	66	-171
21	161	-57
56	177	57
82	109	64
98	-5	-15
101	-103	29
96	-138	91
95	-96	65
117	-7	24
169	74	89
237	93	164
286	33	124
269	-90	20
162	-243	-181
-29	-371	-248
-253	-441	-217
-438	-435	-88
-515	-356	37
-463	-227	-52
-314	-70	-12
-125	75	115
32	180	63
123	226	-106
144	218	-136
122	182	-112
94	148	-86
81	136	-94
91	142	-113
107	138	70
115	87	132
102	-19	46
66	-154	-79
12	-263	-160
-50	-286	-155
-111	-201	-122
-156	-37	11
-168	135	94
-142	250	155
-77	268	101
11	208	-33
98	119	-79
159	57	-133
171	51	-187
139	88	-104
85	121	-27
30	110	-79
1	40	-65
2	-66	-38
23	-171	57
39	-224	142
28	-205	94
-19	-123	32
-85	-12	-58
-143	85	-76
-158	135	-16
-113	126	-21
-18	77	39
92	17	78
167	-20	33
174	-21	-17
105	2	-66
-6	24	-42
-110	13	-13
-159	-33	1
-129	-95	20
-46	-134	-8
49	-121	-91
102	-53	-74
90	39	6
23	110	16
-56	130	37
-97	99	21
-74	43	3
9	6	-5
109	6	-5
175	38	-45
181	75	-82
124	90	47
39	78	155
-31	51	99
-62	32	-79
-67	15	-166
-74	-17	-144
-111	-93	-222
-180	-213	-211
-253	-345	-128
-279	-426	-80
-225	-393	14
-99	-236	69
56	2	151
175	224	176
212	332	100
172	278	104
97	83	65
35	-163	-97
21	-354	-208
47	-411	-218
75	-320	-136
67	-134	-108
10	62	-197
-75	194	-150
-144	233	12
-166	195	74
-130	136	32
-57	102	-37
19	109	-42
71	138	-48
96	150	-33
100	120	-14
94	45	28
86	-32	125
72	-76	132
52	-53	55
33	18	-104
21	97	-116
25	131	-26
41	92	-53
52	0	99
35	-100	238
-18	-148	234
-99	-114	186
-170	-16	79
-199	103	-49
-166	191	-284
-88	211	-338
-1	170	-259
56	97	-182
58	24	-58
21	-38	-130
-30	-91	-131
-60	-149	6
-55	-209	-29
-28	-254	-41
1	-250	-64
7	-182	50
-10	-64	91
-37	59	-13
-53	142	-19
-44	158	-77
-17	117	-14
19	62	-28
50	37	-9
78	58	30
104	105	18
135	138	52
166	127	52
178	70	95
151	4	98
83	-33	61
-10	-27	10
-98	3	-63
-144	4	-126
-132	-58	-126
-70	-186	-80
15	-330	-98
86	-413	-65
114	-379	119
86	-225	163
15	-5	152
-84	195	216
-173	287	211
-229	241	189
-240	82	3
-200	-120	-97
-136	-281	-209
-74	-344	-467
-38	-291	-517
-40	-159	-455
-63	2	-313
-79	138	-211
-47	215	-63
36	235	173
161	205	289
285	150	352
365	90	271
363	33	107
283	-13	-84
144	-46	-185
-10	-56	-157
-138	-42	-139
-219	-6	-28
-245	35	15
-229	62	-51
-183	61	-168
-125	28	-153
-66	-13	-33
-11	-37	-93
36	-19	-31
80	43	96
113	125	162
132	191	196
139	204	155
127	151	19
104	40	-47
68	-87	26
34	-192	-139
-1	-240	-207
-31	-214	-52
-58	-129	-11
-84	-18	-65
-104	76	-37
-119	123	80
-118	113	112
-99	58	152
-53	-5	90
14	-45	11
99	-39	-37
180	8	-124
236	71	-114
242	120	-47
186	128	40
80	98	59
-50	43	-60
-159	2	-106
-211	-12	-5
-193	6	-26
-119	33	-43
-30	43	-30
36	23	-64
54	-28	-67
29	-79	-70
-16	-99	-27
-47	-67	-30
-47	12	-20
-24	106	-2
5	174	-14
14	183	-42
-3	121	-58
-36	-2	-18
-61	-151	-1
-63	-288	12
-41	-381	-5
-6	-419	-50
12	-403	-37
-1	-344	21
-43	-257	12
-92	-153	-60
-116	-35	-43
-103	82	45
-51	185	80
8	244	-10
46	241	-84
42	169	-34
4	49	-59
-43	-67	-170
-66	-127	-243
-48	-91	-211
-1	32	-177
44	182	-160
55	279	30
25	264	102
-31	137	-3
-72	-41	-131
-68	-178	-122
-10	-210	-20
82	-131	25
166	-11	155
212	65	98
211	45	26
175	-55	12
130	-160	2
85	-188	74
40	-108	90
-18	33	130
-89	149	78
-165	165	-15
-210	79	-55
-199	-43	13
-129	-111	84
-20	-70	86
81	58	127
136	197	55
137	261	21
103	215	9
66	104	-79
54	1	-108
77	-26	-169
109	26	-196
128	103	-150
111	135	-161
57	86	-147
-28	-24	-150
-126	-137	-92
-216	-192	67
-285	-173	54
-306	-99	55
-269	-18	61
-168	36	70
-20	62	80
135	81	-6
258	106	-50
314	137	-38
300	147	5
227	117	-72
127	43	-153
19	-42	-34
-83	-105	39
-174	-124	-6
-248	-106	-19
-285	-87	-75
-263	-91	-37
-191	-122	97
-87	-159	-2
6	-169	-126
56	-131	-123
58	-56	-179
41	20	-197
40	65	-155
69	55	-107
110	-4	14
121	-95	118
69	-185	164
-32	-251	172
-140	-277	140
-195	-252	122
-170	-177	45
-86	-62	31
4	69	32
42	190	45
21	268	57
-28	291	-59
-50	261	-182
-8	194	-253
84	117	-301
183	43	-345
226	-16	-300
195	-54	-202
107	-74	-72
4	-69	149
-69	-51	168
-105	-28	-25
-116	-15	-81
-125	-24	84
-137	-47	129
-138	-64	135
-106	-55	170
-36	-12	128
52	58	185
130	129	87
169	179	-112
166	197	-246
139	189	-318
116	170	-138
107	141	31
102	104	23
85	45	28
33	-27	17
-43	-101	-24
-126	-153	-18
-183	-167	79
-195	-150	118
-160	-120	111
-84	-102	79
14	-99	31
113	-92	20
187	-60	-60
214	6	-138
183	93	-57
97	168	-21
-19	202	-136
-120	188	-165
-164	149	-86
-128	114	-37
-24	99	-93
100	90	-54
190	62	10
202	-3	-19
124	-93	36
-11	-173	-17
-153	-204	-173
-244	-181	-171
-252	-135	-130
-174	-116	4
-44	-151	91
85	-224	97
163	-278	84
155	-263	30
57	-163	65
-99	-25	46
-262	75	-3
-377	78	20
-408	-18	99
-353	-144	7
-243	-218	-139
-119	-181	-253
-20	-47	-245
39	110	-63
70	209	-27
94	205	70
125	123	66
167	33	-86
206	6	-259
215	57	-253
186	158	21
117	238	149
34	244	210
-35	171	164
-68	49	67
-59	-69	-7
-18	-151	-106
33	-178	-207
72	-166	-203
89	-122	-30
89	-57	63
82	24	126
88	112	196
106	183	167
127	210	166
133	183	175
113	116	94
66	48	9
5	8	-193
-51	11	-333
-91	37	-276
-106	55	-233
-112	43	-151
-117	1	-53
-126	-44	1
-129	-68	33
-112	-57	25
-67	-26	-1
2	6	-5
77	24	57
140	26	63
176	26	-42
184	24	-74
164	12	-62
124	-28	-99
68	-101	-100
0	-186	-76
-80	-242	-3
-158	-222	-38
-206	-118	-46
-208	38	4
-158	177	-27
-60	237	21
52	201	-30
162	102	-66
242	4	-121
285	-33	-61
287	6	41
238	86	25
135	153	84
-20	155	83
-202	83	105
-379	-33	114
-505	-158	101
-540	-255	84
-486	-322	23
-369	-368	-4
-234	-388	-21
-118	-375	-79
-37	-305	-167
24	-173	-67
83	-2	16
144	153	-82
202	231	-172
230	202	-244
211	86	-200
152	-53	-100
78	-148	-78
11	-151	-51
-28	-68	-138
-43	48	-173
-53	142	-16
-65	174	37
-77	150	85
-68	96	106
-30	49	69
40	28	59
122	25	66
184	31	45
210	35	-9
195	45	-60
158	69	-55
114	105	-6
82	134	84
52	130	183
20	83	191
-17	0	213
-55	-78	170
-81	-112	-21
-87	-84	-223
-72	-6	-432
-53	77	-435
-34	123	-114
-23	119	-28
-11	76	-61
13	29	17
49	11	87
94	24	99
126	51	155
137	68	343
124	55	312
100	23	137
78	-7	-179
58	-12	-513
31	13	-566
-20	45	-314
-99	59	-100
-194	30	40
-271	-40	211
-291	-135	104
-237	-215	4
-119	-254	-46
24	-235	-117
144	-162	-155
210	-59	-100
216	39	-5
184	103	9
130	115	20
63	72	-72
-24	-2	21
-136	-81	138
-269	-131	65
-383	-133	26
-431	-91	-28
-374	-29	12
-209	18	-4
6	27	19
196	-9	116
284	-70	19
251	-125	-123
124	-145	-72
-18	-110	-12
-107	-27	-12
-114	75	11
-63	163	0
-18	206	32
-16	189	-74
-57	112	-151
-95	4	-181
-69	-99	-196
36	-157	-87
195	-142	43
317	-58	162
331	64	178
212	171	149
16	221	69
-153	171	36
-208	45	-43
-123	-111	-209
44	-238	-312
194	-278	-209
234	-225	8
150	-109	137
-12	7	194
-159	70	184
-222	67	89
-190	19	-128
-102	-25	-291
-20	-29	-381
19	15	-340
19	77	-134
16	115	105
41	109	179
101	68	138
166	35	137
196	37	100
170	78	84
94	123	43
4	127	15
-64	67	-30
-99	-43	-28
-105	-145	52
-101	-186	37
-101	-141	-55
-105	-36	-156
-99	70	-187
-75	129	-147
-35	123	51
8	89	174
37	74	194
50	103	205
52	166	87
58	209	-194
82	180	-420
119	60	-338
165	-110	-256
197	-263	-144
198	-331	-86
151	-281	-105
48	-142	-57
-105	23	-99
-281	145	46
-439	187	205
-530	145	181
-509	51	126
-383	-44	0
-178	-110	-67
40	-122	-153
205	-88	-126
284	-32	9
280	4	91
226	-8	95
155	-85	80
91	-204	135
32	-322	55
-20	-383	-25
-62	-346	-100
-72	-214	-159
-33	-34	-187
51	129	-255
144	224	-136
191	238	14
148	200	-40
14	160	16
-156	153	90
-288	175	51
-321	198	93
-252	174	26
-120	89	11
1	-40	-28
60	-167	-23
54	-246	29
16	-259	-37
-7	-214	-66
10	-139	-24
55	-56	76
101	19	199
119	91	298
111	158	217
99	205	87
99	215	-71
121	177	-268
140	97	-378
133	7	-352
86	-49	-251
8	-42	-159
-70	23	-32
-121	113	16
-133	170	112
-117	148	201
-94	39	127
-77	-122	25
-59	-272	-151
-32	-342	-114
14	-292	12
75	-143	-18
129	47	15
164	196	19
169	243	31
154	177	-7
130	41	-101
101	-88	-106
60	-150	-40
-1	-119	109
-79	-32	119
-161	46	-21
-215	69	-144
-226	25	-309
-191	-48	-291
-134	-96	-106
-81	-77	7
-47	10	149
-30	119	225
-7	204	132
36	233	-12
105	218	-100
179	182	-226
230	150	-351
237	119	-306
195	58	-90
113	-52	139
14	-212	224
-81	-368	264
-153	-453	237
-188	-416	127
-173	-257	-34
-111	-37	-122
-14	154	-145
80	244	-121
133	215	-48
121	96	-43
46	-45	-23
-65	-151	14
-181	-200	52
-274	-205	-9
-341	-192	-47
-377	-182	-59
-382	-170	-76
-343	-137	-60
-243	-78	-86
-86	-2	-38
96	60	46
253	85	106
334	74	138
320	45	87
242	43	36
150	84	-21
94	155	-90
85	224	-28
93	244	60
78	197	128
20	103	133
-60	6	-6
-124	-48	-155
-130	-42	-349
-80	8	-381
-3	62	-192
53	87	-204
60	63	-125
30	9	-2
-1	-44	-64
7	-68	8
61	-53	103
132	-12	116
184	34	-40
187	62	-34
141	66	81
76	49	68
17	21	86
-22	-5	128
-54	-23	115
-93	-27	-40
-147	-23	-132
-195	-15	-194
-214	-11	-109
-180	-21	32
-97	-45	79
7	-82	29
101	-113	30
165	-119	21
196	-81	-66
202	4	-71
196	116	-127
172	217	-93
126	265	-44
48	233	12
-52	127	64
-147	-17	38
-209	-143	25
-223	-209	8
-195	-187	-4
-139	-100	-36
-72	8	-72
-2	85	-106
77	96	-97
153	29	-30
209	-86	126
216	-202	280
152	-278	322
28	-286	233
-117	-227	30
-229	-126	-172
-264	-24	-353
-227	43	-479
-150	65	-505
-87	48	-254
-75	23	24
-104	18	51
-139	49	50
-140	108	21
-88	158	-3
-1	161	26
85	92	77
138	-31	104
156	-170	16
155	-264	-65
153	-279	-81
148	-204	-94
119	-78	51
44	36	196
-70	91	271
-188	65	178
-253	-7	-34
-229	-72	-67
-122	-81	-165
14	-9	-262
116	110	-265
145	225	-127
115	282	84
69	253	89
61	165	18
103	61	44
162	-3	59
190	-11	-186
147	22	-344
42	56	-203
-77	52	-52
-154	5	55
-163	-67	95
-116	-123	35
-51	-133	-39
-11	-90	-30
0	-13	1
-5	60	-104
6	106	-160
46	116	-47
104	99	30
150	68	52
158	34	61
127	0	65
78	-35	85
33	-63	28
3	-75	-21
-17	-57	44
-39	-19	39
-69	24	57
-97	43	53
-109	29	-20
-92	-13	-30
-60	-56	11
-38	-67	34
-43	-32	13
-76	35	-26
-104	98	-50
-97	122	-63
-32	100	-151
74	53	-202
184	30	-133
242	55	-21
215	122	-7
111	181	48
-40	158	128
-182	17	141
-274	-228	101
-294	-488	-31
-241	-653	-150
-133	-635	-263
-5	-422	-266
115	-95	-173
198	212	-66
222	373	31
184	345	87
104	171	198
8	-43	267
-70	-183	208
-122	-192	164
-153	-95	119
-179	27	-86
-217	91	-252
-267	59	-275
-308	-41	-315
-308	-145	-364
-249	-191	-257
-128	-154	-24
26	-61	41
178	40	87
292	112	155
355	137	90
358	132	4
311	115	65
233	96	112
136	71	-30
50	39	-133
-16	0	-259
-52	-29	-239
-63	-28	-157
-62	8	-153
-62	69	-17
-71	128	228
-76	161	266
-61	156	38
-17	121	-88
57	77	-135
132	38	-50
181	15	-22
178	1	-21
132	-5	52
58	-11	120
-5	-17	141
-47	-27	86
-63	-41	-10
-69	-60	-54
-79	-84	14
-89	-98	10
-90	-93	-13
-64	-62	-84
-13	-9	-61
49	48	-65
97	98	-79
103	128	-23
74	144	-107
25	157	-88
-11	166	-112
-21	166	-104
-11	132	-30
-4	51	-46
-20	-81	-4
-57	-238	28
-96	-373	72
-98	-441	107
-50	-412	107
39	-297	99
131	-131	22
179	27	-61
158	135	-9
76	171	57
-24	141	47
-100	77	53
-131	11	6
-130	-23	-64
-127	-16	-101
-153	20	-93
-213	60	-63
-280	77	-48
-319	58	-33
-304	13	-30
-241	-34	-57
-159	-59	-93
-89	-53	-47
-48	-26	1
-17	-11	16
33	-29	-25
124	-82	3
249	-143	38
372	-171	-60
435	-134	-66
405	-35	-119
280	89	-173
102	185	-205
-69	208	-246
-185	155	-249
-214	52	-195
-166	-40	19
-80	-84	81
4	-65	90
52	-7	108
63	53	133
51	85	152
46	78	129
64	45	126
106	17	95
147	5	46
154	17	-126
112	35	-162
23	50	-171
-78	49	-150
-154	35	-104
-172	17	-53
-130	4	-11
-59	0	-28
1	3	-25
20	6	-128
0	3	-97
-33	-13	-56
-41	-41	3
2	-78	94
91	-107	181
198	-116	218
270	-93	161
280	-29	130
216	61	31
102	161	-91
-33	237	-162
-147	274	-121
-214	264	-97
-227	223	-69
-191	162	-68
-133	97	-33
-69	18	72
-28	-87	39
-18	-219	-15
-31	-363	-84
-50	-471	-92
-53	-492	-90
-27	-406	-163
22	-233	-135
66	-43	-94
72	83	-62
18	98	-16
-95	19	16
-229	-88	36
-327	-144	1
-350	-115	7
-273	-27	36
-123	49	44
48	48	37
191	-33	60
269	-133	60
272	-159	48
228	-44	20
161	183	-43
100	416	-17
52	526	24
10	435	-13
-37	177	-45
-96	-126	-34
-154	-326	-30
-195	-334	-105
-202	-176	-168
-166	41	-17
-87	183	24
26	174	41
147	27	-11
259	-155	-182
340	-265	-49
373	-240	-32
338	-90	-32
241	104	58
93	259	36
-65	318	-11
-190	284	-37
-245	203	-38
-225	127	-147
-153	82	-155
-76	64	-72
-39	52	66
-59	26	46
-117	-17	8
-168	-64	53
-169	-97	-50
-104	-106	-109
8	-94	-157
121	-72	-68
198	-56	108
211	-44	176
172	-31	152
118	-9	99
68	20	-4
40	49	-99
18	66	-119
-12	64	-102
-60	51	-28
-114	43	-76
-144	53	-161
-137	80	-117
-85	104	-143
-10	93	-121
57	22	2
96	-110	54
97	-274	152
78	-411	87
58	-467	42
50	-417	48
48	-272	-24
42	-84	34
22	86	-2
-9	191	-2
-41	215	-34
-59	185	-126
-58	126	-111
-48	69	-58
-43	21	-11
-52	-19	14
-67	-55	-35
-76	-81	-132
-58	-82	-206
-14	-48	-226
43	8	-37
89	60	79
100	81	38
69	51	-21
7	-11	-58
-69	-72	18
-147	-102	49
-213	-83	127
-262	-35	253
-285	9	387
-271	25	412
-208	17	302
-98	19	25
33	57	-345
151	137	-576
221	224	-598
229	256	-412
195	188	-316
162	28	-42
166	-163	135
212	-296	-21
270	-304	-81
285	-184	-131
211	-1	-8
46	143	103
-168	179	77
-347	95	111
-425	-44	134
-378	-145	65
-228	-142	-43
-43	-34	84
110	116	271
194	224	211
210	232	176
180	142	109
133	19	-52
89	-69	-228
41	-85	-368
-5	-42	-267
-51	9	-182
-83	22	-128
-85	-14	-38
-57	-65	20
-18	-88	31
13	-47	0
26	45	55
26	145	-13
32	200	-74
58	183	-27
102	109	38
138	15	78
136	-54	37
84	-82	-35
-6	-68	-69
-98	-35	-71
-162	-1	-62
-176	29	-11
-159	41	61
-141	29	113
-143	-39	71
-164	-168	45
-174	-344	-41
-139	-508	-145
-41	-578	-157
103	-498	-147
252	-268	-83
353	43	-2
366	330	2
288	483	-42
144	475	-66
-15	340	-94
-144	166	-40
-210	43	37
-207	6	48
-152	25	84
-78	43	105
-23	10	80
-17	-81	-2
-68	-191	-8
-156	-262	11
-244	-260	-23
-285	-177	32
-253	-49	111
-152	76	-1
-11	158	-228
112	174	-305
176	125	-229
172	25	-182
118	-89	-159
54	-174	-6
17	-194	99
20	-131	30
48	-7	-7
77	127	5
81	207	-11
63	197	49
42	110	72
40	1	51
69	-61	49
120	-44	8
169	40	17
187	132	4
169	171	-8
119	132	74
55	35	29
-3	-57	-84
-50	-102	-138
-82	-81	-149
-103	-24	-65
-115	19	-167
-118	24	-230
-112	-9	-151
-98	-43	-121
-81	-43	-1
-62	5	45
-44	81	152
-16	142	172
27	160	118
80	117	122
128	37	-21
151	-55	-81
135	-126	-119
78	-163	-120
1	-162	-106
-79	-124	-142
-136	-62	-69
-172	10	6
-188	75	-22
-194	114	1
-189	120	24
-161	99	19
-99	77	78
0	67	86
111	78	75
203	81	-22
240	43	-23
209	-52	44
129	-199	-54
38	-338	-107
-16	-402	-75
-4	-348	6
72	-183	44
179	24	14
260	187	9
261	236	-9
151	166	-26
-52	29	-31
-304	-95	19
-515	-148	95
-614	-123	30
-564	-66	-91
-380	-36	-70
-133	-57	-113
87	-114	-207
213	-149	-70
221	-116	0
140	-12	129
36	112	196
-40	192	84
-68	188	65
-62	116	-42
-56	40	-105
-64	24	-126
-72	88	-261
-51	189	-483
23	243	-406
143	192	-171
261	39	-95
324	-139	-21
302	-238	128
202	-189	297
75	-11	326
-25	200	306
-60	321	237
-30	274	111
27	76	-114
72	-181	-341
69	-371	-409
25	-411	-236
-37	-303	-23
-83	-112	3
-86	60	-28
-44	149	-22
18	135	14
77	60	35
102	-19	112
87	-63	80
42	-61	29
-10	-30	-36
-49	4	-120
-65	25	-113
-68	28	-94
-67	21	21
-71	12	49
-80	8	34
-80	12	59
-62	30	49
-30	61	49
-2	99	27
11	128	31
-4	131	74
-35	99	24
-65	26	-97
-70	-62	-168
-44	-145	-137
2	-196	-209
52	-205	-121
85	-182	-11
90	-140	-11
72	-96	76
37	-56	119
-6	-21	139
-53	18	82
-97	60	118
-120	103	123
-107	136	-26
-51	150	-147
36	141	-38
128	112	-118
195	72	-222
225	33	49
213	3	222
184	-9	308
150	-9	233
109	3	68
46	19	-168
-54	31	-409
-191	36	-410
-327	31	-311
-410	13	-211
-397	-16	-222
-287	-46	-243
-117	-78	-106
44	-97	34
144	-96	69
159	-79	74
107	-47	94
30	-16	87
-28	6	-57
-50	11	-138
-38	2	-85
-13	-3	-51
6	6	-26
6	31	-59
-16	55	-154
-52	57	-118
-95	15	-27
-126	-62	72
-130	-143	178
-94	-183	250
-12	-145	359
94	-34	340
201	103	257
279	197	152
309	198	-49
287	99	-287
224	-53	-318
136	-178	-69
36	-211	48
-62	-133	-7
-156	14	-30
-223	157	-19
-242	232	-113
-204	211	-255
-115	120	-182
-3	2	-106
93	-100	-129
138	-171	-142
131	-218	-141
88	-243	-40
39	-237	38
12	-185	-6
4	-82	28
-1	41	48
-24	131	77
-75	135	124
-141	44	81
-195	-96	21
-205	-199	16
-158	-200	55
-57	-84	-32
68	90	-69
184	224	63
262	244	137
276	154	155
226	18	115
126	-71	13
12	-55	-111
-74	51	-117
-100	174	-14
-63	229	-236
10	177	-344
71	48	-214
80	-77	-133
21	-130	-50
-71	-86	-29
-143	22	-67
-148	132	-82
-81	198	21
16	209	82
82	183	130
76	145	98
-1	97	6
-97	21	-109
-154	-90	-189
-143	-224	-182
-79	-322	-150
-17	-345	-76
2	-265	-15
-32	-129	91
-83	0	151
-103	60	87
-69	40	47
-5	-11	69
39	-32	36
27	12	-12
-35	98	-27
-88	153	-38
-72	118	-11
34	-11	-7
184	-170	-46
287	-260	-46
262	-218	65
104	-62	163
-114	115	215
-271	213	141
-277	178	-16
-130	47	-103
83	-82	-290
242	-117	-396
269	-30	-299
170	122	-169
24	251	-31
-70	275	40
-65	191	78
16	56	116
94	-58	104
103	-114	72
27	-127	32
-83	-137	-51
-156	-171	-126
-155	-209	-78
-91	-202	-28
-27	-117	-13
-16	31	-19
-68	170	13
-139	215	151
-164	128	187
-109	-55	108
9	-243	-88
126	-337	-97
180	-292	-87
143	-153	-275
43	2	-85
-55	88	95
-109	79	74
-99	15	-81
-48	-38	-215
7	-35	-109
40	20	-98
49	85	-50
46	102	30
48	57	40
57	-21	-58
69	-78	-14
90	-69	-58
124	3	-253
179	93	-215
242	135	-142
275	95	51
242	-16	178
117	-137	113
-76	-195	-8
-281	-149	-90
-428	-9	-67
-470	157	-19
-406	268	-44
-279	275	-45
-143	183	59
-44	52	87
12	-41	119
42	-46	112
72	28	59
107	135	55
147	203	42
169	193	75
172	110	100
159	0	63
131	-84	-9
97	-113	-94
49	-97	-153
-11	-69	-151
-82	-66	-78
-141	-94	11
-169	-125	15
-147	-121	42
-84	-55	32
-4	63	-75
65	198	-20
107	290	-16
128	301	-116
143	215	-70
169	64	-64
202	-106	-172
226	-245	-252
212	-305	-128
147	-274	-98
41	-166	-84
-85	-18	-30
-195	128	-47
-271	240	77
-304	298	103
-303	301	125
-279	260	61
-243	168	32
-198	15	55
-147	-195	-27
-91	-441	-57
-37	-660	-12
12	-783	79
50	-749	10
78	-553	-111
89	-260	-43
83	20	39
58	194	82
23	215	43
-11	129	-70
-30	15	1
-22	-43	30
11	-22	-60
56	52	-136
98	115	-151
122	120	-129
129	78	-196
127	32	-93
127	39	87
128	109	147
123	205	142
102	266	-30
59	244	-64
2	145	-57
-51	22	-192
-81	-62	-209
-80	-76	-164
-58	-28	-137
-36	29	-106
-29	53	49
-40	41	192
-49	26	239
-38	47	107
6	120	-84
69	224	-194
123	301	-173
127	317	-63
59	244	-16
-60	118	51
-198	-24	43
-291	-145	102
-310	-226	121
-248	-269	56
-136	-281	150
-22	-261	78
64	-202	-82
117	-111	-107
156	-9	-217
194	70	-262
234	103	-228
253	86	-124
223	49	-59
132	27	5
5	35	130
-114	66	119
-178	82	83
-163	53	43
-94	-19	21
-14	-98	-4
26	-138	2
7	-106	69
-51	-11	98
-109	99	69
-123	165	4
-86	150	-55
-10	72	-116
72	-22	-107
129	-72	-52
159	-52	-96
165	30	-144
163	126	-50
156	179	38
135	161	44
87	76	87
4	-33	91
-102	-132	21
-214	-203	-104
-299	-253	-157
-338	-300	-130
-328	-345	-92
-272	-370	-11
-190	-333	8
-93	-216	43
8	-39	19
103	135	-8
175	224	-4
211	180	-25
202	18	-26
139	-177	-63
41	-304	-98
-67	-297	-138
-149	-163	-113
-170	17	-30
-124	148	96
-30	171	184
71	108	150
137	31	-13
140	14	-158
91	88	-264
22	205	-287
-22	294	-120
-16	291	-4
32	200	59
91	69	-3
117	-29	-49
87	-55	-16
10	-27	8
-77	13	164
-133	14	195
-139	-26	65
-102	-76	-39
-51	-93	-158
-11	-54	-234
13	16	-172
41	78	-27
94	95	101
178	70	122
269	39	36
320	38	53
288	82	144
166	140	42
-12	168	-116
-185	123	-193
-288	14	-249
-295	-116	-225
-223	-207	-55
-117	-222	15
-33	-166	-67
9	-79	-19
12	-6	114
11	30	188
29	41	123
74	55	-5
124	96	-21
144	154	-24
119	202	-12
47	202	55
-38	136	16
-109	26	-92
-147	-87	-139
-151	-153	-45
-144	-147	12
-148	-75	38
-164	26	115
-174	108	97
-156	138	74
-87	105	41
32	28	-108
175	-61	-249
311	-134	-167
406	-182	-93
436	-207	-25
399	-226	22
292	-247	57
125	-263	66
-85	-260	-22
-305	-223	-33
-497	-150	-95
-610	-61	-150
-603	4	-193
-487	21	-164
-295	-15	-79
-100	-77	24
37	-117	120
90	-102	136
78	-24	95
44	82	51
45	163	41
95	181	-102
170	125	-210
228	30	-227
225	-54	-227
159	-82	-145
57	-46	-51
-26	27	151
-56	96	213
-26	122	111
44	102	109
117	56	-42
170	23	-160
193	31	-142
192	78	-42
172	143	70
135	197	11
78	215	-59
4	186	24
-71	122	44
-129	43	-96
-148	-32	-178
-132	-88	-169
-100	-118	4
-76	-121	160
-72	-103	317
-84	-70	346
-92	-33	240
-76	4	7
-32	38	-340
25	70	-439
78	106	-395
106	145	-265
107	170	-163
94	163	2
76	106	134
56	4	101
41	-118	103
27	-212	127
18	-237	115
18	-180	-12
28	-69	-186
44	32	-143
52	68	2
45	15	28
24	-94	65
-1	-190	42
-20	-206	-23
-28	-112	-45
-33	55	-12
-52	225	-30
-94	319	-16
-153	305	29
-210	214	-28
-241	99	58
-231	15	26
-184	-29	-61
-118	-61	-95
-48	-126	-94
10	-232	-23
54	-343	-40
83	-393	-17
95	-334	-1
90	-169	43
72	40	69
66	202	49
86	252	3
139	187	-65
203	59	-89
234	-52	-55
184	-103	74
49	-100	213
-140	-86	271
-312	-103	177
-389	-159	-70
-341	-223	-312
-191	-241	-483
-21	-189	-501
85	-80	-308
86	39	-70
-2	126	-13
-105	168	-113
-151	176	-27
-101	189	-55
20	213	-52
149	236	149
216	213	236
200	134	158
120	15	34
28	-94	24
-29	-133	-62
-37	-89	-149
-17	5	-59
-1	81	222
-7	82	199
-24	1	103
-23	-113	72
20	-184	-135
101	-161	-261
186	-46	-238
237	102	-10
229	208	-14
166	227	86
76	161	74
-3	62	-58
-54	-13	16
-70	-35	-88
-67	-19	-91
-55	-2	-123
-44	-16	-143
-36	-63	-27
-34	-113	19
-40	-126	20
-51	-77	32
-64	22	72
-63	132	40
-38	215	3
7	244	51
52	215	60
70	144	-13
42	50	-83
-30	-48	-61
-119	-140	-13
-195	-201	34
-233	-217	44
-231	-171	-64
-201	-78	-102
-161	28	-91
-111	97	-29
-39	93	-28
62	17	-21
186	-89	84
301	-163	45
365	-163	67
350	-93	3
251	6	-139
104	62	-198
-44	32	-153
-151	-81	-117
-192	-227	-90
-180	-336	43
-130	-359	152
-72	-296	312
-24	-180	326
9	-69	207
21	1	45
14	31	-133
-6	45	-325
-27	79	-460
-34	138	-390
-16	207	-341
20	255	-141
57	255	-15
71	209	-126
48	138	-14
1	81	100
-49	52	89
-71	43	159
-62	32	200
-36	-6	42
-23	-68	-21
-46	-127	26
-96	-143	-71
-142	-94	-194
-144	10	-218
-86	126	-102
16	200	42
116	204	82
170	140	28
159	56	-16
99	-10	-57
31	-31	-117
-13	-16	-7
-22	2	125
-19	-6	74
-28	-46	60
-63	-97	89
-108	-122	87
-125	-107	82
-85	-53	80
20	4	107
157	38	93
279	36	47
337	15	-86
312	2	-204
212	11	-176
72	38	-139
-65	53	-160
-174	35	-187
-232	-25	-104
-239	-102	40
-204	-157	78
-149	-157	142
-94	-97	136
-59	-8	45
-51	72	-19
-54	113	-72
-44	109	-74
4	81	-70
88	52	-10
180	43	35
237	50	11
223	64	-78
136	74	-74
7	79	-93
-105	85	-151
-160	92	-133
-143	90	-205
-82	51	-128
-20	-38	-19
6	-179	34
-1	-337	70
-23	-457	87
-23	-492	104
11	-417	65
70	-254	35
123	-56	-35
141	113	-67
119	210	-108
69	219	-155
19	158	-111
-14	66	-124
-28	-19	-93
-39	-64	91
-56	-64	180
-87	-29	119
-122	20	6
-158	55	-49
-177	59	16
-176	26	139
-154	-22	255
-105	-52	237
-34	-34	110
50	40	-162
128	147	-441
169	244	-517
151	283	-407
77	251	-225
-25	159	-105
-117	47	0
-167	-40	-14
-169	-93	16
-136	-111	138
-97	-122	49
-66	-133	34
-40	-135	84
-6	-108	-7
49	-38	-52
118	51	81
179	123	103
204	130	-2
184	67	22
129	-31	70
66	-107	-46
19	-109	-92
-8	-36	24
-27	66	43
-50	125	125
-80	104	135
-101	11	19
-95	-90	-66
-48	-129	-76
27	-75	-34
110	49	48
167	170	34
184	218	-68
167	171	-51
131	57	-92
97	-52	-38
68	-111	-35
41	-103	-109
-1	-63	-62
-54	-39	-81
-111	-56	-186
-152	-105	-200
-151	-139	-154
-106	-123	-128
-28	-40	2
59	82	38
123	197	8
131	265	-77
72	261	-17
-48	194	52
-197	70	45
-321	-90	80
-373	-272	34
-321	-449	117
-184	-581	32
-22	-620	-118
89	-533	-147
85	-326	-200
-31	-65	-85
-200	165	99
-319	283	256
-300	261	353
-117	137	281
175	0	128
470	-64	-65
652	-16	-243
666	121	-412
536	272	-382
331	362	-179
143	350	-69
20	256	1
-42	134	-7
-89	39	92
-162	-8	201
-272	-23	140
-389	-35	22
-450	-65	-61
-418	-101	-122
-292	-119	-315
-119	-95	-409
36	-31	-211
130	40	36
151	88	196
127	88	317
98	53	352
95	15	281
115	0	141
131	16	-39
118	43	-302
64	54	-384
-8	32	-198
-69	-12	-60
-93	-58	79
-77	-80	137
-38	-68	72
-2	-35	-101
13	-3	-169
13	14	-117
10	15	-136
19	9	-11
44	7	-35
77	9	-10
97	11	84
97	8	52
77	2	64
40	5	30
2	27	64
-33	72	44
-60	123	15
-78	151	-49
-80	132	-185
-58	58	-174
-18	-50	-65
36	-160	25
92	-226	6
129	-214	-97
132	-125	-123
95	16	-92
18	153	-39
-85	223	49
-185	174	58
-260	6	57
-285	-244	70
-253	-488	90
-180	-628	112
-103	-604	42
-59	-421	8
-68	-154	-76
-112	89	-143
-143	218	-86
-112	203	-136
-4	100	-102
155	-3	-19
300	-24	-61
363	54	2
309	189	34
170	298	96
6	316	106
-109	240	-7
-145	120	-93
-121	25	-275
-81	-7	-345
-64	12	-252
-77	31	-17
-91	2	97
-77	-82	55
-22	-179	134
46	-225	202
89	-175	190
80	-41	124
36	121	-4
6	236	-103
34	259	-204
126	193	-364
233	88	-209
284	-6	76
227	-52	119
66	-58	116
-129	-54	67
-272	-61	-51
-295	-83	-149
-198	-95	-161
-42	-72	-23
97	-6	98
167	86	144
172	168	142
154	210	83
149	197	-11
167	144	-209
181	77	-193
154	21	-27
67	-15	-40
-52	-35	-59
-163	-47	-55
-226	-60	-15
-224	-74	-9
-185	-93	-50
-145	-121	-57
-124	-159	-57
-116	-199	-38
-92	-216	-26
-36	-182	72
48	-78	127
125	83	135
160	252	119
134	362	33
61	358	2
-22	237	-61
-87	39	-56
-118	-157	-25
-123	-288	-40
-118	-330	-45
-103	-307	-46
-68	-263	-79
-1	-227	-154
90	-189	-174
178	-122	-145
207	-4	-56
147	139	19
1	254	24
-182	269	42
-320	164	54
-357	-24	35
-277	-200	7
-123	-274	-13
32	-218	-48
126	-76	-81
133	60	-48
78	110	-21
9	56	77
-22	-44	149
9	-105	135
89	-67	43
175	59	-153
232	205	-261
232	290	-241
175	277	-150
88	193	-70
4	104	-8
-42	68	32
-40	88	105
-2	113	33
41	82	1
46	-33	16
-7	-192	-63
-117	-322	-60
-242	-353	-85
-329	-263	-39
-335	-110	13
-250	36	53
-110	113	92
31	114	-30
122	80	-262
150	64	-299
129	96	-123
103	147	7
102	174	81
130	138	66
159	46	38
157	-61	84
107	-133	112
21	-138	87
-61	-92	0
-110	-33	-87
-107	-3	-100
-61	-13	-123
-4	-43	-117
46	-57	-42
79	-37	31
104	8	14
128	52	32
154	74	103
162	71	108
132	74	133
67	106	60
-24	173	-28
-99	244	-91
-130	259	-195
-107	178	-147
-51	3	-43
-4	-212	-46
1	-379	-43
-45	-419	-4
-119	-313	42
-178	-105	38
-184	112	35
-129	252	77
-35	267	121
46	174	104
79	43	-3
45	-66	-89
-35	-117	-186
-123	-127	-186
-178	-130	-115
-180	-161	-68
-135	-218	24
-72	-270	63
-19	-280	24
10	-237	-97
23	-162	-252
40	-90	-312
77	-45	-190
136	-21	-58
200	19	48
248	101	171
251	213	99
205	301	28
117	301	-19
8	187	-57
-97	-11	-170
-181	-196	-264
-233	-278	-193
-255	-216	-116
-242	-53	-11
-203	109	-15
-140	181	31
-63	130	48
18	9	91
96	-88	177
169	-85	199
230	27	225
268	185	56
271	300	26
225	311	63
124	224	18
-12	90	69
-150	-18	87
-242	-70	72
-257	-79	3
-196	-70	-215
-96	-70	-331
-7	-65	-170
28	-36	-68
8	27	-90
-34	101	-40
-52	130	-34
-23	79	-42
48	-47	28
122	-190	26
154	-272	-6
128	-238	16
68	-101	-43
12	64	-109
-6	171	-74
7	162	-15
21	57	-39
0	-75	-71
-63	-153	-11
-136	-134	4
-169	-40	-7
-114	71	6
18	138	63
181	144	57
302	108	32
336	75	59
274	70	2
151	85	-33
18	89	-70
-93	47	-106
-172	-40	-25
-229	-143	72
-261	-208	48
-263	-205	-71
-227	-139	-83
-149	-44	-40
-55	31	-91
16	66	-49
36	64	-32
14	53	-37
-16	59	68
-6	82	144
74	104	176
201	98	127
321	56	56
369	-15	-108
302	-88	-268
127	-142	-442
-101	-181	-536
-325	-207	-341
-474	-242	-103
-518	-286	45
-465	-326	155
-333	-332	201
-165	-286	121
-3	-190	99
122	-59	4
191	69	-104
208	178	-46
198	247	38
195	279	14
214	279	-11
248	251	110
266	201	98
226	138	57
106	74	76
-76	15	-37
-264	-29	-24
-392	-54	21
-402	-69	-16
-282	-68	-91
-71	-55	-150
158	-26	-97
331	17	-70
396	70	68
341	121	101
196	159	1
12	180	-55
-158	186	-59
-267	183	-46
-300	170	-95
-259	134	-71
-173	60	-64
-68	-55	-48
20	-192	45
81	-312	47
107	-364	-116
106	-322	-207
92	-196	-79
77	-29	-55
69	121	-84
78	204	-61
100	201	-59
130	135	52
154	51	164
158	-12	212
131	-37	145
75	-35	86
-5	-21	58
-88	-16	46
-153	-20	41
-186	-25	-108
-178	-26	-198
-141	-17	-96
-85	-9	-103
-30	-7	-132
9	-13	-51
25	-16	-49
17	-5	87
-8	19	142
-34	42	68
-43	40	13
-31	1	-130
-2	-71	-185
21	-149	-176
20	-195	-74
-17	-188	-8
-77	-135	3
-125	-66	-2
-130	-12	-78
-78	11	-89
12	15	-11
94	17	103
122	42	61
74	86	-31
-24	125	-49
-126	142	-3
-172	131	34
-145	110	86
-66	105	149
14	119	2
49	135	-137
28	109	-72
-22	7	-205
-54	-169	-299
-39	-362	-267
24	-492	-173
100	-492	9
151	-345	-16
158	-104	19
131	138	22
101	295	40
89	321	49
96	239	-97
96	109	-80
65	4	24
1	-40	3
-83	-28	121
-156	3	287
-193	22	228
-193	13	176
-174	-12	19
-147	-28	-19
-112	-21	-120
-56	6	-306
37	35	-218
165	51	-84
291	51	24
368	49	-20
361	62	-116
268	94	-83
126	131	96
-8	144	82
-95	110	31
-120	29	163
-109	-78	147
-94	-166	75
-99	-200	-45
-112	-167	-153
-108	-84	-249
-61	16	-317
35	102	-186
151	154	-19
251	177	134
288	180	140
251	171	87
141	145	65
-6	96	28
-156	22	-27
-274	-61	-140
-342	-127	-228
-360	-162	-171
-336	-151	-58
-288	-120	-8
-240	-99	85
-195	-110	108
-156	-153	72
-97	-192	-22
-10	-194	-157
105	-130	-270
221	-16	-244
297	99	-105
300	158	-3
222	116	50
92	-8	21
-42	-167	26
-136	-286	65
-174	-318	31
-170	-257	34
-154	-144	125
-148	-43	138
-142	9	155
-118	8	84
-48	-3	-27
57	18	-126
163	101	-207
222	233	-199
207	362	-160
131	435	3
38	410	79
-19	294	25
-20	121	70
21	-51	155
57	-178	97
50	-236	58
-7	-227	-91
-83	-178	-250
-124	-115	-137
-93	-54	-78
10	-3	-122
140	48	-86
239	104	105
262	166	174
206	215	158
110	233	166
29	193	180
6	94	64
42	-40	-136
106	-168	-156
138	-237	-160
101	-228	-159
-8	-144	-238
-155	-34	-246
-281	48	-156
-339	75	-51
-308	41	11
-212	-15	8
-93	-55	44
7	-48	16
63	-1	-35
93	62	-132
115	112	-162
155	132	-44
211	129	91
262	117	26
268	104	-63
198	75	-20
51	10	80
-144	-95	96
-330	-223	-25
-455	-326	-49
-488	-362	-133
-426	-299	-112
-303	-154	5
-145	20	-12
16	166	-57
161	244	-31
283	261	42
380	237	96
436	207	205
431	179	285
355	130	224
212	39	85
29	-107	-55
-156	-274	-239
-299	-408	-379
-383	-449	-387
-400	-379	-187
-369	-232	75
-304	-69	276
-218	39	419
-121	70	442
-20	41	300
74	3	-2
139	-1	-325
166	37	-638
150	89	-815
107	106	-609
59	65	-186
24	-25	144
1	-113	285
-19	-149	260
-47	-109	253
-84	-16	150
-107	76	-12
-100	119	-136
-43	101	-138
44	51	-57
136	21	16
194	53	166
199	145	155
159	253	49
103	320	-80
59	300	-179
44	197	-162
48	53	-113
47	-72	-8
24	-139	28
-24	-140	34
-84	-96	43
-126	-38	-30
-136	14	-81
-113	55	-44
-70	88	-9
-22	106	-3
21	96	87
59	37	192
99	-66	112
133	-181	42
159	-253	-35
163	-243	-182
143	-148	-269
107	-13	-338
72	93	-217
52	112	-108
46	43	-21
44	-66	144
17	-147	150
-47	-140	101
-149	-44	65
-253	91	101
-319	197	56
-310	228	-64
-214	179	-97
-64	89	-106
95	13	-27
202	-15	-4
227	4	-4
167	43	33
52	63	-21
-66	42	19
-158	-26	99
-204	-119	10
-208	-211	-54
-177	-263	-32
-113	-254	27
-12	-176	57
126	-37	24
269	118	14
373	236	44
373	264	37
244	182	-47
11	15	-86
-247	-175	-117
-428	-313	-215
-466	-358	-268
-363	-308	-275
-192	-202	-128
-51	-100	49
-6	-38	60
-49	-25	-4
-120	-33	-99
-139	-36	-136
-65	-18	-165
77	8	-189
224	29	-133
302	32	107
295	24	217
227	31	238
151	62	222
115	121	79
114	178	175
118	202	194
90	179	45
15	113	-43
-85	40	-119
-172	-12	-208
-209	-27	-360
-191	-13	-476
-138	9	-282
-75	20	-105
-15	13	7
36	5	76
86	10	44
132	41	83
165	88	47
170	128	61
141	143	116
94	123	155
44	75	53
10	11	16
-1	-50	75
0	-101	-35
-1	-130	-135
-14	-131	-144
-39	-101	-41
-71	-34	-75
-100	52	-79
-123	131	2
-135	169	44
-129	145	74
-101	61	119
-44	-51	211
31	-142	149
104	-178	87
149	-140	16
142	-54	-74
95	37	-188
26	94	-252
-28	95	-226
-47	45	-99
-33	-27	45
-12	-94	7
-11	-131	-23
-42	-126	-40
-91	-83	-50
-119	-12	-165
-99	64	-174
-19	116	-91
91	115	-90
188	43	42
223	-84	67
171	-225	129
50	-322	101
-102	-330	58
-226	-251	172
-280	-125	149
-253	-17	161
-165	27	181
-64	7	55
-1	-36	-118
-12	-45	-265
-93	15	-312
-207	128	-260
-290	243	-244
-285	298	-179
-166	266	-91
32	165	-80
245	43	-58
383	-51	21
388	-98	-5
265	-112	24
67	-114	41
-109	-118	21
-192	-118	50
-162	-93	-41
-46	-40	-41
81	30	-6
159	89	-29
167	110	-125
124	100	-185
78	81	-105
63	86	-9
89	123	-3
124	173	-51
135	195	-10
98	157	114
21	61	120
-61	-54	95
-116	-149	173
-129	-186	149
-111	-165	47
-78	-113	-9
-51	-65	-16
-33	-37	-67
-14	-24	-153
19	-5	-119
67	26	-104
116	63	-14
148	89	26
152	86	-77
130	57	-133
95	18	-95
59	-7	-19
26	-8	-32
-11	11	-8
-58	28	11
-117	25	52
-176	-5	57
-215	-46	91
-217	-74	106
-173	-62	-43
-93	-2	-129
5	95	-125
90	194	-38
145	258	19
163	256	104
144	183	168
107	57	72
64	-84	1
23	-196	-104
-24	-263	-225
-89	-280	-230
-182	-280	-164
-291	-282	-35
-385	-296	145
-417	-297	245
-353	-256	161
-198	-165	3
11	-40	-176
207	65	-193
330	110	-134
344	79	-122
268	4	90
148	-52	228
32	-46	181
-44	24	20
-83	109	-151
-97	142	-283
-103	89	-353
-99	-26	-151
-77	-131	152
-34	-148	241
20	-43	196
61	136	24
76	301	-164
65	370	-334
60	299	-485
94	136	-353
181	-35	-170
292	-135	70
370	-131	216
346	-55	175
200	29	101
-40	65	-35
-298	37	-88
-481	-33	-120
-530	-94	-46
-443	-115	97
-272	-85	216
-89	-26	126
44	33	-56
109	77	-13
126	99	-14
128	112	-147
138	123	-226
155	132	-77
162	129	93
140	101	46
87	40	24
18	-48	56
-44	-145	-4
-84	-228	-11
-91	-268	9
-80	-251	-31
-63	-175	-20
-58	-58	55
-61	62	125
-68	157	205
-66	197	202
-44	187	132
9	154	60
99	130	-164
222	136	-284
352	161	-217
456	174	-201
484	140	-140
399	53	-19
198	-57	-21
-71	-142	-89
-339	-154	-50
-509	-92	-28
-540	5	6
-445	68	22
-282	55	101
-135	-35	189
-44	-153	16
-14	-230	-135
0	-224	-242
36	-149	-252
114	-60	-150
206	-23	-59
260	-70	22
248	-179	54
167	-292	140
55	-356	204
-51	-344	207
-133	-273	135
-208	-181	21
-298	-99	-112
-400	-32	-214
-484	35	-144
-491	113	-17
-381	197	2
-159	254	-54
115	261	-131
342	209	-164
454	121	-202
428	45	-177
302	15	-13
152	40	113
37	97	133
-22	147	149
-34	160	125
-24	130	-45
-13	79	-188
4	22	-186
33	-18	-151
77	-41	-76
119	-50	39
140	-42	110
127	-17	128
83	33	-24
34	93	-113
4	139	-78
4	148	-48
18	104	-14
23	22	-55
-4	-62	61
-61	-114	107
-126	-116	47
-172	-80	5
-172	-38	-54
-126	-20	-80
-51	-27	-82
31	-40	-89
97	-25	-60
136	30	34
147	109	-9
133	170	-120
103	174	-103
54	109	-16
-5	-6	-4
-69	-122	57
-126	-196	79
-165	-206	48
-173	-165	13
-152	-101	8
-108	-43	15
-51	-4	-22
7	20	-24
55	41	-96
90	70	-145
122	106	-99
154	152	-4
194	208	25
229	272	46
241	343	51
196	392	-38
85	379	-47
-82	261	-3
-259	28	-12
-380	-282	-83
-393	-590	78
-295	-787	281
-111	-799	276
84	-628	213
226	-338	54
275	-50	-202
236	131	-525
143	161	-493
38	64	-130
-54	-72	77
-129	-163	174
-195	-166	84
-262	-99	66
-316	-23	170
-339	9	149
-310	-13	180
-222	-58	-51
-89	-70	-287
58	-17	-381
188	96	-530
269	228	-445
280	321	-225
231	343	24
130	298	253
19	211	230
-61	120	191
-81	45	103
-31	-2	-96
59	-31	-209
145	-36	-358
180	-18	-256
141	22	-80
44	66	98
-63	89	230
-142	70	240
-170	13	237
-148	-52	53
-104	-96	-55
-54	-88	-99
-10	-37	-186
44	27	-213
115	66	-48
188	63	78
230	32	103
208	-2	176
117	-14	140
-16	1	78
-136	21	25
-198	25	-30
-186	0	-48
-126	-43	-137
-68	-83	-80
-44	-99	26
-56	-93	30
-67	-79	5
-40	-67	-86
40	-61	-61
151	-44	-58
238	-2	4
259	63	115
198	131	205
82	168	217
-46	153	53
-137	93	-170
-175	20	-316
-163	-24	-375
-122	-17	-323
-77	29	-105
-36	79	12
-3	96	123
31	68	116
71	18	75
123	-26	152
186	-39	127
245	-25	29
284	-9	-101
266	-20	-92
170	-67	-40
-4	-130	-94
-212	-171	-133
-390	-171	-165
-480	-134	-183
-452	-92	-159
-332	-83	-52
-178	-119	105
-47	-183	205
31	-236	166
68	-242	68
94	-195	22
137	-119	-10
189	-41	-5
212	15	-34
175	58	-166
75	101	-192
-59	149	-176
-173	182	-168
-218	168	-47
-195	85	-39
-128	-40	-10
-70	-153	64
-49	-188	15
-66	-117	-55
-93	29	-71
-93	170	-66
-49	228	-46
32	178	74
127	60	115
208	-36	107
262	-43	77
285	51	70
273	188	78
229	279	43
150	268	-211
44	159	-427
-61	11	-205
-151	-99	-134
-193	-127	-3
-183	-88	116
-135	-32	161
-72	-6	179
-19	-19	11
18	-44	-102
42	-41	-159
68	8	-51
94	81	13
117	135	12
127	135	1
113	83	23
86	11	130
49	-38	48
16	-43	-48
-20	-22	-4
-67	-9	-12
-129	-35	-38
-205	-92	41
-257	-141	163
-258	-138	219
-183	-62	164
-44	59	54
121	174	-31
254	224	-169
314	197	-320
287	120	-381
196	48	-295
86	22	-159
-7	36	-57
-61	50	8
-91	11	-42
-119	-107	-24
-166	-274	53
-227	-424	97
-268	-487	75
-255	-434	34
-160	-290	-50
2	-124	-140
180	1	-92
311	57	-72
342	63	-3
270	68	52
141	106	74
27	179	91
-22	240	26
-8	237	-12
17	143	37
-19	-24	44
-150	-205	-8
-343	-329	16
-515	-344	10
-565	-254	3
-456	-103	-8
-228	45	-108
24	139	-165
195	163	-198
240	128	-320
193	77	-263
128	39	-166
115	31	-70
160	41	30
225	53	155
244	52	306
184	39	172
72	23	96
-47	14	-37
-117	20	-188
-125	32	-217
-97	38	-59
-67	35	194
-55	23	263
-44	17	276
-7	31	74
72	67	-106
171	122	-265
245	170	-359
253	190	-420
178	168	-396
58	106	-111
-61	19	13
-137	-67	58
-159	-129	166
-144	-157	172
-124	-148	152
-117	-120	196
-118	-91	182
-113	-72	118
-83	-70	-38
-25	-65	-144
48	-43	-114
122	8	-63
182	77	-59
216	135	32
228	157	134
211	124	101
164	55	56
96	-17	8
10	-49	16
-83	-22	-21
-168	48	-136
-240	112	-126
-291	119	-66
-315	50	-84
-298	-72	-89
-233	-187	-78
-118	-233	-37
33	-175	-99
192	-35	-136
325	119	-24
402	219	-55
401	213	-99
322	110	-21
183	-45	24
11	-180	43
-152	-244	135
-262	-229	200
-300	-164	178
-256	-107	152
-159	-98	68
-58	-143	-124
-1	-211	-337
-11	-254	-369
-65	-234	-284
-121	-153	-130
-122	-42	3
-52	51	21
60	92	104
161	88	124
191	71	170
128	82	147
-1	136	11
-143	209	-15
-241	251	-36
-262	210	-82
-217	86	-149
-126	-83	-177
-23	-224	-219
71	-264	-100
147	-192	68
192	-31	-29
203	140	-173
171	256	-211
111	274	-97
44	209	50
2	104	124
-8	6	116
2	-57	118
4	-82	87
-32	-80	6
-102	-68	-22
-180	-55	-56
-215	-34	-19
-180	-8	91
-81	22	72
44	46	-42
140	62	-117
180	72	-6
167	87	75
136	112	65
130	138	61
160	153	-116
211	136	-211
238	84	-106
207	11	-45
107	-53	8
-32	-84	155
-167	-81	201
-257	-62	66
-287	-59	-91
-264	-90	-200
-221	-144	-235
-176	-191	-273
-135	-188	-290
-92	-119	-125
-33	3	65
44	131	120
121	212	39
172	213	32
175	137	17
132	22	-84
62	-85	-111
2	-143	-71
-25	-148	-8
-14	-116	36
25	-82	87
66	-67	79
100	-71	-5
121	-71	-43
144	-40	-28
175	32	-6
207	122	145
221	183	279
189	171	343
104	81	353
-30	-60	162
-184	-182	-119
-325	-216	-336
-433	-148	-381
-489	-13	-330
-489	100	-199
-434	119	45
-333	17	68
-201	-154	-97
-62	-304	-262
54	-345	-298
137	-249	-181
178	-63	-165
191	121	45
198	221	279
212	206	276
231	115	138
240	15	69
223	-28	24
172	-5	-153
100	51	-181
18	97	-233
-58	103	-189
-124	77	-155
-174	51	-150
-207	48	-23
-209	63	152
-166	65	222
-80	22	87
28	-61	-10
118	-152	-147
154	-188	-142
123	-133	-58
50	-2	53
-16	148	217
-36	238	225
0	229	84
60	127	-107
100	-13	13
77	-121	11
-4	-158	-147
-104	-127	-49
-169	-64	-17
-166	-8	53
-101	27	49
-12	51	-82
58	90	-198
94	142	-161
105	191	-157
121	202	-147
165	155	-31
227	59	-36
275	-49	14
269	-125	8
199	-147	52
75	-116	-12
-63	-66	-24
-181	-29	74
-259	-18	17
-303	-26	57
-321	-28	142
-313	-13	143
-269	16	45
-172	34	25
-28	19	-15
132	-37	-62
263	-120	-67
314	-192	-97
260	-227	-209
118	-207	-241
-64	-144	-102
-226	-63	102
-314	8	304
-308	49	343
-212	62	215
-64	49	-43
89	24	-238
204	-5	-460
248	-31	-550
211	-49	-315
119	-53	-59
12	-35	133
-58	4	99
-71	61	82
-28	119	27
36	150	-90
78	144	-26
68	92	48
4	11	87
-81	-67	50
-147	-115	151
-161	-117	233
-117	-79	98
-43	-23	-64
24	24	-173
54	52	-320
42	58	-377
3	57	-330
-34	56	-264
-47	51	-72
-28	39	-2
6	9	49
32	-29	133
35	-64	138
14	-78	133
-16	-66	57
-38	-48	9
-37	-41	0
-18	-57	-5
7	-79	-42
31	-79	-49
51	-25	21
74	79	49
100	198	103
124	279	112
128	282	76
97	197	79
29	57	28
-52	-75	-20
-111	-157	50
-117	-176	75
-64	-154	-50
24	-129	-134
102	-120	-88
131	-124	8
101	-116	-15
34	-69	-140
-23	8	-206
-35	99	4
8	164	117
80	189	-11
135	170	-103
130	138	-186
53	117	-135
-76	110	-106
-207	113	-47
-296	100	68
-304	62	108
-237	8	67
-125	-39	-96
-8	-64	-181
76	-71	-128
116	-81	-32
117	-117	110
100	-179	191
84	-240	208
77	-246	278
76	-170	240
66	-23	130
43	139	-20
2	236	-189
-46	215	-412
-93	81	-590
-129	-103	-518
-158	-242	-345
-182	-279	-160
-199	-210	-44
-206	-96	87
-183	-6	104
-119	11	55
-14	-30	44
114	-70	80
231	-57	131
300	29	86
299	143	113
231	221	61
123	206	-44
11	105	-84
-76	-26	-101
-128	-114	-11
-150	-117	42
-156	-54	54
-151	12	56
-142	15	163
-118	-60	279
-74	-175	155
-8	-251	-65
64	-227	-301
122	-101	-282
149	72	-235
139	208	-209
106	250	-124
68	200	-38
44	112	40
42	56	-28
52	63	22
58	121	43
38	174	33
-6	179	80
-62	122	76
-105	32	87
-110	-45	27
-75	-84	-67
-15	-91	-89
39	-100	-72
63	-131	-62
44	-180	-33
8	-207	-25
-18	-174	-9
-8	-74	54
39	56	141
95	154	132
127	171	121
111	112	144
57	20	20
-3	-36	-129
-37	-25	-12
-27	43	185
1	115	162
12	132	179
-28	92	6
-106	25	-237
-176	-1	-394
-179	47	-560
-88	157	-558
71	260	-454
222	279	-243
278	183	-119
199	-4	-18
8	-209	24
-209	-353	32
-366	-395	150
-399	-356	216
-321	-282	285
-197	-222	285
-92	-189	151
-42	-174	3
-32	-149	-120
-20	-99	-249
32	-40	-306
127	3	-214
225	20	-95
280	18	35
262	31	162
175	81	204
62	170	155
-33	268	83
-84	322	31
-97	294	-92
-96	179	-122
-105	15	-8
-129	-136	43
-155	-212	22
-151	-187	13
-100	-81	145
-10	46	176
97	121	104
190	100	58
242	-14	-17
250	-160	-35
225	-257	-46
187	-243	-161
148	-112	-333
106	68	-318
46	209	-235
-39	236	-175
-149	140	-68
-255	-17	-72
-324	-149	-107
-324	-183	-25
-248	-117	16
-117	-4	102
30	84	176
150	102	170
214	60	175
223	12	79
184	9	-36
116	55	-102
33	119	-44
-53	142	19
-129	98	37
-174	2	101
-169	-90	125
-105	-123	63
-2	-82	-106
101	2	-272
166	75	-268
170	102	-99
123	85	23
68	60	53
52	70	31
94	121	-62
175	183	-136
255	203	-82
275	154	2
206	38	31
54	-90	-18
-138	-175	20
-325	-192	108
-459	-157	141
-526	-115	41
-522	-111	-66
-455	-152	-92
-344	-209	-193
-206	-229	-145
-60	-183	-46
68	-77	15
166	48	-77
223	135	-70
245	155	60
245	106	125
228	28	130
191	-41	-12
132	-82	-152
50	-100	-250
-45	-109	-275
-134	-119	-295
-181	-122	-210
-166	-97	-82
-92	-29	21
21	62	102
135	144	59
214	168	-2
238	120	6
205	19	-1
140	-72	75
74	-105	184
32	-50	175
28	64	144
49	174	70
68	221	3
52	174	-84
-16	62	-55
-128	-55	106
-248	-113	215
-321	-92	191
-308	-15	69
-208	60	-72
-50	78	-234
107	23	-316
212	-78	-327
244	-162	-150
202	-178	87
122	-110	150
35	10	-71
-43	118	-309
-106	159	-222
-158	110	-92
-194	-2	-44
-209	-117	-35
-188	-184	22
-136	-171	29
-64	-98	15
7	-3	72
54	67	113
84	95	202
97	88	231
111	67	208
130	57	120
148	58	20
154	57	-140
139	35	-311
111	-6	-181
82	-50	-91
64	-70	-94
65	-48	-72
72	7	-140
69	72	-61
36	115	2
-28	120	-19
-113	95	-3
-192	63	12
-236	51	72
-223	65	84
-148	93	24
-31	105	-12
92	84	-13
178	26	-111
196	-52	-151
133	-125	-143
13	-178	-172
-124	-202	-135
-229	-208	19
-262	-205	67
-221	-199	24
-125	-192	49
-28	-182	46
25	-168	22
13	-151	-32
-46	-129	-54
-116	-95	13
-143	-37	24
-104	44	47
-6	139	111
113	215	80
199	241	80
219	195	57
167	94	49
68	-21	29
-27	-101	-86
-87	-106	-202
-90	-39	-208
-49	62	-159
11	145	-268
68	179	-403
107	158	-353
132	115	-130
147	95	101
154	110	222
150	149	213
127	166	152
81	122	37
20	14	-10
-44	-124	22
-99	-229	9
-129	-251	112
-140	-185	53
-135	-76	-78
-123	11	-97
-105	24	-192
-79	-37	-250
-37	-127	-162
21	-182	29
84	-154	134
130	-50	151
137	72	63
96	155	30
16	157	60
-77	85	20
-145	-12	5
-170	-80	29
-145	-87	34
-92	-49	-92
-34	2	-88
4	31	-60
20	29	-60
24	9	-49
35	-1	-46
62	12	22
101	43	39
132	79	121
141	109	145
131	139	161
109	183	185
93	233	29
95	269	-161
102	253	-183
93	160	-132
42	-3	-245
-58	-182	-341
-191	-316	-331
-316	-358	-278
-387	-316	-33
-370	-242	154
-264	-187	178
-113	-186	133
44	-215	74
151	-225	25
179	-171	-88
138	-53	-126
61	82	-102
-7	177	-45
-32	193	-27
-4	140	-59
54	61	-46
105	-1	-49
113	-33	6
66	-55	111
-10	-92	138
-75	-148	84
-88	-192	29
-38	-181	90
51	-88	83
135	66	-8
171	215	-5
143	299	-43
72	275	-51
-6	174	-58
-64	58	-98
-95	-4	-68
-117	8	-142
-152	68	-247
-199	124	-248
-234	126	-117
-224	66	2
-157	-27	35
-54	-109	142
36	-141	297
80	-116	347
72	-45	150
46	39	-51
50	110	-182
107	142	-298
196	127	-351
257	59	-282
241	-51	-89
139	-173	-64
-4	-263	-26
-119	-281	35
-156	-217	57
-110	-94	135
-34	40	85
18	130	-18
24	161	-39
3	142	42
2	119	125
54	123	103
148	154	40
228	179	-23
234	150	-74
143	48	-124
-16	-99	-270
-170	-232	-157
-256	-296	152
-244	-263	155
-159	-163	58
-54	-57	-84
13	7	-173
27	16	-211
-10	4	-204
-70	14	-13
-124	75	87
-156	169	145
-151	247	112
-107	259	-32
-29	182	-10
68	48	101
151	-89	44
190	-174	-35
171	-186	-125
107	-151	-97
28	-102	-30
-23	-82	1
-34	-94	151
-16	-121	119
-1	-137	64
-16	-115	-72
-56	-54	-164
-97	32	-162
-96	125	-203
-35	200	-147
69	233	-197
178	206	-182
241	120	-57
234	-11	-30
161	-150	30
54	-246	60
-51	-254	72
-140	-168	81
-211	-18	87
-272	138	168
-325	238	196
-361	253	196
-351	194	155
-279	97	80
-145	3	-122
24	-72	-297
179	-133	-290
283	-196	-58
314	-244	205
280	-254	152
221	-188	52
170	-44	-161
145	129	-385
131	261	-447
99	282	-302
19	170	8
-102	-28	204
-227	-216	270
-296	-306	178
-264	-262	82
-137	-118	-66
36	47	-148
183	161	-96
244	186	-125
204	149	-103
111	89	7
28	43	34
5	16	42
41	-16	-52
90	-68	-226
100	-136	-198
33	-184	-79
-88	-181	36
-209	-117	110
-264	-21	57
-229	63	-41
-119	102	-4
7	92	0
89	68	-54
97	70	-112
45	110	0
-22	170	86
-58	206	24
-41	190	60
12	119	9
65	35	28
86	-16	44
61	-11	64
12	35	71
-30	75	25
-37	64	13
-5	-8	-33
42	-114	-113
74	-195	-163
69	-203	-105
41	-124	-86
13	9	-77
18	137	-75
61	204	-59
117	183	14
140	92	35
91	-29	54
-31	-127	78
-195	-174	118
-335	-160	129
-394	-105	58
-361	-48	46
-245	-23	106
-100	-48	10
29	-117	-113
113	-201	-157
148	-256	-300
147	-246	-245
121	-159	-106
87	-19	-58
54	120	-46
33	197	-66
28	170	-59
38	51	-62
44	-111	-30
32	-238	-7
-16	-272	95
-89	-200	155
-153	-61	74
-173	74	-6
-124	147	-58
-25	148	8
84	109	130
154	88	80
162	118	-76
125	188	-265
83	241	-351
76	222	-308
111	114	-167
163	-40	186
193	-159	455
170	-179	452
89	-84	278
-23	63	-42
-130	170	-390
-214	165	-545
-260	44	-407
-273	-118	-76
-253	-227	71
-198	-211	14
-112	-74	19
-5	111	7
96	249	-107
166	272	-78
191	188	-13
180	49	-10
155	-64	7
132	-111	-57
110	-93	12
63	-49	111
-21	-24	60
-134	-33	84
-231	-63	178
-257	-79	149
-181	-57	68
-28	0	37
130	70	-9
222	121	-67
198	138	-106
85	119	-118
-47	86	-95
-126	55	-68
-115	39	-69
-42	32	-93
26	19	-69
34	-9	61
-26	-61	145
-116	-135	85
-176	-215	49
-159	-280	-12
-68	-308	-135
59	-289	-249
182	-222	-297
265	-118	-189
299	0	-80
285	115	59
225	212	140
109	289	117
-49	339	110
-229	353	57
-369	317	-20
-418	214	-65
-360	41	-120
-223	-176	-186
-69	-393	-135
35	-557	-11
66	-618	74
42	-563	51
10	-413	86
6	-215	116
34	-19	65
72	143	52
93	261	-8
86	340	14
69	373	16
72	365	-34
104	296	-72
143	171	-169
161	29	-152
129	-85	-23
50	-116	-1
-47	-52	89
-129	74	304
-173	193	335
-176	233	238
-152	168	7
-112	27	-226
-58	-116	-397
12	-188	-551
91	-160	-551
159	-61	-470
184	38	-249
151	80	-65
75	43	91
-12	-33	179
-68	-96	57
-79	-104	10
-46	-61	39
-10	-16	112
0	-14	114
-28	-70	28
-75	-150	-24
-109	-189	18
-108	-131	95
-62	24	67
11	221	34
91	379	56
157	421	61
188	331	51
179	141	79
119	-70	-68
21	-235	-247
-100	-312	-186
-207	-301	-113
-271	-232	-15
-269	-143	85
-205	-64	144
-116	-5	170
-34	37	96
12	75	17
29	112	-25
40	153	-46
77	185	-90
142	191	-59
215	156	-51
267	76	-54
266	-36	83
214	-143	45
128	-208	-56
41	-203	-116
-30	-141	-209
-82	-52	-153
-120	20	-17
-150	50	155
-161	49	140
-142	47	24
-93	71	-68
-26	116	-177
31	142	-209
54	104	-198
39	-19	-98
-1	-194	39
-48	-355	84
-86	-427	15
-116	-390	-23
-145	-274	72
-172	-151	71
-182	-74	-5
-152	-53	-20
-80	-44	-36
17	10	-72
97	133	-52
120	286	151
81	395	194
8	391	95
-45	275	14
-38	109	-130
33	-11	-224
132	-24	-235
212	64	-119
233	180	-26
187	228	-25
104	165	-34
8	9	-91
-72	-156	-172
-141	-251	-214
-191	-238	-238
-215	-151	-154
-195	-55	-77
-119	-11	-58
2	-27	87
123	-62	171
196	-64	162
198	-2	113
130	105	-60
40	193	-58
-25	201	12
-41	105	106
-18	-57	225
11	-217	193
16	-299	95
-7	-263	-54
-29	-135	-127
-19	26	-83
39	150	-198
124	198	-281
190	174	-109
193	122	16
119	90	105
-6	103	99
-138	150	36
-229	190	-6
-255	177	33
-215	90	67
-136	-54	109
-47	-207	149
25	-316	84
65	-341	69
78	-292	91
76	-192	74
82	-90	24
111	-15	-39
167	33	-163
228	72	-311
251	126	-518
204	194	-609
81	250	-382
-88	244	-105
-237	148	50
-315	-43	84
-298	-279	40
-217	-474	54
-138	-550	64
-113	-473	131
-158	-269	145
-228	-24	110
-262	171	151
-210	261	178
-78	248	155
87	180	24
214	123	-40
256	115	-41
211	140	-97
116	161	-116
27	132	-76
-23	50	34
-28	-52	57
-10	-125	9
8	-136	2
9	-98	-44
-10	-47	-119
-37	-32	-191
-65	-61	-211
-85	-107	-214
-85	-116	-136
-56	-54	-7
5	64	137
86	193	210
169	262	16
216	244	-134
211	150	-130
152	32	-50
69	-50	-8
-3	-64	-88
-39	-19	-4
-38	50	95
-24	102	115
-17	106	47
-36	66	36
-62	-1	79
-76	-74	-99
-52	-126	-167
5	-144	-41
68	-116	-82
110	-47	-185
110	45	-128
78	130	-16
37	168	119
18	139	170
25	52	181
45	-49	222
52	-116	150
28	-103	48
-22	-14	-98
-75	102	-203
-98	178	-229
-83	157	-256
-41	25	-236
-5	-172	-133
-3	-353	-65
-35	-437	-46
-78	-387	-1
-95	-211	-43
-61	15	-70
15	209	-27
97	300	119
138	266	213
111	144	143
22	-4	109
-85	-108	20
-163	-142	-101
-180	-112	-201
-145	-61	-266
-99	-38	-145
-77	-63	31
-98	-127	58
-141	-192	119
-164	-222	104
-119	-194	24
4	-117	-2
175	-15	-143
339	85	-194
420	165	-209
382	210	-145
222	207	-6
-17	148	126
-262	35	224
-443	-107	72
-509	-229	31
-458	-276	76
-312	-215	56
-130	-57	109
33	139	133
140	299	33
189	362	-100
196	323	-222
194	219	-378
204	121	-282
216	66	-190
221	58	-119
184	60	126
111	38	142
22	-21	115
-51	-93	104
-84	-132	22
-72	-115	-13
-45	-51	-86
-34	18	-90
-52	48	-12
-84	29	74
-89	-19	118
-36	-51	-47
68	-40	-150
188	13	-8
259	71	115
242	95	161
139	68	108
2	9	-29
-111	-40	-179
-149	-49	-267
-115	-11	-267
-50	51	-242
-4	99	-207
-13	106	-126
-60	65	-79
-113	-6	9
-129	-94	12
-85	-174	5
5	-230	87
115	-249	79
204	-209	107
248	-115	90
234	19	70
159	148	-63
27	218	-126
-145	205	4
-325	106	12
-470	-31	34
-516	-154	86
-448	-223	101
-270	-233	69
-42	-206	56
155	-173	43
262	-141	-56
255	-100	-210
166	-35	-260
56	53	-45
-11	131	103
-3	153	155
72	91	184
170	-37	78
236	-167	-2
229	-226	-160
142	-167	-176
9	-15	21
-127	155	120
-206	256	130
-194	233	87
-98	105	-114
43	-51	-325
158	-148	-331
191	-131	-320
123	-24	-278
-18	106	-186
-162	182	-123
-243	168	8
-226	84	152
-130	0	258
-17	-25	258
49	23	172
42	111	119
-19	169	5
-84	152	-125
-103	60	-160
-62	-53	-182
10	-126	-89
69	-116	7
86	-31	7
61	71	-49
20	137	-117
1	131	-107
15	76	-46
51	6	13
86	-37	11
101	-45	69
97	-44	57
85	-61	-30
72	-115	-112
50	-179	-208
8	-213	-211
-60	-179	-17
-133	-70	95
-177	79	74
-151	213	248
-49	284	254
101	274	182
245	195	124
332	84	-33
340	-18	-179
280	-85	-248
183	-102	-193
72	-79	-182
-39	-32	-207
-156	13	-91
-264	28	43
-343	1	21
-362	-70	3
-315	-158	0
-222	-228	38
-131	-248	41
-85	-214	-12
-94	-150	14
-121	-83	26
-117	-39	4
-40	-19	-62
90	-8	-36
210	8	85
252	22	141
180	8	176
29	-60	166
-117	-175	15
-173	-287	-136
-102	-326	-133
52	-248	-98
206	-51	-133
275	187	-120
229	372	33
111	431	152
10	364	166
-10	225	17
62	102	-243
163	47	-282
205	53	-273
125	70	-236
-68	43	-229
-298	-33	-245
-468	-123	-120
-497	-163	-42
-393	-117	-22
-221	-13	-35
-56	82	-17
33	100	38
51	27	63
42	-91	140
60	-168	181
127	-141	111
216	-15	70
280	147	47
270	249	59
187	235	158
59	114	278
-54	-41	391
-112	-143	373
-105	-152	124
-52	-75	-162
11	21	-361
60	80	-497
86	74	-558
97	28	-362
99	-8	-36
90	0	61
68	55	51
27	123	51
-24	165	29
-72	158	4
-102	112	-13
-107	55	31
-88	7	-36
-54	-27	-82
-16	-64	3
26	-119	7
65	-190	16
93	-250	-19
98	-265	31
66	-223	-15
-1	-127	-59
-91	-23	-8
-170	43	-49
-206	53	-51
-181	13	-110
-102	-35	-97
6	-49	-75
106	-4	12
170	80	117
182	153	127
139	169	28
65	99	-7
-23	-33	-39
-96	-186	-134
-136	-292	-156
-133	-322	-102
-103	-272	178
-69	-173	183
-58	-63	26
-82	29	-86
-123	96	-159
-150	150	-215
-125	193	-219
-42	225	-63
72	233	116
167	203	229
191	135	104
138	43	-13
33	-46	-68
-61	-118	-230
-102	-160	-410
-72	-175	-229
2	-170	6
80	-142	91
128	-93	112
139	-20	78
129	58	-63
110	121	-221
86	150	-21
46	134	72
-13	93	85
-80	48	65
-128	27	24
-129	24	13
-82	32	-23
-16	28	80
24	3	76
5	-29	-82
-60	-46	-54
-130	-26	76
-148	30	2
-85	106	107
36	170	112
161	192	77
225	165	104
206	95	51
123	11	19
29	-68	-179
-30	-119	-273
-35	-130	-239
-5	-101	-143
27	-34	-101
39	41	-16
24	99	70
-6	106	65
-42	52	58
-75	-43	1
-110	-136	0
-142	-176	-9
-156	-137	-20
-136	-34	36
-74	79	-46
14	135	-180
90	98	-200
115	-28	-63
84	-190	-37
12	-319	-136
-47	-357	21
-53	-299	98
4	-174	68
99	-40	32
175	52	-25
193	88	-114
140	77	-139
46	53	33
-40	50	74
-90	74	83
-91	120	134
-63	160	175
-38	168	78
-32	127	-118
-44	41	-151
-60	-64	-215
-67	-160	-351
-65	-214	-325
-62	-215	-228
-63	-162	-210
-67	-80	-103
-57	5	71
-21	70	196
38	103	181
101	110	171
130	104	181
97	100	-3
3	97	-149
-125	89	-158
-234	64	-44
-282	12	-63
-256	-57	-93
-170	-127	87
-68	-174	130
5	-176	94
30	-133	36
13	-62	43
-18	3	59
-30	45	10
-6	53	28
53	46	12
125	46	-16
186	77	-65
212	140	-132
203	215	-112
169	269	40
123	272	86
88	213	34
64	108	6
55	-11	90
48	-116	171
36	-182	59
17	-202	2
-13	-183	-170
-46	-135	-306
-78	-71	-387
-94	-5	-289
-87	49	21
-47	84	11
26	95	74
120	86	77
214	71	-5
269	55	-51
262	43	-52
181	28	129
46	5	167
-102	-24	213
-216	-52	26
-267	-67	-246
-255	-71	-265
-200	-72	-280
-137	-87	-278
-81	-124	-207
-31	-170	-185
28	-198	-84
101	-174	38
170	-89	147
195	41	362
139	181	376
-4	284	265
-199	327	134
-357	295	-77
-408	195	-364
-318	35	-505
-120	-160	-311
92	-362	-50
223	-519	90
216	-573	115
92	-490	168
-72	-282	142
-181	-22	3
-172	190	-54
-49	269	-81
122	202	-52
262	47	-36
306	-92	-41
244	-130	-100
107	-51	-143
-45	85	-9
-170	194	94
-247	209	7
-276	132	-31
-271	25	30
-236	-38	61
-170	-16	103
-81	75	196
20	171	123
107	215	-78
163	187	-234
187	109	-256
188	35	-164
188	1	-93
193	10	80
198	39	164
184	53	164
138	38	203
62	-2	208
-27	-43	124
-100	-70	-14
-139	-79	-147
-145	-78	-271
-128	-77	-313
-106	-70	-281
-83	-55	-159
-55	-21	-23
-22	26	14
17	67	24
57	88	3
89	79	-136
99	55	-112
90	30	6
58	19	-15
16	16	37
-35	5	78
-80	-23	65
-109	-66	-3
-110	-102	-53
-72	-104	-48
-12	-54	103
54	35	381
99	133	397
113	206	86
106	231	-209
103	202	-437
123	132	-542
161	35	-309
186	-82	-89
154	-210	58
46	-333	110
-113	-426	-45
-270	-449	-211
-347	-379	-267
-311	-218	-19
-181	-11	129
-30	171	117
59	267	79
50	238	-24
-34	105	-108
-121	-72	-165
-132	-218	-111
-41	-270	5
111	-214	79
239	-83	72
262	54	-2
170	132	-57
8	112	81
-129	12	164
-177	-110	176
-135	-186	145
-62	-170	112
-38	-68	155
-97	66	163
-209	165	133
-285	177	21
-245	110	-102
-72	18	-245
180	-28	-391
399	12	-343
486	124	-107
407	244	36
200	301	112
-46	252	43
-247	116	-106
-351	-37	-132
-358	-137	-192
-302	-151	-93
-222	-94	-29
-141	-27	-22
-70	4	7
-14	-18	-88
36	-61	-142
75	-83	-42
111	-48	74
144	32	45
182	121	47
216	174	-2
234	171	-19
216	121	35
159	57	10
72	9	18
-18	-16	32
-81	-28	54
-101	-38	176
-87	-52	263
-55	-53	252
-28	-23	60
-8	51	-139
11	158	-209
44	260	-327
97	323	-227
154	310	-45
198	218	24
212	64	103
191	-110	126
138	-264	104
69	-362	-75
-12	-381	-331
-96	-332	-423
-182	-247	-320
-261	-175	-121
-314	-151	15
-321	-183	36
-276	-245	64
-191	-286	111
-95	-261	149
-15	-155	131
32	7	18
55	174	16
75	298	-18
118	342	-81
192	316	-79
283	229	-170
351	106	-133
346	-37	-81
244	-182	8
40	-303	86
-213	-361	48
-444	-331	-7
-572	-213	-13
-548	-48	-6
-371	96	-41
-104	161	-54
154	136	-40
306	60	29
306	6	4
179	27	82
-5	128	91
-147	259	5
-193	344	-108
-145	332	-86
-53	225	7
13	79	-58
17	-46	55
-37	-113	49
-103	-128	-74
-126	-128	-59
-85	-148	92
13	-179	59
122	-192	-14
201	-148	-74
232	-32	-241
222	117	-122
196	247	-12
172	301	26
158	264	71
133	161	42
94	41	29
36	-49	-22
-21	-97	9
-58	-109	78
-67	-101	11
-61	-85	-113
-67	-48	-158
-95	16	-51
-140	105	-32
-172	188	-136
-158	223	-244
-85	182	-270
26	68	-128
131	-68	-20
190	-175	16
175	-209	102
111	-176	158
24	-119	143
-40	-95	32
-76	-135	-82
-92	-216	-107
-110	-282	-64
-144	-270	29
-184	-162	34
-204	4	-5
-172	154	76
-81	214	98
52	170	-1
193	64	-62
291	-24	-93
320	-35	-103
262	34	-131
128	133	-22
-47	186	46
-217	147	66
-333	23	124
-348	-115	67
-253	-195	47
-70	-178	-17
147	-80	-117
326	36	-200
428	110	-147
435	113	3
360	61	-13
237	2	-29
81	-32	-32
-92	-31	15
-267	-25	65
-411	-36	-76
-488	-79	-91
-463	-130	-11
-339	-155	18
-162	-129	28
0	-55	-80
76	30	-98
51	91	-5
-36	99	116
-117	66	142
-128	24	49
-57	5	-54
60	25	-143
170	71	-78
226	115	-109
222	131	-115
186	113	-3
147	71	-33
115	27	-114
83	-5	-69
27	-25	-49
-52	-37	-127
-136	-52	4
-190	-62	37
-188	-55	-52
-132	-19	-38
-40	46	5
54	120	44
133	169	70
181	171	70
199	127	-19
184	57	-27
128	-7	2
37	-41	100
-69	-44	179
-158	-34	112
-191	-37	28
-159	-67	-69
-84	-116	-69
-6	-163	-65
30	-185	-23
20	-177	39
-8	-148	-23
-18	-114	-128
17	-86	-205
87	-59	-261
152	-33	-313
169	0	-298
122	34	-194
40	58	-47
-34	66	-9
-60	62	-42
-41	51	-17
-8	41	84
-8	22	213
-64	-17	217
-157	-81	175
-237	-154	133
-247	-199	21
-168	-177	-90
-17	-78	-109
155	68	-106
284	201	-87
344	259	-12
329	215	76
261	103	74
159	-20	29
44	-88	81
-83	-79	110
-209	-21	83
-313	29	-4
-370	23	-63
-355	-47	-120
-276	-147	-201
-156	-217	-87
-38	-215	52
44	-136	46
82	-12	49
82	109	-42
75	183	-178
77	203	-80
95	174	15
115	130	-44
121	88	-44
96	61	-15
42	47	6
-28	39	46
-103	36	-92
-163	29	-230
-195	17	-176
-191	-6	-97
-144	-38	26
-60	-72	77
41	-101	0
137	-107	-13
200	-86	49
214	-38	-69
189	18	-231
140	68	-84
94	93	91
65	85	102
49	53	142
36	10	129
11	-29	41
-27	-53	66
-75	-59	4
-111	-46	-71
-129	-21	28
-119	16	-125
-83	57	-265
-23	104	-218
48	147	-133
118	182	38
172	197	152
187	177	98
151	118	-86
72	25	-158
-24	-83	-113
-104	-178	-105
-137	-233	-52
-121	-238	76
-78	-207	125
-42	-169	124
-46	-154	91
-96	-170	61
-160	-192	-4
-202	-184	-68
-189	-106	-117
-116	41	-168
-5	219	-128
101	357	-86
179	394	-63
212	300	50
211	115	194
187	-95	170
142	-256	175
76	-318	85
-15	-279	-77
-116	-178	-179
-187	-60	-279
-181	29	-252
-71	74	-208
125	69	-208
338	25	-104
468	-41	79
439	-108	80
244	-153	86
-71	-152	83
-387	-100	-6
-601	-17	-66
-641	60	-32
-534	87	85
-350	45	71
-177	-47	37
-77	-144	-10
-48	-191	-10
-48	-154	54
-28	-45	37
30	90	108
107	197	107
163	239	49
164	219	-41
118	170	-157
59	127	-185
29	114	-209
50	123	-235
109	131	-60
171	120	49
196	79	-52
171	24	-89
104	-31	-109
22	-67	-29
-48	-90	68
-88	-98	175
-96	-101	115
-72	-92	-63
-22	-62	-132
47	-13	-289
124	52	-260
188	113	-67
216	149	57
199	153	205
148	123	237
86	81	222
36	36	225
18	0	151
21	-32	18
21	-61	-84
-3	-82	-184
-59	-87	-292
-137	-69	-328
-209	-40	-317
-247	-20	-244
-242	-27	-19
-198	-59	163
-136	-95	149
-71	-94	142
-19	-31	140
16	76	0
34	171	-56
32	194	8
13	111	-39
-18	-48	-76
-43	-207	-53
-47	-273	-10
-19	-210	-2
36	-50	-79
97	112	-108
139	178	-88
147	98	-80
122	-94	-103
86	-300	-97
63	-417	-28
65	-391	46
86	-242	87
105	-32	142
106	160	105
89	282	34
62	327	30
40	305	-26
20	241	7
-18	138	22
-94	6	-14
-210	-140	-16
-339	-263	-19
-431	-312	-40
-447	-268	-145
-371	-148	-184
-232	-9	-108
-80	82	68
40	89	256
111	24	199
139	-53	58
154	-87	22
160	-43	-42
154	51	-149
120	142	-315
47	174	-265
-48	126	-95
-130	37	-187
-163	-39	-153
-127	-51	27
-39	6	90
63	98	86
139	171	-7
172	194	-112
167	162	-76
143	103	54
122	57	130
111	41	263
100	45	347
76	44	249
33	15	36
-20	-40	-270
-67	-98	-446
-99	-131	-515
-105	-126	-389
-88	-90	-188
-57	-47	-47
-19	-17	108
22	-4	10
59	-1	-2
87	8	52
98	28	113
87	55	155
63	74	137
37	72	133
22	55	71
24	32	116
37	18	44
46	19	-45
34	25	-52
-10	28	-60
-80	18	-122
-154	3	-170
-205	-7	-238
-205	-5	-331
-144	4	-248
-32	0	-31
101	-32	135
216	-93	202
280	-149	224
277	-167	205
210	-121	142
107	-21	3
-2	78	-144
-97	116	-178
-171	51	-117
-228	-106	-143
-269	-296	-72
-282	-427	18
-248	-453	-19
-141	-364	-52
34	-215	-16
231	-78	104
373	2	122
397	26	108
266	40	52
17	90	2
-261	180	-4
-470	277	-31
-542	312	-33
-466	247	-100
-307	97	-187
-139	-69	-181
-31	-167	-96
2	-150	-34
-8	-29	24
-16	120	44
13	225	16
76	238	52
141	180	48
181	104	-45
175	62	-23
148	68	39
121	89	4
122	78	-50
150	14	-82
179	-78	10
179	-143	75
131	-141	107
46	-70	115
-43	23	-51
-103	79	-205
-112	56	-338
-71	-23	-177
-10	-103	-7
44	-128	-200
74	-74	-172
74	28	-217
65	120	-194
63	150	7
75	110	60
90	33	104
89	-36	88
51	-64	41
-28	-56	-51
-130	-43	-59
-227	-51	-24
-277	-87	-40
-264	-125	36
-191	-137	123
-82	-104	137
31	-32	139
118	49	106
167	110	118
183	138	87
184	135	59
191	114	35
206	85	31
216	51	-15
205	16	-171
154	-18	-323
60	-32	-300
-60	-7	-86
-182	56	7
-273	143	84
-310	211	142
-279	215	134
-198	141	91
-94	2	-43
-7	-148	-157
36	-248	-192
26	-261	-187
-17	-198	-132
-50	-109	-34
-45	-55	-30
11	-80	-36
86	-174	2
133	-294	43
117	-368	54
32	-353	46
-78	-253	39
-158	-112	35
-161	6	108
-96	60	50
-12	53	-116
26	31	-226
-11	40	-248
-105	99	-140
-194	185	4
-217	244	140
-152	235	129
-31	147	60
75	23	41
116	-77	-65
80	-104	-111
5	-59	-143
-48	13	-103
-43	63	61
20	61	78
106	22	57
178	-9	133
216	9	210
226	84	-109
222	174	-267
208	233	-187
175	213	-331
111	129	-341
16	19	-276
-86	-59	75
-152	-82	278
-162	-57	231
-127	-24	125
-81	-21	-56
-70	-53	-36
-106	-104	9
-167	-131	-19
-202	-118	-154
-174	-68	-135
-78	-9	-57
55	28	-24
169	39	55
222	44	16
209	72	2
155	133	2
97	209	3
55	252	12
31	219	10
4	102	9
-40	-70	-69
-101	-238	-9
-156	-334	79
-181	-334	76
-162	-249	126
-97	-127	119
-6	-23	49
92	38	-13
180	61	21
251	75	68
294	105	48
300	155	81
257	200	16
163	210	-86
31	163	-193
-107	67	-315
-215	-42	-273
-269	-131	-241
-259	-178	-211
-208	-190	-127
-151	-188	-55
-115	-200	7
-112	-222	101
-121	-227	127
-112	-190	48
-57	-96	76
41	31	59
154	151	-53
241	213	-80
259	200	-79
209	130	2
111	50	49
17	6	59
-37	7	141
-44	33	93
-31	45	59
-44	19	110
-113	-43	77
-234	-110	-49
-364	-139	-204
-434	-120	-183
-394	-61	-345
-250	2	-425
-41	44	-129
151	61	117
261	63	183
265	71	112
187	80	-17
86	70	-297
14	16	-334
-11	-84	-323
-1	-196	-177
8	-272	129
-8	-257	175
-51	-147	155
-89	22	94
-90	178	103
-35	256	57
58	237	-32
153	148	50
208	47	128
207	-15	53
160	-19	-61
93	16	-2
34	56	39
-6	70	-66
-34	49	-50
-57	8	-91
-84	-36	-142
-100	-62	-87
-84	-69	-14
-28	-60	9
65	-39	34
163	-12	51
234	23	26
253	61	24
221	97	-15
151	122	-2
76	131	-3
12	127	9
-33	110	-3
-68	89	-7
-103	61	-27
-138	32	-27
-168	12	49
-178	9	54
-172	35	-15
-156	79	-71
-143	112	-25
-144	93	-24
-142	-1	5
-112	-159	61
-22	-325	91
122	-426	110
288	-405	-49
411	-262	-282
428	-57	-409
314	114	-352
92	178	-180
-155	115	-48
-345	-18	77
-422	-137	192
-370	-173	167
-224	-117	92
-43	-25	66
107	24	34
192	-17	-55
186	-130	-80
99	-242	-5
-52	-260	-82
-217	-150	-202
-344	51	-203
-383	248	-94
-315	328	57
-164	244	111
9	29	48
132	-214	-122
163	-373	-284
107	-376	-154
20	-232	40
-32	-20	123
-14	166	207
67	257	162
158	253	59
205	194	-108
187	143	-323
120	138	-412
53	175	-261
21	218	8
32	224	163
54	171	270
59	81	321
26	-17	287
-30	-83	205
-80	-104	-42
-99	-85	-173
-78	-51	-173
-40	-24	-246
-7	-9	-193
9	-1	-236
12	13	17
18	39	140
40	72	4
72	96	38
94	90	-9
90	47	28
55	-23	-17
10	-97	72
-23	-153	47
-27	-165	-37
1	-135	-35
39	-80	-32
65	-21	45
61	11	-30
26	11	-106
-29	-14	-66
-80	-39	-16
-106	-47	-40
-101	-23	70
-63	27	124
-6	81	43
60	122	-20
119	141	-45
159	145	-25
174	144	-42
161	151	61
117	157	65
44	147	-31
-53	104	-70
-167	21	-107
-274	-83	-113
-352	-176	-183
-370	-223	-224
-305	-205	-171
-170	-140	-188
1	-62	-140
150	-20	11
221	-36	138
190	-114	281
76	-219	337
-62	-312	190
-160	-355	-93
-173	-326	-323
-112	-246	-472
-24	-130	-468
28	-17	-339
14	68	-186
-46	117	11
-101	125	183
-85	109	240
28	83	249
211	66	326
396	67	316
504	94	164
495	137	-69
370	179	-232
175	204	-275
-27	194	-208
-197	142	-34
-310	55	25
-363	-41	119
-371	-126	147
-336	-175	49
-263	-178	45
-170	-138	28
-68	-76	-87
15	-9	-118
66	48	-49
81	99	-32
69	143	22
50	189	-5
32	222	-67
17	223	-61
-3	171	-38
-28	68	-165
-50	-65	-92
-59	-187	213
-43	-245	132
-7	-224	110
32	-134	77
52	-27	-126
44	48	-164
16	65	-127
-8	29	-70
4	-21	-115
57	-45	-161
145	-19	-36
234	46	-18
290	117	-66
288	159	50
231	154	89
128	114	82
9	61	48
-105	14	-9
-203	-28	32
-267	-79	-34
-295	-142	-177
-279	-214	-124
-228	-261	-10
-155	-251	3
-74	-167	126
0	-26	145
76	120	21
157	228	-98
245	262	-151
330	243	-176
371	202	-168
330	187	-19
201	210	9
6	239	10
-189	223	10
-312	116	22
-332	-79	-16
-262	-316	-79
-165	-510	-20
-105	-590	-32
-111	-536	-154
-166	-375	-213
-205	-179	-100
-176	-24	-23
-48	52	113
148	65	332
345	49	389
484	39	324
517	48	93
431	60	-165
245	51	-350
-3	12	-435
-267	-37	-400
-477	-65	-210
-577	-50	-30
-538	4	-80
-371	62	-97
-140	89	28
64	61	110
175	1	96
169	-48	30
93	-42	-68
16	30	-49
-4	133	19
33	214	43
80	225	141
64	157	119
-35	50	-20
-183	-39	-43
-299	-68	-100
-308	-42	-67
-189	3	-28
10	15	2
204	-26	100
320	-101	22
331	-157	-40
269	-141	-14
197	-50	-5
154	81	13
150	183	-27
155	206	-11
140	147	110
94	49	74
25	-24	-82
-37	-37	-139
-83	4	-127
-105	49	-179
-115	51	-151
-115	-4	-118
-101	-85	-48
-64	-126	84
-5	-89	32
57	22	70
98	142	155
94	197	37
50	144	-26
-11	5	112
-49	-143	115
-48	-216	-34
-12	-172	-164
32	-38	-121
51	106	-78
27	182	-52
-36	150	-13
-114	41	-77
-175	-78	-23
-201	-136	-22
-184	-116	-18
-132	-44	-3
-59	23	28
16	39	54
82	2	11
121	-62	13
125	-108	12
97	-118	-79
41	-99	-167
-20	-84	-165
-71	-93	-157
-92	-122	-70
-76	-144	168
-18	-125	273
68	-51	270
167	56	278
245	155	130
277	201	-176
233	179	-513
103	102	-605
-81	8	-452
-262	-67	-129
-380	-108	76
-383	-115	129
-276	-109	82
-112	-104	-85
31	-108	-133
81	-115	-98
26	-121	-38
-87	-121	-35
-175	-111	-77
-170	-88	-115
-55	-42	-77
121	26	115
269	115	278
324	211	360
262	292	332
127	345	211
-10	359	107
-85	333	1
-84	265	-66
-31	163	-103
22	26	-124
40	-131	-120
16	-275	-225
-37	-362	-324
-94	-352	-282
-138	-245	-211
-160	-77	-82
-158	80	36
-123	157	51
-58	129	84
33	27	79
129	-72	83
196	-101	99
212	-31	38
172	100	62
101	214	60
35	248	60
1	179	72
8	46	-8
33	-83	3
50	-154	-43
38	-156	-145
-5	-118	-152
-62	-77	-95
-114	-51	-19
-139	-25	40
-135	30	57
-101	127	-19
-46	244	-83
14	325	-163
68	325	-162
100	230	11
103	74	104
75	-89	88
34	-206	4
-3	-270	-95
-19	-301	-42
-20	-333	49
-20	-379	41
-40	-418	22
-83	-416	-34
-126	-338	-183
-140	-187	-270
-102	4	-144
-16	190	-43
86	327	39
166	397	155
195	395	133
183	333	101
156	218	18
144	65	-98
144	-100	-177
128	-241	-205
54	-311	-140
-93	-289	-46
-279	-190	13
-433	-55	26
-481	55	-6
-390	106	-29
-190	90	-55
38	45	-16
214	15	28
280	23	-22
240	71	-8
135	123	12
18	149	24
-74	126	74
-134	67	90
-172	-5	86
-190	-65	20
-188	-105	-89
-152	-120	-61
-85	-115	37
-3	-94	32
66	-49	41
103	13	20
108	82	-127
102	138	-238
107	158	-277
130	134	-185
163	74	59
175	0	182
154	-57	152
95	-84	94
22	-71	39
-34	-32	44
-63	20	7
-67	64	-87
-59	86	-204
-52	83	-206
-46	58	-102
-27	25	-133
11	-6	-49
66	-25	21
124	-35	4
159	-41	11
159	-51	-38
123	-68	-21
70	-78	21
18	-71	87
-26	-43	63
-58	-7	23
-89	13	35
-114	-2	3
-125	-53	-46
-115	-116	-124
-82	-150	-129
-35	-129	-96
-3	-54	-12
-2	43	70
-33	125	48
-81	163	24
-111	162	1
-97	141	-52
-35	132	-204
53	137	-297
127	135	-150
151	103	-3
97	23	16
-21	-85	77
-176	-185	137
-311	-237	152
-375	-226	77
-333	-158	48
-175	-62	178
72	31	217
343	108	178
566	161	92
664	187	-139
588	171	-390
352	106	-412
23	-12	-283
-300	-161	-145
-511	-297	-107
-563	-376	-173
-465	-375	-126
-285	-304	-1
-113	-202	-10
-3	-105	-89
27	-32	-32
15	27	-12
8	87	-23
41	155	77
113	215	62
191	236	30
241	195	101
242	98	45
204	-9	4
144	-78	38
82	-74	13
8	-9	16
-82	67	13
-185	106	-5
-280	77	9
-330	-4	32
-302	-90	22
-197	-129	39
-49	-103	25
85	-32	0
169	48	4
194	103	-32
190	123	-44
194	123	-51
221	129	-5
251	151	52
242	174	24
162	173	-53
15	131	2
-156	57	142
-288	-28	95
-335	-92	51
-291	-115	-32
-186	-107	-145
-67	-82	-173
28	-58	-177
92	-40	-60
128	-22	-40
144	13	-145
140	70	-237
107	138	-235
42	199	-93
-38	225	10
-106	201	11
-136	119	-13
-117	-13	-34
-71	-171	32
-32	-320	152
-22	-407	200
-38	-393	211
-61	-279	163
-66	-101	19
-49	63	-123
-27	128	-178
-22	48	-164
-42	-152	-205
-57	-384	-261
-30	-531	-211
63	-510	-44
206	-322	34
326	-41	-5
350	215	-69
241	358	-87
26	362	-15
-198	275	11
-331	171	122
-312	106	245
-161	85	271
42	67	249
195	15	130
241	-78	-65
175	-159	-335
65	-167	-412
-29	-68	-212
-60	110	-2
-29	287	170
28	372	130
77	330	-79
89	183	-40
66	15	2
19	-89	-136
-44	-92	-147
-111	-22	-136
-179	51	-50
-233	68	47
-257	13	69
-231	-76	144
-153	-135	57
-41	-125	-67
70	-51	-157
151	41	-157
182	99	-86
167	95	-25
127	43	52
72	-13	99
17	-37	24
-39	-25	-89
-94	0	-95
-139	6	-129
-162	-24	-60
-143	-81	-27
-86	-126	2
1	-126	77
91	-72	32
162	22	46
201	117	74
214	179	-23
212	189	-102
194	141	-56
153	57	2
78	-45	12
-30	-143	-3
-147	-218	9
-235	-249	4
-256	-225	26
-199	-143	22
-86	-24	20
27	101	16
86	203	-18
65	260	-45
-22	268	-10
-121	241	80
-176	189	55
-152	119	-8
-62	35	-116
53	-56	-109
142	-147	-34
170	-211	-60
136	-234	-2
61	-218	18
-18	-186	30
-81	-169	-28
-121	-194	-125
-140	-257	-65
-142	-322	-77
-128	-346	-138
-98	-304	-160
-45	-196	-99
17	-66	37
83	45	65
138	106	32
175	122	4
195	123	-56
195	143	-88
175	196	-91
132	265	2
63	310	159
-31	291	205
-134	197	234
-222	49	179
-269	-103	-13
-260	-203	-144
-191	-214	-228
-81	-135	-345
52	-3	-387
179	132	-313
275	224	-76
324	244	187
324	205	240
268	138	133
172	82	34
45	53	13
-91	47	-219
-215	39	-387
-304	1	-322
-341	-67	-174
-325	-151	26
-262	-207	187
-181	-212	260
-94	-158	159
-17	-69	144
48	15	87
106	71	7
163	91	-31
211	93	-124
230	93	-165
208	103	1
136	106	79
34	83	-11
-66	22	10
-137	-63	-30
-156	-138	58
-126	-163	3
-72	-118	-95
-23	-23	-111
13	76	-132
39	130	-27
68	119	15
111	56	59
155	-13	71
172	-43	143
137	-13	162
51	56	24
-55	127	-98
-134	154	-186
-141	122	-211
-77	43	-197
15	-43	-139
59	-109	-8
6	-151	35
-139	-182	40
-303	-232	44
-392	-304	-6
-336	-383	14
-142	-424	-17
99	-389	-12
280	-270	52
314	-99	56
210	64	-6
44	168	-55
-79	185	-56
-92	147	-60
-14	109	-31
81	117	-11
111	174	7
50	237	-34
-63	241	-80
-156	138	-13
-158	-49	5
-79	-246	-21
32	-351	32
104	-298	193
100	-103	201
49	145	24
9	333	-141
33	373	-279
116	276	-173
212	105	-65
257	-36	8
211	-82	80
92	-31	97
-50	53	77
-162	100	-84
-217	74	-179
-225	-6	-287
-209	-76	-341
-187	-88	-320
-155	-31	-190
-96	55	-4
-10	110	-32
83	104	-159
147	45	-67
156	-20	87
116	-51	77
51	-32	60
-1	11	129
-28	35	281
-41	13	225
-61	-46	72
-100	-105	10
-139	-130	-11
-148	-110	-17
-98	-66	-172
6	-39	-100
129	-44	-41
222	-72	-118
248	-84	28
215	-44	61
144	50	56
75	174	74
16	275	-2
-36	313	-14
-93	275	1
-148	175	3
-175	45	-49
-151	-89	-128
-64	-210	-84
49	-301	-9
137	-344	-15
153	-322	4
89	-229	-44
-11	-84	-48
-83	72	14
-71	191	36
17	236	43
135	209	18
214	136	39
199	57	34
92	-6	-30
-69	-53	-74
-223	-98	-82
-319	-148	-62
-344	-192	-56
-312	-213	-56
-244	-188	-50
-164	-123	-39
-85	-40	-18
-6	30	-36
58	68	-36
104	89	-30
128	106	-30
138	139	-22
144	171	-23
151	170	-15
158	97	-14
140	-51	-24
87	-236	-41
-5	-386	-20
-114	-432	15
-201	-355	9
-235	-190	19
-200	-8	30
-118	117	7
-18	158	-32
63	130	-51
114	92	-107
134	85	-115
133	123	-74
123	182	6
102	210	87
77	183	112
44	106	246
17	19	155
-2	-36	-85
-13	-41	-82
-22	-5	-143
-41	36	-300
-68	58	-292
-89	53	-97
-81	36	49
-32	33	105
52	50	62
145	82	48
207	104	168
216	104	130
167	79	82
85	50	-125
-5	36	-351
-80	43	-405
-135	60	-336
-178	55	-101
-212	2	61
-242	-105	134
-255	-238	123
-239	-352	-56
-183	-395	-158
-84	-341	-55
50	-188	-108
211	20	-110
373	215	-74
502	335	-44
552	341	115
496	244	85
326	101	3
85	-15	11
-159	-48	-92
-341	2	-94
-408	85	-6
-373	127	10
-286	76	68
-217	-61	49
-208	-231	-7
-255	-351	-10
-311	-375	61
-318	-312	106
-244	-222	125
-96	-159	162
75	-141	130
211	-137	115
269	-90	68
244	26	-33
163	177	-173
66	282	-215
-11	267	-193
-55	127	-170
-68	-71	-77
-63	-219	-57
-56	-240	-20
-53	-137	-10
-56	3	-10
-57	78	51
-42	41	43
4	-68	45
83	-148	46
188	-109	30
288	55	-1
346	264	-70
325	388	-109
212	350	-40
36	164	-34
-152	-69	-41
-285	-223	5
-321	-223	-33
-253	-92	-100
-111	77	-180
37	183	-79
142	183	-8
175	110	-11
145	33	66
93	16	49
54	64	21
54	132	-10
82	169	-26
107	138	57
105	64	118
59	-12	135
-20	-57	147
-104	-66	-69
-163	-75	-206
-180	-105	-168
-153	-163	-149
-97	-215	-150
-29	-218	-95
29	-148	-6
66	-21	18
80	106	-50
75	190	-171
67	204	-141
77	171	-89
114	139	-1
172	137	58
234	161	87
254	169	112
198	118	63
52	-7	-28
-157	-174	-150
-375	-319	-144
-529	-379	-203
-565	-334	-155
-480	-215	-23
-308	-81	-66
-108	11	-23
58	43	-32
167	36	-32
216	31	7
229	53	33
216	90	100
191	109	133
135	68	155
40	-33	133
-88	-169	79
-228	-278	15
-333	-309	-41
-375	-249	-84
-339	-121	-38
-228	19	21
-69	120	33
105	158	84
266	140	55
390	103	-18
451	71	-109
439	65	-77
363	68	-97
236	67	-160
98	41	-6
-17	-8	71
-87	-66	51
-115	-108	-21
-125	-114	-103
-147	-87	-120
-184	-40	-132
-221	5	-124
-233	30	-71
-195	40	10
-116	51	39
-21	88	2
54	153	-30
89	224	-82
87	260	-128
74	218	-82
72	89	45
86	-97	106
100	-263	84
87	-343	49
40	-297	-27
-26	-152	-54
-80	17	-79
-89	124	-147
-50	122	-224
13	28	-155
66	-92	59
83	-157	191
58	-121	271
18	-2	325
-6	144	255
1	244	-50
34	262	-302
66	198	-308
67	90	-262
20	-12	-56
-66	-81	22
-166	-111	-101
-244	-114	-223
-263	-101	-106
-214	-72	57
-94	-29	-25
72	28	15
242	85	27
365	128	37
405	145	55
346	141	60
215	127	81
58	117	76
-75	105	78
-149	74	1
-170	15	-32
-175	-68	-13
-199	-142	17
-253	-168	-113
-304	-120	-175
-307	-17	-233
-228	84	-318
-81	114	-151
77	33	-90
178	-135	11
184	-322	-5
112	-435	-21
26	-418	51
-17	-280	48
9	-98	43
69	29	20
104	39	59
65	-61	37
-40	-203	28
-155	-289	8
-209	-260	19
-170	-115	65
-52	81	77
85	243	56
191	317	24
244	299	21
260	240	-10
269	195	-104
279	201	-148
257	236	-34
162	252	-29
-19	204	-105
-245	88	-132
-431	-54	-10
-501	-161	64
-435	-177	34
-276	-106	130
-115	3	147
-21	77	97
-10	58	-15
-35	-44	-108
-26	-175	-160
52	-246	-282
180	-204	-269
280	-51	-90
299	145	22
213	284	87
82	301	94
-11	190	49
-8	14	37
87	-134	15
206	-181	13
262	-125	-83
206	-27	-103
51	31	-96
-131	-3	-43
-263	-108	68
-306	-213	68
-261	-229	108
-174	-119	89
-90	77	19
-26	265	-181
22	350	-324
69	291	-279
118	126	-192
148	-54	-10
128	-164	110
49	-169	87
-70	-101	-25
-191	-31	-14
-267	-12	42
-276	-49	27
-223	-94	-34
-126	-88	-1
-15	4	120
101	160	28
216	316	-43
320	403	-63
389	388	-92
401	283	-163
344	136	-256
228	-7	-204
87	-118	-181
-39	-196	-189
-123	-254	-21
-161	-300	142
-174	-332	108
-184	-346	101
-201	-345	93
-218	-326	24
-221	-295	-49
-193	-240	-11
-139	-145	102
-69	-6	111
8	161	70
81	301	32
139	357	97
170	282	45
154	89	-28
77	-154	76
-55	-340	86
-201	-389	3
-307	-279	-131
-311	-66	-178
-201	147	-141
-15	268	-126
172	260	-63
279	147	-40
263	6	-95
143	-89	-113
-14	-95	-80
-132	-25	-88
-156	76	-22
-79	153	20
49	178	12
161	154	61
195	105	64
126	63	52
-28	37	53
-212	30	21
-361	20	-40
-415	-3	-32
-342	-36	32
-162	-64	8
72	-61	-17
280	-20	-8
401	53	87
404	121	83
308	140	-67
172	94	-161
62	-6	-243
17	-100	-152
31	-124	-24
69	-48	124
78	101	127
34	241	-56
-54	274	-178
-150	155	-179
-204	-84	-59
-195	-333	10
-130	-460	91
-48	-393	57
21	-163	-34
56	130	-76
60	341	-79
54	382	10
48	253	11
50	44	-7
54	-139	-48
59	-224	-124
65	-205	-70
78	-140	-49
93	-91	-107
93	-90	-116
60	-119	-84
-16	-132	-54
-116	-96	-10
-206	1	38
-237	127	56
-190	244	83
-86	320	55
34	338	24
120	296	38
154	197	72
147	53	9
133	-117	-68
139	-278	-49
151	-390	-101
140	-424	-41
75	-381	63
-38	-292	98
-164	-202	86
-239	-141	-25
-224	-108	-48
-128	-74	-63
-4	-9	-60
83	92	-34
88	199	47
15	265	139
-91	257	65
-180	180	-91
-223	75	-171
-226	-1	-150
-215	-21	-241
-209	3	-170
-209	27	-42
-195	6	-56
-159	-66	-36
-99	-157	-94
-36	-202	-7
5	-158	138
18	-26	174
13	144	184
20	277	114
54	321	53
114	261	-90
178	147	-182
223	31	-92
240	-36	21
234	-44	194
216	-21	90
198	-2	-209
170	-16	-447
122	-60	-637
49	-110	-412
-30	-137	-67
-88	-118	113
-96	-58	208
-51	28	241
24	112	230
92	168	128
121	171	32
102	123	-92
52	31	-105
2	-79	-41
-31	-158	-15
-50	-171	70
-67	-107	144
-93	6	115
-124	110	96
-143	143	47
-125	77	-99
-69	-59	-176
10	-190	-144
78	-241	-87
109	-173	-15
101	-21	-6
72	139	37
52	225	85
58	205	36
81	113	42
92	19	15
65	-18	-54
-5	4	-119
-104	40	-58
-184	28	-15
-213	-56	-68
-179	-179	-59
-101	-268	-33
-16	-261	4
44	-157	-11
71	-17	-27
68	70	-25
50	58	-48
32	-31	-55
15	-117	-105
5	-119	-94
4	-21	1
24	119	8
68	203	63
129	162	101
174	-1	79
170	-202	55
97	-326	-16
-31	-316	-64
-164	-177	-51
-250	2	-3
-257	129	0
-195	157	11
-121	106	20
-83	45	-4
-111	27	-120
-183	69	-154
-248	132	-55
-250	168	-76
-175	142	-74
-54	70	-25
52	-4	-149
101	-44	-95
79	-36	110
18	-6	25
-26	15	-39
-16	8	-173
48	-15	-162
135	-24	7
202	-1	34
218	53	228
187	119	225
135	163	30
92	168	-115
78	131	-269
89	71	-378
107	-1	-357
118	-75	-211
104	-147	-84
65	-203	85
0	-229	210
-80	-206	199
-157	-132	129
-206	-34	116
-199	52	105
-125	93	33
3	81	76
143	43	-35
241	27	-149
263	64	-48
207	149	34
110	241	-28
20	287	-126
-26	257	-142
-31	150	-193
-21	4	-48
-35	-129	-13
-89	-225	7
-165	-270	149
-226	-277	144
-239	-252	130
-198	-190	78
-122	-88	85
-44	53	44
11	196	-81
46	291	-166
72	301	-208
99	213	-147
116	66	-61
110	-80	-14
68	-178	-37
3	-217	-59
-49	-219	-34
-58	-227	-32
-7	-253	1
72	-279	37
132	-263	5
123	-179	-15
34	-41	-27
-99	96	-17
-217	157	-24
-262	96	-36
-222	-64	-13
-123	-249	-25
-20	-359	-1
38	-337	46
37	-188	86
-10	14	117
-68	178	29
-107	239	-49
-107	193	18
-68	95	103
11	14	-30
113	3	-192
216	61	-74
291	149	-21
296	221	-173
214	244	-183
62	228	-81
-104	197	-138
-218	182	-147
-239	188	-67
-170	195	51
-70	174	96
-8	106	87
-22	0	39
-95	-118	-84
-174	-204	-43
-196	-235	-119
-143	-204	-64
-37	-133	91
68	-49	32
136	21	-32
167	62	26
189	75	86
226	66	62
277	47	108
306	34	-38
274	28	-208
162	30	-242
7	28	-246
-133	10	-222
-195	-30	-83
-175	-90	106
-106	-148	150
-40	-182	215
-19	-173	154
-32	-116	113
-46	-32	72
-27	51	-51
29	106	-162
89	124	-239
117	113	-136
91	97	-95
31	92	-112
-24	110	-49
-46	139	24
-35	160	60
-18	151	61
-24	106	65
-63	32	39
-110	-51	-15
-129	-122	-12
-102	-159	35
-39	-153	-15
25	-105	-117
61	-34	-125
63	40	-56
57	90	24
76	98	92
125	64	110
175	4	139
175	-52	100
86	-88	34
-88	-102	-27
-281	-121	-177
-415	-183	-261
-424	-301	-202
-312	-459	-46
-134	-583	-47
24	-611	-176
104	-488	-134
96	-240	17
43	48	5
15	274	65
56	356	158
162	290	95
279	150	18
338	35	-40
283	22	-21
115	110	-32
-109	235	38
-315	301	74
-426	261	-30
-417	120	-131
-312	-43	-186
-169	-142	-176
-50	-133	-100
14	-30	-30
31	98	12
40	184	-1
70	194	-5
132	147	15
200	91	-18
237	70	34
216	92	74
147	124	106
54	131	91
-17	90	-71
-39	7	-227
-22	-79	-215
9	-137	-78
25	-152	38
11	-134	102
-18	-102	50
-40	-69	-83
-31	-36	-21
7	4	103
58	48	34
102	86	57
121	93	42
121	61	-56
114	-2	-172
107	-62	-218
99	-89	-65
79	-64	32
35	-2	81
-28	63	91
-96	100	22
-147	92	-56
-166	56	-12
-156	19	19
-130	3	-53
-108	7	-129
-98	11	-186
-91	-7	-136
-72	-49	-54
-32	-91	12
27	-102	45
89	-62	98
126	12	145
122	75	85
76	80	21
4	4	-58
-60	-123	-153
-92	-240	-145
-69	-279	-121
-4	-212	-52
92	-68	107
181	85	56
234	171	-1
238	158	-102
190	64	-207
111	-44	-196
22	-93	-163
-54	-48	-72
-118	70	-33
-172	190	65
-228	230	114
-297	142	138
-361	-55	191
-406	-288	260
-410	-456	212
-366	-487	34
-287	-372	-17
-188	-170	-75
-84	24	-198
26	127	-282
135	117	-201
244	34	-76
330	-36	-102
363	-33	-140
328	59	-156
230	192	-156
107	277	-65
8	261	58
-28	139	42
-13	-20	82
22	-136	96
32	-153	49
0	-75	51
-53	40	53
-85	121	-20
-53	127	-137
42	78	-91
162	21	-114
248	10	-82
258	57	-11
194	130	44
91	174	143
1	157	164
-46	76	155
-51	-27	64
-40	-102	-37
-41	-117	-56
-66	-82	36
-109	-25	128
-142	16	243
-150	31	267
-119	30	94
-58	33	-57
21	57	-278
105	95	-524
175	130	-391
214	149	-268
196	149	-294
115	144	-101
-24	144	30
-183	150	21
-319	132	-58
-392	70	-37
-387	-51	-14
-311	-213	-79
-199	-375	-97
-79	-481	-71
31	-498	-32
130	-421	-36
224	-278	3
312	-109	48
370	43	46
373	151	91
305	197	111
181	181	95
45	114	90
-50	20	155
-77	-71	234
-42	-131	249
5	-144	137
1	-119	-39
-86	-88	-91
-239	-85	-138
-386	-123	-153
-450	-185	-186
-383	-222	-144
-203	-186	-65
15	-74	-99
187	81	-100
252	213	-141
210	261	-66
115	215	-123
23	111	-227
-28	13	-110
-48	-27	-76
-71	0	-84
-124	53	7
-191	85	122
-236	68	49
-214	20	46
-113	-16	112
30	1	104
160	75	39
228	168	32
225	221	152
181	202	130
141	122	99
135	29	69
149	-24	-5
148	-14	-118
98	31	-111
1	63	-112
-115	38	-151
-195	-42	-36
-209	-139	-98
-152	-192	-254
-50	-162	-219
54	-61	-28
138	61	133
188	147	125
209	161	45
209	112	5
188	41	-105
142	-8	-129
76	-24	-136
0	-23	-138
-67	-41	-41
-108	-97	-19
-120	-179	-2
-118	-249	10
-121	-257	4
-142	-185	53
-180	-50	93
-217	96	93
-226	195	10
-189	218	-82
-98	174	-60
36	98	-3
189	38	-25
331	20	-41
433	48	-17
470	101	-99
421	156	-85
291	189	30
97	193	105
-128	166	237
-337	101	302
-496	0	260
-577	-140	163
-562	-298	-63
-452	-437	-419
-259	-504	-476
-15	-466	-271
234	-321	-181
429	-110	-185
517	85	-121
459	192	39
276	169	68
32	40	161
-186	-129	228
-299	-251	169
-282	-274	62
-180	-205	0
-68	-89	-5
-26	4	-89
-84	40	-234
-202	27	-337
-303	12	-276
-311	35	-195
-204	109	-47
-20	202	53
158	260	87
255	249	130
251	168	134
165	63	27
62	-14	-70
3	-34	-81
4	-6	-185
46	32	-171
89	45	-60
101	20	-25
76	-22	47
35	-48	108
7	-37	87
8	12	95
38	72	155
79	117	178
109	129	107
120	112	21
111	84	-115
90	58	-375
62	37	-424
30	13	-167
-8	-23	29
-50	-71	110
-95	-117	43
-130	-141	-29
-156	-131	35
-159	-90	22
-139	-34	18
-99	15	79
-41	43	136
20	51	131
75	46	53
106	40	-67
102	40	-166
72	40	-74
31	34	11
-2	15	-27
-14	-13	3
-3	-40	-27
13	-54	-69
15	-44	-11
-8	-8	12
-51	43	-76
-87	102	-64
-85	154	-3
-28	187	7
69	199	116
172	194	105
237	170	-15
228	135	-194
151	90	-241
39	29	-95
-52	-50	-66
-91	-150	-26
-64	-251	-6
-4	-337	-33
46	-379	-35
52	-364	-18
2	-305	61
-81	-225	70
-162	-161	44
-200	-129	13
-183	-125	10
-123	-114	-44
-44	-66	-96
14	30	-42
38	155	-19
22	264	-10
-14	313	-128
-52	279	-96
-72	169	129
-69	9	164
-54	-162	100
-50	-313	35
-76	-412	-65
-139	-429	-211
-225	-348	-273
-290	-171	-232
-300	56	-141
-231	259	-75
-93	365	-55
68	334	-48
206	197	7
277	35	91
275	-53	138
228	-26	221
165	86	181
119	198	-50
90	221	-205
65	126	-185
27	-36	-251
-26	-165	-368
-76	-183	-240
-105	-80	-37
-96	83	94
-60	207	138
-19	233	80
9	161	74
22	58	93
33	-1	143
60	12	100
114	71	14
178	110	6
226	84	35
234	-15	100
193	-128	69
117	-193	45
36	-175	130
-27	-88	76
-65	4	-155
-82	46	-297
-87	21	-213
-85	-38	-78
-79	-78	-52
-61	-54	-31
-36	28	-64
-6	124	-45
18	179	7
34	161	96
40	81	248
34	-15	237
17	-77	105
-15	-79	-44
-63	-33	-90
-118	31	-275
-162	82	-396
-169	104	-252
-130	102	-125
-59	79	44
15	38	61
61	-32	-3
61	-132	-5
26	-252	9
-6	-351	19
-2	-390	-19
55	-346	-42
143	-229	13
222	-92	-18
241	6	-99
178	21	-123
46	-41	-106
-120	-137	-7
-267	-202	82
-357	-188	78
-369	-89	59
-308	61	91
-198	207	42
-69	295	3
42	307	21
124	256	24
161	171	14
165	88	-48
