File Name: not saved
Channel 2: 'Channel 2', 30940 values, raw ADC, no filters.
Channel 3: 'Channel 3', 30940 values, raw ADC, no filters.
Channel 4: 'Channel 4', 30940 values, raw ADC, no filters.

175	-254	-4
317	-235	-2
273	-175	-5
16	-98	13
-383	-35	15
-762	-9	7
-934	-23	-24
-809	-44	-50
-432	-29	-58
48	55	-65
436	197	-57
611	338	-64
558	393	-57
359	305	-46
139	97	-33
-16	-143	-6
-87	-307	7
-103	-312	49
-106	-173	104
-109	23	115
-88	156	62
-6	155	-35
151	35	-117
360	-123	-196
548	-222	-222
632	-210	-133
558	-112	-30
314	3	28
-52	77	46
-438	90	43
-740	70	31
-848	64	-9
-740	86	-38
-458	117	-49
-114	115	-56
151	66	-44
261	-13	-16
214	-72	11
102	-70	16
41	-9	10
114	72	9
314	117	9
539	103	-12
660	52	-35
590	23	-58
328	57	-67
-26	145	-61
-333	230	-48
-492	235	-35
-447	126	-20
-232	-64	6
64	-257	20
339	-362	34
488	-346	10
461	-232	-40
251	-84	-55
-83	27	-56
-426	78	-33
-668	75	-30
-720	44	-50
-585	1	-47
-339	-58	-36
-107	-138	-21
9	-223	-19
-17	-269	-23
-126	-243	-15
-221	-139	-20
-217	-1	-21
-117	103	-9
19	122	-10
114	53	-3
123	-44	-10
67	-99	-16
8	-62	-28
-2	45	-41
44	163	-28
105	219	-8
130	183	41
103	99	94
60	27	86
69	27	13
172	99	-66
346	191	-148
506	232	-181
547	174	-132
409	30	-43
126	-144	45
-195	-274	64
-426	-320	44
-465	-281	24
-325	-202	-7
-102	-134	-36
69	-107	-59
95	-116	-83
-20	-126	-89
-190	-106	-63
-277	-32	-31
-203	80	-6
22	194	-8
292	265	-25
474	265	-27
484	197	-22
346	88	-19
159	-9	-14
29	-56	-13
-5	-40	13
1	21	63
-44	86	87
-203	118	47
-439	98	-32
-615	41	-96
-595	-9	-154
-339	-22	-189
72	18	-128
439	93	-11
602	165	48
496	197	19
212	174	-36
-79	100	-34
-237	-8	-12
-240	-125	22
-165	-230	49
-133	-301	35
-194	-322	3
-303	-277	-13
-348	-171	-1
-245	-36	-2
-1	85	-19
288	143	-42
496	122	-66
558	41	-96
486	-37	-96
363	-59	-51
250	-5	-14
154	99	-13
38	186	-16
-135	195	-25
-338	108	-25
-484	-41	-26
-468	-183	-24
-260	-252	-6
58	-219	-3
334	-110	7
414	25	22
260	129	9
-51	165	-22
-350	128	-26
-481	35	-18
-386	-85	5
-115	-199	5
198	-277	-13
423	-296	-15
478	-248	-33
342	-147	-45
50	-32	-61
-325	58	-80
-698	94	-75
-934	77	-64
-934	35	-55
-654	10	-34
-152	20	-25
402	56	-27
800	92	-20
918	98	-13
753	76	-8
446	45	-4
210	40	-11
161	80	-6
262	143	14
339	194	45
219	186	68
-156	110	93
-639	-5	59
-992	-115	-18
-1010	-170	-98
-659	-160	-160
-111	-105	-190
378	-45	-161
598	-11	-57
505	-4	20
242	-9	36
14	-1	-5
-38	28	-8
77	66	-3
234	95	-4
296	102	-3
210	96	-14
30	98	-4
-137	128	-15
-217	177	-24
-205	215	-27
-165	199	-5
-156	104	7
-174	-60	1
-164	-249	-7
-59	-391	-7
151	-441	8
392	-383	11
541	-251	-8
504	-103	-38
262	13	-61
-103	76	-61
-459	92	-43
-689	85	-44
-717	75	-41
-565	56	-48
-300	20	-35
-18	-36	-31
189	-98	-43
268	-126	-46
213	-90	-53
75	11	-57
-61	132	-32
-111	211	10
-31	203	23
135	106	36
288	-25	57
316	-113	64
172	-108	10
-85	-21	-50
-316	81	-90
-389	126	-151
-247	81	-168
36	-21	-116
310	-108	-62
425	-116	-18
332	-48	-4
111	37	17
-100	60	36
-172	-17	34
-81	-153	39
85	-260	26
201	-249	26
175	-103	13
20	110	-17
-176	286	-48
-288	339	-68
-256	254	-55
-102	95	-32
88	-51	-7
206	-134	14
210	-164	12
114	-182	-15
-16	-223	-30
-115	-268	-44
-156	-269	-33
-142	-176	-14
-98	2	-7
-31	199	-1
68	321	-1
205	310	10
343	188	16
415	40	7
344	-39	-30
93	-12	-59
-280	81	-72
-651	155	-92
-861	131	-93
-812	7	-75
-526	-149	-43
-111	-233	-15
273	-180	-1
502	-4	17
552	210	40
474	357	69
345	378	100
216	279	80
94	140	16
-39	38	-54
-174	13	-149
-269	43	-205
-272	70	-142
-169	35	-83
-7	-83	-58
124	-250	-45
151	-406	-36
76	-492	-9
-24	-482	-3
-43	-388	21
77	-244	19
291	-95	4
484	28	8
532	106	15
374	130	28
80	110	18
-233	65	-20
-448	30	-71
-509	33	-89
-468	82	-89
-399	154	-85
-355	191	-51
-332	139	-25
-269	-20	-3
-118	-242	19
105	-429	22
331	-472	13
463	-326	-9
449	-39	-8
302	260	-2
111	430	-2
-38	395	-7
-89	193	-23
-55	-46	-25
1	-171	-30
20	-115	-28
-19	74	-28
-88	260	-35
-147	310	-25
-161	175	-8
-141	-61	5
-121	-257	5
-129	-287	0
-162	-128	-13
-184	123	-31
-155	321	-44
-54	350	-53
82	197	-52
196	-48	-49
234	-256	-43
180	-334	-5
77	-278	43
-16	-144	50
-37	-19	-4
14	44	-52
104	52	-102
175	39	-122
191	44	-50
162	80	34
129	126	64
139	162	14
202	164	-39
277	136	-65
299	88	-102
214	25	-101
24	-52	-68
-221	-135	-20
-432	-210	13
-526	-248	-6
-473	-223	-9
-291	-134	5
-46	-9	20
188	108	16
351	182	3
415	197	-20
363	168	-57
210	124	-53
-13	85	-56
-253	52	-55
-436	13	-48
-509	-43	-42
-442	-114	-41
-271	-174	-34
-79	-194	-11
44	-168	-6
51	-105	41
-32	-33	86
-116	19	96
-97	45	53
78	62	-23
363	90	-99
636	138	-153
756	194	-136
624	218	-86
256	179	-40
-232	62	-16
-680	-108	-22
-926	-281	-3
-921	-409	3
-697	-457	-4
-366	-433	-10
-57	-368	-21
138	-292	-32
204	-231	-23
183	-174	-2
152	-106	-1
175	-11	14
266	114	20
387	247	12
463	365	10
439	444	6
301	472	-5
84	451	-6
-128	387	-8
-262	285	-19
-270	152	-38
-177	1	-56
-50	-149	-58
35	-261	-55
38	-315	-40
-31	-299	-19
-122	-223	-16
-167	-118	-36
-131	-15	-38
-23	64	-35
117	119	-40
234	157	-37
297	191	-25
302	215	-31
279	218	-38
242	182	-31
194	93	-8
118	-32	14
-3	-165	14
-161	-261	-8
-319	-291	-35
-409	-249	-33
-372	-153	-24
-189	-46	11
113	34	81
436	67	119
671	63	91
723	49	19
554	56	-96
192	97	-221
-251	154	-255
-651	199	-190
-872	193	-92
-869	121	-20
-683	-2	-3
-425	-142	-23
-221	-245	-48
-126	-280	-38
-121	-241	-7
-122	-153	18
-49	-57	39
111	13	39
306	43	19
429	55	-1
423	71	-8
311	115	-4
175	174	3
105	214	-1
107	189	6
118	76	12
28	-106	6
-200	-290	-4
-501	-391	-7
-723	-352	-13
-713	-173	-48
-450	83	-76
-29	300	-95
351	380	-64
534	269	-7
483	10	4
302	-301	-3
147	-530	-14
116	-581	-32
192	-435	-39
270	-160	-42
251	126	-61
115	299	-66
-50	299	-42
-125	153	-17
-42	-38	-14
154	-161	-12
343	-139	9
407	13	38
311	209	72
121	341	76
-52	341	37
-133	223	-30
-134	63	-97
-136	-40	-153
-207	-38	-149
-351	49	-81
-487	150	-18
-511	183	4
-371	125	5
-107	8	15
169	-100	12
328	-142	4
318	-111	-13
175	-47	-23
-11	-6	-32
-149	-15	-42
-202	-53	-28
-186	-72	-8
-121	-27	4
-15	86	-9
149	224	-40
373	311	-60
597	301	-66
701	188	-56
569	15	-17
156	-152	0
-442	-252	-18
-1010	-263	-18
-1259	-204	1
-1150	-111	4
-909	-29	-16
-329	13	-18
216	8	-18
535	-35	-26
581	-98	-27
452	-156	-14
297	-182	4
232	-164	4
268	-98	-11
334	-11	-35
328	64	-61
205	94	-30
-5	65	-8
-210	2	-33
-312	-56	-27
-262	-64	-30
-93	-14	-43
115	66	-66
268	118	-55
313	88	-13
252	-29	27
139	-191	32
46	-313	-9
24	-332	-37
67	-231	-106
118	-56	-150
94	105	-104
-61	178	-23
-330	141	28
-602	39	27
-744	-56	37
-658	-85	24
-342	-39	-5
75	34	-1
429	76	-5
569	42	-12
478	-45	-22
253	-133	-23
56	-152	-20
8	-69	-13
114	92	4
285	268	5
383	388	10
320	408	11
103	334	1
-180	201	-7
-415	61	-19
-526	-50	-33
-497	-118	-42
-366	-143	-42
-179	-129	-51
23	-81	-59
216	-6	-63
371	85	-64
453	168	-62
457	215	-51
388	213	-36
279	170	-33
163	110	-26
52	58	-24
-66	34	20
-206	22	70
-355	-2	43
-469	-64	-2
-480	-163	-50
-369	-272	-93
-178	-344	-137
-2	-339	-142
74	-253	-57
38	-112	5
-36	24	7
-38	106	-1
81	112	21
271	51	16
401	-31	1
335	-97	0
58	-114	-2
-312	-86	0
-576	-27	12
-589	30	48
-352	59	41
-11	51	12
238	4	-53
283	-71	-117
165	-166	-159
21	-262	-144
-10	-341	-78
98	-384	-34
248	-370	3
288	-286	21
148	-141	16
-125	37	9
-386	207	-1
-480	321	-10
-365	345	0
-134	284	3
65	165	-12
117	45	-21
21	-25	-20
-132	-24	-17
-225	38	-15
-188	119	-12
-48	178	-7
123	190	-6
245	168	0
309	135	-8
333	120	-13
355	127	1
387	138	25
387	128	66
312	80	67
139	9	-11
-96	-57	-105
-325	-90	-179
-473	-77	-218
-485	-43	-168
-371	-20	-70
-163	-35	-10
76	-78	3
288	-116	1
436	-109	12
490	-29	-4
447	106	-34
331	257	-19
182	364	15
48	388	30
-32	317	24
-68	170	16
-94	-13	12
-152	-196	-20
-260	-346	-55
-394	-449	-67
-507	-492	-69
-523	-475	-43
-428	-404	-5
-251	-286	40
-52	-140	57
109	21	34
216	174	-2
285	301	-66
341	372	-107
374	372	-120
360	278	-84
245	103	-22
16	-116	-14
-271	-325	3
-526	-460	-5
-632	-486	-25
-550	-401	-10
-318	-248	-4
-34	-94	-6
180	5	0
269	27	-1
244	-5	-24
160	-43	-26
80	-36	-20
32	39	-23
11	159	-4
-4	279	21
-13	349	31
-2	337	4
50	252	-27
133	127	-32
211	10	-64
228	-66	-93
148	-89	-69
-7	-69	-29
-176	-33	30
-279	2	67
-262	23	63
-131	33	24
62	43	-43
244	63	-100
346	97	-150
346	135	-157
258	171	-97
115	185	-17
-33	163	19
-154	98	-9
-218	4	-27
-226	-102	-17
-192	-195	-8
-143	-254	-9
-107	-275	-7
-93	-256	-20
-92	-207	-48
-79	-132	-41
-31	-36	-32
53	79	-33
165	198	-7
274	295	45
358	339	94
409	310	91
425	215	44
395	92	-11
302	-21	-75
143	-78	-110
-78	-77	-121
-310	-40	-106
-485	-15	-54
-550	-33	-36
-489	-101	-24
-339	-186	-21
-178	-234	-4
-66	-212	24
-27	-119	25
-34	6	10
-46	96	-9
-40	101	41
-16	13	63
8	-120	24
28	-227	-54
62	-236	-159
125	-126	-182
201	59	-140
226	230	-79
130	283	-23
-103	168	-14
-402	-103	-4
-603	-427	20
-566	-681	9
-261	-745	13
189	-596	7
544	-285	-7
606	64	0
333	317	-2
-124	393	5
-501	301	16
-584	134	12
-345	3	-10
51	-12	-25
351	96	-39
393	252	-56
175	359	-48
-116	349	-33
-276	219	-13
-198	41	2
56	-95	-9
310	-123	-36
409	-45	-67
306	82	-67
109	181	-36
-28	201	-3
-11	144	8
143	52	-6
318	-16	-18
385	-32	-35
289	-4	-42
79	33	-46
-140	47	-52
-279	30	-23
-300	-4	-4
-232	-25	-12
-129	-18	-13
-28	13	4
57	45	12
132	55	13
197	41	35
250	16	57
290	5	62
332	19	29
381	51	9
411	79	-40
363	71	-118
162	21	-119
-217	-61	-97
-686	-140	-82
-1071	-183	-84
-1188	-165	-74
-928	-90	-43
-364	12	-20
279	105	-15
747	153	-31
837	143	-30
562	82	-22
115	-7	16
-253	-95	41
-363	-153	29
-222	-171	46
25	-160	32
172	-131	-34
117	-105	-117
-101	-83	-154
-333	-53	-122
-418	-7	-71
-298	57	-42
-35	119	-23
227	137	24
359	79	36
326	-57	7
180	-227	-8
14	-359	-12
-88	-389	-34
-115	-297	-52
-100	-126	-19
-86	34	6
-96	101	6
-122	38	-18
-143	-121	-27
-152	-294	-27
-151	-394	-23
-152	-381	-14
-149	-253	-27
-115	-60	-45
-16	140	-45
156	317	-16
363	452	26
532	540	81
579	574	109
454	527	112
166	390	49
-201	177	-26
-550	-66	-94
-757	-272	-187
-768	-388	-182
-589	-386	-110
-291	-287	-32
19	-138	-17
253	12	-8
363	123	12
346	183	12
263	196	22
184	174	8
151	139	8
167	113	-9
201	106	-32
207	118	-48
167	138	-48
94	138	-48
29	104	-51
6	30	-30
22	-55	-25
48	-121	-19
39	-142	-32
-19	-113	-40
-99	-64	-36
-148	-24	-23
-126	-11	-9
-35	-15	-5
82	-6	12
162	39	35
164	127	46
97	227	26
10	292	-8
-46	290	-81
-50	210	-127
-23	74	-107
-2	-80	-69
-10	-206	-6
-41	-280	16
-54	-282	-8
-24	-218	-10
44	-110	-16
110	4	-22
117	76	-26
45	65	-14
-81	-39	-13
-194	-200	-36
-239	-353	-46
-189	-429	-60
-74	-393	-40
50	-272	-18
141	-128	-12
172	-32	-4
145	-9	-5
74	-37	-8
-42	-58	-16
-195	-25	-23
-358	62	-15
-473	168	-2
-473	235	-12
-324	241	-27
-76	213	-50
172	204	-66
288	252	-38
221	341	22
27	410	87
-150	380	76
-156	210	-16
56	-68	-102
392	-368	-121
645	-586	-133
628	-669	-125
292	-620	-48
-258	-498	2
-765	-364	8
-1005	-247	5
-879	-137	15
-463	-9	28
36	141	45
406	289	65
530	390	78
428	414	79
228	372	48
81	305	-3
62	261	-79
159	254	-144
277	259	-165
323	227	-154
248	126	-99
69	-28	-25
-139	-186	24
-303	-283	32
-354	-296	-5
-285	-230	-36
-119	-137	-66
87	-61	-86
265	-13	-92
363	27	-76
351	92	-30
242	179	6
83	265	56
-67	296	103
-158	241	99
-170	113	40
-125	-38	-35
-68	-142	-104
-38	-166	-137
-48	-121	-105
-75	-56	-24
-79	-26	36
-28	-45	11
78	-89	-55
209	-104	-84
320	-56	-78
363	45	-28
328	156	35
223	212	54
81	185	45
-53	86	18
-163	-31	13
-233	-114	0
-269	-139	-17
-272	-118	-9
-248	-94	-17
-194	-101	-31
-120	-153	-45
-44	-228	-42
5	-291	-41
-6	-304	-47
-76	-246	-48
-179	-120	-43
-262	55	-38
-275	252	-36
-201	429	-35
-70	536	-18
44	539	1
78	410	5
11	168	-19
-117	-132	-50
-218	-419	-50
-221	-622	-49
-97	-708	-27
98	-676	1
276	-555	1
365	-390	-2
346	-209	2
261	-32	-9
178	130	-28
139	252	-22
131	313	-27
102	296	-38
4	211	-46
-156	102	-48
-304	14	-40
-353	-17	-32
-250	8	-10
-24	57	40
211	96	74
332	99	68
275	85	63
68	85	33
-164	127	-45
-294	206	-130
-252	287	-145
-69	327	-151
139	291	-131
258	195	-22
223	72	61
67	-33	29
-112	-102	-34
-226	-132	-25
-225	-148	-31
-143	-155	-55
-45	-154	-78
15	-129	-82
32	-70	-15
40	6	18
86	71	22
181	99	13
285	80	5
340	38	5
288	10	-1
128	20	-4
-88	61	15
-281	98	64
-388	92	68
-375	24	21
-264	-77	-48
-105	-168	-108
62	-196	-150
200	-145	-148
299	-35	-107
346	92	-62
340	191	-43
276	241	-28
170	248	6
54	228	9
-25	190	-23
-39	125	-60
7	19	-48
70	-136	-11
101	-317	21
59	-481	52
-37	-573	58
-141	-563	60
-191	-460	36
-172	-312	-17
-105	-166	-77
-62	-53	-137
-97	25	-116
-212	96	-35
-343	177	1
-389	259	-11
-282	307	-6
-32	279	5
269	174	-13
494	23	-13
533	-95	8
346	-121	26
2	-41	4
-378	96	-24
-670	195	-40
-775	186	-62
-680	53	-48
-425	-140	-30
-96	-298	-14
215	-337	-6
431	-240	5
506	-61	-1
446	109	-28
280	199	-33
87	183	-24
-75	105	4
-156	23	0
-162	-9	-7
-130	15	-16
-105	64	-35
-115	92	-39
-143	66	-47
-157	-5	-30
-115	-89	-38
-17	-137	-44
107	-123	-40
207	-50	-50
242	47	-43
216	132	-23
172	174	-8
153	170	-6
184	132	-10
245	86	-18
283	48	-14
248	17	-16
131	-13	-26
-38	-49	-19
-184	-87	10
-248	-101	48
-213	-75	55
-105	-4	37
20	87	0
115	163	-47
165	187	-116
183	150	-175
192	86	-133
200	31	-19
198	28	45
164	71	20
87	129	-28
-23	143	-52
-133	79	-105
-217	-59	-110
-262	-225	-48
-279	-346	-16
-276	-379	7
-255	-322	15
-199	-215	18
-84	-120	9
91	-70	4
291	-70	6
451	-78	-8
478	-46	-2
332	41	-6
21	166	-18
-383	272	-13
-751	305	-27
-959	233	-56
-950	71	-54
-731	-137	-36
-390	-340	-17
-52	-490	16
187	-565	28
273	-548	47
232	-444	52
139	-272	19
78	-60	-30
81	135	-93
126	265	-160
162	298	-162
143	241	-107
83	150	-26
38	93	48
77	111	84
210	194	57
387	283	-9
504	305	-43
481	228	-79
314	71	-106
90	-84	-77
-71	-156	-26
-91	-105	-23
9	40	-49
128	202	-34
150	301	-21
35	299	5
-150	211	29
-281	93	39
-263	0	26
-104	-43	-4
89	-53	-20
181	-56	-34
106	-72	-33
-81	-103	-26
-244	-126	-26
-260	-127	-42
-111	-102	-46
102	-68	-26
234	-36	-14
183	-12	-4
-16	16	27
-228	55	94
-299	97	116
-158	122	54
130	108	-21
415	48	-65
545	-30	-115
451	-85	-145
178	-76	-95
-164	-2	-9
-448	103	32
-605	178	20
-621	178	-17
-522	94	-64
-336	-36	-96
-84	-154	-96
201	-213	-114
468	-203	-110
646	-153	-61
684	-103	-19
551	-87	13
269	-110	21
-91	-149	9
-456	-175	6
-740	-171	6
-879	-148	-4
-848	-121	-8
-654	-116	-22
-356	-131	-35
-40	-154	-32
199	-157	4
311	-117	52
283	-38	61
188	65	20
107	160	-21
115	219	-41
210	235	-81
338	209	-101
428	159	-70
414	96	-24
302	26	-37
139	-52	-61
-24	-138	-48
-144	-213	-33
-221	-249	11
-258	-214	27
-267	-104	32
-234	57	29
-142	212	8
9	301	-2
182	300	-32
317	223	-63
363	129	-67
306	79	-37
182	98	-22
57	165	-11
-15	221	5
-22	213	8
-3	124	-2
-17	-6	-32
-100	-124	-60
-236	-174	-62
-366	-152	-63
-420	-97	-40
-355	-57	-3
-191	-64	-8
8	-100	-33
170	-119	-49
245	-75	-34
239	40	8
192	182	54
151	287	69
141	301	60
150	215	43
138	67	-13
83	-71	-80
-16	-152	-144
-125	-154	-158
-207	-103	-86
-217	-40	-23
-147	1	-23
-13	13	-29
139	10	-5
257	4	5
300	5	-7
248	8	-28
117	-8	-35
-46	-53	-20
-185	-133	-17
-262	-233	-40
-278	-326	-44
-269	-384	-35
-282	-378	-24
-333	-301	-27
-386	-169	-42
-371	-20	-33
-237	92	-11
-4	128	-5
245	76	-5
399	-32	-1
380	-135	-30
211	-170	-47
4	-106	-1
-123	31	65
-108	177	90
4	256	58
103	225	8
97	101	-75
-21	-48	-141
-157	-147	-143
-197	-152	-119
-84	-72	-61
123	28	-20
291	85	1
310	67	28
154	0	32
-67	-57	16
-210	-43	2
-173	62	-8
22	221	-10
245	357	-8
358	404	8
284	341	41
78	206	54
-143	58	33
-262	-39	-20
-242	-78	-79
-137	-76	-147
-37	-74	-180
-1	-93	-120
-21	-122	-28
-42	-131	1
-11	-94	-21
75	-11	-36
167	89	-38
213	161	-5
190	174	24
128	137	26
83	68	35
91	7	27
140	-31	-2
166	-45	-10
104	-48	-22
-68	-55	-41
-300	-65	-48
-486	-68	-51
-530	-48	-28
-379	4	-13
-80	82	-19
254	165	-33
491	228	-35
523	244	-42
342	199	-17
25	88	11
-295	-80	4
-481	-264	21
-474	-423	10
-296	-502	-15
-30	-471	-47
221	-343	-71
397	-167	-70
484	-16	-72
491	48	-57
423	11	-5
263	-89	38
-4	-171	23
-355	-163	16
-698	-35	27
-909	166	16
-869	345	-11
-580	403	-8
-157	279	-30
222	16	-93
395	-288	-138
335	-498	-172
143	-536	-186
-7	-393	-182
-8	-165	-74
123	47	56
259	158	98
245	154	71
40	99	26
-263	68	-6
-480	116	-27
-447	222	0
-161	321	27
244	345	21
539	274	4
578	149	7
363	45	14
32	30	11
-217	101	26
-274	202	40
-159	250	31
6	188	0
93	30	-38
52	-154	-74
-58	-277	-89
-140	-287	-97
-115	-196	-79
8	-66	-60
152	28	-65
234	52	-45
219	12	-26
142	-43	-15
68	-59	-9
50	-15	-15
83	68	-22
128	150	-15
139	187	0
102	160	8
36	84	19
-27	-7	12
-68	-72	-9
-99	-83	-33
-129	-25	-37
-155	85	-43
-148	215	-36
-67	319	-18
88	337	-20
273	229	4
398	-5	0
373	-325	-17
165	-639	-23
-181	-843	-46
-539	-858	-32
-783	-680	-14
-804	-356	-20
-598	0	-30
-248	282	-8
111	429	-18
346	435	-104
404	357	-125
296	257	-72
114	177	-65
-37	125	-77
-89	74	-55
-39	2	-9
54	-97	8
113	-196	21
84	-274	46
-30	-309	55
-172	-301	32
-263	-268	10
-262	-226	-11
-166	-174	-35
-21	-106	-35
111	-18	-54
190	74	-56
201	152	-28
169	193	13
119	200	46
72	187	34
36	178	13
8	188	-21
-4	202	-96
1	193	-161
22	142	-147
46	56	-63
54	-30	7
28	-80	21
-24	-66	20
-78	-3	24
-97	72	13
-58	121	3
21	123	-13
112	85	-26
169	41	-32
169	26	-34
129	49	-36
94	98	-22
109	140	13
189	155	18
310	126	7
396	62	-13
378	-14	-38
210	-86	-28
-92	-135	11
-442	-157	54
-720	-150	54
-821	-116	-2
-686	-65	-45
-361	-1	-92
46	64	-111
397	121	-52
575	155	-30
563	155	-63
415	114	-79
226	34	-86
82	-69	-64
-3	-181	-30
-69	-269	-26
-174	-317	-35
-338	-314	-25
-518	-271	4
-634	-212	1
-605	-154	-25
-431	-115	-33
-186	-95	-32
18	-95	-30
101	-110	-28
69	-137	-20
2	-176	-5
1	-207	9
104	-201	11
269	-127	2
385	24	1
346	222	-36
152	394	-68
-125	457	-48
-333	362	-41
-377	130	-33
-239	-148	-24
-10	-352	-14
182	-388	10
261	-238	36
232	23	74
178	279	91
184	424	69
276	418	29
401	299	-9
451	150	-18
358	51	-40
114	27	-82
-187	52	-100
-425	70	-137
-502	45	-171
-400	-21	-138
-182	-89	-48
52	-113	14
214	-76	1
268	8	-11
224	89	-11
130	129	-28
27	117	-19
-57	76	-5
-128	45	-14
-188	49	-9
-231	84	11
-241	110	36
-201	93	26
-116	19	-11
-8	-92	-24
82	-192	-20
124	-241	-9
119	-218	-10
83	-149	-53
49	-70	-97
36	-21	-96
42	-8	-81
57	-7	-37
77	12	-16
120	62	-15
204	131	10
323	183	14
417	182	8
394	110	-23
180	-14	-35
-207	-161	-28
-652	-289	-41
-968	-379	-36
-986	-411	-33
-691	-387	-20
-183	-305	6
314	-181	27
608	-40	26
636	80	4
472	153	-27
265	170	-60
137	158	-60
104	148	-35
83	160	-13
-16	171	-14
-221	144	-11
-456	39	-2
-589	-129	-3
-535	-294	5
-314	-371	7
-41	-308	-23
142	-137	-46
175	46	-48
100	138	-36
18	97	5
18	-27	44
112	-118	33
234	-72	-12
295	119	-44
253	372	-103
151	550	-104
68	546	-6
62	366	74
121	106	59
169	-105	-20
120	-188	-54
-43	-153	-109
-267	-81	-123
-443	-50	-119
-474	-89	-105
-355	-156	-59
-140	-177	-72
70	-118	-48
209	-1	-16
266	105	21
273	135	40
263	80	45
244	-17	36
180	-86	24
49	-85	32
-136	-22	22
-312	45	9
-399	71	-16
-344	47	-27
-166	6	-48
56	4	-50
234	70	-28
299	189	-10
262	299	-13
184	341	-35
132	289	-49
140	162	-66
188	8	-79
222	-132	-75
183	-237	-46
60	-314	-25
-116	-371	-24
-279	-407	-17
-354	-405	10
-303	-346	32
-126	-224	16
109	-54	3
306	122	17
365	265	6
232	343	-35
-61	335	-56
-399	240	-76
-630	70	-84
-633	-129	-50
-398	-304	-7
-36	-388	33
273	-341	75
366	-177	94
206	30	71
-108	174	-20
-405	177	-100
-516	24	-151
-409	-203	-162
-165	-379	-100
62	-394	-31
162	-233	-1
128	33	-18
48	271	11
39	372	17
149	319	0
335	169	5
484	38	14
500	11	38
369	87	45
156	201	60
-25	266	13
-110	233	-49
-101	121	-86
-62	0	-104
-66	-59	-112
-130	-40	-103
-218	22	-94
-253	69	-104
-195	56	-71
-50	-11	-32
124	-87	10
262	-114	29
335	-79	19
346	3	2
326	80	-7
275	109	-20
175	85	-24
-3	33	-9
-243	-4	4
-481	1	4
-617	41	-13
-572	90	4
-344	106	24
-17	79	35
277	12	29
421	-65	33
393	-129	-24
267	-163	-111
158	-164	-147
155	-140	-178
248	-102	-121
342	-57	-14
317	-22	70
96	-16	64
-277	-58	42
-684	-154	24
-946	-282	-20
-954	-387	-35
-714	-403	-46
-308	-286	-40
119	-38	-48
444	264	-50
606	505	-57
600	568	-48
476	408	-11
280	59	13
58	-338	27
-149	-620	4
-299	-668	-11
-356	-460	-34
-307	-108	-45
-172	228	-26
-10	398	-2
108	350	31
136	151	36
89	-55	13
23	-140	-21
10	-57	-63
82	133	-101
198	311	-103
280	365	-59
245	268	-10
77	88	18
-167	-66	46
-377	-117	68
-445	-57	80
-350	41	19
-139	99	-68
77	65	-136
201	-32	-183
203	-120	-185
122	-135	-148
31	-61	-57
-10	50	-2
12	134	4
56	145	6
82	96	14
65	45	39
25	42	68
-1	101	70
9	177	51
48	209	35
86	154	-5
86	26	-28
42	-113	-3
-19	-196	26
-59	-183	-13
-54	-96	-86
-11	11	-134
37	80	-152
64	76	-109
56	16	-58
36	-70	-31
28	-143	-36
44	-187	-4
75	-199	22
97	-187	6
101	-160	19
86	-118	26
71	-71	32
64	-39	36
61	-38	9
32	-69	-22
-39	-120	-21
-139	-155	-41
-232	-139	-63
-267	-67	-57
-227	39	-52
-129	136	-34
-34	182	-26
13	160	-14
0	89	2
-48	7	-4
-83	-48	-21
-84	-63	-25
-59	-55	-40
-52	-48	-48
-87	-63	-59
-145	-102	-51
-174	-143	-10
-118	-163	12
31	-139	25
216	-69	18
330	41	0
291	170	-43
92	290	-89
-183	369	-113
-392	369	-86
-446	275	-42
-310	100	8
-70	-107	60
141	-274	93
231	-339	91
172	-269	19
40	-107	-50
-65	70	-124
-64	171	-155
42	155	-116
194	40	-58
302	-92	-13
321	-149	20
250	-90	55
136	62	49
36	231	51
-28	324	34
-55	298	-15
-69	169	-30
-81	11	-32
-81	-105	-40
-68	-137	-56
-46	-101	-93
-40	-48	-114
-63	-21	-83
-115	-37	-45
-153	-72	1
-124	-84	24
-6	-37	-5
175	60	-35
346	174	-34
411	261	-25
338	282	-28
155	241	-16
-39	150	7
-144	45	32
-106	-46	8
52	-114	-2
245	-151	5
365	-164	-11
346	-157	3
175	-142	9
-106	-138	-1
-420	-158	-18
-699	-197	-65
-842	-233	-94
-822	-226	-53
-617	-147	-14
-271	-8	28
105	133	87
398	205	95
525	147	54
472	-26	-29
320	-242	-151
190	-384	-244
165	-378	-229
245	-227	-123
339	-19	-19
326	123	3
136	127	11
-189	4	29
-511	-141	0
-695	-196	-12
-644	-98	-30
-401	114	-38
-93	324	-48
144	418	-46
230	350	-25
184	170	-3
89	-18	41
28	-119	63
32	-107	60
66	-30	7
77	34	-51
25	36	-94
-71	-10	-100
-166	-51	-58
-201	-32	-20
-161	54	10
-66	160	27
39	225	50
114	205	53
151	118	26
162	20	-7
164	-29	-30
164	-8	-49
155	45	-34
127	80	8
78	47	54
23	-45	61
-23	-154	8
-44	-219	-65
-44	-200	-139
-34	-111	-168
-29	8	-147
-35	100	-91
-44	137	-45
-48	121	-17
-37	88	-20
-10	75	-37
26	102	15
63	166	66
94	237	67
106	279	24
97	260	-35
60	168	-99
6	12	-131
-50	-178	-91
-88	-354	-8
-94	-473	13
-69	-498	-38
-40	-429	-34
-28	-297	-11
-44	-141	-2
-77	-12	3
-93	68	-17
-61	93	-21
25	76	-9
141	33	3
245	-35	20
290	-125	51
253	-233	37
144	-329	3
-2	-375	2
-141	-322	-25
-232	-160	-35
-257	83	5
-228	331	41
-173	495	17
-136	505	-44
-156	368	-115
-239	127	-186
-351	-121	-224
-428	-282	-165
-410	-307	-48
-261	-198	22
-23	-17	32
221	154	16
373	247	13
366	231	0
212	126	-12
-10	-12	-3
-189	-119	0
-247	-150	9
-164	-96	24
16	14	24
208	131	22
346	214	7
401	250	-13
381	244	-35
317	233	-56
242	224	-52
170	215	-20
104	183	19
39	104	32
-30	-27	17
-95	-183	-18
-149	-319	-42
-174	-390	-61
-168	-374	-62
-131	-287	-68
-81	-170	-83
-35	-61	-60
-10	14	-49
-6	59	-9
-4	88	84
24	116	145
104	148	103
228	174	5
357	189	-93
438	185	-208
417	169	-233
280	139	-137
63	96	-32
-180	26	14
-379	-80	19
-496	-210	11
-526	-340	-9
-481	-426	-3
-371	-436	-10
-204	-358	-26
17	-208	-44
259	-26	-53
462	153	-25
549	294	-1
462	380	16
207	405	13
-136	351	-21
-454	218	-45
-638	11	-40
-636	-229	-23
-487	-443	0
-271	-551	-16
-66	-519	-23
90	-355	-7
225	-126	3
369	77	9
518	190	6
611	200	12
562	153	-9
320	120	-38
-82	145	-36
-503	215	-33
-787	268	-24
-797	236	-1
-548	90	31
-167	-121	46
154	-308	22
265	-383	-8
154	-312	-56
-80	-134	-106
-257	56	-119
-252	174	-99
-53	185	-74
245	113	-55
486	24	-25
568	-18	-20
470	2	-35
268	60	-50
68	110	-54
-54	113	-47
-95	68	-12
-96	1	59
-109	-52	119
-156	-75	144
-210	-58	119
-217	-22	26
-136	23	-90
38	63	-196
265	96	-233
476	118	-157
599	120	-60
583	97	-3
417	50	9
142	-3	17
-173	-39	20
-433	-42	4
-556	-7	-11
-513	43	-44
-329	85	-53
-87	93	-25
115	63	15
206	13	60
175	-36	70
62	-57	13
-52	-43	-37
-105	7	-32
-60	82	-27
57	169	-41
191	248	-55
268	299	-64
231	295	-86
68	211	-91
-181	45	-60
-431	-186	-23
-577	-433	-10
-556	-633	1
-371	-721	11
-94	-665	-9
141	-478	-22
240	-227	-24
158	3	-5
-34	124	8
-211	106	-8
-253	-27	-33
-113	-192	-57
147	-289	-54
404	-249	-31
525	-76	-4
439	154	16
189	334	32
-138	372	36
-418	269	38
-551	83	31
-516	-70	17
-342	-108	-3
-103	-19	-25
118	132	-86
268	244	-148
317	243	-150
279	131	-144
206	-12	-110
154	-95	-25
165	-59	71
234	72	122
314	222	134
342	305	96
271	274	10
107	154	-30
-105	4	-72
-288	-116	-114
-388	-174	-125
-391	-183	-90
-335	-165	-62
-262	-140	-105
-202	-104	-112
-149	-50	-62
-72	13	-24
40	65	-13
175	76	-12
299	39	8
361	-18	38
350	-52	76
288	-30	90
219	41	84
171	125	56
140	164	-8
92	134	-67
-10	56	-119
-168	-14	-123
-333	-32	-89
-433	7	-54
-404	63	-20
-245	77	-12
-18	15	-4
175	-101	18
245	-201	71
164	-214	108
-20	-106	93
-208	84	46
-308	273	3
-282	373	-75
-162	345	-176
-19	199	-169
74	-8	-111
89	-212	-111
52	-366	-90
24	-459	-30
52	-488	-14
150	-460	-19
263	-375	-26
326	-222	1
280	-27	31
121	161	49
-100	284	61
-303	312	38
-420	241	-1
-423	121	-30
-333	7	-45
-210	-70	-60
-98	-119	-48
-15	-170	-49
56	-245	-66
159	-325	-69
313	-358	-45
498	-286	-3
656	-101	-2
716	144	-11
611	358	-3
344	455	-6
-18	412	-27
-380	277	-23
-623	135	-16
-698	50	0
-621	32	38
-470	35	36
-339	9	16
-277	-61	-3
-280	-134	-39
-279	-139	-66
-207	-50	-78
-37	106	-86
190	241	-69
383	268	-46
467	164	-34
416	-21	-33
277	-181	-34
133	-230	-37
57	-153	-16
59	-14	31
98	90	77
111	93	81
60	1	36
-40	-115	10
-139	-174	-18
-180	-134	-37
-141	-19	-37
-46	110	-41
62	197	-66
143	225	-93
184	215	-108
186	205	-108
165	197	-35
120	165	-32
54	74	-74
-25	-89	-66
-99	-282	-39
-134	-427	1
-119	-457	1
-62	-348	-2
-1	-153	4
26	33	30
8	134	46
-32	128	43
-52	58	22
-20	3	-9
62	22	-30
151	118	-55
199	239	-88
175	313	-115
94	287	-100
-19	158	-52
-129	-37	-11
-212	-240	15
-262	-395	29
-276	-482	48
-232	-478	48
-120	-384	34
44	-216	54
205	-13	17
281	171	-66
221	277	-100
32	272	-109
-191	178	-111
-329	53	-102
-307	-32	-63
-144	-44	-28
44	-8	-24
128	15	-15
44	-28	-7
-160	-134	4
-344	-244	2
-378	-276	5
-215	-192	4
58	-30	8
295	123	25
368	180	21
245	117	0
17	-9	-24
-191	-93	-34
-281	-62	-55
-231	81	-43
-96	260	11
51	370	71
165	354	82
237	233	10
283	87	-41
310	-8	-103
294	-18	-164
212	23	-133
71	55	-35
-88	42	16
-190	-9	7
-195	-54	20
-105	-53	13
24	-3	1
120	58	-6
144	79	-52
106	38	-102
47	-48	-126
11	-127	-97
5	-161	-48
13	-136	-7
6	-86	24
-23	-46	43
-55	-36	48
-59	-42	42
-22	-28	32
44	34	-5
102	139	-61
114	253	-122
69	327	-145
-15	335	-90
-102	273	-26
-158	164	-6
-169	23	2
-136	-139	19
-66	-315	-3
25	-484	-34
120	-608	-32
199	-639	-20
234	-553	6
214	-370	14
163	-151	20
115	36	29
100	150	17
107	208	-15
87	247	-49
-32	305	-55
-269	366	-27
-567	372	-12
-793	262	-31
-805	24	-56
-563	-263	-77
-149	-481	-108
248	-506	-105
431	-322	-17
336	-24	65
39	233	64
-259	313	36
-378	193	31
-262	-40	5
0	-228	-27
234	-254	-24
302	-99	-5
203	142	-22
32	335	-42
-66	385	-19
-23	288	1
124	133	0
276	17	3
342	-5	4
312	46	-9
253	106	-31
234	112	-62
266	55	-74
277	-28	-84
172	-88	-97
-86	-101	-90
-425	-82	-80
-700	-72	-80
-756	-97	-76
-554	-145	-42
-182	-176	-22
181	-153	-7
385	-74	22
384	27	34
240	95	46
85	100	26
10	48	1
33	-15	-17
94	-43	-39
118	-19	-49
75	40	-54
-6	94	-40
-56	118	-15
-30	109	0
70	95	3
194	98	9
262	116	30
242	127	64
124	98	35
-39	25	-5
-194	-66	1
-291	-131	-8
-311	-138	-29
-250	-91	-53
-124	-23	-50
31	16	-62
171	12	-108
245	-16	-84
223	-21	9
97	30	23
-85	123	-30
-252	211	-47
-339	223	-52
-308	124	-35
-178	-72	-33
-13	-300	-45
111	-474	-48
143	-536	-57
81	-471	-76
-32	-320	-79
-137	-147	-50
-186	-16	-24
-166	38	-15
-105	19	-21
-42	-39	-13
-5	-90	-7
4	-93	24
9	-34	53
27	65	42
64	165	4
96	221	-1
100	209	17
64	149	-13
12	77	-33
-10	40	-49
43	56	-75
175	110	-87
340	163	-40
451	168	63
415	113	135
200	20	151
-148	-64	90
-508	-105	-14
-726	-85	-124
-711	-26	-205
-456	33	-252
-69	69	-209
280	71	-103
462	56	-27
429	43	35
245	46	65
43	59	53
-61	66	10
-33	53	-28
76	20	-50
163	-21	-51
151	-56	-1
40	-72	53
-98	-67	74
-165	-50	40
-112	-25	-9
36	1	-54
191	32	-106
268	71	-93
231	118	-1
116	166	71
1	206	42
-62	229	-1
-64	223	-35
-53	183	-82
-86	106	-76
-181	-4	-46
-300	-138	-38
-377	-274	-57
-358	-379	-67
-236	-425	-64
-58	-402	-47
107	-326	-23
207	-236	-5
227	-163	16
194	-120	21
148	-85	49
121	-21	66
124	94	12
152	233	-28
180	325	-64
178	283	-118
118	71	-128
-23	-262	-94
-236	-590	-34
-473	-757	7
-651	-655	12
-692	-315	15
-549	136	30
-253	505	35
94	666	-3
365	574	-31
462	332	-46
380	88	-67
184	-40	-35
-5	-24	4
-95	63	8
-66	123	-16
35	88	-44
124	-24	-64
141	-138	-81
77	-182	-45
-30	-127	-3
-119	-22	47
-153	62	124
-128	74	182
-80	21	142
-39	-36	11
-22	-38	-100
-7	39	-226
31	154	-298
106	239	-204
214	236	-40
314	148	46
373	26	22
358	-61	16
277	-75	-2
144	-27	-36
-14	32	-63
-168	53	-83
-291	20	-64
-357	-41	-40
-351	-92	-3
-263	-96	17
-123	-60	25
35	-10	32
172	26	43
255	40	44
279	47	38
251	67	28
184	106	-19
94	138	-51
-18	138	-44
-136	85	-43
-235	-6	-34
-272	-92	-13
-222	-123	-9
-87	-76	-37
89	32	-60
234	149	-56
288	210	-51
229	170	-42
78	33	-39
-107	-161	-19
-259	-344	-17
-338	-456	-55
-325	-460	-44
-252	-368	-27
-148	-217	-1
-49	-76	21
18	2	32
56	-11	41
70	-101	-16
74	-218	-56
68	-307	-70
47	-318	-91
4	-234	-75
-63	-78	-37
-126	114	22
-148	289	45
-82	413	16
75	457	2
276	405	-2
439	262	-12
468	56	-59
314	-157	-75
8	-305	-58
-345	-330	-67
-616	-216	-84
-707	-19	-49
-595	171	30
-344	262	47
-56	221	18
179	84	4
314	-48	-11
354	-85	-9
334	1	-5
285	159	-32
228	287	-36
159	310	-39
84	211	-43
11	56	-38
-34	-64	-31
-40	-95	-7
-13	-43	-9
18	23	-22
23	38	-38
-14	-22	-57
-74	-115	-66
-122	-171	-48
-118	-142	-16
-54	-36	9
46	85	14
143	153	-5
198	132	-14
202	53	-7
166	-27	16
121	-52	17
78	-7	18
37	80	17
-7	158	-21
-57	189	-43
-90	162	-28
-76	94	-2
1	8	-20
112	-77	-53
202	-153	-79
194	-208	-102
53	-233	-90
-187	-219	-59
-443	-168	20
-595	-104	74
-572	-56	68
-377	-49	27
-70	-75	-49
229	-109	-109
444	-116	-151
527	-78	-122
476	-11	-22
320	53	29
94	77	-1
-174	44	-13
-434	-24	-12
-627	-96	-31
-697	-135	-41
-589	-133	-40
-332	-93	-27
1	-33	-14
292	28	-21
439	84	-7
417	127	-8
273	162	-37
107	179	-27
4	174	-10
-18	143	4
2	85	24
-2	4	46
-69	-88	53
-179	-167	24
-260	-207	16
-248	-186	7
-126	-98	-24
57	35	-70
210	160	-110
261	213	-112
201	158	-79
81	0	-45
-14	-196	-41
-28	-348	-45
33	-379	-46
117	-278	-44
161	-98	-27
130	77	24
52	165	79
-15	148	102
-32	63	72
0	-12	13
41	-22	-60
44	45	-132
0	155	-110
-59	240	-71
-76	259	-79
-14	210	-105
104	131	-118
212	68	-89
234	41	-44
138	43	9
-32	43	65
-196	19	105
-271	-29	74
-240	-77	15
-141	-90	-26
-52	-56	-76
-23	8	-109
-50	70	-89
-84	104	-35
-57	98	-7
52	71	-14
223	50	-17
386	48	11
472	67	37
452	85	35
335	83	4
170	53	-6
7	10	10
-115	-27	38
-188	-40	69
-216	-24	69
-233	8	36
-268	37	-21
-342	43	-92
-448	12	-139
-549	-58	-142
-581	-157	-118
-491	-263	-71
-262	-356	-28
59	-407	-33
380	-403	-59
583	-356	-56
614	-286	-14
462	-228	5
194	-192	-2
-101	-182	7
-348	-163	-5
-502	-97	-40
-545	30	-74
-479	204	-77
-311	372	-51
-71	469	-12
186	451	28
395	322	54
489	126	83
446	-56	62
306	-156	11
154	-147	-30
63	-54	-63
62	55	-85
107	114	-50
126	89	29
59	-8	26
-82	-121	-36
-236	-190	-60
-318	-171	-76
-282	-76	-81
-161	54	-51
-16	163	-32
80	210	-22
109	198	-19
105	150	-14
126	101	-1
188	71	7
261	64	4
275	62	-26
180	51	-72
-14	22	-95
-229	-23	-79
-370	-78	-40
-370	-136	14
-240	-186	28
-56	-216	9
96	-209	0
167	-149	-9
179	-43	-9
194	83	4
259	187	31
366	236	44
439	225	20
395	171	-8
167	110	-35
-189	65	-48
-562	34	-30
-797	-6	6
-789	-72	8
-553	-159	-43
-183	-225	-97
158	-219	-144
351	-120	-184
371	47	-164
266	221	-48
139	320	37
64	309	26
62	200	16
98	58	22
118	-46	20
99	-76	30
51	-44	39
16	-8	48
15	-17	30
42	-93	-11
52	-205	-7
3	-301	-6
-120	-337	-63
-295	-300	-100
-458	-215	-81
-545	-129	-84
-512	-79	-101
-362	-69	-67
-129	-89	-30
124	-108	-11
339	-111	8
454	-99	24
451	-71	41
350	-37	18
206	12	-12
94	80	-4
46	161	7
57	233	4
62	261	-19
-1	237	-62
-152	158	-93
-350	63	-80
-480	-9	-45
-453	-29	-11
-243	-4	-1
92	36	-2
411	61	-3
595	53	-8
591	30	-16
428	11	-24
188	14	-28
-47	34	-30
-249	40	-34
-408	9	-43
-518	-63	-30
-561	-145	-16
-484	-199	-14
-273	-190	29
21	-118	106
302	-12	162
446	89	130
399	157	37
210	191	-91
1	210	-221
-104	231	-253
-56	250	-193
87	240	-98
209	174	-37
212	39	-28
84	-147	-30
-99	-338	-28
-228	-473	-19
-237	-504	-10
-143	-421	-7
-19	-242	-3
60	-20	7
78	183	-7
76	321	-17
111	362	-23
203	317	-19
302	213	7
336	100	3
242	13	-12
38	-29	2
-185	-35	-4
-325	-22	-15
-321	-8	2
-204	-6	11
-62	-8	2
9	-11	-35
-23	-2	-66
-112	11	-75
-168	21	-39
-122	23	-6
15	12	-26
172	-5	-64
245	-32	-80
182	-68	-57
4	-120	-17
-199	-179	53
-321	-229	126
-314	-250	135
-204	-229	61
-74	-185	-13
-1	-153	-99
-11	-175	-182
-61	-254	-160
-82	-356	-63
-20	-400	9
107	-309	-4
241	-58	-31
291	301	-34
231	663	-38
91	885	-34
-36	891	-42
-67	664	-23
19	287	-5
170	-117	11
279	-418	22
257	-543	-1
85	-485	-14
-173	-297	-29
-401	-68	-30
-497	121	-31
-436	218	-26
-260	221	-8
-60	154	6
87	67	14
158	7	-2
171	-8	-21
178	13	-43
207	49	-60
254	72	-70
280	70	-59
254	51	-32
161	36	-4
26	32	22
-94	40	53
-159	40	55
-150	18	25
-83	-29	-6
-1	-86	-46
53	-122	-81
56	-122	-80
11	-82	-64
-53	-21	-50
-101	31	-19
-103	56	-11
-54	55	-36
22	39	-51
94	27	-37
135	32	-40
133	51	-47
104	76	-43
63	96	-37
30	101	-5
-6	85	41
-57	41	64
-133	-29	15
-224	-116	-43
-291	-192	-87
-300	-230	-96
-225	-209	-42
-82	-135	40
86	-46	69
211	8	-3
242	-14	-55
172	-110	-66
18	-238	-86
-164	-341	-91
-321	-368	-84
-416	-311	-57
-416	-205	-26
-312	-102	-10
-113	-36	-16
156	-4	-13
439	26	-1
660	93	2
733	200	-4
605	313	-4
268	380	0
-185	354	-6
-621	247	-2
-869	100	2
-830	-17	24
-526	-68	49
-79	-58	67
299	-30	60
446	-35	6
325	-89	-58
35	-165	-122
-231	-205	-147
-302	-164	-122
-132	-34	-97
184	133	-53
472	268	-27
583	313	-9
491	259	27
276	147	39
90	33	28
21	-32	20
66	-44	-28
127	-30	-79
105	-22	-60
-38	-36	-8
-234	-53	45
-366	-50	54
-358	-9	38
-211	57	-20
-20	110	-72
106	122	-120
114	83	-140
30	27	-82
-53	-3	-25
-55	16	19
49	68	22
204	101	46
318	65	48
321	-47	2
192	-189	-40
-13	-283	-101
-223	-269	-103
-366	-147	-74
-417	15	-44
-383	119	-12
-298	95	3
-199	-41	31
-110	-212	52
-38	-301	31
25	-243	-8
86	-57	-50
145	164	-79
198	300	-88
229	279	-63
223	121	-35
175	-80	-16
107	-213	-7
46	-210	-2
24	-79	10
41	106	9
68	252	-5
56	299	-32
-35	241	-40
-199	115	-52
-385	-18	-59
-484	-117	-44
-426	-170	-50
-195	-178	-24
137	-163	13
436	-140	74
575	-129	120
493	-140	117
216	-176	40
-131	-226	-59
-420	-257	-129
-547	-242	-174
-488	-166	-151
-303	-37	-87
-83	98	6
87	195	17
167	225	-38
172	197	-56
140	154	-62
117	135	-58
121	157	-45
145	193	-23
169	199	7
167	139	22
131	27	6
63	-94	-26
-8	-157	-38
-61	-124	-34
-76	-13	-10
-44	124	39
16	218	54
80	230	52
117	165	60
115	64	78
85	-24	48
52	-83	-32
46	-112	-107
68	-139	-158
89	-174	-161
57	-212	-117
-56	-230	-47
-239	-202	9
-422	-134	30
-524	-40	22
-472	46	18
-267	109	13
19	150	-3
283	185	-21
428	233	-32
422	290	-27
300	338	-54
130	335	-76
-10	253	-51
-92	85	-25
-112	-144	1
-93	-378	-12
-53	-549	-30
-6	-604	-33
40	-524	-38
65	-334	-28
55	-105	-30
8	83	-5
-51	174	1
-77	157	5
-33	81	12
68	22	3
167	45	0
183	161	-12
68	312	-22
-153	410	-63
-383	379	-79
-507	200	-97
-465	-62	-127
-276	-297	-83
-50	-407	-14
103	-361	16
119	-208	10
31	-53	17
-68	13	1
-92	-42	-16
-4	-167	-4
144	-267	-19
270	-258	-7
302	-113	7
244	106	-10
144	300	-24
79	372	-30
91	298	-36
150	118	-35
186	-70	-31
129	-175	-24
-38	-160	-22
-264	-54	-15
-459	65	24
-526	126	56
-428	98	35
-209	5	-19
44	-90	-74
229	-135	-116
288	-112	-140
239	-37	-113
145	45	-20
83	105	33
92	132	34
153	147	32
203	159	14
187	174	1
98	174	-25
-21	135	-55
-93	51	-51
-75	-59	-22
14	-159	-17
103	-209	-34
110	-190	-42
15	-114	-38
-129	-14	-40
-217	75	-9
-169	129	56
4	147	64
206	135	24
292	111	-19
194	86	-54
-63	68	-109
-346	59	-115
-497	62	-47
-443	79	-3
-217	105	-28
34	135	-21
179	161	16
158	174	3
27	171	-14
-86	149	-21
-71	106	-3
102	39	-4
354	-53	-24
553	-173	-32
575	-319	-56
386	-478	-75
28	-636	-57
-375	-763	-23
-695	-833	-2
-830	-813	6
-744	-682	-5
-481	-448	-14
-116	-151	-25
234	143	-36
475	365	-27
562	475	-6
495	477	9
323	427	-15
111	372	-23
-83	354	-18
-223	356	-25
-299	325	-12
-317	214	-1
-285	18	-15
-209	-208	-43
-107	-376	-48
6	-401	-58
103	-273	-56
172	-49	-44
208	168	-11
216	287	16
200	278	18
150	183	16
52	85	-7
-87	40	-24
-232	72	-42
-325	137	-49
-317	180	-30
-188	166	-8
14	99	-2
205	23	-7
306	-27	6
283	-33	29
166	-20	37
33	-19	15
-37	-49	-28
-17	-95	-116
64	-122	-202
148	-106	-166
181	-47	-57
150	18	-5
79	47	-1
5	20	10
-45	-41	20
-75	-93	13
-98	-92	2
-123	-31	-23
-140	55	-43
-127	109	-49
-71	90	-51
13	0	-27
97	-109	8
143	-177	16
130	-157	21
61	-53	26
-30	81	5
-113	183	-19
-161	211	-54
-163	169	-76
-125	94	-50
-50	42	-29
41	41	-36
132	81	-57
196	108	-72
203	71	-56
142	-49	-30
25	-233	-11
-104	-408	36
-183	-501	74
-166	-466	61
-48	-316	34
123	-107	7
268	79	-24
308	178	-60
216	174	-62
24	92	-33
-183	-14	-18
-324	-88	7
-360	-108	-5
-312	-71	-38
-246	-8	-56
-218	56	-67
-243	95	-62
-276	90	-81
-270	41	-84
-197	-44	-63
-84	-142	-5
13	-219	45
63	-240	32
78	-184	-13
121	-66	-44
237	79	-67
414	195	-78
558	244	-8
553	227	87
346	168	115
-4	116	37
-336	109	-22
-496	153	-61
-415	221	-102
-167	277	-67
77	295	-31
175	260	-10
98	177	-29
-61	51	-52
-162	-106	-46
-115	-276	-51
49	-421	-61
207	-490	-69
245	-441	-28
136	-265	19
-23	-23	46
-100	198	46
-14	305	12
199	261	-14
406	101	-40
462	-74	-66
318	-164	-65
32	-123	-12
-255	20	8
-419	179	-21
-424	269	-39
-311	253	-30
-174	158	3
-75	47	2
-20	-23	-11
15	-38	-15
65	-27	-13
128	-27	21
167	-50	46
151	-83	42
77	-90	12
-19	-56	-62
-89	1	-123
-97	36	-91
-44	25	-36
46	-28	-46
156	-79	-54
270	-64	-28
385	35	-26
459	192	-36
436	324	-58
260	345	-68
-81	213	-75
-507	-42	-59
-865	-331	-19
-1010	-552	-7
-869	-627	9
-496	-553	24
-61	-375	0
245	-171	-44
301	-11	-75
143	68	-69
-87	68	-39
-228	14	-2
-191	-64	12
-28	-134	8
148	-169	-5
216	-153	-15
159	-83	-5
44	22	10
-14	126	31
54	190	26
216	191	7
373	135	-2
409	58	-8
280	11	-8
48	23	-22
-179	91	-21
-291	171	-6
-263	222	-16
-142	209	-18
-7	144	-43
76	71	-76
99	32	-65
94	45	-47
100	93	-33
129	134	-22
164	132	15
172	80	40
136	6	21
69	-53	16
1	-67	-3
-45	-39	-59
-68	0	-108
-78	20	-112
-91	3	-88
-105	-36	-54
-106	-68	24
-72	-66	93
1	-22	68
94	45	-14
184	110	-75
245	144	-106
281	140	-115
296	109	-55
291	70	5
253	41	-16
150	31	-47
-39	35	-43
-299	39	-24
-565	26	-16
-743	-16	-37
-757	-84	-47
-585	-162	-25
-281	-223	9
63	-235	32
363	-190	14
588	-96	4
728	7	7
800	70	-23
798	61	-43
655	-24	-15
321	-153	21
-191	-268	5
-783	-309	-26
-1243	-252	-49
-1261	-116	-77
-1154	32	-80
-634	114	-68
-17	75	-50
431	-89	-21
569	-306	21
417	-475	45
144	-490	29
-43	-317	-7
-30	-3	-35
152	332	-64
358	547	-91
446	557	-85
352	372	-53
147	97	-3
-45	-127	24
-121	-203	19
-71	-118	6
26	46	-15
76	177	-28
31	194	-29
-69	101	-24
-150	-30	-11
-139	-106	9
-44	-70	7
71	57	0
130	205	20
103	291	36
27	276	28
-24	175	-16
-1	49	-59
85	-44	-109
159	-78	-145
139	-55	-98
-1	-14	-52
-212	17	-40
-389	20	-22
-439	-2	-25
-339	-34	-45
-139	-61	-26
58	-65	8
172	-39	15
184	25	8
127	114	-12
67	196	-16
44	231	-6
51	181	-16
52	45	-24
18	-139	-10
-52	-308	30
-126	-393	70
-161	-374	60
-137	-267	7
-67	-135	-57
10	-35	-108
66	5	-128
96	4	-113
109	3	-41
128	29	24
164	86	38
221	144	32
288	164	-3
358	125	-42
413	40	-52
419	-56	-77
341	-137	-88
150	-179	-66
-141	-182	-39
-451	-149	-12
-658	-80	-5
-676	26	22
-485	163	30
-185	299	-5
54	382	-42
101	358	-56
-94	208	-44
-422	-41	-61
-711	-313	-59
-798	-510	-38
-637	-570	-28
-320	-481	-5
-3	-292	22
172	-97	45
176	36	61
85	72	83
13	39	59
46	-11	-8
170	-16	-56
310	40	-108
383	142	-154
360	241	-111
287	287	-26
238	265	-3
258	192	-24
324	114	-25
373	67	-15
342	68	-1
222	100	21
58	125	34
-70	117	32
-126	65	-1
-116	-9	-30
-94	-81	-41
-108	-122	-77
-156	-125	-96
-190	-100	-62
-144	-55	-24
-1	-4	-15
199	55	-11
363	115	-2
419	168	5
342	195	24
186	182	48
46	123	57
-12	33	8
13	-59	-51
49	-133	-68
11	-170	-62
-148	-169	-41
-383	-141	-38
-577	-93	-24
-619	-24	-39
-434	65	-83
-68	166	-102
342	247	-92
645	267	-43
701	190	-25
496	17	-24
105	-207	-33
-317	-401	-38
-611	-490	-30
-686	-432	-35
-540	-254	-35
-256	-40	-16
33	110	41
211	127	101
216	12	78
65	-175	16
-158	-343	-23
-350	-413	-97
-420	-364	-128
-344	-229	-80
-164	-68	-38
42	56	-42
187	121	-26
237	138	21
206	140	16
144	150	8
105	170	12
104	182	9
123	168	1
123	124	-24
81	65	-33
0	15	-40
-82	-11	-59
-116	-2	-78
-86	24	-59
-4	60	-21
87	96	-14
150	122	-8
167	141	3
154	148	13
136	131	19
137	95	28
156	43	19
178	-3	8
184	-28	-17
161	-22	-40
106	2	-55
25	24	-71
-83	24	-55
-200	1	-34
-314	-24	0
-378	-32	4
-355	-2	-11
-229	55	-12
-18	113	-24
200	137	-21
346	110	-15
365	35	-28
245	-61	-42
46	-144	-35
-143	-190	-23
-253	-186	-10
-255	-142	8
-174	-71	64
-63	14	82
33	103	48
99	179	-4
147	225	-112
191	221	-231
228	154	-287
242	36	-200
207	-102	-60
115	-215	16
-21	-254	41
-166	-207	44
-290	-89	54
-370	43	16
-394	136	-17
-383	144	-15
-325	64	1
-221	-67	17
-68	-201	-1
110	-286	-41
277	-304	-42
373	-257	-30
355	-178	-14
224	-98	12
14	-37	11
-191	1	-19
-324	27	-68
-333	47	-85
-231	57	-66
-70	41	-21
76	-19	26
141	-121	32
107	-248	24
-11	-342	-3
-160	-353	-31
-270	-249	-30
-295	-41	-21
-213	210	-6
-44	429	15
163	544	-1
346	535	-31
469	422	-51
482	265	-52
394	118	-13
234	7	20
37	-67	28
-140	-123	15
-268	-166	-15
-324	-186	-25
-304	-167	-45
-216	-105	-75
-86	-24	-86
54	38	-108
169	47	-87
216	4	-47
192	-58	-25
104	-96	8
-1	-76	52
-74	-7	49
-77	72	-19
-5	121	-68
104	118	-105
196	80	-94
226	39	-14
172	27	49
65	42	43
-55	62	2
-137	57	-12
-158	25	-32
-122	-20	-22
-59	-41	-48
4	-17	-82
55	46	-61
103	120	-32
162	169	28
230	183	74
292	181	97
312	188	79
249	215	37
93	249	-25
-130	247	-130
-363	174	-163
-526	23	-136
-558	-170	-96
-453	-349	-54
-251	-464	-55
-37	-508	-58
109	-492	-48
154	-453	-30
124	-409	-7
95	-346	24
129	-241	65
242	-78	79
361	118	63
373	291	14
206	366	-48
-143	301	-77
-546	110	-92
-821	-138	-61
-837	-344	-3
-581	-426	61
-191	-359	105
136	-190	51
245	0	-16
123	125	-104
-108	147	-198
-262	88	-205
-221	15	-113
10	0	-15
292	72	-6
476	204	5
469	324	22
311	354	29
123	272	32
16	103	15
22	-70	-9
75	-174	-33
87	-163	-20
7	-63	-7
-123	63	2
-209	150	21
-174	169	15
-15	131	-22
191	81	-45
338	59	-46
358	72	-44
261	97	-24
127	101	2
30	62	0
11	-7	-14
37	-76	-19
51	-114	-38
6	-111	-62
-91	-79	-64
-188	-38	-30
-236	-11	1
-201	7	10
-107	30	-6
-1	65	-23
76	111	-28
107	143	-60
111	142	-77
119	96	-55
148	17	-36
192	-63	-46
223	-124	-29
206	-153	17
125	-157	17
-2	-144	7
-138	-120	-20
-227	-76	-12
-230	6	29
-151	122	71
-32	248	81
49	333	16
35	325	-43
-87	195	-132
-264	-41	-192
-421	-326	-162
-477	-580	-84
-420	-715	-43
-295	-687	-19
-180	-498	31
-125	-202	44
-116	113	49
-96	351	17
-8	437	-33
141	351	-63
288	139	-97
333	-108	-92
230	-296	-39
28	-353	22
-157	-278	65
-201	-129	48
-82	14	-3
128	86	-37
291	77	-57
306	26	-56
183	-8	-25
27	8	13
-35	68	9
36	134	-26
172	154	-49
228	115	-70
100	39	-62
-186	-17	-26
-485	-17	3
-589	44	28
-417	141	59
-16	224	55
419	261	19
666	244	-20
626	203	-51
351	156	-77
21	116	-89
-189	83	-60
-204	45	-43
-81	6	-25
50	-31	-1
86	-53	-2
13	-58	-5
-99	-56	-12
-152	-57	-27
-105	-66	-43
14	-67	-52
127	-44	-53
178	15	-52
167	97	-33
144	165	-15
164	183	5
235	132	65
308	31	115
306	-82	99
180	-165	25
-53	-198	-63
-328	-194	-149
-534	-179	-173
-599	-174	-97
-518	-171	21
-330	-150	74
-117	-86	32
53	21	-5
139	135	-80
129	215	-130
42	224	-111
-78	155	-126
-186	35	-105
-243	-93	-48
-228	-198	-20
-156	-264	-15
-69	-297	2
-13	-299	30
-10	-268	22
-45	-204	-11
-80	-106	-43
-59	12	-50
41	114	-37
219	170	-20
428	159	15
604	93	60
699	0	97
662	-85	134
478	-131	114
163	-132	31
-240	-93	-49
-632	-25	-122
-903	56	-130
-970	138	-77
-804	201	-16
-459	230	-9
-63	213	-47
253	158	-82
389	81	-89
346	10	-54
205	-41	-35
77	-70	-21
40	-84	-15
96	-87	-2
190	-80	1
248	-56	20
231	-9	74
154	48	87
59	92	42
2	99	-4
-7	59	-34
22	-6	-85
56	-61	-84
78	-71	-14
84	-28	-4
72	43	-104
47	103	-147
0	119	-150
-69	90	-107
-145	41	-39
-181	11	-19
-142	16	-19
-26	44	-49
132	72	-13
253	69	6
278	39	26
186	0	46
20	-14	3
-154	9	-21
-276	50	-24
-321	70	-7
-310	36	9
-258	-52	11
-181	-163	-9
-68	-235	-2
76	-226	20
228	-130	31
336	15	30
338	149	30
216	225	29
15	227	-2
-189	178	-53
-312	113	-102
-321	53	-157
-245	-4	-197
-141	-87	-175
-62	-208	-114
-16	-353	-34
27	-466	10
93	-490	16
184	-390	8
262	-178	6
270	77	46
181	284	87
16	373	79
-162	324	40
-272	171	-9
-269	-16	-70
-158	-166	-68
18	-242	-5
188	-249	14
283	-222	-52
269	-194	-93
130	-184	-76
-97	-181	-51
-351	-152	-28
-548	-75	-13
-603	51	5
-481	196	-5
-212	308	-3
112	344	13
371	294	8
478	187	8
420	80	3
249	29	11
62	52	1
-58	122	-16
-88	183	-11
-43	179	-10
18	90	-31
59	-47	-39
71	-166	-48
64	-202	-57
56	-136	-55
44	1	-52
21	138	-35
-24	215	7
-71	201	83
-98	121	137
-75	23	116
-3	-45	32
87	-63	-72
156	-49	-187
172	-29	-266
147	-28	-258
100	-49	-143
60	-81	-49
40	-102	1
23	-100	49
-4	-79	79
-47	-41	121
-88	1	85
-104	51	8
-88	102	-62
-57	136	-160
-44	139	-196
-64	101	-141
-110	26	-27
-139	-58	38
-126	-113	68
-61	-111	74
22	-54	19
82	23	-6
94	78	-35
70	80	-30
48	32	-3
56	-29	-21
89	-63	-45
109	-55	-67
77	-19	-53
-14	-3	-25
-124	-49	-17
-190	-170	-22
-172	-321	-33
-75	-433	-41
42	-445	-30
111	-338	-15
102	-153	21
35	35	57
-29	154	60
-44	171	33
-3	112	-26
52	33	-54
74	0	-60
34	29	-31
-43	96	16
-105	145	17
-110	130	-13
-63	45	-46
-20	-74	-71
-37	-167	-64
-141	-192	-23
-299	-138	-17
-415	-40	-23
-412	47	-31
-262	89	-37
-18	78	-30
214	43	1
338	27	21
314	56	-7
186	127	-38
42	211	-55
-36	278	-63
-26	301	-44
35	282	-8
74	237	-1
49	187	-33
-30	138	-61
-104	84	-63
-105	18	-34
-12	-63	28
132	-141	97
252	-196	90
276	-209	0
198	-184	-86
65	-141	-157
-38	-104	-209
-53	-86	-157
27	-78	-34
156	-62	43
268	-21	46
314	44	34
283	116	37
201	163	29
98	168	40
-1	129	60
-86	61	69
-149	-6	25
-183	-50	-42
-183	-64	-115
-155	-43	-165
-121	-1	-151
-113	50	-88
-149	84	0
-210	75	79
-258	10	103
-247	-102	62
-160	-222	19
-30	-294	-30
82	-277	-79
122	-169	-108
82	-17	-88
2	104	-59
-50	128	-67
-21	40	-41
86	-121	-9
228	-276	-12
329	-358	-21
335	-337	-36
237	-235	-55
57	-107	-67
-149	4	-40
-332	79	-4
-459	136	29
-503	202	63
-466	287	124
-361	373	155
-222	422	94
-93	388	-43
-15	249	-187
5	26	-250
-11	-230	-235
-10	-448	-159
44	-557	-70
156	-527	4
275	-362	43
341	-118	61
312	119	86
191	278	70
44	319	51
-54	261	14
-56	166	-49
35	101	-108
163	99	-107
251	150	-39
245	202	17
139	207	39
-30	147	31
-197	47	26
-303	-37	24
-304	-70	3
-210	-46	-15
-53	-1	-11
106	15	-8
214	-17	-40
245	-85	-58
196	-143	-69
110	-151	-74
37	-94	-52
22	0	-6
69	77	39
148	108	29
202	89	7
184	55	-14
85	43	-78
-70	67	-156
-229	110	-142
-329	124	-88
-332	76	-59
-232	-38	-26
-55	-175	37
138	-276	85
288	-297	64
340	-233	-3
269	-123	-99
94	-24	-138
-113	22	-95
-277	13	5
-328	-29	69
-263	-61	58
-149	-61	44
-70	-37	0
-103	-8	-30
-241	-8	-34
-411	-37	-54
-503	-85	-76
-439	-119	-86
-228	-116	-51
53	-72	-24
287	-2	-20
396	70	-18
380	120	-8
297	132	-9
228	110	-39
223	70	-44
269	27	-24
325	3	-5
342	4	24
302	33	68
212	78	89
87	118	58
-58	135	9
-221	123	-64
-377	88	-131
-486	44	-145
-503	14	-99
-405	2	-34
-213	-1	0
-5	-11	20
136	-44	34
171	-99	39
111	-156	32
21	-184	12
-33	-165	-19
-28	-103	-50
7	-24	-67
17	29	-80
-29	37	-94
-113	2	-77
-173	-42	-32
-142	-57	-11
-1	-24	28
216	48	103
436	121	128
598	157	49
662	139	-35
628	93	-95
523	53	-144
346	48	-116
111	77	-28
-174	105	10
-472	99	-28
-725	46	-36
-857	-26	-35
-842	-75	-71
-688	-66	-85
-446	0	-52
-191	85	-16
17	145	-39
162	158	-57
242	138	-48
279	119	-48
292	113	-42
299	101	-40
288	31	-1
250	-128	69
162	-368	112
14	-599	127
-174	-727	123
-354	-685	57
-459	-494	-92
-432	-241	-201
-264	-43	-219
-20	29	-168
215	-2	-113
352	-55	-75
373	-34	-14
333	95	17
314	283	8
378	431	-9
502	452	19
592	327	57
527	121	59
257	-67	49
-170	-157	17
-617	-137	-24
-911	-52	-49
-965	28	-32
-779	64	-16
-452	61	-21
-112	55	-31
150	81	-25
300	140	-2
352	205	18
342	236	49
291	210	81
198	142	84
74	61	31
-61	-2	-26
-170	-41	-93
-205	-64	-160
-158	-89	-137
-47	-110	-44
72	-118	-10
154	-94	-46
180	-32	-46
157	45	-27
114	112	-36
66	139	-38
20	127	-43
-34	92	-6
-91	56	38
-133	36	29
-137	28	26
-86	23	10
8	11	-1
110	-5	-30
181	-15	-84
193	-23	-106
149	-38	-98
69	-85	-92
-16	-167	-44
-103	-265	22
-186	-344	21
-273	-357	-3
-350	-298	-26
-389	-192	-58
-358	-93	-79
-248	-37	-67
-81	-27	-41
96	-19	-48
231	41	-64
288	178	-64
268	351	-43
198	474	24
114	453	94
36	257	113
-20	-63	84
-63	-390	39
-88	-599	17
-86	-612	0
-42	-453	-38
46	-211	-43
163	3	-35
276	119	-104
352	144	-167
383	128	-177
369	132	-124
336	171	-15
292	215	32
221	211	-5
85	126	-8
-136	-16	27
-431	-152	32
-720	-203	15
-904	-144	-14
-904	-5	-22
-700	143	-39
-361	229	-44
-10	225	-24
245	158	-6
346	88	8
312	57	-16
216	74	-20
139	101	-4
111	96	-10
117	43	2
117	-34	34
79	-90	46
16	-92	30
-35	-35	-7
-30	43	-44
39	96	-64
138	98	-75
222	60	-47
249	23	-7
212	17	28
132	55	34
45	110	-1
-33	143	-21
-102	128	-46
-169	59	-77
-231	-38	-81
-250	-138	-83
-194	-224	-118
-43	-286	-116
171	-322	-78
363	-330	-53
439	-291	-27
346	-194	5
91	-54	60
-231	92	56
-487	197	13
-581	227	-31
-472	177	-89
-224	79	-86
46	-24	0
228	-96	55
253	-125	36
148	-125	13
-13	-118	11
-137	-111	30
-168	-103	38
-104	-77	-4
20	-32	-49
148	22	-84
242	68	-98
292	89	-77
301	77	-46
266	40	-20
182	-5	-46
41	-47	-61
-132	-80	-46
-287	-97	-48
-375	-99	-35
-356	-85	-19
-253	-55	-3
-126	-16	5
-54	23	-9
-77	50	-21
-163	69	-22
-235	88	22
-206	112	105
-40	138	147
226	158	87
495	151	-28
656	112	-113
642	61	-179
461	25	-202
175	28	-117
-115	64	18
-320	98	71
-398	85	47
-360	1	15
-248	-130	-40
-137	-249	-119
-79	-281	-129
-94	-194	-74
-158	-11	-32
-210	192	-27
-185	327	17
-51	344	55
159	253	34
366	121	33
486	18	17
468	-11	-1
331	18	-27
151	46	-71
16	19	-79
-36	-90	-63
-31	-248	-14
-40	-388	35
-122	-436	44
-276	-362	25
-439	-189	7
-518	16	-38
-450	174	-77
-242	233	-67
34	191	-28
269	99	6
393	23	-8
393	16	-22
316	88	-45
234	192	-60
194	260	-38
198	227	-15
206	74	12
165	-157	16
40	-386	-10
-172	-512	-40
-417	-485	-63
-626	-307	-29
-726	-57	39
-665	154	45
-439	233	2
-106	143	-61
238	-58	-102
476	-272	-108
536	-381	-115
428	-330	-92
239	-143	-38
105	91	22
117	261	43
275	301	34
470	225	4
544	99	-43
380	10	-80
-23	6	-108
-526	68	-70
-921	130	58
-1054	132	177
-872	58	178
-481	-44	85
-57	-105	-28
254	-78	-174
373	32	-282
346	162	-242
266	236	-94
216	210	-1
214	105	32
222	-19	85
184	-98	48
77	-102	13
-67	-51	-30
-198	6	-91
-269	28	-83
-263	11	-66
-204	-20	-25
-103	-28	2
24	8	-3
172	78	-18
321	149	-8
423	193	2
425	201	15
299	182	22
77	149	29
-162	109	42
-310	53	3
-313	-27	-47
-190	-129	-54
-13	-230	-38
135	-296	1
221	-306	52
263	-258	77
311	-176	68
366	-86	16
390	-9	-78
300	53	-168
49	106	-190
-321	145	-102
-699	160	17
-928	123	74
-913	32	113
-676	-95	109
-339	-216	26
-48	-286	-68
102	-291	-166
122	-247	-238
92	-204	-217
97	-201	-104
172	-243	2
280	-289	16
358	-282	1
368	-186	16
330	-7	4
292	194	0
288	345	12
297	395	12
249	336	6
84	215	-18
-195	98	-33
-497	30	-56
-711	19	-59
-726	35	-6
-542	41	41
-249	16	49
28	-33	11
183	-78	-44
200	-77	-78
134	-19	-66
77	83	-35
87	193	-20
163	267	-23
262	282	-35
325	233	-25
314	137	-20
238	22	-11
125	-81	-13
15	-155	-14
-67	-190	2
-109	-184	-4
-105	-147	-1
-58	-89	4
23	-27	-18
124	27	-31
216	64	-30
269	82	-32
262	91	3
186	99	74
49	115	96
-124	136	31
-305	155	-65
-443	150	-157
-491	109	-171
-425	31	-63
-241	-77	103
9	-183	185
245	-254	145
394	-260	29
396	-186	-133
258	-44	-236
44	127	-261
-162	274	-202
-276	345	-105
-268	305	-34
-153	160	-11
7	-56	4
133	-279	24
167	-437	9
77	-492	11
-106	-427	32
-312	-282	39
-453	-117	-4
-459	5	-64
-325	37	-97
-102	-23	-88
107	-140	-36
214	-249	-2
179	-288	8
59	-227	5
-45	-75	13
-39	109	18
102	264	24
322	334	19
523	309	-6
606	215	-21
553	106	-36
391	19	-35
182	-29	-38
-32	-49	-35
-242	-69	-26
-453	-94	-21
-632	-108	15
-717	-81	49
-654	2	37
-426	129	0
-114	252	-40
159	313	-93
287	287	-112
237	190	-77
87	68	-33
-36	-20	11
-39	-49	43
75	-35	53
212	-19	47
263	-31	43
181	-75	22
21	-112	-41
-108	-102	-116
-113	-30	-150
10	77	-148
171	158	-117
262	166	-24
222	89	69
97	-32	51
-12	-131	3
-15	-161	-32
95	-108	-71
234	-9	-63
280	84	-29
171	131	30
-68	126	86
-332	86	76
-497	28	16
-496	-37	-39
-340	-117	-81
-109	-205	-129
117	-277	-136
276	-294	-78
359	-219	4
378	-56	24
341	147	8
255	313	-14
131	372	-52
-13	309	-69
-150	155	-71
-251	-9	-67
-310	-124	-17
-338	-164	55
-350	-162	95
-353	-163	57
-338	-206	-9
-290	-286	-68
-205	-351	-142
-93	-351	-139
29	-246	-46
145	-59	28
242	149	44
318	301	36
350	350	27
314	287	29
196	150	52
13	4	71
-164	-97	24
-241	-128	-76
-159	-109	-177
68	-77	-183
333	-64	-72
482	-82	29
403	-108	69
82	-114	37
-360	-77	-26
-731	0	-72
-873	84	-65
-726	147	-51
-366	166	-68
37	154	-69
329	130	-38
410	121	-14
310	123	-15
131	119	18
-7	85	31
-40	20	10
17	-54	14
104	-104	5
150	-98	-9
127	-38	-33
59	40	-48
2	98	-45
5	106	-46
77	75	-35
189	31	-6
284	5	11
317	3	4
263	6	3
148	-15	-10
15	-72	-32
-85	-144	-44
-122	-189	-27
-100	-168	-4
-40	-75	-13
14	53	-23
39	165	22
29	207	69
5	179	36
-2	113	-23
26	62	-72
81	65	-131
124	116	-141
117	169	-104
26	161	-22
-120	65	55
-270	-102	74
-357	-274	45
-332	-373	-27
-218	-348	-94
-77	-208	-148
12	-19	-150
4	123	-107
-84	153	-37
-185	50	6
-227	-125	4
-177	-286	8
-65	-346	-7
35	-277	13
70	-110	30
34	81	7
-19	206	-7
-24	228	0
48	140	1
166	-2	-1
245	-151	9
219	-251	18
82	-289	11
-100	-263	-5
-227	-182	11
-228	-64	-3
-111	69	-45
48	188	-48
159	258	-49
175	256	-45
127	187	-12
88	90	-1
117	14	-50
209	1	-100
291	51	-114
273	126	-138
102	170	-117
-174	145	-11
-445	61	49
-580	-38	56
-509	-93	69
-267	-74	34
40	10	-34
275	113	-57
357	177	-66
284	177	-52
130	110	16
-11	13	68
-78	-86	72
-61	-157	42
-4	-189	-3
44	-183	-78
49	-140	-148
17	-65	-165
-18	24	-169
-19	103	-150
40	149	-60
144	150	48
257	120	79
322	89	49
296	80	24
154	97	-18
-79	116	-50
-332	100	-52
-526	22	-30
-571	-107	7
-448	-246	28
-200	-338	42
70	-344	49
251	-264	51
280	-145	80
175	-36	99
27	18	87
-65	18	16
-49	-2	-80
52	7	-119
151	76	-135
162	190	-128
55	305	-108
-119	350	-110
-266	276	-99
-310	82	-53
-234	-174	-34
-100	-403	-24
5	-524	-6
21	-490	2
-40	-333	18
-114	-123	10
-121	57	-5
-27	159	-9
137	179	-43
297	148	-87
373	105	-69
345	67	-27
234	26	-12
114	-33	-31
44	-105	-50
58	-160	-24
138	-156	-2
228	-70	35
269	70	129
212	204	191
45	260	143
-205	209	64
-473	77	-21
-669	-65	-129
-720	-139	-215
-589	-114	-215
-315	-8	-144
15	110	-138
291	182	-128
432	181	-70
414	127	-34
288	71	-16
139	40	-13
33	39	3
-11	39	12
-28	14	10
-61	-41	-1
-130	-100	-13
-207	-121	-21
-241	-81	10
-195	18	38
-79	135	31
49	228	37
139	261	41
157	238	24
128	182	-8
106	119	-19
135	67	-27
222	27	8
325	-16	63
395	-72	41
394	-141	-7
326	-210	-38
212	-268	-100
70	-309	-132
-93	-332	-85
-276	-347	-31
-453	-354	-3
-579	-342	-1
-581	-291	-28
-442	-188	-61
-191	-41	-72
68	114	-55
221	232	-46
208	277	-36
54	247	-32
-133	171	-24
-250	93	-27
-244	51	-33
-147	58	-25
-51	87	-39
-30	104	-36
-92	76	-24
-177	-1	-3
-205	-112	36
-125	-223	87
40	-306	79
209	-341	25
308	-317	-6
309	-232	-44
245	-92	-64
187	74	-38
178	224	6
216	308	-5
262	299	-42
268	206	-61
212	79	-81
117	-18	-89
15	-39	-93
-70	12	-88
-151	90	-80
-242	134	-51
-350	114	-26
-446	40	-12
-475	-30	8
-397	-45	7
-211	16	-10
30	122	-25
253	210	-33
388	229	-33
417	158	-25
369	33	-17
276	-94	-15
170	-170	-21
49	-175	-9
-89	-124	8
-231	-47	25
-328	23	58
-331	71	108
-215	89	112
-13	77	38
192	38	-16
317	-17	-76
302	-68	-132
178	-96	-109
17	-77	-25
-97	-14	21
-104	70	-6
-14	140	-34
118	166	-63
221	137	-90
241	71	-90
170	-3	-36
25	-67	41
-150	-120	45
-315	-176	-3
-436	-246	-58
-496	-317	-125
-472	-348	-164
-371	-299	-108
-212	-156	5
-22	43	64
156	215	61
292	275	67
370	183	79
375	-26	61
325	-253	60
225	-381	22
91	-341	-46
-56	-142	-80
-197	123	-96
-313	341	-104
-375	416	-106
-366	333	-83
-282	144	-52
-135	-58	-68
48	-194	-77
236	-229	-74
395	-174	-79
491	-82	-46
502	2	-16
415	47	-7
226	48	4
-37	27	29
-320	-2	38
-554	-17	16
-659	-19	-8
-595	-12	-21
-379	0	-8
-83	11	13
187	25	16
344	44	24
366	77	49
288	115	0
184	150	-68
122	165	-88
115	147	-119
136	96	-110
142	24	-40
101	-41	4
18	-85	-8
-78	-95	-19
-148	-80	-14
-183	-57	-4
-187	-42	11
-172	-40	3
-141	-39	-13
-81	-25	-7
10	17	7
127	88	20
240	169	20
325	241	7
368	279	-13
381	273	-42
373	213	-43
346	110	-21
262	-21	-16
80	-158	-16
-197	-271	-7
-508	-339	-21
-720	-345	-40
-733	-301	-40
-503	-225	-60
-121	-143	-62
230	-80	-26
374	-32	-6
241	8	12
-97	51	8
-438	97	12
-589	124	0
-452	113	-39
-113	56	-56
234	-26	-82
397	-95	-99
291	-114	-108
13	-76	-44
-253	-3	16
-332	57	12
-170	71	8
123	35	-14
369	-30	-29
414	-84	-39
239	-100	2
-35	-80	45
-232	-44	17
-229	-18	-4
-26	-4	-17
254	5	-87
461	23	-129
486	51	-77
346	77	-18
132	76	-27
-52	36	-62
-153	-23	-78
-198	-80	-99
-244	-101	-106
-321	-83	-56
-415	-40	19
-447	0	28
-360	16	13
-158	12	16
95	3	8
302	15	15
397	55	1
381	105	11
319	143	24
280	143	4
300	103	-23
337	34	-23
324	-32	-16
194	-70	-21
-44	-74	-27
-331	-45	-44
-572	-4	-16
-680	33	22
-634	57	26
-465	71	26
-245	85	7
-40	108	-18
106	140	-54
188	168	-53
216	161	-11
212	102	2
203	-8	6
195	-143	-1
195	-249	7
191	-268	19
161	-175	-5
90	6	-33
-19	210	-77
-136	354	-106
-227	372	-98
-250	261	-90
-205	66	-76
-125	-141	-27
-55	-289	35
-28	-353	55
-36	-354	26
-40	-336	-11
1	-334	-57
94	-351	-82
209	-355	-52
288	-316	-11
284	-219	-31
204	-90	-75
82	27	-96
-20	96	-108
-67	116	-85
-60	110	-44
-30	120	-13
-11	160	-6
-12	213	-1
-27	243	15
-37	211	8
-42	125	-15
-54	18	-11
-89	-56	4
-145	-66	24
-200	-16	66
-229	55	110
-212	98	111
-159	89	57
-91	39	-36
-25	-11	-128
31	-31	-205
94	-9	-186
166	41	-65
241	89	18
282	122	54
263	137	48
176	152	31
49	171	-25
-65	183	-80
-126	161	-79
-104	76	-51
-11	-59	-36
125	-213	-32
260	-322	-10
355	-346	-1
366	-273	9
266	-137	3
44	3	7
-263	94	15
-565	113	-6
-751	83	0
-735	40	22
-503	18	44
-151	31	48
183	60	16
371	79	-39
351	62	-95
187	21	-147
3	-24	-154
-80	-44	-80
-13	-25	30
158	19	57
331	60	-19
411	70	-92
369	41	-128
242	-8	-96
95	-47	-2
-14	-49	42
-77	-17	41
-120	28	25
-169	45	2
-229	12	-12
-269	-70	-76
-270	-175	-115
-217	-256	-80
-142	-282	-30
-91	-243	7
-91	-151	28
-135	-34	55
-174	70	38
-159	132	3
-69	138	-54
59	88	-130
154	3	-154
154	-92	-141
36	-162	-74
-147	-188	22
-310	-176	52
-363	-140	61
-279	-112	61
-93	-100	24
117	-99	6
263	-81	3
312	-22	-12
274	75	-2
203	181	43
149	252	53
136	256	3
163	197	-54
210	114	-109
269	55	-136
340	45	-105
415	84	-45
450	126	-19
383	136	-22
163	98	13
-215	30	82
-653	-31	141
-1006	-54	117
-1129	-35	34
-938	3	-69
-515	35	-164
-1	41	-205
409	31	-179
584	18	-108
529	15	-82
344	21	-52
167	19	16
93	3	76
118	-27	87
175	-47	59
190	-31	28
128	24	-22
31	110	-58
-39	189	-78
-31	224	-67
49	194	-45
160	106	-10
241	-9	42
256	-118	31
216	-185	2
140	-194	-30
52	-142	-49
-48	-53	-23
-169	44	24
-300	119	56
-410	142	0
-456	105	-85
-418	16	-141
-308	-101	-171
-182	-216	-128
-95	-313	-44
-81	-374	1
-120	-395	12
-168	-383	12
-177	-334	-5
-126	-261	-13
-39	-182	7
52	-117	42
128	-82	40
190	-74	-12
260	-72	-40
340	-48	-71
409	19	-101
421	115	-52
336	207	21
144	257	31
-96	251	-12
-307	211	-26
-416	187	-40
-392	214	-42
-262	287	-13
-92	358	3
48	362	11
123	261	17
130	81	14
99	-105	18
63	-210	31
41	-198	20
36	-95	11
38	23	-29
42	76	-85
44	39	-78
48	-57	-74
61	-145	-88
80	-176	-63
98	-142	-28
105	-81	-9
95	-39	-7
66	-29	-4
34	-27	-25
27	4	-51
81	81	-45
214	178	-24
402	241	-15
575	223	-58
614	131	-96
432	19	-87
10	-51	-46
-572	-53	44
-1107	-19	152
-1310	-13	209
-1201	-88	179
-981	-227	51
-438	-356	-109
60	-376	-236
363	-237	-309
429	17	-243
355	274	-78
291	410	21
324	372	32
432	193	32
515	-11	71
468	-132	59
261	-131	26
-27	-44	19
-269	38	-35
-383	51	-75
-347	-14	-53
-243	-102	-13
-160	-142	-6
-133	-110	-49
-130	-35	-67
-81	12	-59
58	-23	-69
249	-134	-44
396	-263	-8
409	-333	15
269	-300	30
49	-179	32
-124	-40	48
-162	52	33
-52	71	8
123	42	-5
252	24	-21
258	51	-54
141	123	-74
-21	195	-59
-158	213	-55
-227	158	-41
-232	47	-35
-201	-59	-16
-145	-111	-11
-45	-79	-42
119	20	-61
320	144	-41
475	248	-6
466	300	-4
230	294	13
-189	232	49
-636	129	49
-903	-1	-21
-873	-138	-78
-572	-260	-104
-148	-333	-163
196	-334	-164
332	-258	-43
257	-113	60
96	55	65
-10	201	45
17	279	22
145	274	5
275	195	-12
317	80	-25
245	-23	-41
115	-76	-57
-6	-66	-38
-78	-14	-27
-116	43	0
-156	68	60
-209	49	100
-245	-2	91
-198	-59	40
-32	-93	-44
223	-92	-134
476	-64	-156
611	-30	-141
558	-3	-122
333	13	-95
23	21	-60
-258	22	-41
-433	2	-15
-487	-55	1
-433	-148	-24
-318	-254	-9
-163	-329	21
14	-334	34
184	-259	18
310	-129	24
340	-7	41
245	64	24
45	67	69
-191	35	108
-381	19	58
-437	55	-43
-345	136	-102
-153	215	-150
57	244	-227
195	192	-208
222	80	-74
157	-43	8
58	-127	-1
-4	-160	12
2	-157	-2
71	-147	-11
148	-148	-15
175	-139	-7
114	-88	-2
-24	26	-21
-189	183	-21
-315	323	-24
-357	372	-15
-310	296	-6
-210	120	5
-111	-81	35
-43	-222	45
-7	-242	24
26	-153	-7
96	-5	-27
201	125	-37
314	194	-32
383	195	0
373	164	52
283	143	76
158	158	57
46	194	24
-16	215	-39
-34	187	-104
-47	93	-121
-87	-54	-101
-157	-211	-59
-217	-337	-34
-223	-394	-36
-151	-393	-46
-20	-340	-52
106	-272	-47
182	-209	-30
188	-151	-60
154	-79	-94
132	34	-77
156	194	-70
212	372	-56
241	505	-69
182	523	-92
16	390	-60
-214	122	7
-426	-196	74
-548	-460	114
-533	-573	108
-408	-511	93
-229	-325	32
-58	-104	-78
59	55	-120
110	112	-122
106	88	-112
66	47	-26
16	54	74
-10	130	58
22	244	-11
121	330	-31
262	338	-46
383	251	-58
414	109	-36
306	-27	-10
99	-111	-6
-132	-133	-22
-281	-127	-42
-296	-148	-37
-201	-223	-17
-85	-333	-7
-39	-421	3
-95	-420	12
-206	-296	-7
-279	-77	-34
-244	162	-39
-99	326	-33
83	362	-10
209	279	0
230	143	-2
172	40	3
117	23	-4
125	90	-10
202	186	-20
276	238	-28
262	203	-28
111	85	-20
-136	-67	3
-383	-192	-4
-512	-242	-17
-465	-211	-25
-277	-122	-49
-30	-17	-55
180	67	-40
300	115	-27
340	116	-34
339	84	-49
324	29	-98
284	-29	-124
196	-66	-111
42	-67	-64
-141	-30	0
-280	24	59
-297	68	162
-158	75	224
71	33	161
271	-35	20
318	-95	-77
159	-114	-193
-130	-91	-284
-415	-44	-207
-529	-9	-56
-426	-11	34
-176	-45	18
78	-89	-50
184	-105	-122
109	-85	-114
-76	-40	-30
-233	-1	20
-258	4	-2
-150	-23	-21
0	-68	-38
75	-101	-41
26	-107	0
-101	-91	26
-195	-71	52
-166	-63	40
-11	-56	38
188	-30	54
317	37	26
310	142	5
196	253	-7
64	330	-12
-3	327	-19
16	244	-37
68	103	-30
83	-46	-38
23	-167	-44
-78	-233	-34
-150	-246	-15
-126	-215	29
-14	-151	41
123	-58	34
206	50	15
184	163	-32
93	252	-118
4	298	-198
-5	282	-164
89	210	-53
233	96	4
337	-35	-20
320	-158	-18
160	-246	-19
-99	-280	-10
-370	-254	35
-547	-174	62
-572	-66	64
-442	30	41
-191	85	6
99	97	-72
365	89	-103
560	105	-70
659	179	-46
665	299	-40
575	410	-3
389	435	41
95	319	19
-285	63	-15
-697	-261	-57
-1006	-541	-110
-1093	-677	-126
-896	-618	-81
-452	-392	-18
78	-91	28
498	186	71
679	356	91
600	392	61
385	309	5
196	160	-63
130	-6	-159
169	-150	-189
184	-249	-130
59	-300	-53
-233	-311	-28
-574	-292	-18
-787	-259	6
-751	-228	-5
-465	-204	-2
-84	-185	2
212	-162	6
311	-118	18
231	-46	25
110	52	19
75	171	-2
169	287	-37
308	382	-75
365	432	-38
255	429	33
18	365	91
-208	249	123
-291	103	68
-179	-41	-13
36	-145	-58
194	-192	-163
170	-177	-211
-44	-125	-108
-314	-67	19
-465	-31	59
-378	-22	44
-75	-21	24
291	-13	-32
541	15	-63
562	52	-96
373	80	-106
113	82	-81
-76	56	-53
-103	23	-9
4	1	44
135	-2	90
186	3	63
105	0	24
-68	-19	-34
-248	-46	-99
-350	-55	-137
-339	-29	-120
-241	29	-36
-109	88	43
9	113	104
82	91	105
111	48	56
103	37	-21
64	89	-85
1	194	-107
-72	286	-130
-134	277	-116
-159	117	-43
-137	-167	-12
-76	-459	-24
9	-622	-20
106	-567	-7
221	-320	5
359	1	-16
505	236	-37
600	279	-21
565	143	-5
329	-69	-17
-97	-222	-18
-603	-234	-31
-1032	-131	-26
-1194	-17	21
-1036	3	57
-631	-98	69
-141	-254	24
233	-345	-23
387	-281	-69
344	-75	-86
223	174	-30
151	342	38
181	352	34
278	235	-43
344	93	-117
317	39	-202
195	103	-195
55	224	-99
-25	282	-20
-23	197	31
20	-20	42
33	-265	77
-17	-413	87
-104	-384	53
-156	-203	0
-111	18	-51
20	168	-91
165	197	-125
226	142	-113
155	96	-61
-11	121	8
-181	227	33
-258	336	30
-211	372	18
-87	294	4
35	130	-16
87	-41	-25
62	-158	11
3	-200	45
-46	-209	51
-59	-227	53
-57	-270	21
-67	-304	-53
-95	-270	-78
-113	-138	-55
-76	61	-17
33	248	-19
184	345	-35
306	319	-60
336	208	-131
251	90	-139
93	33	-80
-58	54	-21
-134	101	-31
-109	106	-45
-21	28	-36
69	-127	-38
107	-307	-48
74	-444	-53
0	-497	-11
-74	-460	24
-103	-355	79
-77	-216	126
-4	-69	112
98	59	46
209	143	-34
314	161	-108
395	104	-169
401	1	-130
287	-92	-52
36	-114	-19
-333	-40	-1
-708	97	-14
-950	225	-15
-942	262	11
-652	187	2
-170	36	-14
314	-87	-10
612	-97	-11
591	26	-20
287	218	-22
-142	359	-29
-495	352	-8
-619	178	32
-497	-82	47
-232	-301	36
31	-373	-1
183	-272	-48
208	-70	-90
165	119	-113
128	206	-98
140	164	-62
181	44	-49
204	-74	-56
175	-129	-43
111	-117	-5
54	-68	30
47	-25	77
92	-8	114
142	-2	99
150	13	38
84	47	-18
-28	80	-63
-130	83	-98
-163	40	-58
-109	-37	9
0	-105	0
107	-125	-94
167	-79	-151
161	8	-130
110	94	-83
49	138	-19
3	131	11
-28	93	-7
-52	55	-44
-71	49	-47
-76	76	-40
-48	117	-47
10	143	-30
77	130	-16
111	75	-6
79	-16	-8
-27	-118	-9
-161	-210	-4
-260	-264	16
-273	-279	49
-174	-249	56
4	-186	37
206	-104	21
373	-18	-19
461	63	-63
446	138	-75
328	202	-79
130	237	-59
-112	215	-60
-341	123	-60
-503	-39	-42
-549	-234	-18
-481	-388	-6
-361	-441	-32
-263	-368	-42
-249	-199	-36
-297	-13	-27
-332	114	12
-250	140	92
-10	92	134
341	33	99
677	35	12
837	127	-84
753	275	-169
454	406	-200
71	438	-108
-256	340	35
-442	122	91
-489	-149	53
-452	-389	-21
-383	-535	-135
-299	-555	-154
-174	-460	-87
5	-296	-35
215	-111	-31
399	40	-24
474	129	35
417	152	32
262	139	13
92	127	-11
-14	149	-35
-25	205	-19
20	265	-11
59	288	4
44	240	28
-30	124	38
-126	-16	20
-195	-119	-14
-210	-144	-41
-182	-94	-60
-136	-5	-100
-93	67	-93
-53	88	-32
-1	57	24
76	12	39
169	-9	15
245	16	-12
280	77	-41
251	136	-63
167	162	-65
52	131	-48
-66	51	-42
-164	-54	-37
-226	-167	-25
-241	-254	-11
-191	-301	-1
-84	-280	2
63	-186	1
205	-27	-14
279	164	-38
252	325	-32
137	401	-11
-8	362	24
-107	230	83
-116	66	109
-43	-52	54
46	-79	-36
79	-20	-103
16	70	-184
-126	112	-235
-279	50	-164
-361	-123	-29
-333	-359	57
-195	-570	42
2	-684	-6
207	-648	-41
383	-482	-56
484	-245	-59
493	-11	-40
373	144	4
116	194	19
-245	145	13
-611	53	-8
-872	-26	-46
-904	-53	-63
-684	-23	-46
-300	36	-11
110	92	29
373	106	74
428	85	76
299	43	51
107	11	8
-21	12	-53
-31	41	-98
47	86	-112
128	123	-77
143	150	8
76	159	91
-25	165	103
-95	171	48
-97	174	-5
-52	166	-74
-8	136	-144
-7	89	-133
-47	26	-66
-82	-34	-20
-56	-84	-42
44	-114	-91
195	-119	-98
333	-96	-57
403	-41	-7
391	43	9
328	140	4
256	230	-20
203	275	-27
159	257	-20
89	166	1
-28	22	41
-181	-140	64
-325	-275	58
-407	-346	-4
-383	-337	-80
-277	-260	-126
-136	-152	-92
-21	-53	13
29	0	38
23	1	7
-8	-33	3
-19	-71	-41
10	-86	-74
68	-65	-68
118	-24	-36
120	14	-5
61	31	2
-40	29	8
-129	16	-18
-159	4	-27
-92	-8	-20
63	-27	17
254	-60	29
414	-96	-11
478	-106	-48
425	-62	-78
272	36	-81
79	155	-96
-103	237	-66
-232	231	12
-316	127	52
-388	-23	29
-472	-150	12
-564	-192	3
-622	-147	-43
-589	-54	-65
-443	15	-51
-193	17	-43
83	-34	-48
299	-88	-46
385	-87	-48
344	-12	-30
227	103	0
115	201	26
69	238	65
111	221	113
223	186	155
355	179	91
462	207	-31
503	237	-97
439	214	-201
251	106	-241
-51	-66	-128
-418	-251	9
-743	-378	33
-904	-413	-38
-840	-368	-64
-549	-282	-130
-139	-203	-151
240	-136	-55
475	-70	30
523	11	57
433	103	68
309	182	62
219	215	-4
184	196	-51
164	142	-70
111	93	-68
11	84	-33
-96	112	0
-159	143	-4
-153	138	-19
-101	72	-25
-57	-36	-30
-69	-147	-13
-135	-207	4
-197	-198	-2
-203	-127	-3
-133	-31	-15
-28	42	-26
36	68	-25
14	35	-9
-85	-42	28
-177	-138	62
-177	-218	77
-40	-253	51
184	-228	-3
382	-147	-52
436	-44	-88
300	43	-89
18	83	-51
-280	63	-30
-469	10	-18
-474	-36	9
-307	-38	4
-48	13	-40
198	101	-62
365	185	-75
421	230	-124
387	223	-145
291	166	-88
175	82	5
63	-13	22
-29	-105	-8
-94	-179	-11
-135	-224	-13
-168	-219	4
-216	-159	11
-280	-52	7
-336	67	1
-336	162	-12
-236	199	-10
-35	181	-6
209	133	3
404	91	17
462	75	22
355	77	0
143	68	-27
-69	24	-24
-183	-58	-36
-159	-147	-44
-44	-192	5
72	-164	64
111	-64	51
57	56	-44
-42	139	-115
-113	138	-185
-98	59	-211
-5	-53	-136
115	-127	-59
189	-117	-28
172	-15	-44
64	130	-25
-93	249	6
-241	282	20
-336	211	-1
-353	68	-30
-300	-92	-16
-201	-208	11
-87	-248	47
21	-211	71
101	-128	151
148	-41	246
170	14	249
175	19	124
179	-22	-61
178	-85	-242
170	-136	-389
145	-145	-376
105	-103	-207
62	-26	-21
32	45	37
24	72	13
29	32	3
28	-57	-22
2	-151	-40
-50	-198	-24
-108	-173	3
-147	-92	16
-142	-3	-10
-109	48	-25
-74	49	-3
-77	27	7
-126	24	0
-195	72	-1
-239	160	-5
-208	231	0
-102	229	24
34	131	37
135	-29	23
144	-178	28
59	-236	40
-69	-178	20
-166	-41	-22
-165	101	-66
-53	174	-111
131	163	-147
323	95	-123
454	39	-57
478	44	3
386	113	59
172	196	72
-122	229	39
-443	174	-11
-692	43	-57
-770	-110	-66
-619	-229	-81
-269	-273	-77
159	-249	-26
490	-191	-20
595	-131	-43
455	-88	-60
180	-46	-60
-51	9	-26
-110	88	38
23	178	111
238	247	81
378	275	3
346	250	-68
159	187	-154
-68	101	-176
-210	12	-90
-213	-69	12
-120	-139	0
-38	-187	-37
-38	-206	-11
-112	-183	29
-165	-127	91
-101	-54	130
113	13	112
405	60	44
636	91	-56
695	116	-161
536	145	-222
212	171	-182
-170	163	-64
-526	96	38
-787	-39	87
-929	-219	83
-937	-393	29
-796	-509	-22
-508	-533	-93
-119	-460	-161
276	-322	-159
565	-143	-74
655	42	-20
561	215	-19
366	353	2
198	421	-4
126	388	4
137	253	8
152	45	17
89	-166	29
-63	-307	22
-244	-322	27
-344	-217	21
-308	-46	16
-159	110	-6
7	195	-46
83	195	-72
32	143	-71
-106	93	-59
-233	75	-64
-271	83	-34
-211	88	-5
-105	54	-2
-26	-19	15
-2	-104	29
-11	-154	9
5	-134	-23
81	-46	-32
200	74	-88
300	174	-142
314	223	-104
216	204	-1
44	134	22
-123	41	8
-214	-56	38
-187	-140	2
-53	-201	-23
142	-219	-37
325	-181	-47
428	-84	-24
410	54	7
253	183	52
3	257	48
-260	243	2
-435	155	-44
-439	37	-95
-280	-53	-108
-49	-84	-56
113	-60	13
93	-14	43
-113	15	30
-400	16	9
-589	6	-32
-542	17	-72
-245	71	-78
193	155	-40
569	225	-17
743	233	-17
665	153	-2
409	4	4
124	-163	-8
-71	-281	-7
-141	-322	11
-115	-286	-4
-63	-216	-32
-32	-161	-75
-34	-154	-120
-54	-192	-106
-83	-249	-60
-121	-286	-36
-174	-270	-13
-231	-206	13
-255	-113	48
-215	-22	43
-110	45	-14
23	85	-75
124	108	-119
160	128	-102
142	150	-40
130	161	8
169	148	-10
261	98	-4
339	23	30
325	-47	89
179	-78	130
-52	-48	92
-256	35	26
-336	139	-78
-266	223	-151
-122	257	-190
-25	241	-169
-59	200	-84
-214	154	-20
-380	119	-8
-439	84	-11
-336	28	11
-122	-56	16
78	-153	6
161	-222	-2
103	-230	-8
-19	-167	-11
-93	-64	-11
-46	24	-26
104	56	-33
270	20	-32
363	-44	-28
346	-86	-17
254	-65	-6
164	14	12
129	106	33
151	151	43
180	117	48
164	26	63
89	-60	71
-8	-80	41
-69	4	-16
-54	162	-69
29	327	-120
131	418	-164
194	394	-187
175	252	-131
77	47	-35
-76	-152	10
-239	-292	44
-380	-352	96
-459	-345	78
-472	-304	1
-399	-274	-52
-258	-280	-114
-88	-321	-166
65	-368	-128
163	-368	-32
195	-280	26
188	-94	26
194	155	-12
251	386	-64
346	516	-75
436	488	-71
439	318	-56
317	74	-36
74	-142	-28
-223	-258	-12
-481	-253	-11
-623	-167	-10
-624	-65	-7
-518	-6	0
-372	-4	14
-234	-33	19
-120	-58	6
-15	-57	9
101	-29	26
218	2	31
292	15	29
263	3	13
104	-16	-16
-140	-18	-62
-371	15	-88
-454	84	-67
-321	171	-17
-10	248	19
351	286	4
583	264	-15
581	181	-49
354	51	-56
32	-86	-15
-215	-190	4
-274	-225	-19
-149	-178	-65
57	-71	-89
209	45	-77
239	118	-16
172	119	100
96	54	196
83	-31	192
135	-92	80
183	-92	-66
143	-45	-207
-7	12	-332
-212	37	-323
-360	11	-159
-361	-50	-23
-221	-111	8
-19	-129	18
130	-95	13
159	-25	16
89	47	35
-3	90	11
-28	98	11
49	82	10
204	67	18
373	77	38
498	114	40
544	174	24
484	244	-2
302	299	-20
9	319	-62
-375	274	-56
-745	154	-72
-976	-41	-75
-954	-265	-47
-675	-460	-42
-246	-555	-16
135	-507	-10
300	-346	-16
196	-144	-13
-76	3	25
-318	43	65
-370	-15	37
-182	-105	-24
139	-141	-48
431	-81	-97
565	48	-162
512	158	-153
363	160	-46
208	20	55
104	-205	42
14	-402	17
-121	-459	2
-336	-326	-19
-561	-64	-15
-676	219	22
-589	405	56
-289	434	42
103	332	5
417	178	-58
529	57	-107
413	5	-114
179	8	-82
-30	19	-22
-106	3	3
-44	-42	8
77	-92	16
154	-107	15
132	-80	20
36	-21	21
-54	40	2
-65	85	-30
19	114	-55
158	137	-78
275	168	-89
324	198	-74
288	208	-36
206	182	-32
116	120	-17
44	41	4
-18	-23	-34
-94	-60	-40
-195	-72	-32
-310	-80	-37
-394	-95	-32
-424	-116	-10
-375	-117	7
-260	-76	16
-118	23	0
20	150	-32
131	265	-63
206	319	-89
251	283	-51
268	168	4
257	3	46
211	-163	71
132	-292	93
27	-358	70
-77	-352	6
-157	-278	-12
-195	-162	-34
-190	-41	-104
-155	36	-128
-98	29	-59
-29	-64	-59
51	-205	-139
139	-309	-128
214	-294	-42
245	-126	-4
192	153	-38
46	418	-52
-169	533	-55
-377	401	-32
-496	45	9
-481	-398	11
-328	-752	13
-100	-851	16
129	-660	24
302	-263	-5
405	168	-30
436	461	-31
414	538	-30
325	427	-30
154	244	-23
-93	105	8
-375	71	34
-595	112	111
-654	147	136
-524	109	72
-245	-11	-6
57	-151	-108
250	-231	-186
266	-194	-180
139	-57	-85
-30	105	6
-130	214	11
-115	227	-10
-10	165	-24
110	87	-44
181	49	-72
199	66	-57
196	108	-4
219	130	13
273	106	22
313	52	8
269	-1	-12
117	-26	-35
-109	-28	-72
-321	-41	-66
-410	-90	-21
-333	-171	17
-124	-238	28
125	-242	43
311	-157	68
381	-10	48
342	124	-17
261	191	-63
198	171	-109
181	112	-134
191	75	-67
170	103	11
74	181	26
-116	241	-44
-358	211	-100
-588	60	-81
-724	-176	-46
-714	-418	-23
-563	-573	-9
-307	-596	5
-25	-492	-9
202	-306	12
335	-94	90
384	98	143
402	244	94
436	342	-16
498	382	-98
539	359	-197
470	290	-238
230	186	-143
-157	68	-39
-595	-45	-15
-909	-157	-31
-979	-268	-30
-794	-379	-32
-448	-466	-27
-113	-497	-34
84	-435	-30
119	-278	-7
68	-57	18
56	168	57
148	336	51
320	422	27
465	433	12
481	402	-6
344	362	-16
128	318	5
-46	260	22
-99	158	-4
-31	6	-45
68	-180	-65
104	-344	-65
40	-434	-29
-66	-416	36
-104	-288	75
5	-97	56
248	98	3
506	240	-50
614	295	-127
467	265	-178
67	180	-122
-442	78	-16
-850	-13	2
-1006	-77	-14
-856	-119	11
-491	-151	-7
-83	-179	-19
204	-204	-42
275	-210	-65
163	-184	-45
-3	-116	-38
-90	-14	-20
-11	99	-9
205	197	-2
457	255	3
619	271	11
613	250	2
466	213	-30
261	170	-54
102	123	-53
32	61	-20
19	-32	6
-16	-152	5
-137	-276	-9
-343	-357	-2
-561	-355	-6
-676	-254	9
-630	-72	32
-426	122	16
-154	270	-4
69	324	-19
178	282	-56
175	179	-97
132	71	-75
116	-9	-37
159	-58	-47
228	-97	-105
260	-149	-143
210	-215	-92
86	-269	-8
-60	-273	37
-166	-200	99
-194	-70	166
-163	74	101
-107	168	-30
-58	171	-120
-18	80	-230
36	-64	-251
111	-203	-90
189	-277	58
224	-254	81
184	-151	80
82	-2	72
-32	137	61
-98	225	29
-87	238	-44
-30	185	-82
3	98	-116
-40	19	-107
-159	-19	-71
-279	-9	-61
-325	31	-63
-253	68	-51
-99	72	-17
48	39	1
115	-15	16
85	-51	0
20	-47	-10
8	-2	-5
99	56	4
265	84	-6
411	59	-2
454	-13	22
368	-89	16
210	-124	13
78	-98	8
32	-17	2
60	74	13
72	135	19
-19	143	-4
-245	114	-12
-523	75	1
-719	49	-6
-720	44	-23
-509	38	-26
-175	10	-44
139	-47	-78
322	-107	-96
330	-139	-92
222	-122	-61
89	-59	-33
-6	11	-31
-48	49	-47
-65	34	-45
-83	-26	-54
-86	-100	-30
-34	-152	17
93	-160	21
269	-131	-9
407	-84	-42
417	-36	-33
262	3	-20
-6	35	20
-262	62	72
-383	86	69
-328	95	40
-142	84	10
51	51	-69
149	8	-147
111	-42	-137
-7	-88	-72
-113	-120	-39
-136	-126	-37
-64	-90	12
57	2	26
172	150	7
252	319	-17
300	451	-41
336	490	-3
346	395	-2
300	180	-62
135	-100	-125
-152	-364	-111
-496	-554	-82
-773	-636	-51
-853	-616	51
-692	-525	132
-345	-391	120
43	-235	34
322	-71	-54
407	83	-178
314	203	-240
139	269	-160
-10	272	-30
-60	229	42
-13	171	53
82	129	64
165	110	30
200	98	3
179	76	-21
116	28	-40
27	-25	-13
-75	-56	34
-161	-47	65
-198	4	32
-160	63	-34
-37	98	-105
122	85	-164
244	40	-107
258	2	40
137	4	112
-66	53	72
-262	121	12
-354	160	-35
-312	131	-83
-177	41	-71
-32	-68	-57
51	-144	-39
65	-145	-21
57	-74	-25
93	35	-8
196	130	-2
326	174	-9
403	168	0
360	127	22
194	86	38
-28	58	29
-212	41	-21
-281	15	-63
-231	-33	-109
-110	-102	-134
18	-169	-99
104	-206	-55
151	-200	-8
170	-158	24
159	-104	30
92	-56	13
-65	-31	6
-307	-19	-5
-556	2	-20
-699	39	-27
-639	93	-35
-357	137	-36
52	141	-52
428	80	-51
628	-50	-40
596	-215	-28
394	-371	-2
155	-457	11
-3	-449	47
-34	-349	62
-1	-192	30
12	-35	-25
-58	86	-91
-190	150	-142
-304	171	-129
-319	170	-16
-210	171	61
-39	183	41
104	185	-6
148	159	-64
87	99	-140
-12	24	-168
-70	-38	-117
-48	-59	-24
25	-40	19
86	-2	22
78	18	30
-6	-2	37
-113	-51	44
-172	-94	16
-132	-87	-24
-11	-8	-52
132	119	-42
236	252	-13
254	332	8
203	329	10
125	251	3
65	137	-24
44	30	-39
56	-44	-9
79	-85	3
99	-108	0
109	-127	-12
106	-145	-12
72	-153	-20
-13	-140	-45
-162	-110	-59
-354	-77	-46
-526	-56	-28
-602	-49	-22
-526	-47	-28
-308	-32	-37
-32	5	-38
191	51	-33
283	81	-15
245	72	7
150	33	40
104	-16	30
171	-40	14
338	-25	28
506	6	6
575	22	-47
475	-8	-66
212	-75	-48
-113	-131	-69
-392	-125	-94
-540	-23	-89
-521	145	-54
-371	311	-17
-152	390	-17
61	345	-20
205	198	16
252	22	70
200	-109	68
75	-170	11
-81	-178	-61
-222	-199	-121
-319	-264	-165
-355	-370	-114
-333	-452	-33
-253	-437	-33
-110	-298	-34
85	-65	18
299	170	82
457	313	67
481	316	12
322	193	-55
10	20	-115
-347	-122	-110
-594	-182	-93
-636	-163	-51
-472	-108	-13
-201	-62	-19
27	-46	-7
126	-43	22
93	-26	42
23	29	46
19	116	37
128	203	13
306	258	-26
450	257	-50
476	215	-36
373	155	-21
221	112	-17
101	97	-25
62	103	-21
80	106	18
72	84	57
-15	23	74
-183	-64	53
-350	-159	-1
-411	-231	-93
-315	-254	-173
-90	-222	-185
163	-135	-119
335	-20	-30
373	89	44
301	160	86
182	170	24
86	125	-33
29	49	-82
-7	-17	-171
-63	-44	-168
-156	-21	-65
-248	40	46
-291	104	55
-248	136	31
-123	126	8
27	77	-13
140	11	1
180	-50	2
151	-94	7
88	-124	1
29	-145	14
-13	-162	51
-56	-168	68
-112	-153	45
-181	-111	-2
-222	-39	-41
-190	49	-92
-66	139	-103
115	215	-90
280	254	-85
341	238	-91
249	151	-68
30	0	-42
-232	-181	-39
-422	-333	-43
-469	-388	-42
-363	-315	-16
-167	-139	-7
23	53	14
132	157	46
135	100	47
61	-104	16
-28	-358	-27
-80	-527	-64
-74	-509	-106
-35	-296	-91
-8	21	-32
-21	301	-5
-64	434	5
-100	392	29
-74	241	34
31	99	25
182	48	-1
302	104	-16
330	205	-13
228	257	-13
44	202	-21
-123	46	-38
-187	-138	-42
-106	-268	-51
69	-283	-45
234	-190	-43
288	-46	-52
189	76	-42
-14	121	-31
-223	91	-5
-333	22	26
-308	-30	57
-180	-28	48
-27	29	-2
78	115	-46
111	182	-91
98	198	-113
85	159	-45
100	84	26
130	7	15
145	-44	-32
107	-60	-72
23	-54	-106
-87	-41	-79
-179	-40	-2
-214	-50	33
-183	-62	19
-92	-59	14
36	-27	7
179	39	-21
302	128	-23
386	213	-48
385	268	-67
292	268	-25
126	199	16
-67	74	13
-215	-83	-18
-275	-233	-47
-242	-339	-64
-161	-379	-44
-97	-351	-3
-89	-270	16
-133	-165	21
-176	-62	32
-165	16	29
-79	62	-16
46	75	-65
143	60	-117
152	32	-156
66	9	-133
-59	4	-64
-152	23	-5
-156	49	74
-80	45	113
18	-16	59
63	-142	-6
14	-292	-55
-104	-401	-96
-217	-390	-113
-256	-230	-21
-186	39	82
-33	321	94
132	502	53
261	513	-24
334	357	-130
380	121	-219
435	-86	-219
506	-182	-143
547	-153	-67
461	-49	-38
189	54	-2
-262	98	6
-758	72	3
-1123	2	50
-1210	-69	94
-973	-120	119
-497	-149	116
28	-167	74
431	-177	9
592	-160	-45
530	-94	-62
361	28	-46
210	183	-14
141	319	-2
135	379	-22
120	333	-46
41	195	-51
-88	16	-44
-208	-144	-61
-248	-244	-68
-185	-272	-36
-58	-238	0
57	-164	5
107	-71	-11
93	22	-36
61	96	-63
82	131	-69
175	112	-42
317	43	-1
436	-43	15
470	-105	16
386	-108	29
192	-53	29
-62	29	17
-330	82	4
-547	70	-11
-676	-1	-29
-689	-87	-30
-574	-125	-30
-366	-87	-24
-109	23	-31
125	150	-67
277	236	-109
328	243	-114
306	176	-54
263	79	-12
248	-7	-15
268	-52	-19
299	-59	-30
291	-46	-43
215	-33	-53
74	-23	-64
-98	-13	-44
-235	3	-2
-290	26	22
-248	47	54
-121	59	95
35	55	65
167	39	-17
225	13	-75
184	-26	-106
60	-80	-134
-100	-149	-88
-227	-218	9
-260	-268	40
-172	-274	26
14	-223	33
238	-133	30
419	-35	-14
502	33	-76
462	51	-98
306	25	-63
68	-21	-48
-223	-52	-42
-521	-48	-62
-764	-6	-70
-880	52	-43
-812	106	-16
-535	139	10
-111	152	42
324	149	77
614	134	54
644	105	12
436	55	-42
117	-19	-96
-140	-106	-100
-211	-183	-56
-106	-218	-8
56	-198	5
118	-129	6
11	-38	6
-213	37	3
-406	79	-13
-416	82	-35
-212	75	-67
111	80	-88
381	110	-63
451	159	-18
313	201	20
63	210	49
-129	177	100
-162	114	175
-26	45	189
194	-10	134
373	-43	31
435	-60	-141
361	-69	-306
188	-75	-394
-35	-63	-318
-259	-30	-138
-453	26	-13
-555	84	13
-522	114	-3
-339	96	-4
-50	30	-21
229	-54	-16
383	-127	-5
338	-166	12
125	-168	40
-136	-158	45
-315	-157	45
-332	-167	42
-212	-171	34
-50	-145	6
52	-72	-11
62	22	-38
22	100	-52
16	117	-47
99	63	-54
252	-31	-28
391	-115	5
422	-139	9
306	-95	20
88	-17	30
-128	43	5
-231	54	-25
-162	22	-42
34	-11	-42
245	8	-70
344	97	-96
231	222	-69
-83	322	-49
-497	331	-45
-850	237	-38
-991	68	-16
-864	-97	-4
-511	-200	21
-82	-218	78
266	-175	89
433	-124	24
416	-106	-44
294	-126	-93
172	-152	-109
118	-142	-75
121	-80	-24
120	23	37
58	114	42
-60	153	-24
-178	115	-94
-217	26	-141
-138	-66	-113
31	-118	-36
207	-105	-21
306	-43	-39
302	34	-31
223	89	-33
138	103	-7
105	75	14
125	24	36
162	-21	54
156	-45	38
87	-39	22
-28	-11	-2
-133	32	-16
-186	74	-12
-169	101	-38
-99	117	-70
-10	120	-56
67	120	-36
119	123	-30
141	126	-12
128	123	-5
67	106	-12
-39	78	-5
-170	40	-10
-281	10	-13
-336	-11	16
-308	-30	19
-215	-68	28
-110	-145	41
-34	-259	8
-14	-382	-52
-23	-459	-120
-21	-437	-140
25	-296	-145
111	-64	-155
201	181	-93
252	351	-7
237	384	26
176	275	35
105	89	22
50	-79	9
20	-153	4
-12	-106	-15
-64	23	-11
-133	154	-33
-170	214	-46
-130	170	-40
6	44	-34
189	-109	-10
324	-232	-2
321	-286	4
143	-278	-8
-143	-222	-19
-416	-134	-20
-549	-36	-9
-481	60	10
-264	133	16
-21	160	36
135	119	56
154	26	31
83	-74	-44
26	-121	-117
58	-70	-155
178	71	-132
300	250	-53
313	372	14
159	382	-13
-111	269	-70
-371	82	-36
-486	-103	-18
-392	-233	-2
-150	-287	24
119	-297	29
276	-292	22
268	-288	-22
139	-270	-51
-7	-207	-76
-68	-97	-65
-18	37	-34
106	145	3
223	192	24
266	174	0
226	132	-26
132	112	-59
36	141	-45
-29	208	-16
-56	266	-17
-61	277	-23
-63	233	-11
-69	160	12
-93	96	9
-132	60	6
-190	35	-9
-253	-16	-32
-297	-116	-39
-285	-243	-43
-195	-341	0
-43	-348	24
132	-251	26
262	-93	62
309	42	37
270	92	-23
190	47	-63
120	-34	-95
87	-69	-144
83	-17	-137
70	104	-36
33	207	30
-23	217	15
-55	106	-18
-23	-70	-28
74	-212	-62
193	-238	-92
253	-137	-97
191	18	-76
3	127	-44
-262	121	-36
-515	2	-38
-668	-157	-22
-676	-265	2
-540	-274	8
-300	-191	22
-13	-75	12
259	12	-3
439	32	-10
474	-1	-15
346	-58	1
93	-106	10
-185	-129	11
-371	-121	11
-379	-85	22
-206	-13	19
64	93	-6
309	214	-29
429	317	-33
407	357	-28
300	313	-30
203	206	-29
172	72	-30
200	-30	-34
209	-83	-37
126	-86	-27
-62	-74	2
-303	-69	14
-491	-78	29
-547	-80	28
-443	-51	-11
-233	5	-24
-2	75	-59
171	123	-75
244	131	-63
239	109	-64
186	82	-65
129	77	-107
86	100	-158
55	128	-133
41	131	-36
44	91	53
79	22	156
153	-40	248
258	-59	259
352	-21	176
373	59	26
258	141	-149
-13	177	-320
-387	141	-359
-750	35	-255
-950	-117	-103
-886	-278	-11
-567	-407	7
-118	-470	35
262	-456	40
422	-373	9
330	-257	-22
92	-150	-50
-100	-90	-64
-97	-87	-70
122	-117	-34
432	-134	0
648	-90	11
636	26	18
389	183	1
24	319	-28
-291	365	-34
-459	298	-23
-480	138	-16
-412	-36	-4
-345	-160	-22
-295	-188	-28
-226	-134	-24
-86	-44	-12
125	26	4
346	51	-3
470	50	8
423	62	23
219	115	9
-45	204	-7
-237	283	-2
-279	299	0
-170	217	8
11	64	10
155	-102	8
195	-209	-7
125	-218	-40
-2	-145	-59
-121	-44	-71
-191	25	-64
-204	35	-51
-182	-2	-30
-153	-40	-22
-121	-44	10
-76	-9	84
-1	39	136
102	58	120
214	36	35
296	-11	-70
314	-36	-201
258	-7	-283
140	80	-226
-2	186	-79
-120	253	-16
-178	240	5
-156	131	65
-68	-25	68
40	-179	30
124	-274	-8
138	-290	-41
81	-241	-71
-22	-160	-68
-112	-85	-46
-139	-37	-26
-89	-19	-22
18	-14	-44
122	2	-28
180	37	-15
172	93	-9
130	150	-6
109	187	-8
141	182	16
226	135	13
299	62	-22
284	-11	-51
136	-57	-57
-135	-71	-38
-451	-66	-34
-695	-67	-20
-781	-99	-4
-680	-161	-5
-428	-233	-20
-117	-275	-37
179	-259	-30
400	-175	-16
529	-48	46
578	76	105
549	160	96
429	185	34
206	165	-51
-116	124	-140
-480	87	-196
-779	51	-157
-921	0	-50
-856	-80	21
-600	-178	54
-253	-249	84
64	-242	78
259	-127	85
302	68	52
253	273	-53
188	399	-120
179	391	-165
234	258	-190
318	64	-170
363	-98	-80
326	-181	22
212	-186	18
57	-160	15
-79	-153	36
-153	-175	9
-158	-203	-13
-114	-183	-24
-57	-93	-9
-16	43	6
-1	171	-1
-7	232	1
-21	207	10
-24	126	10
-12	52	-9
23	26	-30
72	48	-37
127	84	-33
180	85	-36
211	29	-34
219	-66	-27
196	-154	-6
150	-192	7
85	-165	-4
16	-89	6
-44	4	2
-76	91	-18
-66	165	-66
-13	236	-127
78	307	-110
172	369	-61
238	393	-40
234	350	-34
148	241	-34
-8	82	-34
-194	-90	-26
-357	-238	-14
-448	-347	2
-445	-413	38
-360	-439	25
-228	-426	-19
-89	-362	-51
19	-251	-75
90	-106	-50
124	29	-5
138	104	41
141	88	76
132	-7	100
101	-126	110
40	-195	65
-32	-163	-18
-92	-38	-109
-109	123	-181
-86	248	-194
-49	279	-131
-53	219	-24
-135	112	10
-276	14	5
-412	-41	24
-446	-62	-1
-329	-85	-38
-88	-127	-53
172	-185	-57
328	-222	-62
317	-190	-61
165	-85	-51
-3	61	-37
-69	180	-11
13	215	-1
187	151	-3
321	29	7
314	-82	15
147	-128	14
-89	-95	47
-262	-8	103
-285	81	115
-159	135	63
26	150	6
166	141	-88
211	135	-185
178	138	-183
128	137	-104
105	110	-46
99	51	-58
72	-33	-37
-10	-107	-10
-130	-144	-8
-228	-127	12
-237	-74	32
-142	-12	35
4	28	16
121	34	-7
156	21	-71
118	12	-111
75	32	-88
87	85	-15
166	154	57
253	207	104
273	215	116
187	168	18
33	72	-82
-94	-38	-143
-117	-137	-173
-39	-204	-136
52	-243	-43
45	-263	43
-114	-270	16
-360	-261	-24
-552	-211	-53
-546	-103	-64
-310	62	4
46	253	56
350	406	53
431	461	29
262	382	-19
-47	185	-46
-337	-83	-50
-459	-341	-47
-399	-519	-28
-223	-582	-30
-43	-527	-33
68	-384	-39
119	-202	-38
154	-26	-13
215	108	4
292	188	-8
359	214	-35
386	210	-31
373	197	-34
355	195	-31
341	199	1
292	191	26
147	145	30
-133	51	-7
-516	-76	-43
-856	-199	-57
-999	-275	-54
-856	-282	-42
-472	-235	-36
-14	-162	-33
320	-105	-44
415	-74	-46
288	-53	-44
77	-11	-54
-61	71	-52
-46	175	-13
91	261	37
239	282	70
302	225	78
251	116	43
139	11	-17
54	-43	-72
42	-36	-81
87	11	-52
127	51	16
111	59	91
41	34	111
-37	9	21
-65	12	-143
-26	49	-249
51	103	-236
111	131	-154
113	119	-48
64	70	72
2	22	119
-35	5	85
-48	31	21
-68	83	-43
-137	119	-52
-253	106	-47
-372	40	-37
-419	-50	-10
-345	-127	-24
-172	-165	-83
33	-157	-124
172	-125	-95
198	-100	-25
125	-96	7
27	-104	20
-16	-101	20
28	-65	18
132	9	24
226	98	17
242	161	8
166	157	-3
26	68	-1
-113	-86	3
-200	-257	20
-214	-373	30
-168	-384	21
-91	-273	-3
-12	-77	-47
52	134	-54
100	273	-39
132	287	-34
159	181	-34
183	8	-30
221	-144	-32
273	-208	-31
340	-160	-23
389	-38	-40
373	77	-58
261	120	-80
31	58	-85
-279	-76	-74
-599	-216	-62
-848	-288	-30
-952	-254	-2
-886	-133	44
-669	25	95
-363	157	118
-48	227	97
210	236	26
371	212	-66
429	191	-178
401	179	-230
333	165	-168
259	120	-64
203	31	-28
160	-93	-3
107	-210	65
27	-272	105
-80	-251	97
-180	-151	34
-231	-14	-33
-189	106	-81
-60	168	-113
111	165	-93
262	120	-43
328	72	-14
292	53	-20
186	62	8
63	85	43
-25	97	55
-62	80	30
-67	40	-32
-76	-4	-69
-107	-28	-107
-155	-24	-128
-191	-1	-122
-187	26	-75
-126	35	-23
-25	25	5
91	-1	9
187	-24	20
242	-30	38
255	-3	28
228	53	53
170	126	39
94	190	-8
12	211	-24
-55	169	-32
-101	53	-43
-119	-111	-72
-120	-278	-90
-112	-400	-63
-103	-432	-33
-82	-373	0
-36	-246	12
40	-93	-19
132	56	-24
204	181	-27
211	274	-21
143	327	2
33	317	5
-53	225	-43
-57	47	-89
29	-170	-56
143	-359	-22
180	-456	-16
46	-432	-20
-259	-332	12
-643	-233	59
-917	-208	62
-937	-269	10
-647	-355	-50
-136	-381	-89
406	-273	-142
783	-51	-130
889	206	-55
732	392	-20
433	438	-30
128	353	-8
-103	215	22
-260	110	50
-392	86	119
-539	128	158
-668	180	120
-712	189	27
-603	141	-65
-333	62	-157
8	-4	-208
299	-28	-166
439	-8	-92
414	37	-47
294	88	1
188	137	53
172	183	52
251	214	18
346	217	-16
388	174	-80
320	86	-125
167	-27	-121
-6	-122	-71
-133	-171	-13
-193	-162	24
-199	-123	41
-189	-86	30
-178	-69	4
-159	-67	-13
-106	-53	-37
-11	-4	-58
105	74	-43
196	141	-19
225	165	-14
188	120	-4
115	30	34
53	-61	49
31	-113	25
43	-110	4
64	-67	-19
63	-13	-30
37	38	-5
-4	89	22
-38	154	24
-60	233	-32
-71	301	-109
-67	308	-136
-27	222	-124
83	48	-107
270	-162	-60
476	-326	-6
583	-391	19
461	-355	59
54	-280	93
-538	-243	57
-1101	-291	-25
-1276	-410	-79
-1168	-517	-141
-909	-527	-162
-292	-394	-77
269	-164	12
590	76	22
653	222	-5
575	230	-4
505	143	-4
498	54	-3
505	55	6
419	159	13
192	305	6
-104	395	-15
-333	342	-31
-371	162	-54
-230	-65	-62
-55	-218	-68
-19	-223	-81
-203	-93	-70
-513	80	-53
-742	181	-35
-700	154	-5
-357	18	19
139	-126	35
554	-184	46
701	-107	61
568	68	43
288	259	3
50	372	-10
-39	370	-24
-10	268	-27
24	125	19
-26	-4	72
-141	-93	79
-212	-144	52
-133	-171	11
103	-183	2
373	-175	-59
498	-140	-179
374	-85	-213
46	-23	-196
-319	19	-241
-525	35	-223
-474	29	-98
-231	16	9
34	7	44
163	-4	34
102	-25	43
-57	-70	34
-156	-131	30
-83	-186	45
147	-207	61
396	-183	69
498	-122	41
361	-41	32
32	41	13
-328	123	-23
-550	202	-64
-526	269	-81
-289	305	-87
22	284	-91
261	197	-41
321	62	-11
214	-59	-3
22	-108	1
-149	-50	-16
-232	88	-4
-219	235	-24
-143	309	-43
-47	260	-49
44	106	-61
131	-85	-36
219	-227	-21
291	-271	-6
326	-228	-6
300	-147	-13
209	-96	-16
81	-105	-23
-36	-166	-18
-101	-228	-14
-97	-243	-8
-44	-194	-18
16	-104	-26
49	-25	-9
44	-8	5
19	-72	24
-3	-190	52
-14	-304	61
-26	-348	45
-71	-282	-7
-173	-115	-63
-317	101	-105
-452	295	-129
-515	401	-100
-450	399	-52
-253	311	20
14	197	74
270	106	80
422	76	36
422	93	-53
283	118	-123
54	112	-187
-181	58	-198
-354	-22	-145
-426	-89	-25
-383	-99	40
-241	-44	10
-37	52	7
172	138	-5
328	168	1
373	120	-8
302	24	-21
132	-72	-1
-60	-126	-4
-199	-120	-3
-231	-72	-10
-140	-28	-10
20	-19	-2
184	-52	3
291	-97	-7
314	-112	-30
269	-68	-52
198	34	-65
136	156	-60
98	244	-40
74	259	5
44	193	63
7	72	85
-36	-57	47
-71	-160	-8
-94	-215	-69
-111	-227	-120
-137	-215	-106
-184	-194	-55
-234	-171	-36
-262	-142	-21
-234	-104	-18
-133	-50	-47
24	15	-58
201	83	-21
346	137	22
421	163	16
398	145	-10
291	80	-43
135	-23	-72
-10	-129	-35
-83	-204	43
-49	-210	48
77	-137	16
222	-14	-31
279	110	-101
153	182	-90
-177	168	-46
-611	77	-29
-990	-43	-23
-1138	-135	-21
-976	-155	6
-558	-93	10
-45	19	-25
359	130	-45
532	193	-48
484	183	-56
342	112	-42
248	3	-2
275	-98	3
366	-167	-2
403	-183	-5
276	-160	-8
-1	-107	4
-315	-56	15
-504	-21	48
-463	-7	46
-229	-12	-1
78	-17	-25
282	-11	-50
302	12	-67
175	50	-55
14	90	-26
-56	122	-18
-2	136	-23
126	131	-25
221	108	-30
207	68	-35
98	22	-45
-35	-21	-30
-94	-40	-13
-45	-24	-2
66	36	-23
150	132	-55
122	241	-51
-16	325	-34
-199	354	-11
-315	319	18
-290	219	63
-126	87	78
100	-50	27
283	-164	-24
351	-230	-44
299	-244	-71
170	-210	-70
36	-153	-25
-62	-106	10
-130	-104	-38
-195	-164	-99
-277	-269	-144
-370	-374	-133
-432	-408	-71
-419	-322	-11
-312	-115	49
-139	152	26
35	379	-4
151	469	-33
180	374	-70
151	137	-85
111	-158	-55
107	-393	-11
143	-490	-1
181	-434	1
172	-274	-20
100	-94	-44
-14	33	-42
-108	67	-5
-135	23	34
-99	-55	48
-47	-117	38
-54	-114	39
-148	-39	7
-290	90	-43
-390	231	-62
-356	329	-77
-170	345	-65
109	278	-40
351	149	-12
454	16	-12
392	-63	-30
227	-61	-40
80	13	-39
27	114	-27
77	185	-16
157	199	15
181	160	69
111	110	112
-21	92	75
-131	126	6
-158	191	-66
-98	244	-143
-16	244	-162
19	162	-82
-26	20	-20
-113	-147	-5
-165	-289	26
-126	-378	43
-4	-393	53
135	-343	19
212	-244	-48
194	-125	-93
118	-21	-139
63	43	-161
85	54	-100
174	18	7
262	-35	40
269	-68	-11
171	-54	-32
20	6	-32
-91	86	1
-89	149	50
12	155	44
111	98	35
91	-9	-22
-101	-126	-62
-400	-218	-78
-665	-257	-95
-735	-230	-70
-564	-143	-39
-236	-8	-8
75	155	8
204	308	43
107	406	82
-124	403	97
-315	279	68
-310	53	-13
-85	-201	-98
263	-403	-166
552	-473	-157
631	-401	-86
476	-245	-13
183	-102	13
-87	-58	-6
-210	-132	-45
-163	-265	-96
-30	-351	-100
57	-296	-43
4	-90	2
-191	191	16
-431	417	65
-572	489	114
-526	387	87
-280	189	11
67	18	-50
371	-32	-109
508	51	-151
446	191	-84
236	282	13
-3	257	43
-150	127	31
-140	-30	20
-2	-125	24
180	-112	34
311	-16	19
328	89	-12
244	134	-44
107	97	-71
-5	9	-103
-65	-75	-123
-75	-104	-91
-69	-79	-59
-77	-30	-32
-98	-2	-9
-106	-16	-6
-64	-60	-20
25	-103	-48
132	-111	-49
203	-75	-40
192	-9	-15
107	55	22
7	92	38
-36	94	52
10	68	60
116	36	28
196	15	-26
165	10	-42
-5	12	-65
-259	9	-77
-484	-11	-45
-569	-50	-35
-481	-96	-49
-273	-127	-59
-56	-122	-32
70	-74	31
85	1	138
35	74	203
8	109	152
61	96	30
184	43	-111
311	-5	-247
355	-23	-339
283	3	-250
117	45	-71
-63	59	12
-178	6	15
-195	-122	9
-132	-288	12
-51	-423	-5
-11	-466	-27
-35	-394	-36
-105	-241	-14
-170	-61	24
-185	75	56
-126	131	47
-11	114	9
127	63	-35
238	27	-76
279	31	-75
222	78	-38
64	139	2
-162	191	40
-399	208	32
-556	189	-13
-574	138	-46
-420	65	-60
-136	-15	-56
171	-94	-60
387	-142	-56
430	-138	-32
302	-68	-15
103	55	2
-49	189	11
-58	275	8
76	273	-2
262	174	-23
381	25	-33
344	-112	-27
164	-182	-36
-67	-169	-27
-234	-97	-13
-262	-15	-21
-169	41	-23
-32	68	-15
63	94	24
86	143	42
67	221	54
69	298	79
130	325	69
228	268	2
292	126	-84
255	-65	-110
96	-246	-140
-128	-368	-171
-332	-402	-132
-418	-359	-39
-355	-267	5
-188	-153	-6
0	-38	-9
123	67	8
143	157	42
78	227	-2
-20	262	-49
-91	256	-88
-105	190	-129
-69	58	-106
-16	-125	-76
20	-337	-38
25	-519	-9
14	-617	16
16	-577	40
52	-395	36
129	-137	37
206	114	10
234	261	-24
169	257	-31
20	132	-9
-151	-23	0
-248	-104	-28
-193	-57	-53
17	96	-42
292	267	-35
481	358	-35
444	317	-3
131	170	28
-357	0	42
-828	-116	-5
-1079	-141	-71
-999	-108	-111
-639	-68	-128
-168	-67	-75
205	-90	35
346	-87	135
279	-11	150
120	138	90
28	301	14
75	390	-85
221	345	-164
346	181	-162
342	-27	-88
192	-181	-16
-28	-218	-11
-185	-156	0
-195	-59	19
-74	-9	0
87	-44	-14
169	-130	-33
121	-200	-58
-12	-188	-64
-123	-84	-44
-113	72	-9
40	210	11
280	268	32
490	243	70
569	161	101
490	79	76
291	31	-24
58	30	-87
-123	57	-117
-214	83	-154
-213	87	-98
-153	56	15
-77	-9	22
-23	-109	-39
-15	-223	-26
-49	-330	4
-104	-393	-8
-145	-384	-34
-139	-301	-51
-71	-167	-71
32	-31	-80
116	58	-82
125	83	-62
33	61	-4
-132	42	21
-305	63	28
-404	144	21
-392	251	-12
-277	331	-54
-115	335	-79
39	250	-67
166	99	-48
269	-70	-32
373	-210	-9
462	-300	18
488	-333	41
380	-326	49
109	-301	12
-272	-253	-31
-636	-183	-70
-812	-90	-106
-712	16	-100
-347	110	-42
136	168	19
537	171	52
697	128	51
552	51	35
180	-21	-2
-262	-60	-69
-616	-49	-108
-753	15	-97
-651	115	-40
-370	221	24
-7	296	92
302	313	163
474	259	140
473	145	47
325	5	-60
111	-123	-175
-68	-196	-244
-155	-206	-199
-128	-159	-85
-39	-90	-16
52	-30	-3
101	0	-1
104	2	-20
99	-6	-22
117	-5	-21
159	13	-14
184	46	-1
149	84	12
40	117	47
-93	137	65
-168	142	60
-132	125	25
9	81	-10
167	5	-49
241	-95	-87
172	-187	-107
0	-237	-102
-161	-215	-74
-200	-126	-36
-74	9	-1
151	145	8
346	244	23
399	301	21
284	323	4
83	317	-5
-85	282	0
-128	197	25
-58	36	12
36	-191	-12
52	-427	-25
-49	-583	-82
-209	-580	-122
-312	-406	-115
-272	-140	-82
-103	80	-26
76	128	19
116	-23	46
-60	-296	57
-401	-519	54
-726	-548	-10
-856	-322	-83
-691	70	-120
-292	460	-163
149	670	-193
439	634	-145
474	390	-4
291	72	112
49	-180	122
-101	-309	76
-82	-339	16
47	-334	-58
178	-349	-124
222	-368	-110
180	-331	-18
133	-192	40
166	37	27
285	279	-15
405	438	-60
401	445	-78
202	316	-39
-132	138	12
-448	16	31
-582	1	24
-470	68	19
-189	145	15
82	159	12
200	89	13
123	-19	-1
-44	-87	-10
-148	-66	-20
-84	38	-41
122	170	-38
344	253	-27
446	248	-14
369	164	7
178	52	-3
1	-27	-35
-70	-51	-77
-31	-31	-103
34	-5	-82
32	-7	-35
-67	-48	-20
-206	-105	-48
-279	-148	-47
-229	-152	-18
-72	-113	12
92	-45	63
180	34	118
163	113	138
98	184	97
68	244	11
116	279	-102
208	277	-193
258	214	-172
206	93	-64
59	-65	13
-93	-222	4
-151	-319	-6
-91	-322	-40
14	-233	-95
33	-89	-118
-126	41	-138
-442	90	-112
-774	20	-59
-934	-149	26
-814	-352	105
-436	-494	139
50	-516	124
461	-393	44
679	-177	-68
685	48	-176
545	210	-211
346	268	-189
143	238	-99
-51	161	-7
-218	72	33
-318	-14	81
-298	-107	77
-141	-213	26
69	-312	-23
207	-351	-69
135	-288	-75
-158	-123	-57
-539	89	-25
-794	253	41
-740	295	96
-358	205	97
171	61	57
608	-29	4
740	15	-13
553	181	-27
203	372	-70
-85	475	-71
-166	406	-63
-55	188	-64
111	-84	-50
184	-282	-31
113	-339	-8
-25	-261	-7
-95	-120	-9
-19	8	-8
175	85	6
363	115	4
428	131	-15
328	148	-23
143	152	-25
-6	123	-41
-35	55	-58
41	-24	-38
127	-72	-10
128	-68	-22
17	-28	-22
-139	0	8
-243	-27	28
-222	-113	24
-96	-206	-9
38	-232	-22
85	-144	-63
2	31	-121
-158	213	-87
-296	316	-30
-329	290	-26
-244	169	-43
-107	25	-20
-5	-61	17
-1	-63	42
-83	-16	24
-182	23	-13
-223	15	-39
-153	-33	-87
2	-84	-98
181	-89	-75
313	-42	-61
342	21	-60
269	60	-63
122	56	-34
-42	36	-4
-175	40	-2
-236	103	-15
-211	200	-36
-110	268	-40
28	236	-16
155	72	-1
223	-179	-13
203	-433	-15
106	-606	16
-34	-652	52
-162	-590	57
-234	-474	22
-231	-339	-34
-166	-195	-78
-75	-31	-111
12	153	-106
72	325	-54
107	414	2
121	364	20
125	174	14
119	-80	32
91	-274	51
35	-312	36
-43	-166	-5
-119	83	-47
-158	309	-92
-130	399	-101
-41	325	-63
83	150	21
195	-16	99
262	-77	119
280	-17	104
265	106	23
242	204	-74
211	207	-153
148	116	-201
20	-17	-150
-178	-116	-11
-416	-137	72
-605	-83	83
-675	2	77
-594	63	32
-402	68	-50
-191	25	-140
-32	-33	-151
52	-68	-99
92	-57	-67
141	-7	-71
229	58	-61
331	110	-27
381	124	20
334	102	40
196	55	23
27	10	13
-84	-16	-25
-96	-15	-63
-28	0	-77
52	3	-67
76	-24	-40
29	-89	-36
-49	-163	-25
-86	-214	-13
-41	-204	-10
69	-130	13
184	-24	21
234	66	13
199	98	14
115	66	11
49	3	13
40	-39	6
76	-24	19
91	40	30
24	110	7
-132	125	-16
-314	65	-44
-410	-51	-45
-333	-164	-50
-79	-219	-59
263	-200	-27
539	-135	-43
617	-75	-61
454	-50	-55
107	-51	-51
-269	-39	-20
-518	15	-2
-549	100	3
-352	161	-12
-28	131	-18
273	-6	-4
422	-202	7
327	-364	9
9	-402	8
-432	-297	-8
-838	-109	-58
-1036	55	-116
-934	119	-147
-539	71	-177
31	-16	-161
569	-47	-34
886	29	63
892	194	83
608	365	95
200	453	74
-152	418	45
-313	286	18
-259	126	-25
-85	-6	-49
84	-86	-36
149	-131	-40
102	-167	-65
11	-192	-70
-42	-187	-78
-10	-124	-76
80	-8	-25
158	121	77
164	206	115
91	208	69
-11	132	5
-75	25	-68
-54	-50	-165
26	-66	-224
107	-35	-133
123	3	-20
52	12	-6
-71	-15	11
-177	-48	13
-206	-51	7
-142	-17	28
-22	37	37
96	66	37
159	43	32
159	-18	12
113	-65	-16
52	-43	-23
-4	74	-21
-50	254	-28
-88	422	-26
-107	495	-37
-91	429	-62
-27	225	-86
68	-55	-91
150	-339	-58
159	-553	-43
67	-655	-16
-105	-645	33
-286	-527	87
-388	-343	106
-354	-127	56
-189	67	12
37	207	-62
233	269	-107
332	255	-96
302	186	-21
180	92	16
10	5	-46
-160	-56	-64
-304	-83	-65
-415	-74	-63
-486	-48	-49
-501	-27	-48
-444	-40	-66
-316	-103	-60
-142	-209	-40
27	-316	-26
142	-359	40
184	-294	99
164	-117	91
123	109	27
101	290	-35
113	342	-105
141	250	-161
156	68	-141
135	-101	-67
81	-173	-11
22	-129	-13
-8	-19	-21
8	75	-2
60	100	23
123	63	47
181	24	87
238	40	97
302	124	76
373	233	32
423	291	-44
396	251	-115
241	126	-138
-33	-14	-96
-358	-92	-67
-610	-74	-64
-669	9	-52
-515	85	-51
-201	99	-40
124	39	-35
333	-43	-7
363	-81	22
251	-37	33
103	70	49
19	174	60
29	213	72
89	161	37
114	43	-31
50	-66	-98
-82	-117	-164
-197	-88	-176
-207	-7	-106
-87	75	-7
106	117	13
254	110	-18
260	79	4
104	48	17
-140	40	39
-344	38	36
-408	15	11
-310	-58	18
-118	-183	-13
51	-320	-47
116	-411	-49
54	-391	-54
-68	-245	-35
-167	-11	37
-167	213	69
-64	316	14
81	230	-52
187	-30	-108
187	-353	-185
77	-596	-231
-92	-640	-141
-237	-460	-32
-288	-152	8
-223	143	24
-78	296	22
81	267	59
183	124	72
202	-8	40
162	-34	30
109	49	42
91	160	44
114	182	-28
155	63	-89
172	-159	-90
144	-361	-80
84	-418	-69
15	-278	-41
-30	-4	-16
-59	271	-30
-102	421	-24
-180	393	29
-279	236	47
-340	62	8
-300	-27	-11
-133	1	-36
107	97	-64
317	183	-22
386	195	66
263	127	77
11	30	0
-262	-36	-46
-432	-37	-97
-443	7	-131
-321	55	-86
-147	67	-7
14	38	7
136	-5	-50
231	-24	-75
322	1	-72
392	53	-48
409	97	-27
340	99	-9
190	51	7
21	-19	5
-94	-75	13
-109	-88	28
-32	-57	52
74	0	48
143	57	28
139	99	13
76	116	-25
-11	111	-79
-84	85	-95
-136	31	-60
-175	-43	-39
-205	-127	-32
-209	-189	-26
-159	-203	-27
-45	-167	-41
105	-100	-55
232	-43	-63
275	-32	-81
216	-80	-75
98	-166	-51
-18	-248	-12
-66	-294	16
-38	-289	42
18	-245	35
31	-171	12
-51	-81	20
-225	20	37
-425	128	49
-564	221	31
-572	269	-9
-436	251	-89
-199	168	-169
57	56	-181
257	-33	-105
352	-62	-12
337	-38	-12
250	4	-24
133	15	-32
33	-23	-25
-41	-82	-11
-95	-109	-8
-135	-61	33
-157	53	39
-143	179	-2
-84	238	10
24	191	57
138	62	61
214	-80	39
207	-156	16
121	-138	-32
-3	-60	-102
-107	8	-141
-134	11	-96
-84	-45	-36
13	-110	-40
99	-107	-27
148	-5	37
165	166	69
188	319	29
253	370	-33
355	287	-87
436	110	-138
417	-79	-150
244	-196	-87
-74	-207	-2
-443	-135	24
-736	-46	26
-837	-1	30
-707	-25	9
-410	-97	1
-65	-169	7
187	-191	-8
280	-138	-37
236	-24	-36
136	123	-8
90	260	-5
154	350	-51
318	370	-76
505	321	-70
618	218	-56
599	94	-34
436	-15	-25
184	-88	8
-91	-118	2
-331	-126	-3
-503	-134	10
-589	-166	-5
-589	-218	-9
-523	-270	-16
-403	-295	-18
-270	-271	-46
-162	-206	-54
-110	-117	-35
-111	-28	-19
-132	45	26
-125	110	74
-54	165	81
67	197	21
189	183	-46
245	100	-88
192	-58	-129
51	-252	-119
-109	-408	-34
-203	-457	14
-178	-365	4
-43	-160	10
136	82	29
278	274	42
331	362	11
300	351	-44
237	290	-76
197	233	-103
212	196	-114
262	162	-85
310	97	-27
301	-21	22
214	-169	38
55	-289	18
-142	-326	-26
-338	-259	-38
-491	-116	-11
-569	38	22
-540	140	36
-404	166	25
-178	127	-5
79	68	-59
291	28	-69
396	24	-48
373	48	-15
250	82	-16
99	114	-37
-16	136	-66
-60	150	-93
-51	147	-97
-33	113	-95
-40	43	-62
-78	-52	-59
-104	-141	-41
-86	-192	10
0	-183	74
122	-129	69
224	-66	9
257	-31	-40
207	-34	-108
113	-46	-107
25	-29	-24
-11	45	48
6	162	19
37	261	-10
42	282	-4
-4	182	-14
-78	-8	-10
-130	-214	-9
-123	-334	13
-54	-316	10
27	-168	13
58	34	10
-14	183	-24
-178	208	-60
-371	97	-68
-501	-86	-32
-496	-249	-9
-343	-311	42
-97	-249	77
147	-101	39
288	57	-32
269	155	-109
111	162	-141
-124	85	-150
-329	-32	-130
-425	-144	-46
-385	-226	1
-225	-256	3
-16	-234	5
169	-165	-1
284	-54	48
322	71	90
301	185	57
254	244	2
205	237	-41
158	165	-48
114	68	-54
71	-12	-27
44	-58	-7
44	-77	-26
64	-96	-48
78	-131	-68
46	-173	-64
-44	-179	-47
-168	-114	-11
-251	19	-13
-215	180	-38
-38	294	-55
226	308	-78
452	223	-70
504	98	-57
333	9	-26
1	2	-13
-337	64	10
-515	132	74
-459	143	115
-233	70	87
27	-47	16
172	-137	-65
158	-148	-143
33	-70	-150
-71	37	-88
-62	110	-18
68	108	-12
242	43	2
342	-24	19
314	-41	12
175	10	39
23	95	39
-67	153	32
-71	137	26
-35	53	10
-32	-46	-17
-93	-101	-38
-197	-66	-37
-268	37	-55
-253	153	-60
-159	205	-90
-37	158	-112
32	25	-119
27	-136	-126
-16	-256	-67
-15	-286	-7
89	-229	40
287	-124	43
506	-34	0
633	2	-25
613	-35	-8
451	-127	18
211	-250	19
-33	-362	20
-255	-437	18
-472	-434	17
-691	-322	2
-886	-91	-31
-984	237	-30
-903	582	-12
-618	824	-41
-200	852	-98
211	605	-88
459	131	-40
473	-427	8
299	-887	5
64	-1096	-41
-97	-1021	-38
-126	-725	-42
-63	-358	-51
2	-60	-31
4	94	37
-58	131	84
-123	123	54
-117	154	5
-12	247	-65
150	370	-107
294	461	-111
352	475	-31
314	416	52
216	321	25
110	244	-39
32	205	-135
-21	193	-226
-62	174	-213
-94	122	-81
-96	38	28
-44	-49	48
66	-102	60
193	-102	74
271	-56	84
256	10	62
140	67	24
-10	108	-11
-119	125	-32
-126	127	-38
-28	115	-38
113	85	-44
216	41	-42
229	-14	-43
132	-62	-44
-25	-94	-28
-188	-101	-14
-290	-95	0
-308	-96	-10
-248	-109	-13
-137	-133	-15
-12	-147	-30
92	-131	-31
150	-82	-28
154	-11	-15
114	56	-12
60	100	-13
28	112	-2
39	102	-3
80	77	-11
118	47	-11
115	12	-7
47	-32	14
-61	-75	17
-174	-103	2
-237	-105	-2
-234	-84	-6
-179	-57	-44
-98	-53	-117
-14	-83	-142
85	-131	-132
216	-169	-77
380	-163	0
520	-115	22
553	-58	38
401	-37	34
46	-77	21
-423	-156	11
-864	-222	-2
-1124	-213	-10
-1121	-117	-62
-879	29	-113
-509	153	-145
-133	189	-115
154	130	-13
330	26	37
429	-40	65
484	-11	103
518	113	84
512	273	2
454	389	-79
341	406	-139
202	323	-184
79	183	-158
-1	43	-65
-28	-61	2
-25	-127	13
-21	-186	13
-28	-252	12
-50	-322	19
-71	-373	42
-81	-368	55
-67	-294	68
-40	-160	78
-6	-4	34
25	135	-28
46	226	-52
61	261	-97
70	251	-137
75	212	-119
69	165	-65
50	119	-27
13	80	-15
-48	43	0
-123	13	22
-200	-15	19
-248	-40	-16
-250	-52	-43
-195	-49	-68
-97	-26	-79
17	9	-51
115	47	31
172	68	107
182	63	102
154	33	36
109	-8	-47
56	-36	-132
3	-37	-198
-47	-9	-162
-91	27	-52
-109	37	-3
-88	3	15
-18	-76	23
89	-157	1
191	-186	3
244	-120	27
212	38	38
94	237	47
-78	391	69
-242	417	70
-342	287	24
-339	35	-51
-236	-245	-115
-76	-449	-134
81	-519	-139
158	-452	-155
116	-316	-142
-52	-192	-86
-300	-142	-17
-540	-167	13
-681	-223	34
-664	-246	34
-481	-190	17
-199	-59	16
92	108	13
319	261	30
438	358	17
468	394	-6
458	372	-31
439	312	-65
421	217	-79
359	92	-81
229	-57	-61
36	-208	-36
-158	-315	-15
-282	-341	2
-289	-265	15
-178	-120	49
-15	45	76
122	168	55
184	209	19
175	179	-19
139	114	-65
122	68	-61
138	68	-1
159	110	59
148	161	70
79	179	14
-23	145	-62
-117	71	-137
-161	-14	-175
-148	-79	-151
-100	-100	-90
-57	-85	-25
-37	-45	28
-29	4	79
-5	48	93
49	80	52
117	96	-9
162	92	-71
166	70	-138
140	39	-149
147	16	-78
231	14	-13
387	36	-6
539	65	-3
553	72	6
334	35	7
-117	-47	14
-669	-142	9
-1101	-207	-7
-1232	-202	-6
-1010	-128	16
-539	-20	14
-32	75	16
300	112	8
365	85	-13
223	16	-42
48	-58	-107
-2	-123	-155
117	-183	-139
313	-260	-52
415	-362	3
300	-460	3
-31	-504	-8
-415	-429	-42
-654	-227	-77
-614	56	-83
-307	320	-39
97	461	21
401	437	55
468	274	69
314	66	76
77	-93	63
-88	-147	26
-91	-113	-34
25	-53	-102
144	-27	-164
157	-55	-155
40	-107	-51
-125	-131	11
-229	-92	21
-190	4	29
-27	114	16
170	191	-10
300	214	-30
306	197	-35
212	174	-33
91	174	-20
5	193	1
-27	195	-12
-29	157	-25
-34	65	-24
-52	-45	-36
-70	-132	-8
-60	-164	45
-17	-130	76
32	-61	71
49	5	18
8	39	-62
-80	42	-118
-169	29	-133
-208	23	-77
-168	40	37
-56	72	84
84	103	21
206	109	-54
275	88	-107
274	41	-111
212	-14	-96
111	-64	-103
5	-97	-74
-58	-106	-21
-51	-91	29
38	-52	27
175	-5	18
291	37	10
306	65	-25
172	67	-58
-91	49	-69
-391	23	-41
-618	12	-23
-669	32	-3
-526	84	3
-256	149	-12
40	185	7
251	163	53
330	62	75
301	-104	83
216	-296	60
134	-453	-9
54	-519	-83
-45	-474	-111
-195	-326	-93
-378	-135	-95
-530	37	-60
-569	139	-9
-431	149	-28
-140	91	-51
216	10	-59
506	-43	-75
620	-51	-62
534	-33	-36
288	-32	-31
-6	-84	-24
-253	-187	-19
-393	-306	-19
-426	-370	-9
-366	-326	4
-251	-170	15
-109	50	17
36	254	3
151	370	-8
212	378	-17
204	310	-19
143	227	12
71	185	48
38	199	58
71	235	27
149	247	-4
222	201	-40
230	106	-103
154	-8	-91
20	-96	-23
-105	-134	5
-166	-129	-36
-142	-97	-57
-64	-58	-34
12	-17	-41
44	30	-79
31	85	-85
9	135	-32
25	162	-15
104	151	11
230	104	44
355	39	15
425	-26	-25
402	-79	-38
287	-119	-67
102	-153	-96
-120	-178	-80
-336	-182	-13
-511	-147	49
-611	-67	26
-598	41	-47
-459	154	-77
-227	237	-59
41	278	-50
261	274	-30
363	235	-1
336	161	13
216	51	24
85	-80	22
-2	-215	-11
-28	-305	-28
-22	-317	-29
-39	-246	-78
-107	-136	-117
-211	-63	-93
-285	-81	-34
-271	-192	11
-137	-322	13
86	-381	25
328	-299	16
519	-90	-15
611	147	-15
592	290	-3
478	265	17
284	89	39
25	-140	32
-276	-294	22
-566	-301	-6
-796	-178	-35
-886	-4	-17
-812	125	15
-605	166	42
-336	137	57
-95	103	45
75	106	-27
172	150	-114
232	185	-180
278	164	-206
317	77	-171
325	-38	-76
280	-111	4
192	-95	-23
97	1	-26
40	119	9
32	183	22
46	155	22
24	48	-3
-66	-69	-19
-213	-137	-40
-345	-123	-65
-385	-44	-76
-288	40	-43
-92	85	-4
128	68	2
276	23	-4
306	-11	-5
253	-3	12
175	47	29
139	104	49
161	129	74
197	99	71
193	28	38
115	-49	-2
-16	-99	-56
-143	-101	-118
-208	-63	-121
-187	-7	-64
-107	43	-9
-13	78	9
50	100	0
76	117	19
81	134	3
85	143	-60
92	139	-102
85	120	-114
52	92	-113
5	71	-101
-22	65	-56
3	71	-31
81	66	-24
171	30	-17
205	-48	-24
143	-152	-3
-5	-240	62
-164	-276	133
-245	-248	150
-200	-178	98
-54	-120	28
94	-129	-51
145	-227	-165
49	-384	-172
-149	-536	-102
-342	-606	-92
-418	-557	-108
-330	-394	-78
-134	-181	-20
59	16	-6
148	148	6
99	204	-7
-22	218	-35
-95	235	-56
-24	284	-37
195	372	21
468	466	91
648	534	133
614	540	99
333	480	32
-101	345	-63
-550	163	-152
-853	-49	-198
-934	-253	-168
-812	-410	-64
-558	-492	-13
-280	-487	4
-47	-411	32
114	-294	38
198	-173	53
225	-67	45
214	23	13
195	106	-13
184	190	-30
207	262	-45
257	301	-49
312	291	-25
332	228	-23
284	138	-26
172	55	-25
28	11	-25
-97	2	-18
-162	12	-3
-163	13	40
-124	-7	94
-84	-33	105
-48	-41	69
-16	-9	11
42	57	-88
130	137	-202
225	192	-201
278	195	-120
255	153	-69
163	85	-63
36	21	-51
-65	-24	-24
-116	-53	-21
-123	-84	18
-126	-132	44
-156	-195	56
-204	-257	45
-234	-289	4
-191	-269	-40
-74	-188	-104
91	-53	-116
236	110	-114
299	278	-70
268	413	-12
188	483	0
119	462	37
99	335	65
123	110	40
148	-173	9
121	-446	-21
26	-640	-70
-115	-701	-103
-256	-628	-65
-353	-473	-2
-392	-304	-5
-393	-181	-12
-389	-118	14
-388	-82	11
-377	-14	7
-319	119	4
-182	286	-20
40	417	-17
312	427	-13
547	279	-17
653	24	-27
569	-223	-54
312	-343	-65
-45	-281	-43
-361	-80	-38
-531	140	-65
-500	261	-59
-321	223	-21
-115	74	14
12	-79	28
9	-129	55
-70	-46	72
-125	108	16
-65	229	-57
111	233	-112
314	116	-135
428	-41	-135
373	-142	-98
172	-122	-31
-53	-5	-7
-187	129	1
-166	188	4
-31	135	32
106	11	83
149	-103	123
76	-127	133
-44	-49	57
-113	86	-34
-69	193	-121
63	213	-214
198	144	-203
254	36	-74
209	-41	26
113	-54	30
49	-13	43
63	29	52
133	30	12
180	-22	-30
125	-98	-56
-36	-147	-95
-239	-134	-109
-375	-61	-74
-371	31	-32
-225	101	-9
-10	124	7
172	106	-1
261	77	-8
252	53	5
203	49	-13
171	46	-15
194	32	-2
248	9	21
283	-9	39
252	10	1
126	69	-36
-78	152	-37
-321	207	-27
-550	190	-59
-702	81	-91
-727	-102	-92
-610	-306	-67
-364	-474	-32
-55	-562	-12
221	-563	24
373	-504	39
345	-416	32
170	-326	13
-72	-250	-29
-276	-177	-72
-360	-98	-97
-321	-9	-79
-205	87	-21
-89	183	16
-16	267	12
17	320	-10
48	324	-32
120	269	-37
234	166	-33
366	41	-27
455	-52	-25
461	-71	-13
370	2	36
209	131	74
23	247	83
-143	270	87
-263	170	52
-325	-20	-57
-325	-207	-142
-277	-291	-170
-208	-230	-211
-148	-54	-190
-120	135	-69
-117	240	22
-109	218	40
-49	104	68
78	-6	71
253	-40	24
409	25	-5
465	137	-27
392	213	-48
214	199	-57
19	102	-23
-107	-15	-15
-129	-85	-47
-77	-81	-39
-23	-34	-28
-26	-4	-2
-93	-29	19
-165	-97	31
-173	-143	16
-79	-117	-40
89	-2	-92
245	147	-108
313	244	-63
260	227	-30
119	89	5
-28	-101	61
-113	-257	112
-117	-305	126
-67	-236	72
-17	-98	-7
0	39	-122
-15	119	-229
-31	126	-207
-17	80	-106
32	19	-60
95	-25	-26
138	-37	11
145	-19	14
122	18	9
90	58	2
63	84	-3
32	84	-23
-24	51	-40
-123	-7	-32
-250	-70	46
-365	-124	69
-417	-154	21
-369	-160	-24
-231	-157	-82
-38	-149	-100
141	-134	-82
255	-104	-44
273	-52	-48
183	6	-65
3	40	-44
-231	18	-36
-458	-65	-11
-602	-188	30
-595	-289	66
-425	-317	87
-133	-251	79
171	-119	59
369	15	21
401	97	-31
280	104	-80
107	64	-99
-15	30	-97
-27	43	-79
44	110	-53
113	187	-40
107	230	-34
14	206	-44
-87	131	-52
-101	54	-78
20	22	-87
241	57	-55
439	133	2
506	205	43
389	223	30
143	174	10
-108	86	-4
-252	-3	0
-247	-61	11
-135	-82	6
-5	-79	21
77	-74	42
90	-68	49
69	-50	32
63	-7	-1
87	59	-33
118	125	-76
120	156	-101
67	125	-82
-23	45	-35
-112	-47	-24
-162	-104	-35
-163	-101	-38
-138	-50	-42
-117	8	-71
-111	33	-104
-110	10	-82
-93	-37	-59
-44	-64	-56
23	-36	-9
86	45	55
122	149	91
139	215	104
162	214	74
216	145	22
292	47	-45
346	-31	-100
310	-65	-120
139	-64	-109
-144	-68	-87
-468	-116	-67
-708	-227	-30
-762	-368	27
-610	-485	61
-302	-524	27
33	-452	-20
269	-297	-71
342	-111	-125
258	35	-91
101	103	-4
-34	91	24
-77	33	-10
-18	-14	6
91	-14	32
182	42	30
206	134	10
149	223	-28
32	270	-40
-105	261	-61
-239	202	-64
-348	110	-51
-424	16	-25
-453	-64	11
-407	-122	21
-279	-147	2
-82	-141	-31
137	-103	-39
302	-43	-49
369	28	-45
329	87	-30
228	114	-11
130	104	9
89	65	6
107	25	8
147	10	17
156	34	36
105	90	44
15	145	26
-63	166	-2
-79	126	-60
-18	35	-117
88	-74	-119
175	-153	-54
198	-170	3
144	-120	21
50	-32	17
-24	51	-1
-42	90	1
6	69	28
80	10	40
128	-50	3
116	-70	-60
36	-33	-125
-74	44	-185
-171	125	-162
-212	161	-48
-181	131	37
-92	49	21
34	-36	-65
170	-65	-143
291	-4	-132
380	135	-43
409	284	34
345	354	35
164	279	27
-126	52	-6
-481	-246	-47
-786	-501	-54
-937	-603	-58
-873	-510	-19
-603	-282	-8
-225	-32	-1
122	114	6
318	100	5
317	-50	13
175	-234	9
15	-340	16
-62	-301	17
-15	-126	22
107	99	20
213	274	8
229	323	-14
139	233	-21
2	53	-12
-121	-139	-23
-174	-275	-40
-168	-321	-52
-135	-272	-55
-96	-162	-58
-31	-23	-38
95	110	-4
302	219	16
547	288	31
716	316	28
701	301	20
459	259	-1
61	206	-35
-333	160	-47
-581	129	-58
-602	113	-46
-448	100	-11
-249	76	5
-122	36	-20
-109	-8	-78
-145	-46	-101
-133	-64	-90
-5	-56	-79
208	-32	-67
407	-2	-38
488	16	11
407	16	55
222	0	55
29	-36	22
-86	-85	11
-107	-145	13
-82	-206	7
-78	-249	2
-120	-256	7
-172	-217	-11
-174	-141	-75
-89	-48	-111
53	31	-67
175	85	-43
203	113	-118
113	132	-134
-40	158	-52
-165	190	-7
-183	215	21
-85	209	84
75	162	112
212	81	72
