8.24696324012359,11.612024042913161,2.853624647663326
7.851082833950874,16.91909314843619,1.3115365403962589
5.859872671227077,19.562927897616817,1.1587964243738118
2.2236594602985313,17.500427908525175,4.035958433576824
2.881311112552351,9.909160581566901,6.839501316714789
9.095860395506984,2.3112901167023656,9.167641830754285
15.881987354338037,16.738690613993572,10.582461250901314
22.49743866609373,30.239639563025005,10.704078043798052
27.98904782680035,40.0151846697532,9.332076168464756
31.258093951426314,44.3934407412794,6.45223900990758
31.22918285718522,43.0637257435236,2.204420535993463
27.10080756576082,36.76252857310548,3.010290064181544
18.624547602070386,26.67066755691732,8.469365643892335
6.328566027853205,13.937019398120784,13.207579660687546
8.471876246772316,0.30896532490978357,16.177985584343133
23.919546360726354,14.567234413878307,16.71478172226375
37.95008869185173,26.75075180144881,14.871662206370576
48.60483485608456,34.52823144951471,11.194604340901568
54.29342428506834,36.18448921565894,6.3964707780193155
53.97838142334607,31.57189396416861,1.3719904957721545
47.31900986794242,22.526550524481973,2.8580677296292576
34.79276288289033,12.385949489609931,5.661707688136215
17.742186947409426,4.754852661662034,6.915728558332362
1.7128426311106242,2.103966289364129,6.622067591438281
20.94375209714405,4.919637785025785,4.977112576474882
37.25630788695823,11.8004689918012,2.585690659947933
48.39193781969051,20.366052291068954,0.3547769531048969
52.922489283871535,28.42168102501877,0.7236213253705035
50.449058420608914,34.71846237232816,0.11309792155841794
41.58454004777475,38.963448661041284,2.9531679504578583
27.76738846545972,41.247570698866895,6.916809597676029
11.009475614972878,41.3799507611136,10.538867893217848
6.361582507105931,38.59728873991461,12.510219832203738
21.963740769391965,31.850254309363823,12.042561964309158
33.65214361476293,20.462319603496297,9.004826001928128
39.84524563119066,4.685687570884162,4.0419319581840965
39.81503642326001,14.196584642194278,1.3533610701627568
33.83504964517411,34.2463616666571,5.034569351976852
23.115667295340113,53.47106658988275,5.250575431241504
9.532402001900715,70.27652443562413,2.0379638825104385
4.769166691969698,83.5386794893178,2.7742701902786626
17.753075918680516,92.37126773659729,6.936498724581879
27.74572127691666,95.8851312460979,8.690171478081465
33.54804564937192,93.19337199845437,7.072255095361155
34.45454113973968,83.71426071651456,2.1388814309607023
30.270692624434457,67.60159248799857,5.25487456865559
21.394499554815326,46.01068484922614,13.808774731899108
8.903110292221752,20.99799142523284,22.134072478485642
5.454851586966336,4.92384118862962,28.78031778728875
19.434873088595864,29.328080173609788,32.000245016148334
30.668869163760718,50.22924418342333,30.60062190137435
37.14312188887442,66.14568116838308,24.810407946227375
37.62158428250403,75.94306484860829,15.710033783308617
31.895732846016323,78.67805004072967,4.538639641854862
20.797361370326477,73.67794381416624,7.260703844156357
5.994064826533365,60.8970697551121,17.60126971094762
10.325343648294375,41.369590771821784,23.734964700019226
25.78540806702422,17.472979639705883,23.458400398203707
38.138388150742045,7.235005411625381,16.676856480042634
45.54301723984459,28.66900004744545,5.563989300418224
46.80925210586338,43.1793132086793,6.686675534644417
41.58342854064818,48.4665843060129,16.78065803916948
30.44223975402765,44.1041364316942,21.94394803890865
14.86746702288587,31.488994723469684,20.891590079323695
2.9492970557645486,13.270682867730715,14.050795863703188
20.45720756113492,7.492615973069134,3.205588642694756
35.16098525074204,28.096634659584854,9.105714874526317
45.01579371153857,46.568427952225555,20.55925994052793
48.72480380689567,61.589497768308306,29.460144176004807
45.89098538475639,72.14267805252038,35.047276740753055
37.029610652366294,77.1958232050775,37.63029523304108
23.463139119588185,75.71728962999595,37.81321903684554
7.1179240310109,67.08996318107837,36.15761185751924
9.740073802538673,51.712360093848034,33.537102821322776
24.795005767817933,31.394108604872066,30.94748149597165
35.99030779207571,9.189290164770698,28.907015392509983
41.8276061247885,11.375863310190777,27.38106785665927
41.5897318543696,27.382553654772302,26.128442154116367
35.44584665853026,37.40733535404302,24.474399212999273
24.41954574919021,41.76800608432818,21.127154745675625
10.213060539541527,42.01771796226066,14.682982223843187
5.095682165131566,40.00951524229063,4.037865621873693
19.414622397973314,37.08555837729372,11.087205328534951
30.941323658879575,33.81109719057338,29.727145093501797
38.35528889068741,30.340210026827766,49.813428258505404
40.907989690282925,27.088377577022094,68.49333860861535
38.417109453330816,25.12741822535538,82.97160867492254
31.22219962281184,25.932530888537087,91.33833110435546
20.15777582907743,30.555893310642517,92.57814398231554
6.524698045643141,38.69914219061397,86.33868084161217
7.9901115044176665,48.31313944282109,72.90579009433112
21.48454455664197,56.07276639063859,53.528495686009514
32.10741556107721,58.57968037694239,30.65753701179846
38.38555412001884,53.715865638228365,7.272004440739996
39.51349677788336,41.452350164566134,14.155600481822098
35.4957652187806,23.7424752545932,31.882786586088304
27.106025644732426,3.6404957711759987,44.66544160125143
15.687210000210575,15.836604933268845,51.979592142199564
2.8733558874134104,32.51467130326425,54.05446528392456
9.662861593822416,45.203697884002246,51.489039088172106
20.374857425473497,53.313855973182385,45.32900872157558
27.939892981861526,56.40872520243407,37.0563682470208
31.366763252826285,54.08239226366452,28.307764169382658
30.136466625094027,46.27492931977752,21.029920780414766
24.34930647342529,33.798221440489876,17.412924575232758
14.830959911413471,18.619506543707725,19.04075562118376
3.0992236864618232,3.601474423122549,25.89929657883292
8.869324232332394,8.271871374087937,36.10569075936872
19.025909036544373,14.842061610885173,46.38734557531881
25.66732714943152,15.421421597463171,53.020331773635384
27.75198524690549,10.842443076760455,52.99701569331802
25.043116051779958,2.933676553230657,44.62531188048972
18.06586564503455,6.26647550929299,27.69506598437465
7.931243781389775,15.152798948784278,3.646907312377812
3.878545645424847,22.798081453555874,24.75422912142314
15.710338672978306,28.809879709406783,54.1303885409982
25.909780904937367,33.030059496593346,80.9947544111842
32.98306293837436,35.31438611048492,102.02535380663325
35.77208515091681,35.5106742796541,114.56258878837083
33.62820841431766,33.57727252209719,116.9867292341263
26.56223683022165,29.648228725101742,108.71977667551737
15.314154502632343,23.94216788112484,90.59021477197386
1.2989639594932987,16.565953351910967,64.97580136622362
13.566154457622146,7.386625116935755,35.147304226826506
27.13388685368706,3.840238051505949,4.210120342101223
37.35876790463694,17.076648774628715,25.820903656111753
42.6378008498645,31.51942196926212,53.64949426910788
42.09224707528367,45.329897051887095,77.9901432620068
35.74054862170527,55.843883724446464,97.72616477778051
24.534355902861158,60.28939793198685,111.7908537433715
10.21657406097419,56.7842388471208,119.01628282854196
4.979176369866128,45.19418310864683,118.42589053042491
18.71467124833987,27.4273709193799,109.4885991147961
28.93949705885225,6.997001819661302,92.49994174815325
34.19702192478218,11.969103354654052,68.7211496566355
33.80365440599448,25.863713248816236,40.097619669423615
27.905508487116993,32.46535206176236,8.926902096712903
17.438290942000283,31.258697931385836,22.391007345233053
4.0192301184715555,23.2026623355349,51.43690951419887
10.255674777678216,10.224385758119615,75.89555268143197
23.107779163640846,5.267281015965276,93.76285129079643
32.43150436198369,20.699656806693664,103.69984142014067
37.004699691981855,33.54897575302947,105.68979220841605
36.69093322074069,41.76275512091639,101.17230140750144
32.067884549201516,44.241751511885894,92.43530861454764
24.262349461152894,41.072706840062864,81.54348231350372
14.707871361137615,33.51049412725978,69.66138579173173
4.876693876496895,23.650775071294067,57.51689520453793
3.9567254836978227,13.847908070547186,45.73339609410594
10.863559245384657,6.046892030822072,34.683508867634856
7.432336272395042,15.092409298521968,6.520315320980445
5.919910452909718,15.080368048169305,4.577233244319536
2.876249551049564,12.284916123218398,0.15719775071382328
1.7684456830705113,6.885840743266085,6.037349582324621
7.788131767834198,0.5188591195300002,12.538927850123871
14.596705850197582,9.143674220085542,17.5221408875207
21.292374999136754,18.183859917079502,19.191625775920905
26.78505708871277,26.878106634790427,16.095537275201302
30.003782200554916,34.43869966081891,7.670402922951332
30.099512406331304,39.9953843018421,4.996191818478
26.591539687874064,42.621127566504235,19.21202867843852
19.491553866143025,41.436964446394924,31.747885761407648
9.389624292578118,35.857750194667126,39.8258318015152
2.7056547120345043,26.113034222753775,41.53757653851829
15.64591806497595,13.485005732541218,36.04782584109406
28.15461108077835,0.299442440742834,23.492721714592715
38.80570454606395,13.757854516379313,4.87152319663033
46.16204767301138,25.962180938963265,17.7200865492312
48.9482378812903,36.57731322930349,41.25858766568049
46.34991558222304,45.442929717845686,62.22458685141121
38.298797882833064,52.10284950016455,76.97536624118685
25.58609474516172,55.646781790237725,82.67982962164896
9.80550349593873,54.90840282715932,78.16292039309559
6.937951595214963,49.059414997760435,63.970856740516126
22.422248630982658,38.20222417419761,42.154765837471636
34.67320281675078,23.642808728376945,15.852463405709049
42.230802947826405,7.694485413804461,11.264480739003549
44.25377681000735,6.966379422822583,35.737811410728995
40.52501617803693,18.04082831708184,55.312184982572624
31.431229576151402,24.159792634939375,69.02376438099658
17.962061238805752,25.070558969565145,76.42896113462851
1.7048850390103631,21.473918152862115,77.43980584091179
15.231759748913737,14.72016729304952,72.578466537312
30.418702283449534,6.525868416349808,62.98882367026602
41.469959094266606,1.230667485128402,50.17400666971726
46.494820491941766,6.714313963454261,35.554611920468226
44.50381541903178,8.430561528688695,20.408478649789934
35.64228958414531,5.621952240983504,6.087001359776535
21.155570991752437,1.359560800087467,6.018015430481145
3.116774648186564,10.96393413708964,14.899818996493996
15.978549769364397,20.790404812337094,20.341124565366616
33.6248046557637,28.298685424386452,22.51756041248741
47.62089631339055,31.645264536436546,21.56099683347813
56.26435153245335,30.279550920179855,17.9103036063867
58.45174104207177,25.03389057263152,12.641154021413485
53.75979127237902,17.70642186874178,7.369241113440003
42.55370979529476,10.346733792006365,3.9450223944246763
26.075770130653126,4.589532384805205,3.895363209080347
6.413607061894609,1.2905140232009067,7.669971982013565
13.731847914517855,0.4984533638872473,14.486386998993334
31.463969437931752,1.6774499130369884,22.90041277599667
44.223552449259664,4.001722192940293,31.2602149982757
50.29454664601019,6.577178891454214,38.155826235214256
49.10495782172341,8.59141504911102,42.66247395036037
41.2623186632129,9.430469295200682,44.222065203327446
28.345795064722655,8.77313107441603,42.715309046896564
12.544344639831708,6.657742790408306,38.352917844841706
3.723415691165054,3.4652596509229814,31.527420277265247
18.139826405758196,0.24512738942397144,22.72642504146346
28.744177887575205,3.9936276392313905,12.1226704817044
34.1299023709893,7.5925665974791885,0.2477393451649165
33.617808472927074,11.213192196468471,13.696540703904448
27.37455461484159,15.260405363444875,26.66999780928767
16.438328682649672,20.105290819485205,37.13825640119601
2.6080362990736234,25.816606124197325,43.27880297184376
11.84843730581927,32.014621198107726,44.2376927297809
24.60615491754967,37.90777827330875,40.129315672554014
33.69128235510955,42.460004044700796,31.536634131842664
37.793887171846784,44.565870225704565,19.649621083671708
36.43004054526692,43.19202145879854,6.284740093357003
29.935034978105538,37.50807535278183,6.612117272876977
19.343996297955428,27.05731037407987,16.893687064249583
6.221166954112412,12.01401533462453,22.193807940534615
7.563414762453393,6.549813696180126,20.588464770972195
20.092505748243727,26.55973543088392,11.351347406685306
29.669097314824068,45.14114812770845,4.360610217176498
35.066193541879336,59.172668108520455,23.49963612705371
35.69634986239223,66.06682629053962,42.11606521340538
31.664084451905662,64.499445854662,56.3273315133203
23.689564544809816,54.795234246686256,62.719895612546715
12.925772551321241,38.827251946720004,59.01893822832226
0.7612883823429155,19.4921346778889,45.1695781754957
11.328926224490651,0.0038412517230930893,23.46968058723629
21.893449917006716,16.784815186047723,2.5026275963176423
29.592986260087525,28.72460269131017,29.00707501647959
33.31801811195811,34.62934017112791,52.57537457141949
32.36542145202688,34.30046755875831,70.19150965022506
26.621059168637654,28.593678812742862,79.8886494757535
16.68654142048718,19.42956602320133,80.93610084365969
3.871760800149901,9.59736668930022,73.54928913362554
9.996111318300912,2.207253327091057,59.21701632240807
22.883386481551018,0.19099097184714603,40.5633064834531
32.88145564339814,3.4313567664226348,20.13022022433369
38.48199457769699,11.982138913610482,0.3182311968460467
38.76132918718167,22.416658549367074,19.68107623053878
33.501003774567785,30.735439851891545,37.37330579591445
23.261553142910124,33.45118312257062,52.93223445307331
9.379377242731985,28.90354011997668,65.4872211776656
6.1358612107386055,17.824521201896996,73.84909552399627
20.8405834273117,2.924397551894114,76.83403626437394
32.26032828668756,12.245383232674556,73.52101358005457
38.373633209166826,24.56375099557566,63.74073869186292
38.04822588840715,32.174645038451125,48.172015137355935
31.30154586716099,34.65895881511464,28.091872355660378
19.28781601432494,32.68781145016207,5.2303799296902405
4.045598958134029,27.534389305675475,18.48896638700676
11.892748982963989,20.766392257605347,40.97698828028238
25.945392466581524,14.135352860033041,60.12357507776935
35.88754857641028,9.456801339595412,74.2769286843994
40.15867700331211,8.237645858627893,82.2250820976591
38.064570591436144,11.041802302140699,83.23683345314936
29.867615920517306,16.92545148760505,77.56024659456901
16.75060287296663,23.378597120834232,66.3967258897577
0.6424508714353403,27.042744348129776,51.33313710392954
16.101459650674492,25.01886796934044,34.00367135938853
31.09468086724425,16.15478081709236,15.998219386656244
42.28226900144966,1.6679227759448132,1.2691438643640727
48.22425556885081,15.237293774502016,16.728132238851646
48.245643837296385,30.565514962085594,29.75225638843003
42.434766716984456,40.919673846478396,39.940956480572204
31.575541065280575,44.443758991613066,46.92660657595474
17.038146884587253,40.99949851976723,50.6486489088431
0.6177306080790871,31.7188655743984,51.403792461351514
15.658391372515766,18.35907452528371,49.61826559650022
29.776680893713984,2.8479950791096016,45.953846776945745
40.01870065170457,12.853412358047319,41.257019049411014
45.21262265918088,26.747721425622416,36.26874876376084
44.892133923947895,36.91750444948912,31.546110633133637
39.32115968007236,41.872223225984584,27.293237068566214
29.406649611957537,40.97483741750764,23.23648692825479
16.535945527222875,34.636422014938496,18.929449960207567
2.3833929996074543,24.11733002911533,14.055857178729818
11.274262229765851,11.029904840807209,8.344160097619492
22.739633625547242,3.167283283590087,1.387827834981595
30.589511604144672,17.369177204225217,7.114288787221093
33.86956643005897,30.667163225197214,16.964131345693712
32.2373597207636,42.06266440097806,27.49074559114949
26.025398201948118,50.37364676094882,37.738497745160956
16.20957553562062,54.514221737134775,46.70184403700636
4.253479738875136,53.9964956122465,53.413948564481466
8.126253263342722,49.292024441926145,56.62639417551015
19.193235558822764,41.74131812416071,54.97857122539582
27.667974407619226,32.811576664642246,48.037235970740674
32.91346057230707,23.74403147811547,36.46218537560659
34.73597621533544,15.601638181947216,21.531780984349655
33.336601822655126,9.062335146574961,5.039167856695633
29.24841910690442,4.431131533304483,11.024435273785686
23.265311409782473,1.7956828899639183,24.913784502604734
16.344989955219553,1.1409003565418807,35.4344333746414
9.478531085648676,2.301939267213066,41.86889028446524
11.296298873503783,4.754490640040697,6.309382132992549
10.345031381516158,4.709621496944831,5.254247994352485
7.206927376813076,3.565399375110716,3.2211493930240067
1.8120513554782347,1.6853257819589842,0.3038530614616517
5.542452332178255,0.49816935338193835,3.2992422489401605
14.194296228723532,2.5937968793111486,7.082686696060396
23.164394225219752,4.231489752450274,10.45053180640317
31.253701457660622,5.030106553891958,13.147271015153372
37.17336362992297,4.588870466710825,14.97101487985442
39.70864939319776,2.640909242747711,15.593251307104376
37.91048667442067,0.7411636239469644,15.011102069452836
31.29294175187125,5.106886268765595,13.662647332341887
20.043291968130735,9.723180704636267,12.313582701939442
5.155533680435685,13.356785409914195,11.43631757277064
11.679252042290663,14.298985346368113,10.46978178581756
28.3804733229281,11.38488542999706,8.495461160348217
42.80766136556399,4.758407344794842,5.010985977740513
53.068727900668165,4.196605757859876,0.14016253793785957
57.78722522293308,13.24746687371638,6.608815691664232
56.27295480074974,20.171093487057526,13.523646292263729
48.60083122479377,23.540268387266554,19.93226850152074
35.60662666803787,23.02857764065969,25.110757260379444
18.803698724683144,19.366741287142254,28.518623344792104
0.23149235362911127,13.914172915713563,29.559167343760095
17.77638583920289,8.17014175833287,27.555170687741374
32.8888098334937,3.3793118874171784,22.250053793480355
43.1017892906999,0.2817084362405984,14.227459238341941
47.0430140512793,0.9448401679593332,4.434352551062122
44.188930444422034,0.6759038773455694,6.183833685793813
34.96147597879403,0.2573526213647572,16.305488731118327
20.69292911560507,0.7493229937713827,24.21728210587965
3.4491931081603897,0.30225601341556235,28.297693568190443
14.262072359258276,3.637907144769125,27.65543785187861
29.842959055607892,9.320909622610944,22.534113035852222
40.963665863554695,16.575214376020188,14.031798649435455
45.89365025852316,23.906169652097553,3.709056917685536
43.763260349984925,29.504088985227018,6.7734777812592135
34.70766774109081,31.801602580989137,16.154727634223097
19.868995281986965,29.997454332365457,23.717020884147217
1.2451359726368418,24.33927948144967,28.967417674265903
18.592934009368555,16.04702681773296,31.369734208088474
36.87351947186879,6.897723756664662,30.569897061979113
51.03477368035576,1.3462696128766398,26.6937561911473
59.09629033092574,7.452053502717374,20.306534712130283
59.9326895904604,11.001732115008794,12.232112704467417
53.407574078972544,12.361418011231017,3.296741218259867
40.36444721425135,12.407221192666213,5.742361803960035
22.50032443357481,12.150995293131173,14.11032265783539
2.1237868834342906,12.416497444380058,21.197904681548486
18.164486235992882,13.64014376130056,26.807078945745353
35.80689414786154,15.780101473004082,30.96381887385708
48.61330182710857,18.317416151592127,33.56352458085673
55.04332554012626,20.332465996945647,34.41768596527018
54.40095200076461,20.68250207458357,33.39211991250096
46.92168226240138,18.307824031101603,30.41429727569824
33.749927072711664,12.61973901600087,25.455263471047722
16.792081794722282,3.856043232941359,18.489456130623157
1.551568550452044,6.7696315658405775,9.826051732423258
18.738607602033717,17.24506259064563,0.3462710472751985
32.46598512885076,25.236908595315395,8.777650952754588
41.00905028491159,28.7290868345041,16.27530632205218
43.45171590434129,26.615511230348037,21.04263367454682
39.77181127215414,19.0252362206274,22.448063613058846
30.775660613755758,7.264077190596649,20.356546601866835
17.926217148161154,6.560811872452883,15.261409526601378
3.1306701132139754,20.060829227550744,8.25048091902431
11.491723266562467,31.04868454252601,0.7138988250264986
23.863546049883126,37.84314382172504,5.641245192889063
32.217869839342214,39.35080845399837,9.019386442690806
35.36750454559463,35.006425544633565,8.311200170905924
32.92909032008292,24.709788145889195,3.3251127628143
25.430700974448243,8.868698448932786,5.547923297139386
14.247323398201768,11.418962678938101,17.218459693807443
1.350763354870118,34.1356772216341,29.48163618580687
11.080395519315326,56.2568061207189,39.0571554648474
21.07884207048836,74.00587812321595,42.62535203548454
27.20986122268406,83.53155802503383,38.33058670880338
28.730564050760407,81.87001691956233,26.209662442648796
25.594571267765364,67.90346975460909,8.010671077194036
18.366053644629243,42.927708287949656,12.645348585668115
8.10880414207126,10.49868979020635,31.167768924318096
3.7283912567432673,24.43548036459012,44.070053453490864
15.43840860882922,56.77328530361921,50.12994775053378
25.234110413989324,82.38582756603235,49.969522799334335
31.509993756810953,98.70934191694232,45.0701773057007
33.14096695097389,104.67024970720153,37.04154108010536
29.734580757964654,100.1896034553686,27.22340525802902
21.753860286024164,85.73715456191016,16.53430102291517
10.455674458767932,62.29850721768533,5.460448538241824
2.3406748938832855,31.76741697562434,5.616386158886785
14.598574094848567,2.598169588293141,15.80578265038461
24.428785185813098,36.17500109555056,23.808825856502988
30.386472489668822,63.72362872488772,28.828538314305465
31.664970040430955,80.72546321218101,31.14747334885719
28.167633277797353,84.7432584068874,31.68195826022779
20.482287349229782,76.13327454429037,31.113713358088454
9.786649513795398,57.73954921991403,29.684015112486076
2.3147249400417707,33.73479754776121,27.189900531553295
13.999515234656007,8.221474112195589,22.674531683697033
23.47127960914214,15.703879459310974,15.037589102324636
29.219182797177226,36.05174908903034,4.434213436223827
30.249714845395207,51.37673856693565,7.331259250241439
26.263513696880093,60.15120917788179,17.63530711968981
17.74504782298803,60.6667466141126,24.08073102262231
5.929149841845628,51.64402041756711,25.321311408971116
7.384192797734316,33.22759768926722,21.511872339391683
20.155062328462783,7.70014677995228,13.950882609589204
30.47944265360145,20.652791189267273,4.3451957600502125
36.9180527504126,46.614440637303176,5.476625619691822
38.692972420734876,65.59934083986714,13.875389044078815
35.710655894733904,74.96415811858748,19.944541815025453
28.45837625747709,74.48772533115329,23.712515575504547
17.84468450658096,65.92391869183082,25.940880409091505
5.068339733515123,51.98792013076811,27.66581571523191
8.450483815948669,35.37553954690529,29.5440133931023
21.1333169347111,18.274873145764094,31.187256432376856
31.35704162907598,2.406160596084836,31.209298416574658
37.67240851623853,10.704988834683606,28.102111380545576
39.10159813693262,19.60614462425787,20.823564498218126
35.390020266498155,23.179192863595155,8.990659813614034
27.120082797921448,21.167646346886766,6.871922504674649
15.619137012432509,14.603240349000199,25.42088139163956
2.6723040157878084,5.794794114816048,44.797554888038334
9.840526706144203,2.2212572581416805,62.88645049438327
20.267273172109796,6.568474425346139,77.68453346392445
27.373819787888557,5.36760751626978,87.67035033624872
30.39380267774298,1.8166386249682855,91.9812757876403
29.023966620168984,14.034807287733932,90.2118515120363
23.431975737535076,29.376060068788547,82.12162624668525
14.282190428454253,45.46443716952936,67.81234513068439
2.724167076720511,59.81954967998648,48.18107521342449
9.712574665061359,70.04713076184876,25.05958096758187
21.335138997464217,73.96323343220965,0.9769264331340348
30.583559611996503,69.84794362821734,21.47910481299402
36.29226333539226,56.9011287276984,40.777117771142656
37.818300392555884,35.75092979368478,56.81110966454631
35.02773826493699,8.763991323135299,69.84338665512239
28.194920625019503,20.1159160483007,79.60247133056625
17.9159796149724,46.1172552512832,85.36180495255223
5.093123923801989,64.76791090874433,86.41088366364247
9.043197434322048,73.0029892909423,82.43857792838985
22.955276288744738,69.85604030526133,73.55180764462158
35.21512003109467,56.45586675156357,60.5028672563774
44.79025182686339,35.361147346873786,44.72277474736108
50.98666471542355,9.830954698392897,27.877175042197283
53.51567730785651,16.668318819322593,11.688067631881385
52.50562258618009,40.87393130119222,2.2910271944022615
48.439744623402454,60.0513565642373,13.041854630282486
42.049142505152,72.26535302028941,20.221782407702584
34.1987806828883,76.59798539518968,23.977349954416443
4.46373179168417,25.8231483424353,11.410314597198939
3.5503343596980543,30.48949273176398,10.028505708796322
1.941611398869987,29.91843674906159,6.329660403966805
0.34171185066820464,22.15187112217355,0.3964957213812392
3.2326754599536924,6.574032732066971,7.237417956091821
6.582248138039135,15.642984340013317,15.856492247175732
10.129088873652414,41.50436829513122,24.436373320567824
13.481145176202345,66.65891433988489,31.681859673433006
16.13241326089793,86.29316176202113,36.38535455335713
17.516338467457885,96.22694206837133,37.66733942194789
17.091588867838357,93.87411007383095,35.06220645866175
14.4777951928478,78.740524030011,28.416762545867414
9.627012902846333,52.344790575769416,18.003266777008342
2.919956946090195,17.833617583236745,4.908998299050842
4.915827940690773,20.465361377951357,9.216773783869389
12.959385031140645,57.647639069035584,22.83778585172114
20.20068610088458,88.9183622529232,34.62210542002409
25.642197163773478,110.19772713370956,43.54657266019109
28.418225769054533,118.70136310681684,49.27597220629271
27.915380061246815,113.451071879616,51.81385893754289
23.895003029208176,95.59033118426848,50.9978602805481
16.590309761262393,68.35365661544543,46.64094790701091
6.748686873449403,36.51162278387435,38.69010400278977
4.407550717482231,5.313483014107391,27.404979361540537
15.305676557515325,20.79972151976331,13.661955782847034
24.23529220293774,39.22074397588981,1.116890998475924
29.65036275693878,49.50042259870474,15.280283165881377
30.487135275150756,52.86751615479668,27.327635272267393
26.410098625980705,51.21521694474383,36.24658584722617
17.918764479314987,46.11830910531741,41.439750782399265
6.264225394378105,38.39300248054788,42.74618823414766
6.800142163816415,28.355596442770555,40.68205553224468
19.35040859140113,16.51641374463592,36.055079109993194
29.608335879879537,4.150753682011841,29.558554777201405
36.162986496243064,6.7045430023719295,21.86032880003174
38.088247674020266,13.8711471573695,13.70235135961368
35.00516367693716,15.924118576604261,6.103307499542458
27.131110706611565,12.813585407082249,0.18756180549000806
15.323287740173463,5.846553699654725,3.4195096913571064
1.0608901566200273,2.8995422409631244,4.833069801356117
13.71811740400643,11.368587356172185,4.686964179707609
26.925751078224167,18.061915135229174,3.7634946350621106
36.711312911957684,22.05902786999403,2.8889212860012874
41.824963249944105,22.702430289515807,2.7215311145517695
41.824071179003745,19.36525697776786,3.367768404016671
37.05278140339016,11.626003735380879,4.53679300138121
28.439147175656288,0.15693797305105203,5.9200902028300275
17.22824747699598,14.241498382010022,7.3887989604013145
4.757656662530521,27.387872600631916,8.907573760289356
7.664942485492396,35.55891195754953,10.426033905179109
18.785544273881982,35.274887888329616,12.00966319397667
27.424102452992084,25.047808395392657,13.710018700196134
32.55948664761425,6.210154803251608,15.519016178724462
33.471599516099104,17.312697493025176,17.609046022066238
29.91315663773133,40.20949754578221,20.277837963824272
22.24022903111522,57.414867600872654,23.602326246612005
11.430281637292818,65.45606373059448,26.955956109076187
1.0380782353990146,63.03859312851719,29.055190271578514
13.417239929054487,50.8326951837061,28.651056876654575
23.96057725452981,30.77658039531652,25.02103680532188
31.178682255043213,5.396193624060613,18.04006675735891
34.05196088302494,22.523939439168224,7.945385134149753
32.16349845824162,49.97300596221313,4.605527973521315
25.743909618883944,73.71734787766154,18.259394799849293
15.645784182199787,90.57397223790284,31.431500512005
3.248245250771802,98.04509939839639,42.88880521594703
9.71009989945311,95.06528776992998,51.63623314451276
21.34152071411751,82.4584961947258,56.75088246506329
29.859357948984044,62.768912884997704,57.600478283878736
33.86552146144169,39.46289969971484,54.02361890845836
32.61582788997896,15.860370518907127,46.30353742070526
26.21724066655762,5.7310113590137375,35.30174959385847
15.700569815759087,24.29733284272586,22.5452704157186
2.8917262679967233,39.763940506135214,9.746125913583107
9.91738177665073,52.32559497534403,1.908289918766608
20.430874355515787,61.91198603277911,12.091897778926707
26.81808529242991,68.07516289629127,21.08999771138494
28.04747768857087,70.2920773771789,29.27524907438518
24.012654748589313,68.42986570596094,36.730542249149046
15.44909485603608,63.00947161269139,42.896003551061334
3.7176850772544694,55.08901261263607,46.67609799162405
9.440786498753983,45.87831970510849,47.09140458354458
22.126019544742817,36.31821688537026,43.50911360574869
32.476248574835026,26.87128687350339,35.80972356270451
38.86864546819222,17.62086482272377,24.777785500124978
40.137888467191985,8.550577471257006,11.927176694280352
35.8045384548512,0.21480711710575498,0.9615100742403481
26.24139528395791,8.375259029107188,12.05688238048832
12.680254313349579,15.604581043395285,19.719661766329075
2.9755656310501934,21.72316458584905,22.93557680300105
18.49760963133002,26.775090037304793,21.334385323838248
31.738667706688062,30.97090392530252,14.865016715820419
40.97520782281171,34.570786791336516,4.081796641397207
45.12293618948988,37.82686991384326,9.489000199836235
43.81858728820322,41.01404641967188,23.53043434096505
37.39968435745261,44.46467642942538,35.22643650405564
26.8336602926914,48.464743219531826,41.789857925543906
13.601120669468655,52.97278256682646,41.348621426079575
0.47966543010295715,57.292812533298644,33.681463636228216
13.489887771439879,59.94707935332417,20.063576973752863
23.69228374271787,58.95867835141556,2.4692763593270715
29.795866286360845,52.5005650879154,16.920712690471653
31.135056120645622,39.649342385552025,35.97997508349819
27.728137914286844,20.902968500834817,52.86514433876236
20.230182300858385,1.8128740595600528,66.22744481254524
9.815974950732825,25.6519523769925,75.36113733181583
1.9797225191290895,47.60716178802613,79.9908447522406
13.442077095781762,65.16828916122843,79.82720113861969
22.870681452191548,76.63611517155658,74.2336720102938
28.795028846905236,81.10889633938956,62.728290244401265
30.20623567368524,78.34259154371166,45.96001313323205
26.750108905012024,68.69981507322528,25.643327186281127
18.811046130573985,53.247390463563576,3.782777395704866
7.469110473486512,33.86479970645113,17.819648097870253
5.66656191169722,13.146706111081265,37.67053665675809
18.724786605048962,6.023006035755509,54.41788862643123
29.862179802230354,21.120959000272528,66.72537068532456
37.51327302314108,30.578095128998438,73.40898671455413
40.58922240051452,34.032281653654316,73.85450514096046
38.61240632947482,32.13433965019564,68.22032509649455
31.782420816207125,26.070872113463853,57.28962763365392
20.974534082989695,17.091652411461908,42.6276108108367
7.637933815805085,6.272643429711185,26.66391862290088
6.420246215892384,5.416096875070802,12.065693019039042
19.322065804809704,16.89298512308516,0.9710130329258084
29.419648944494742,26.85940486183138,5.408349593502627
35.5381865761107,33.94552087676633,6.8507593291424485
37.100012160684834,37.04837120606482,4.069077303857022
34.133131319033836,35.673963123296154,1.440904951640634
27.190773711599263,30.06846922462998,7.869033992699997
17.237640809501908,21.05121559742476,13.495584367614827
5.5551399508812835,9.671111658764401,16.79529313762321
6.367267940476673,3.097239511916867,16.650448625423817
16.96578656056477,16.44988284415453,12.739489038888953
24.759865528654256,29.62603819546251,5.76352985637221
28.56983771675892,41.70514299582082,2.9220149168679423
27.74428984631369,51.51216067286111,11.996822717939024
22.317660853319804,57.75255181123801,20.42411680331861
13.056446537897896,59.35775593791798,27.38594034425879
1.3560383118762425,55.866783238694886,32.37209267666149
10.992804351504128,47.66265978965201,35.425649721495894
22.100666858133156,35.9698307841963,37.12440403569567
30.520370293863948,22.373505610457382,38.023332209551604
35.44186477044327,8.387912995306491,38.28326914524616
36.523450250352695,4.627134086376616,37.84391274617868
33.912796610210556,15.556350910356409,36.70402149269083
28.224659225698105,23.569588975601032,35.06825044811236
20.461365195292068,28.158875245209497,33.159527398229585
11.864125673743159,29.20273571091036,30.960754270590762
3.709590583723822,27.037829837707775,28.245902749900054
5.425174925984025,14.428868579886485,2.1686560316595775
5.274387714241149,13.593196666913181,0.9590269572970861
3.9822703080005,10.534613431797514,5.821143647949374
1.435361049231685,4.924432186196852,11.54394755911631
2.2343685247149336,3.4233999736470637,16.837590263456036
6.656056996953594,14.348823697231252,20.336405381298988
11.272821832774223,27.076049839453397,20.889976423495813
15.420712144050924,40.041312355417304,17.886583772332383
18.40815904871745,50.99661035222736,11.320388335216007
19.588729809010832,57.44505717171247,1.8387034855367812
18.444014061913048,57.287186181822456,9.26245036256093
14.684145825586876,49.47265182308721,20.362382383252577
8.37181095669276,34.44787057579666,29.790971484164473
0.02705448644032581,14.117972548533565,36.0706104659756
9.378050757148205,8.747713059469646,38.21173145616802
18.544513823105135,31.240718556584344,35.85821373278809
26.058692332088516,50.79468589535314,29.364625701055335
30.667007051584278,65.38102275773026,19.72397587769158
31.52026773781611,73.49515586310544,8.35595749426972
28.31009762894107,74.14910389194168,2.988912978063349
21.29592999217349,67.03294623711506,12.463488716755519
11.245660325627771,52.79830053958937,18.705356089009594
0.6666266762089204,33.27935008242543,21.25530262603957
12.969213739253377,11.395990096206551,20.562073447586368
24.01083325133297,9.37771008402368,17.707591400633294
32.12900268518173,25.84577866145823,13.992114574680372
35.89103272837553,35.88817274418259,10.789937540723715
34.38243380539017,38.86766183068984,9.344489364329794
27.471950528298198,35.50961756326457,10.174870029157358
15.93512251936531,27.38477764796926,13.072839985709994
1.3714351481124312,16.302721894342426,17.58482782068104
14.068304892189792,3.9205872701491953,22.94127205615919
28.085177392517867,8.312894258427784,27.86313953483102
38.64008953387657,18.98312363074141,30.757807223576798
44.2537092771412,26.557326315651927,30.142708480766085
44.15853286814358,29.473511612500356,25.248949269555908
38.319299339978635,26.502074457938757,16.318717053479844
27.3920511438034,17.216735369268214,4.21313809849542
12.657405450085026,2.339141981809447,10.0629364727569
4.0989403228793355,16.224215701641732,25.292787358149443
20.777220779312746,35.69525596799006,39.77953111783579
35.22879654577681,52.96734280596706,51.64706969476961
45.571856327887,65.18784644968758,59.52446554652037
50.48620461685016,70.21955352011408,62.69547135597163
49.399774462648466,66.9130188736644,60.958700670809705
42.52266671155096,55.219791767860016,54.741884594843924
30.74865972028931,36.198107814425576,44.92320759172403
15.490758926157294,11.926660278237561,32.45106203112584
1.4764149196319198,14.693900780090814,18.372702689857874
18.16066785114495,40.28047941090178,3.9833961006078624
32.52138639869515,61.45936834684177,9.465290108740469
42.68196338872826,75.4410344039675,21.38966909397069
47.18566772982188,80.52958432943836,32.01569991483842
45.25651919220897,76.4188197639413,41.73964800860695
36.994191483343016,64.16047400365585,50.39969218175554
23.42828786337019,45.816451690823406,57.177004823045145
6.386553685566013,23.93974947423431,61.148447289665434
11.77522895272816,1.0592550480570104,61.934207688268565
28.501606514426967,20.651542308226013,59.786797774769326
41.389012306233525,39.45406718299502,55.04053744669201
48.51845344672438,53.96646293962493,47.93019016848968
48.72789074098735,63.07781313865471,38.92107172556961
41.82807522750889,65.99706434947697,28.616648320179188
28.72084664023618,62.457453146803324,17.58999727925473
11.332810018141283,52.944182877730356,6.343044051409246
7.656685824598243,38.76262011554317,4.90383522693982
25.27857129777145,21.826565289949656,16.15398291237087
38.84271728075625,4.223322735089478,27.394301396174313
46.43229256657696,12.240923640344239,38.41031918797083
47.19588343071618,26.293623047113666,48.62518347091816
41.38941122376095,37.14967206160391,57.336968101106564
30.203396742404845,44.28414928011112,64.14043408339214
15.484090024547427,47.25098408809709,68.70626523220639
0.5713987568996999,45.74819457827306,70.32572026346212
15.694783148075963,39.94673999507004,68.12233602839488
27.792917490662425,30.84070889214303,61.46223538617734
35.202411798597126,20.308606686498013,50.2583082195836
36.939617623089674,10.701092711569608,35.26693637563907
32.87780566485284,4.063074214763302,17.84805324209102
23.791308808803297,1.3735824018813008,0.3853248680510575
11.22287494492578,2.194109151880102,17.585756760640855
2.8223312400464593,4.932842797271695,32.07927051553086
16.262442219365578,7.588118578730294,42.88099761352704
27.27042261146185,8.547808256604227,49.712099590952484
34.48749324716945,7.0376640028903195,52.85314839384768
37.10744700024946,3.0538138162886983,52.85430176687158
34.865158089766446,3.044239412847778,50.25394584032059
28.01765363517413,10.909090160435252,45.62647522162725
17.34253355515188,20.262438337553046,39.46986036270016
4.115023053716781,30.623104558206425,32.00717662077078
9.981598880254122,40.964984798337426,23.489768038048634
23.05582078354143,49.61900155378733,14.388361038391063
33.30132626217474,54.59470465278755,5.168587064262132
39.31096888127641,54.21954367331337,3.7417285295736034
40.31961097783369,47.75964144904412,12.053014766184258
36.30325150349904,35.70750386740231,19.72959180954665
27.929022773993314,19.61458789212398,26.61371136979135
16.401900466236448,1.6136712317490411,32.27263799373503
3.2627524974847937,16.07535222826373,36.131518727627025
9.813984807659033,31.449669723063625,37.40134547785207
21.20438443365567,42.813549595090265,35.44404235144268
29.51404935381522,48.80913973200035,30.27118106477303
33.745101640515124,48.564456726258875,22.45474083519018
33.4238092184612,41.98537980043585,12.635395596967731
28.674083279661254,30.034349619225175,0.9594486768326431
20.211855615364342,14.75071853349809,12.405380425345061
9.23541263366138,1.1082998708647855,26.26921743699796
2.7530259790916145,14.712513327798035,38.96822311895616
14.146103068139531,23.83179087925022,49.190053210138736
23.443626074167792,27.252800190898597,55.72898389740201
29.449021207196868,24.82368466430683,57.35895517033038
31.420439955109266,17.22156024879657,53.16443793111977
29.172547618284543,5.646526333198843,42.953666771345496
23.10154485886519,8.378530484232616,27.532812524897054
14.126054557396502,23.068877580419077,8.524689141726187
3.554329595973311,36.4151720417443,12.073118898478802
7.1223071031218215,46.35282839245624,32.266076341628214
16.462888209967183,51.11775424044391,50.21036760536213
23.275555962947806,49.675616611108026,64.20395909262504
26.76656851739969,42.01840372548209,72.82740292871638
26.62860204546043,29.174771231212834,75.13917326498431
23.0633684020436,12.928641769336778,70.82955154541722
16.74951355595491,4.627782927664633,60.63768352277482
8.744561481398692,21.493116741686997,46.52040633882756
0.32471280393573926,35.9549927518417,30.623082699652155
7.210847261713293,46.622429987253746,14.231688468054147
12.749945236726674,52.42662583659198,1.7787147443697462
15.549057047285777,52.71225623494993,16.364063739493588
15.331574678339543,47.44610164647637,28.758697753198213
12.287740175759609,37.42766842135633,38.89409696084439
7.008404986585228,24.312682220982957,47.05617655261801
0.3853878469243807,10.34862956473588,53.17969839782822
6.499420037130826,2.1139897079351995,56.73753599129065
12.494152821101855,11.169162633026698,57.38417584237065
16.51811875311675,15.745091827963881,55.269813569243574
17.709983628201748,15.693597700656444,50.79367432620557
15.569651133441393,11.615073514111165,44.21017896898157
10.078437744584825,4.569674506872706,35.46026760894943
1.7539215887912,4.167576965078242,24.639057433976067
8.387176640423311,13.233296965700982,12.266176409529722
18.94487549372366,21.216573991542507,0.8900768892856014
28.31055622658721,26.715998838244936,13.726778151493136
35.22679453022177,28.902054398880836,24.977088294048794
39.03494149713586,27.76601138441827,33.690929691787446
39.47503011111008,23.821059579645862,39.404549058188884
36.6912293443692,17.983538603729606,42.04959184783605
31.20186602924514,11.35676124443298,41.74439573262604
23.833288167942424,4.969802135336011,38.7806785555649
15.6204179011683,0.43467931240794655,33.85178160242108
7.662571219311777,4.485712677259443,27.876378268491976
9.245976403730428,11.267794534930017,3.2812682894613148
7.202195522957863,10.147779683290162,2.2365774814436565
3.323988158709584,6.910516467179156,0.35422938808172133
2.2089068537475898,1.3087468157333801,2.1934124615831947
9.00802883282064,6.563420247822047,5.050434336477678
16.475366929333468,16.127172252471187,7.7668925265552655
23.78545681663912,26.278747817757104,9.691842925658033
29.89239436168139,35.48616808250436,10.175177279210352
33.61446725962575,42.026040949858505,8.848387864674875
33.83104818493052,44.306587212646875,5.719652608524063
29.749244509394753,41.19620878732943,1.2046638722877665
21.181809431170695,32.322590944509464,3.927898470783275
8.773834044560271,18.30476865133851,8.644565396568371
5.99891359482486,0.7287524073621573,11.946750308179938
21.164421266907077,18.194484784616822,13.119524471643201
34.70253490035322,36.004552056665155,11.700496905260817
44.88951460468774,50.311717308118354,7.611834780106005
50.50798828966499,59.14438348110018,1.3046466473055454
50.89967466790136,61.24604657173513,6.324938627004484
45.938120525919025,56.30536145251543,14.086999962106889
36.025393623084916,45.07290864989691,20.665926916951065
22.107317196007656,29.264353834123966,24.843435626734724
5.682142622683951,11.263340143810542,25.785060867430463
11.281472548168137,6.324347930628429,23.177853577035446
26.58593413914432,21.13694391400146,17.30660989488212
38.15959479186028,31.396946619990146,9.061668460428628
44.44168095468775,36.07753824492491,0.42454237439525483
44.68133701102707,34.922257978109414,10.24870269877019
39.049032707578434,28.39333050702921,20.0268084439479
28.554093193257312,17.601686642292556,29.77628168237317
14.825947372547352,4.225484259976968,39.52825396829641
0.17107826921595845,9.614700347359186,48.93372404651799
14.421759391372827,21.58275537343003,56.52873700468908
26.09571565219276,29.48671023145719,59.796331367107854
33.73585210967373,31.71930118952897,56.66231811359554
36.40701706234106,27.630513074383497,46.2839559451637
33.80036730362713,17.683668716267942,28.83568078567235
26.296886997489768,3.3383880383309834,5.594924776892975
14.959580911434491,13.292291307266265,20.96469375692423
1.419415884458993,29.88658223673326,47.42888220293931
12.34188530778086,44.306304460737756,70.23815470403255
24.28770652978691,54.80887224665002,86.62854441552221
32.64920871088235,60.08794442447757,94.6998654572245
36.21701085606938,59.26247990623299,93.13289335217834
34.54283369914813,51.92113211193983,81.57088145499675
27.999150847345046,38.27910302275362,61.22843328512307
17.683510179266047,19.38322871062269,34.877697080249575
5.199223934873839,2.79811418347852,6.3498801336853266
7.626728534574239,25.53679049881377,20.097734362722836
19.031144156664745,45.80511946810625,40.458639862225525
27.541893260973435,60.92949986512328,51.80575843974276
32.11247774516217,69.19003380095711,53.55864158295804
32.197279467651136,70.11528122088828,47.75035943663785
27.785205984286993,64.35951784490905,37.40283325985978
19.39995878230021,53.24966070794366,25.307185268586448
8.086210396866235,38.2544872034151,13.917741500363102
4.658792639459001,20.648723892783465,5.08273536297618
17.060761036113227,1.5117315122720485,0.23240023053558934
27.3298981932149,17.986547825928167,1.9581069262527666
33.957262062028796,36.25338181008099,0.5359780227298
35.980111375683556,51.20575028465301,3.63118455771217
33.13703711479069,60.60789943194684,10.038081570219008
25.882449882908393,62.70678445797032,17.552110755753276
15.276090836641572,56.89344203683313,24.580211925750916
2.784224952575409,44.06046156141989,29.963411567499467
9.942942890515813,26.449363901336344,33.198278661278
21.270960290186974,7.044540360818777,33.83356722479482
29.756332502705042,11.209356245149506,31.524565243060465
34.29604096194555,26.034395362733914,26.49489595442806
34.260990377198965,36.08327539307146,19.43734718860771
29.61352282633116,40.845108021433255,11.202905588121455
20.955198472581785,40.383487540009064,2.5657652588809885
9.477134458805011,35.13731103170678,5.893749457875375
3.1862903798907554,25.89464727600283,13.6640909293689
15.209756525927206,13.877255761688607,20.316542639675887
24.876039028405877,0.7588415143542436,25.60398223164701
30.821198193430547,11.522108192315237,29.355677542020405
32.199239696509906,21.152706095335365,31.54742494343111
28.776006394046423,26.882785718009202,32.46938268469539
20.94892579654587,28.290273950190777,32.703990029437065
9.713789986920208,25.76195754464511,32.87845115960486
3.4252501160846043,20.22651797679809,33.13755840149427
16.63497792544808,12.795104693487273,32.923604112650025
28.00670382512719,4.498987537784642,31.473387532179746
35.84693592736971,3.779910410763022,28.194223241651528
38.95739044700746,11.22839229414985,22.56555315038347
36.8331173089716,17.025972095348212,14.578522590505896
29.731442572828097,20.40332571351854,5.231227484409895
18.60844538223851,20.829582614183185,4.016985897949189
4.955423707051248,18.228224722788664,11.61219589422402
9.406713244788815,13.087576302895092,15.985069340046262
22.545048420519596,6.388516826413865,16.275025234337832
32.647283899577936,0.6046628561162383,12.683854390933853
38.26113668036333,6.583305651857748,6.194942376252666
38.52769079236347,10.386235084908558,1.79730859823314
33.38439382246139,11.134854021215128,9.77058049717236
23.65981451321045,8.365578766572876,15.970210651604726
10.96327014610024,2.204775868061296,18.413717062751807
2.6291697379627985,6.464415735040758,15.442788190093587
14.995875382725762,15.97190640491219,6.560452602048527
24.37419098611915,24.09197406173233,7.065701007717634
29.618955244012227,28.55557353369079,22.93267356056775
30.26783601550209,27.702036464981187,38.09711329623436
26.467399651568048,21.027117502816164,49.9020028324152
18.8537190876234,9.386456010105988,56.156717711488746
8.460424883900547,5.250852046165823,55.62284658837066
3.347504312125196,20.380135950466453,48.575863347586974
14.961951565344368,33.60160153046954,36.2071920021626
24.691660580344095,43.07304169481961,20.07916763822577
31.012594596399474,47.67126409890884,2.3999846841925017
32.85793889502308,46.924494006364874,14.040569878934189
29.838991898182456,40.89139888457799,26.430667257339543
22.31632784637292,30.134082990167062,32.70856418469575
11.317551136818551,15.77324382333723,32.15806169589814
1.6562336089284135,0.488003248376349,25.389529855486668
14.866314757740303,16.496877775300344,14.125973341632498
26.5489777511065,29.996734602420638,1.0417482382387164
35.090866703283304,39.08766984506571,10.693442102801605
39.206344817080904,42.62478308766268,18.25091378200289
38.13327954852477,40.40448213607511,19.93851291975017
31.806842087739927,33.094068762995136,15.560285626460688
20.951035102631693,21.99855267936598,6.205251809129713
7.024013367780383,8.782403398212626,6.229726308197314
8.00356867328945,4.761556782705206,19.28357526858041
21.98776627689266,16.852854456976598,30.470046298994735
32.970787772594775,25.84183989688132,38.10809366009256
39.46445558591307,30.382797705143552,41.23707282095591
40.63110120063206,29.661106509719318,39.19678664410685
36.36696959487874,23.618357588203686,32.06238134147232
27.29354104928513,13.082475933311988,21.26694609378738
14.68388493789726,0.27934518303382194,9.313934372613986
0.31226157238261015,14.210313127355176,1.4127848061364903
13.798598623442212,26.265046863879515,9.498211347111672
25.695153048862867,34.264499112314276,14.37334329046189
33.81094621019668,36.7051063028384,16.053976238461708
37.21350691290755,33.03257825882696,15.248674332990474
35.7087811696886,23.726293694185756,13.557080639289133
29.786551754352157,10.18661795675713,13.149832452394028
20.463858765833358,5.540474442539916,15.786407881162324
9.092089192516308,21.130747306431743,21.91976694540452
2.832435795858943,34.360815170843296,30.546727506009432
13.827562697204856,43.4112816319309,39.78469273097724
22.71695256395905,47.25952242534593,47.65996775864615
28.773864823767596,45.810382085649074,52.63062419034815
31.6599794755298,39.71141433858718,53.92489814219539
31.453970341392303,30.2125630372933,51.50574444458432
28.63228039932835,18.93948322864384,45.720272990610596
23.966736435184522,7.617760675169236,37.26441696078639
18.364141354275034,2.2096812778606574,27.275600392329903
12.688677247394459,9.42726848994788,17.131588887633036
6.560866311407608,12.204141410341506,8.84298601854913
6.266644654995622,11.907357680221233,6.442438627106112
4.490277084924857,9.523697136235452,2.8717943111210387
0.9755765096979004,4.8882909338784675,1.7450627577362965
4.193560115084656,1.973025791745344,7.26557628378448
10.515711888016233,10.828951870380871,13.330389491292491
17.101191709656774,21.1448307656847,19.43834930794183
22.806705742686162,31.957968154188208,25.0400555696686
26.445970063487945,41.822490890816255,29.6324317829675
27.02087942815293,48.926057338058634,32.573881816619256
23.92344302529047,51.39132234861968,33.06284548935549
17.091323305367773,47.70706757656111,30.733859644292203
7.090685602170284,37.19928717616433,26.017224740596397
4.948678010735468,20.404169853858225,19.66255654985895
17.5409481617694,0.9195632563030177,11.993612970439724
29.06566293539552,24.221032538747032,3.0772739423294366
37.97363196299117,46.703918873221866,6.79258034445262
43.00190106394144,65.77640230065111,17.171143330521428
43.34610120678431,79.35962656413992,27.436765289189207
38.785060285809436,85.97988946363513,36.974880272499426
29.739497387346145,84.76495423531117,45.25930204623414
17.22633678478672,75.46480437334733,51.49505291487529
2.736521810078995,58.51906241025708,54.836096657025244
11.960307182937527,35.195999243031956,54.6494590397258
25.06498942705108,7.702925165692796,50.60286608667211
34.990046390468265,20.867190847315065,42.87639494140465
40.56225607356018,46.84358072689878,32.14076806845452
41.153923823062826,66.564527861126,19.475808439066405
36.731045807968236,77.14281955707352,6.002884049034297
27.84403232971521,77.20428117197757,7.258897537916338
15.565048762362888,67.32346505377718,19.124834868024532
1.3851589824533515,49.95030607371824,28.553732193616717
12.91014535080064,28.81074800044219,34.950113551704646
25.416241298578996,7.958032851981682,38.130396114130974
34.35816005910143,9.184432017614395,38.28554945035984
38.37885806640681,20.43545346564435,35.850841878801724
36.801357843821634,24.979465468857107,31.546612252301884
29.792627263737646,23.104192943667236,26.281644852363403
18.364600729481715,15.821625526755255,20.991263042869722
4.198911991263629,4.6558387270073744,16.675753299592266
10.650059845433166,8.34478692286551,14.116374392666899
24.100263530330608,20.5608040627291,13.501350136235128
34.35168041197252,29.00546849191514,14.469128891998142
40.10238579046074,30.95246852478,16.486659210944946
40.67951382909383,24.833039177152884,19.06394205424498
36.095435060342346,10.987457045700673,21.55646859090837
27.039043740438252,8.170601695959549,23.03758317722723
14.80882841150555,28.78302383436542,22.513735805830315
1.154481886808543,46.74494369762019,19.432569548852445
11.976332933897783,58.9376296287266,13.888831154200645
22.749527403403857,63.94506762494166,6.091530485663272
29.753988132518064,61.99287592939305,4.013547395741873
32.21696657988144,54.3016063922355,16.50160450587191
30.070838268873427,42.31966548043639,31.115184143535707
23.887773113603906,27.26237251436052,47.16145843736005
14.741628537416803,10.09223462532739,63.442099687737496
4.0468628525035255,8.244296814960153,77.94122430158596
6.611209826868983,26.61785116224428,88.01275072709109
15.65283801654277,43.763653754199154,91.0746618556218
21.695943341328913,58.52414267496561,85.07238305723092
23.76486493505613,70.01884173391586,69.12847504184333
21.475904698124516,77.56586961822035,44.113625174831824
15.140030795011652,80.4190301545391,12.514291830249016
5.73075221752454,77.58989279047935,22.028689356912597
5.288179556937553,68.04333963743689,55.4748895857591
16.22133273211439,51.298132426263415,84.19484408763826
25.42236815657542,28.123627702011444,105.19918733117005
31.534561608586966,0.8559821327882644,116.04894389904659
33.64902470858609,26.95506326627679,115.35849380716913
31.38923896888061,51.471549326995394,103.64768827464897
24.9445744749416,69.64000937371094,83.3035269826861
15.050750468548449,79.85710739813815,57.79392693752862
2.9148973448932622,81.95059441796903,30.858120608376225
9.922177541447352,76.67802166570995,5.847456092544684
21.806351127656846,65.20410081966932,14.8375953760344
31.22213133728736,48.94375962384117,30.312281470945408
37.00191773639609,29.790778065039614,41.105818826823224
38.47061683336999,10.362232650691697,48.812203205126806
35.505566537359286,6.191010236725049,55.86161385876421
28.520494267667793,16.98361308244538,64.112771107277
18.410426678477734,20.509494076303323,73.57740691296623
6.465791229457083,17.424912865138843,82.7988894427272
5.758033207220724,10.441457514132203,89.52514052646725
16.62333048839625,3.259865169491974,91.26190402919612
24.633431789929634,0.9539669276560424,85.92683266172071
28.66824803197679,0.7484553977212445,72.3452406406866
28.186038695450073,3.3945124268561977,50.62844016852321
23.33767232390919,9.827626465703158,22.519037418225015
14.951971761337335,16.939645926817782,8.68078881288832
4.402977138185695,24.03399299294099,39.0459910476925
6.596936674965625,31.3659805786571,64.96068867369897
16.256622071218473,39.38513873291396,83.62481343941738
22.97757937055813,47.76846726375976,93.4057185412822
25.591351416243818,54.924754004815455,93.9427521702107
23.55679712643046,58.32749653985182,86.24589351823855
17.081104692711982,55.52391430549983,72.37432732932832
7.113291510707569,45.2386406307331,55.09407599371688
4.803366779857107,27.97590538640242,37.694186615099234
16.806384978883955,5.850376146153929,22.808101165594515
27.05355840067089,18.205628216091544,11.554301349927481
34.033930447549984,41.36158547561206,3.907028590245588
36.76949631088378,61.42861706556572,0.9415833499068776
34.88396191678434,76.83609418047313,4.266654428404004
28.579666160706402,86.23137834602483,7.46663407364265
18.56691292386518,88.11922397160228,11.729754257777623
5.9791841696691534,80.93853559335615,17.42650251336261
7.717655705321863,63.711746721460536,23.84695060763322
20.850560515116673,37.00790063946735,29.804526436270724
31.741018224059445,3.694577513781398,34.36100762900262
38.97022147731306,31.051726662918547,36.96204533705514
41.623305939287086,60.76699243792614,37.38322497466759
39.45052719794896,79.51639702089294,35.68755047199537
32.88337290037359,83.81594495794478,32.04604336176342
22.89064467262253,73.871556452934,26.651569849382323
10.765455192651649,53.53060510822711,19.834755598767348
2.0773955044894317,28.866309162494694,12.303889312000459
14.232590318003513,5.979859117398861,5.040952726309306
24.360380073269045,10.99723471740465,1.2218891069737974
31.24013293131019,20.819106760688797,6.161582381170482
33.874542124886275,24.66647618504658,9.652853891202877
31.675260622811738,24.746746737031252,11.731732070128846
24.687371612563812,22.862636434894373,12.588755929530985
13.742510161687003,19.78977142642499,12.514796868424037
0.4464491377370544,15.716726115006757,12.00471247466175
13.04573346894085,11.255858117178013,11.552423874227344
24.42656841126232,8.114277503973705,11.210257860738883
31.695203630341762,8.755737447492292,10.737350799348654
33.53755957414078,15.075958525406554,9.948129734300322
29.544279186213956,26.8706985740507,8.760805133326011
20.258843105904877,41.177972929621006,7.206113084098774
7.060131593280226,53.078234421994644,5.397739689787387
8.048556868515908,57.67663277381164,3.4122862925382176
22.688590296226447,52.27001553268508,1.172473109690073
34.40703772086736,37.49353927598812,1.462089864350612
41.01409377555498,16.815057256265764,4.436154773328912
40.94855296287259,5.267943662406922,7.333339815273194
33.63386418119639,25.25526443504034,9.41653807754917
19.73333620857928,41.78136412273825,9.966782191291948
1.2095282353490118,55.36940069032147,8.608022321651628
18.90106369905287,67.1782004824292,5.4543704990805395
36.994901212296114,77.66156924691582,1.2973426496850755
49.59171527833149,85.97496749317718,2.491278786837873
54.67487985391728,90.37662456238306,4.880850222124585
52.042297011167555,89.30301814921772,5.45964607718067
42.615585644232645,82.43336522920362,4.083345057088469
28.203252088796525,71.07606696077666,0.8985295014789485
11.146847497568228,57.67137534194147,3.6914860244525456
6.075328459447533,44.74395539319184,9.041298296002806
21.218303922863235,33.93973619106879,14.403044983378633
32.55482263606016,25.646600016407426,19.041521238318303
14.636398758030142,5.390023186649333,10.53854812114257
11.614111529177919,8.79038486251947,0.3188380335100115
6.0546903059271955,9.604142068144627,11.491916528308783
1.8552094967405408,7.846201213103088,23.294013365053456
11.484461126453464,4.659497684747148,33.76483982511716
21.76233827001587,1.6323289802996463,41.78116659673619
31.327218047302136,0.037887481268876096,46.30767553160131
38.759243717332325,0.07106695558659668,46.596221011208364
42.89630558128159,1.00674202161899,42.46565684354269
43.08451222453183,2.3773898136860137,34.409400103838784
39.29446525792015,3.477773803232781,23.514957686826097
32.17925395900984,4.341839484152457,11.461718206122336
23.046275804798604,5.559554258650361,0.738082793782261
13.364347280670966,7.4875306859094755,6.315158679475989
4.084596766319301,9.381388738129605,9.238492373710038
4.404346000740972,9.739301339123063,9.395833118843324
12.039052704233804,7.279153183286072,8.986719252933538
18.920596769035892,1.750589185619909,10.485161562454952
25.065311992158833,5.630607762739414,15.685893922232538
30.35865240463389,12.753107700285755,24.94311872579984
34.62507861453153,17.75721903827327,37.39279252639228
37.683240954783194,19.9621894424252,51.55879756323503
39.45033095049395,20.13486093673708,65.60053668873604
39.93058645335228,19.784610279212107,77.42713770506127
39.17438236976401,20.061490970557887,85.1450452903432
37.258705465787685,20.98575693582581,87.38519949624646
34.285279055757194,21.440292703965184,83.20782715109534
30.450722045015866,19.914232916595097,71.97802461827723
26.09449436911776,15.383994939990469,53.75896949438257
21.67197924077822,7.80533304993187,29.640508736007334
17.624823853761388,2.019539504846313,1.3857028697871043
14.177811915019719,12.958740289097003,28.84897417221812
11.170400371770459,23.922834162707794,58.624064736795034
8.018842479890807,33.8349248007994,85.41154081500208
3.8689864958093794,41.326271031942326,107.06434390442774
2.101266393052411,44.61406388923753,122.38350135008201
10.34084430698184,41.92892347410245,130.8747900621053
20.680265928419725,32.42149613089473,132.14590650407973
32.2752537642678,17.043050172824536,125.76945820735192
43.75272570771434,1.2611778903946194,111.8186701290812
53.51721284125198,18.329642545915444,91.34749178110356
60.119515600520515,30.224610033253278,65.79600011045777
62.5784262096608,34.60733220390906,36.54781542886419
60.577712163599415,31.343179345310833,5.398934781451387
54.50315954261644,22.114048629792673,25.198660968773247
45.314948773268085,9.398720410008755,52.703289213618234
34.29670055606896,4.473156031496049,75.33077065225527
22.7699728719385,17.672913438397032,92.13241122926924
11.83868839780817,28.62920891795583,102.66385411051574
2.231720525643301,35.60792697196938,106.99634779216036
5.709767398177613,36.65336940578033,105.65957255318625
11.953045440159626,30.109428601305762,99.41193564474693
16.676197800641194,15.476671957069078,89.0033742161681
20.211873468352476,5.909020647703627,75.20158261041966
23.049769083854095,30.844012385036553,58.83490857342044
25.82785126434521,54.93433429064318,40.595539192528754
29.213529984104465,73.66185356787666,21.25665606378808
33.617309321968854,83.38292679459397,1.9133064867731246
38.81485228318197,81.9151738675815,16.127941503921942
43.6800606958816,68.68457284028419,31.49376995322814
46.21029606113431,44.62788989347009,43.0348414574757
43.94958578142545,12.052928312289932,50.006005148805066
34.768431988250704,25.499588999721514,52.15399948532045
17.70994132693453,63.49787203108417,49.76348304163381
6.447393068616002,96.87944264927137,43.583039967035994
35.12596186129003,120.77871060538945,34.827989364063434
64.42952484664116,131.36858441311074,24.95752263699688
89.98482140344181,126.56088721245568,15.357619138110579
107.84612348477614,106.41860156659654,7.243165305884273
115.19175774487128,73.21937193109834,1.4616371570299573
110.66614509425243,31.203428231163876,1.7260538339613574
94.3963476693057,13.948214276945022,2.4901848616190025
67.79374404500265,55.91318952716058,1.1119146770529535
33.2596204325589,88.76797519578133,1.8716547120813132
6.1623015521790565,108.12466272816229,5.4931087960981015
47.18554650835775,112.07705563956873,8.894163034171978
86.6976454172265,101.61336610669595,11.745155615061448
122.13067031872951,80.29661767515323,14.06141703723611
151.67011908199598,53.30290274259178,16.03165848343494
174.25595744609214,26.158750602467816,17.88066962474252
189.39777604893604,3.595052371175733,19.679625777152335
196.83646252009171,11.167426320650145,21.199514702213087
196.21136686162842,16.676761243736205,21.972256893185634
186.8912790182071,13.23417292943498,21.508493753866713
168.02730182650026,2.7377148236712108,19.333517799497272
138.8429277424962,11.578737416875878,15.210056165167995
99.1026116992986,25.613622070397064,9.283155923364355
49.64333746826131,35.19531046578506,1.71701054572428
7.210973100332395,37.100772590544125,7.246884273757022
67.54608044379276,29.959958884793817,17.011481414283192
126.18877958007054,14.647106074548132,26.819985225322558
177.48495756623643,6.070697306845955,35.88258119836296
216.3586231460461,28.51849666451761,43.298643671683834
239.3609960656169,49.28052677886122,48.07217270904696
245.35930420696144,66.00972505313594,49.41977284087248
235.60988937829686,77.61475979317687,47.15578107364536
213.23532212007171,83.91213093639185,41.73310893835932
182.3321558229463,85.1046139970005,34.02526265080161
147.05569057972997,81.46661524305235,24.934620647393277
110.99721686201771,73.35714181221606,15.224546453701727
76.93539146786411,61.41617332530981,5.599992942109229
46.83968276141828,46.65008582817631,3.415297199662066
21.940146439428187,30.244741057937176,11.425401326482783
2.730712888963361,13.213109370141913,18.014964078084102
11.091506885625147,3.874049970467161,22.901501761271163
20.607587716165213,20.830253287103645,26.260620345316333
27.440648636029945,37.46149912988862,28.846007525291725
33.32145182123743,53.10205596670229,31.38446673451239
39.620647123311514,66.42317764683604,34.030696656721375
47.06225377317819,75.69676524270994,36.4164681330176
55.732410917870226,79.394843969374,37.53499361608155
65.33876637059774,76.81991646707297,35.64702523733347
75.53169990463012,68.39952665740024,28.52769259595432
86.04064632513533,55.496937053266294,14.439071805026384
96.55209663770104,39.94332906261763,6.065819271862979
106.46158339489787,23.600416584392857,29.713464585309957
114.7134381073264,8.17746738773893,52.149905913091715
119.90108526287415,4.70889713104171,69.36898044947284
120.62284951190448,13.461626715111995,78.3224728720884
115.9300862936782,16.674983664468044,77.20517887580019
105.63896290135459,13.647503530765924,65.37531671834711
90.3501917661981,4.991514681702136,43.521602366417454
71.21849231890886,7.067693096456062,13.855793827422968
49.647569260471734,18.994291472152124,20.033104814842197
27.089794311860476,26.867434527300585,53.23846771288492
5.029325567640579,27.575680967950564,80.46744755190291
14.925309250178245,19.776779221350417,97.67216307406183
31.0334482301628,4.241569130337889,102.51016825106605
41.6497673306357,16.493872526010232,94.31311522016046
45.64313631856878,38.892567005252275,74.61396124960848
42.85056192496143,59.224447846783626,47.22771635359408
34.359563170990455,74.13084124949847,17.70386145704933
22.413528886067486,80.92468686240719,8.009105795705223
9.94624336569436,77.8591732850052,26.005950522995075
0.059020827993162786,64.51978831494631,35.43537050593902
5.176914935242259,42.28998666820368,37.23690470386308
3.938047899575104,14.62169475691296,33.24222944664093
4.038300805602695,13.248549040685667,25.704195037048887
18.104415774984727,35.31133628862941,16.852880230532588
36.734435639089575,46.369855385670974,9.068662886407878
57.68456176687475,43.68104880580229,4.361211166721807
78.16533874324585,27.991478344028003,3.6088766543495976
95.43436291351638,3.0205726654543676,6.658748854065287
107.2511606622996,25.973240840648426,12.388389456981308
112.02133174246636,53.55215907062961,19.160134939678894
109.13102973744564,75.38046116332089,25.60769196704545
99.12893864694709,88.97607673698765,30.528991519881455
83.64633329795849,93.77327657888767,32.812362365175524
65.06583135685257,90.67508098383188,32.007463063298864
46.01650040399215,81.42670048147521,28.436657030184968
11.458765153358128,12.456181552101873,0.24900495915285611
7.16883379055861,4.289819773234946,0.7064872381853896
0.2079280216860397,6.578649959966591,1.5168238208843619
9.009734021937803,17.2984553371378,2.567214221472227
19.81235799402522,24.937311460384013,3.5515048008171495
31.270403020459465,27.608375995285872,4.0837702892351215
42.10282587900548,25.11742629774691,3.8576475638898833
50.598304429391746,18.85093180814826,2.7335763610199306
54.73061343459865,11.005253847842972,0.6973491860959994
52.537763698720816,3.658820614763497,2.1033992363154272
42.701774253272625,1.8482289529329825,5.241710175750072
25.18445920298109,4.969565632359404,8.02337727603858
1.67971848328535,5.459482958402304,9.69154672423297
24.592831214204345,2.763056550550441,9.720664689804192
49.773104259396256,3.821173894877846,7.966779680200255
70.29392951145256,14.105995762956358,4.6469088805447125
83.58874147377742,26.245451125269984,0.26836682659561406
88.44481903536418,36.814732401135416,4.563137969561056
84.861646605045,41.7295004062,9.251626320252837
73.70560942535602,37.84905934782502,13.101587681869606
56.4021090033874,24.417345003319795,15.343944473532828
34.7738414595881,3.5773220517832884,15.381193371613746
11.035696387918849,20.342645328482952,13.057918816265918
12.259576220733798,42.51668831702236,8.732159767975885
32.467592827684314,59.37452896183188,3.093232516408439
47.31576907002191,69.62597283049304,3.0260170548808936
55.41579394830445,74.14694437964779,8.728089407684589
56.560630110991944,74.89510214055235,13.150015973565857
51.67111081139167,73.56892268625693,15.703944137464813
42.42448341917394,70.69594586133586,16.272272852670422
30.744872676063192,65.5417260060243,15.183141137448095
18.360389296466135,56.757611422512,13.05869247322947
6.611760317238417,43.30474092933609,10.529469166500588
3.4801535880087187,25.149364697463543,7.981488565895791
11.056718718217425,3.4288055913912974,5.567397100349302
15.313311874010418,19.88001465960997,3.320325234510207
15.54683279721876,42.545213335908805,1.2250373661652163
11.352288486761111,62.62431778661971,0.7258900083141203
2.8639827539816336,78.74371368108513,2.4934854667362836
9.058961320502144,90.06645389995668,4.087437782586591
22.795673933077666,96.06275429465882,5.663959735321589
36.119479981479174,96.28914517605993,7.270503600518536
46.55532329186843,90.37657233457503,8.637655918542759
51.879447401423704,78.30500573115218,9.417113678383963
50.62581634153274,60.859173088097805,9.344041011342963
42.46000600352037,39.96765055886783,8.22329014728147
28.293517673135486,18.589010690001587,6.043796063454174
10.077786829061207,0.009989588696540989,3.0173919631478823
9.666056391996898,13.254115755788193,0.4639182861620896
28.403189361816796,20.46271424245227,3.806125386321461
44.00296344658021,22.979728890412485,6.30447074175307
54.922288392836606,23.62274182630643,7.35577788050782
60.206549794443845,25.25875802962196,6.619846735830807
59.43104981290683,29.353379028146097,4.037124818875872
52.7221703792662,35.272168384726335,0.22621078766622682
40.88647244977008,40.757627545682354,5.734742626347647
25.53073956087202,43.33065573828154,11.657634563783887
8.995284655527378,41.79815691474925,16.774993665449916
6.019623079722909,36.97400738943606,19.740341062913078
17.062780888496803,31.17276336888754,19.52016860879864
22.540900670390773,26.779743526765266,15.877995843524896
22.06539918612195,24.779780397567105,9.524098837310211
16.40371140743183,24.13752897736373,1.8540159809272334
7.1071034454079784,22.396059381025825,5.179060809662129
3.985639958217288,17.124813397255867,9.341885722279375
15.131194027028618,7.3561952635509025,9.021191516271303
24.822238018793577,5.784696898901031,3.816857306870461
31.755055535943885,19.51941200733776,5.702880496583972
34.78991131329892,30.56948547297215,18.23363438188125
33.0489458601558,36.347126698449145,31.674886631956436
26.167911624615318,35.62197762492839,43.243879033730806
14.566520895533039,28.537061130504142,49.87248634532845
0.4437551589148839,16.237896739152315,48.94961893969206
16.82124755634446,0.48253341954189055,39.028747593695385
32.190247317627325,16.533542302926737,19.979292635010655
44.33257384648382,32.20069088541825,6.885317708846575
51.60350157393286,43.629464395503994,38.73980683592078
53.15524015346563,48.069104357421914,71.67294649265833
48.96051924947992,43.562949590835736,101.13584084343951
39.70254399408213,29.595034187972207,122.65936423837715
26.62809317960657,7.443919146225945,132.7635157817474
11.404212224175215,19.904465886053572,129.4088408349445
4.052827943251287,48.25300276428785,112.56970275453791
17.781439183472692,72.95012430931567,84.53580977315484
28.005199919509437,89.75838157792545,49.04084891354293
33.37998790683965,95.69295479580619,10.370044577482082
33.20811036004917,89.67645666249216,26.869501105477166
27.57425863733233,72.83157505085168,58.27983193235452
17.3810973291036,48.21777059992578,80.66403940641362
4.26247088362349,19.966587633857504,92.64465501467647
9.637112740526478,7.94700611937183,94.55605679383885
21.98800423067784,32.77678906668663,87.9421833076573
30.661225328448914,53.3713169605556,75.05768533866866
34.11446686612028,69.67601058754539,58.574682522296776
31.683705258782144,81.71350542955459,41.4048997625577
23.696423479996156,88.70127847867204,26.342929819751667
11.365847830834154,88.94452387734533,15.516821304881931
3.4801817692697004,80.6732130035413,9.868715003697213
18.721878752044468,63.35999058705859,9.086035774419946
32.25154265421064,38.690385387282596,12.001908448501073
42.21546465256164,10.51182020808225,16.826674704192815
47.18061811242312,16.301746518202652,21.464237358040275
46.271424228071616,37.48296943524891,24.08694824421536
39.3146674860215,50.615746623221945,23.4236426167662
26.95640595122243,55.38363391269004,19.128043812433084
10.670726450344384,52.89274505976328,12.037254787226304
7.402520630312366,44.68499613495542,3.726316441685265
24.798166807685217,32.17042333430469,4.188375445760601
39.16584794390494,16.811189234773146,10.621468732582892
48.68132594411767,0.7380966654224083,15.132221592081889
52.30291380654434,12.926550635635508,17.820711033337876
49.82621896498557,20.637592593124314,19.298225098370253
41.78052760131504,19.840451827914812,20.252539123019137
29.226626321074445,10.488982163868043,21.15558901605414
13.55854174151262,4.294143574613867,22.357062945538754
3.6117952166967857,19.003116893030423,23.951124888552762
20.51951520664033,27.781192883036823,25.66703112073401
35.3269080483351,26.75332555378215,26.983870593674318
46.27259700176322,15.514489825447976,27.513830740303597
51.90905559223017,2.917193387086693,27.326194164755403
51.37424807189235,23.557551707272975,26.55857954889373
44.6011760010366,41.468532571993975,25.068320403920804
32.39449044446867,53.28818654029196,22.773481319941595
16.334230634750163,57.66673721718474,19.86997905958186
1.4953777986201626,54.69724778735754,16.74634905723888
18.855318923059983,44.98414272562248,13.986491596878972
33.665694788338556,29.058913588231363,12.184307034059435
44.24173996299236,7.486866673056342,11.577314110182877
49.4304578976529,18.524102720715316,11.871657528224008
48.676231773725966,46.57828987871037,12.39056004046733
42.06002919915835,73.12166703354953,12.41737692574297
30.31140053259356,94.16743601057749,11.42169241850106
14.793293181466822,106.36607629451507,9.181478648810993
2.5962848237646137,107.83620496265858,5.737188849879142
19.659935197308496,98.36349660066867,1.229459572465825
34.22938995008392,78.97732791116813,3.846344940453523
44.52685712305792,51.280565156346945,8.465238992275253
49.46399218624852,17.016792971576468,11.783775963208305
48.77754102893252,21.85138749475713,13.849301641802837
42.99984433576186,62.64478809217041,15.296884637688011
33.303151592099624,101.52148557204379,16.932711914102004
21.249623316441674,133.57670933915244,19.86757438268754
8.460868344673823,154.68922423880173,24.684743912886262
3.6482306006773655,162.49987015135008,30.956936157724595
13.977398549566665,156.12021826749094,37.91029955685322
21.777120989802917,136.6341086657523,44.644848087901444
26.64972794298941,107.10954407821026,50.26053992085887
28.54242049930392,72.05158691067011,53.95218961227309
27.737678384306403,36.48732102004587,55.12019116391623
24.80545573794573,4.987287583748668,53.6137188336064
0.16283921289073083,14.001734108918985,11.774681428252174
2.119365021876857,11.788297419575125,3.74634478451016
4.626898327026693,6.58238250452356,6.066094183389677
6.921714599717782,1.514829693109609,16.61436165283821
8.582988526713939,11.59591192584251,26.896527998114276
9.266944453747312,22.06167265869905,35.82871805661124
8.768759526621045,31.020778925933357,42.387925796842794
7.079557973286982,36.776935848563994,45.82383280749272
4.429465454271362,38.243370774682774,45.7018916125683
1.2536405279299958,35.1010716274093,41.91285582740652
1.9366912367060103,27.710160454061327,34.85267504807607
4.713911563438826,16.985891436389288,25.528251169688254
6.849784910873156,4.362336298578166,15.528985270118438
8.407143921675818,8.397102724253239,6.2524601780310585
9.753430230056027,19.558214232007426,2.3333496574666497
11.319739993914075,27.546778882309617,11.501478859113368
13.256112770168308,31.08752740589649,22.61524690916303
15.251247997894573,29.601263171061785,36.06164401173834
16.566867012531652,23.52463112027459,50.69261730364266
16.312048680894797,14.374587430363938,64.5686006925076
13.823923140140822,4.379050999427577,75.52412108804083
8.936391308970498,4.291435714422398,81.2066856079122
2.034992427807588,10.305032168685015,79.89398899366816
6.109329301227861,13.620247595557862,70.97757663752212
14.568365930340017,15.290477544372214,54.70639061042575
22.382458177976183,16.702217984705733,32.14435177159838
28.550150640400936,18.6637368750075,5.249082872184889
31.971297468448796,20.75903207266935,23.178111468510604
31.52487846340682,21.341851765548718,49.72518560063866
26.36961671822315,18.192812482673087,70.88598346690404
16.399594537571897,9.501910245020325,83.84327263917481
2.6369394355908877,5.269635018705932,87.05060677638411
12.73146628460814,25.01563021986676,80.17219776019336
26.785824923567603,47.203196272727865,64.0588846544676
36.648055442757205,68.52312575392358,41.2116176706557
40.301641576045924,85.65142934736538,15.498136797208575
37.08764681536669,95.81857485225835,9.282923420707382
27.710609668413266,97.09250917485744,30.185766721404217
13.84975447457016,88.48059112227342,44.84312696628577
2.383936393256127,70.00519978313767,51.743043435656595
18.86520652325567,42.84732766621683,50.77738034537625
33.62487274295122,9.514815381331378,42.89231018849816
44.85685942791002,26.177358614309743,29.572262313506705
50.94621595086924,59.53694981055434,12.80226106433441
50.6664463340016,85.8693387990769,4.916711031069994
43.52523670025933,101.59408738438107,20.795062115046054
30.08481821612966,105.2150523387162,32.361279417882194
12.050999615357792,97.73806495628135,38.20812812500256
7.974717081687689,82.31277069954461,38.11587680469213
27.02833078745305,63.21386474558938,32.60201000483107
42.41450467534318,44.57815349411855,22.825557806102616
52.18914669802275,29.388063995549636,10.649998799562265
55.37432165793189,19.041689674694588,1.7351919743950672
51.94113669984263,13.535895511575076,12.400027319669904
42.65338746254395,12.0091254703543,20.18082261894801
28.89647318161843,13.275623900143982,24.56749577873072
12.531827075785113,16.09208290634638,25.40319420571121
4.267230809590435,19.158057129466805,23.109404795069782
19.243626553068573,21.024380628139856,18.416726929280877
30.37401303953478,20.150497922166455,11.869950825700169
36.21017068056972,15.225265527808041,4.116894460108471
36.13816723750069,5.602810440788803,3.7937567556970224
30.4763834924534,8.383120361654225,10.635534785596025
20.38458406505094,25.41555497880843,15.648940550954876
7.625595653444304,43.53709815348828,19.033441820852563
5.749319264718434,60.636458774933594,21.553299434280902
17.71355774475202,74.81174721021291,23.665005601558146
26.541060788107036,84.47358481207958,25.02697436344494
31.02368574666519,88.24789993286518,24.580515141735976
30.606875044133524,84.90981554969717,20.963960051341484
25.451035241260776,73.59080683457321,13.167912891554815
16.3920883371704,54.290702917564865,0.9132395122166196
4.790431835126471,28.424973896253764,15.174263711172761
7.693231798024571,0.9616657385472587,33.03192556994743
19.351347456256846,29.560955818318792,49.48431588518007
28.654680909709302,52.74209458182844,61.501223137633815
34.43248711329544,66.71022357847143,66.76611781546903
36.00531068209324,69.40040110328097,63.974446373498445
33.25602878641566,60.78214515083396,53.16237110371546
26.64548206835281,42.54293866162407,35.38223306693601
17.159453280266856,17.479979298757648,12.318094832427912
6.172207442444466,11.021999657735458,13.719305898425251
4.7657018765662,39.24922429428314,39.69808639696951
14.170327632046762,63.23130423480793,62.10641528389285
20.82349045997041,78.97594511662982,77.76658368740503
23.901206676945677,83.13785670373076,84.61299748928357
23.04390757071692,74.02098529157551,82.08684000347567
18.396222333260017,52.46368996867935,71.2295157946295
10.641434347889168,22.042397474149965,54.30921817294818
1.0032812797590822,11.719029921301429,34.189690228023544
8.84300223500368,42.95886439930441,13.775259987946614
17.003055454309635,67.21048129874937,4.612381747498647
21.73580249149242,82.42753932508361,19.771188842270956
21.87508042952734,88.88187033089095,31.438196874128327
17.1608990707854,88.10742470124391,39.71419790553046
8.330455012554244,81.58637243974304,45.050685751162895
3.076229691331671,70.01307980620076,48.24938989901875
15.097791086016864,53.53544466050679,49.933212292414375
25.77663160442095,32.70341801429173,50.510251109120986
33.48431329813295,9.374904388471618,50.48740465027625
37.0847931519913,13.155892434124416,50.31771340500458
35.97256363109624,31.028828185056277,50.08304192749287
30.05744161115029,41.260384337925395,49.21204614097204
19.785584894307526,42.94635529847617,46.515131190636666
6.198263414143481,37.516683586769815,40.7976998670193
9.083830471783665,27.905125126600613,31.445325083822425
24.027853639610893,17.17899876821521,18.49005855286243
36.50948424096925,7.4539642382353595,2.628830907926493
44.72259830413328,0.3556612355775839,14.84484856188196
47.53942253035028,5.9740684445718175,32.69986628544615
44.69013735366138,8.944301652851733,50.07679824800833
36.716371320711325,8.25774770878725,66.02704810430924
24.755144453004977,2.7579182647953404,79.16125067231559
10.267913796011866,7.948789690612834,87.71539146706134
5.174966793382714,22.69461378413031,90.10617054923591
20.0134330834816,38.66492566494345,85.42366048299006
32.77287927578666,52.18649045892283,73.5048268102726
42.14773812302888,59.95211293427238,55.3199102575868
47.11693592638082,60.01670153424547,33.23488069352268
47.08846371435364,52.071740926092936,10.33690208293961
42.02221507216569,36.979676732121696,10.588663167716337
32.48403171134913,16.06677587649203,27.754821670152086
19.594274293798982,9.280230793803863,40.534361577997785
4.876264543123555,37.46898344017235,49.072264105412486
9.9306554840792,66.17656295929689,53.817961333907334
23.064254690704075,91.9911025953262,55.32022274259916
32.94372167386314,110.69693941003956,53.8322113139485
38.37409429185254,118.23874943887184,49.2429508301271
38.72850752568705,111.96029547783098,41.744396324557826
34.06689895495066,91.5365355514101,31.859349119127195
25.151270132104028,59.186587222424556,20.192870806617915
13.339233151740405,19.1307777041619,7.553868485502059
0.3547309332412958,23.358951641369572,5.300374324353092
12.00386592133488,62.88758317360036,17.7403818539458
22.125282013386883,94.62409396983767,29.104489972994987
28.76612575215702,114.77597834951092,38.52263086227279
31.137464865447186,121.04204098334839,44.61273472897856
28.936919126003815,113.10106982585354,45.76974854236465
22.37738600485554,92.94898493440637,40.73661403244221
12.211044728862335,64.79360960117081,29.02750123430153
0.27959842074122754,34.24747666327511,11.360021664968338
13.372571533845235,6.905454125785918,10.18101081892483
25.315778935441507,13.045161713259898,32.82233047183139
34.727422560472945,23.55491984271726,53.809946301663864
40.740215522467516,24.84095162897866,70.61093118431309
43.09309810823172,18.9892333593752,81.44457977937269
42.086469108692455,9.059645824026902,85.63499634276326
38.419807591613655,1.8972071822421335,83.38168781466584
32.98028273006143,11.538379714840318,75.72523635672762
26.654385481807694,18.483376355767636,64.35621837323231
8.953353673873446,7.039297544967311,4.8608069789363455
9.640736341748553,3.2877655792895735,6.080933051933706
8.718367747959954,1.481906845728907,6.471853977675375
5.758186613002381,6.509726290598582,5.558964099754104
0.6247409195485898,11.207286485370151,3.0867799797256703
6.397249053057009,15.192082849926935,0.7981226153150673
14.54629025941499,18.156871440971248,5.475307398372261
22.65417043793459,19.72422958147626,10.147001819388512
29.323016547592978,19.432862663451665,13.991030535449987
33.18568463411923,16.91972135664256,16.348934323603686
33.16901062377657,12.195474130014533,16.966157885112473
28.686798953417178,5.86228599297186,15.954659564362185
19.786284599914374,0.8150389506809628,13.706276120014593
7.306374395560399,6.0950333596510795,10.885166139438779
7.147102944488344,8.380849021733994,8.087267855410818
21.5344831486674,6.984102979740299,5.235207199140445
33.7294005394717,2.365708311544356,1.8067380700876923
41.830877778011626,4.168527022414194,2.3642635060850887
44.52403037578114,10.931101167882895,7.06774899089853
41.34455576555199,16.21628157854081,12.015240929836992
32.829934723794224,18.360275914742466,16.894309222502034
20.47894604231521,15.66114353864633,21.383548740661293
6.454182492540761,6.521513409924663,25.140102621668298
6.864542370811541,9.992958404121362,27.896340170291506
17.387069710224665,33.26191020258287,29.340502621275935
23.719232057002984,60.379939495254504,29.016801201877055
25.354703774195325,86.17111135896866,26.588019302913093
22.63813157004086,104.23736163423197,21.950817356424434
16.544064604123754,108.82035468692474,15.311164557881018
8.39695222338599,96.74094429944853,7.231475601075199
0.38338053039673564,68.56870635764719,1.4396696902776092
8.467038444552104,28.50677113209273,9.757853485445061
14.739975402470243,16.90725166402878,17.109072970213717
18.40781022406298,60.646429674654776,23.129539897455697
19.081222079205375,96.78885410129753,27.580130729117187
16.834891199790167,121.31330255402301,30.664552882591465
12.194179813452106,132.1057722447017,32.6461030559882
6.019019310230855,128.62891430963248,33.51805390493146
0.7049395977456949,111.72782182420171,33.195225682928424
7.119158221596592,83.74295773111113,31.381013200159117
12.669312161687856,48.6745525055755,27.7465654623577
17.124455193898786,11.93841515732441,22.16869858200522
20.448280784375385,20.559025243899434,14.702896727601923
22.597190885393914,43.87554493734643,5.7667836692446555
23.362551924860668,55.43189349896574,3.8582673621259183
22.350093322784687,55.66932749083543,13.227931287923573
19.13178438574394,47.60734170798321,21.55807199245734
13.507895908942897,35.48203358881297,28.319124555464736
5.7501380415578955,23.13423823661665,32.91891442406996
3.2825454453202125,12.897677277101696,34.76035549575313
12.222694248290765,5.383310690079942,33.720395316409316
19.449374151294137,0.07405964998368071,30.332464402620662
23.430712718294973,3.7241079279476783,25.148128087703434
23.06585189304924,6.138335595145532,18.41218634612692
17.952642218234388,6.543352680369742,10.73852162399622
8.525866056870901,3.91735680576396,3.108480944344652
3.9594188865579443,2.5312112344151596,3.5518854696828592
17.582055505069846,12.795592945529428,8.475403389946754
30.026604123264317,25.780477230428946,11.379033451917913
38.960364393019645,39.359852686234355,12.29954769464469
42.44488636787859,50.76749871566655,11.342383996032185
39.29474269765148,57.23942481063836,8.889009354673997
29.321559884244834,56.763091465946616,5.619840514754531
13.402441984211897,48.71337130348669,2.5051680820759885
6.629593248389262,34.11931586051681,0.7873391816544363
28.226993837992627,15.406254994795416,1.8871370407709689
48.4738738878406,4.3321543770663515,6.636040488971413
64.49715915185743,22.253814336717294,14.183400192922788
73.9012389124636,36.46212023803568,22.440537912249056
75.17697809061745,46.16033691405673,29.379920338769352
67.99156206075727,51.28805589033884,33.688663033172844
53.28928441249774,51.98552850854336,34.63599405467192
33.14690791989056,48.328821660727115,31.6264377555527
10.366035056389613,40.56230639009836,24.339194790807532
12.075247072623947,29.66012187397719,13.027888926104833
31.533911695865143,17.732700022914596,1.3403737084893028
46.050460272171144,7.797628475095017,16.998523443778673
54.48038852061752,2.8114281314218412,31.859395108911993
56.44981278665943,4.371904252645883,43.96095898343517
52.2537011473954,11.79917592895153,51.62685003254283
42.790219168210996,22.169979189459927,53.731874275604234
29.524534798686265,31.380330280192904,49.93775116851786
14.418622046800994,35.72313569991405,40.900342152997126
0.25222649920864315,33.18822688744037,28.270886530269458
12.242425669191334,23.90293564826021,14.506239617663066
19.767472372161972,9.627242428621534,2.1253132623192816
21.861684287619582,7.265113485302803,7.41694566539874
18.53098241346901,24.65914199537885,13.842408864008089
10.677749004792338,40.98204198586223,17.427944704726873
0.13959955878601998,54.920470434650845,18.622536878360428
12.023120372046042,64.99938045681245,17.98118792830477
23.027804530780486,69.50761740882402,16.294149195355445
31.379333699502922,66.95105396931365,14.48102116919874
35.64573839001929,56.83110304798856,13.237939882954766
34.90103411090507,40.27464497850968,12.820380220670588
28.891237123748535,20.042511584106027,13.275955667557128
18.138703801762336,0.18445770253556248,14.69324715934696
3.909154793008519,16.922683200952928,16.843892335924448
11.962611752093652,27.905283473531416,19.17697036981553
27.366013344028023,32.55420545377608,21.278229887953707
40.2394618810981,31.755383976019964,22.761729359311396
48.829432508412715,27.16885386055292,23.232342714281213
51.88669467103598,20.48569422518939,22.621873532817773
48.81928365256818,12.96987932725903,21.108891058670903
39.80010634573109,5.417112464728743,18.78837686015128
25.829326882353786,1.5917709549972514,15.570714216866895
8.705794751822642,7.424318106427273,11.182587472754179
9.169173141029741,11.337945017687236,5.173274797229176
25.17528282646492,12.684042858626595,2.9448378301575415
36.955213789537865,11.219959338734824,13.505893702198442
42.84685936612206,7.279852789525628,26.365955043204163
42.156503412871814,1.6815456830478628,40.52192146751103
35.22145368086279,4.618382741133775,54.10620458821386
23.281085372662634,10.949775332608597,64.82394644648329
8.234079319826384,17.143390593066755,70.8265255063476
7.645099875828077,23.36804563496427,71.21014683195177
21.99328547175151,29.655249003166563,65.6240221289744
32.65678477704059,35.38357546149247,54.29667081676467
38.01008451556159,39.090232933984424,38.468143931889266
37.26321108459326,38.82928433762189,20.040003670028295
30.66531966043826,32.97406745564733,1.1397665074151369
19.492746078852736,21.093992662315753,15.982228258271965
5.79151328956925,4.445274353682243,29.740794341005575
8.055696226747996,14.246716257030597,39.904007685037804
19.7954580586031,31.64473408571529,46.932674789957304
27.667456070824834,44.87750368684658,51.30709273444512
30.61797397153495,52.33247209539095,53.80660116259483
28.360419761631793,53.813194782669115,55.70153285371982
21.33507931573383,50.102134624893914,58.080109083672504
10.644005190770136,42.30934140123801,60.7753734246422
2.055815820473166,31.437383364421816,62.22209160664577
14.75279293397154,18.39354541597862,60.492784090635055
25.383850741004302,4.328144565813197,54.003724299594786
32.19478046543635,9.08387539037431,41.58244116564309
34.05527983540027,19.7911547974617,22.88636337796344
30.64141702230069,26.012486533895203,1.0775625404895435
22.447754165263028,27.057776226082268,27.898708761093825
10.639310699276143,23.814778536628243,54.1976584982551
3.1883308741996785,18.522344772776844,76.37714671707138
17.246590098539674,13.870890329805006,91.13847698251715
29.74974604662448,11.869441773814275,95.85706013904263
39.097858349393356,13.055710357543065,89.25570997637871
44.27666289412549,16.62672182233178,72.28647378942348
44.999626046392855,21.103867854610375,47.57755067395256
41.554041301011864,25.001100278022324,18.27121740447667
34.77207938135187,27.40382016042,11.982434113535504
25.9014577458245,28.144710801535158,39.06518900395206
16.378949179690903,27.56927990667809,59.352697681243505
7.546057815878748,26.11241497504825,71.06059697747862
0.3971365902898663,23.98249810560403,74.40707515977557
5.365662689412336,10.368375313417197,6.647433374256109
5.396823059020513,10.649018696474451,6.975417622475095
4.475774428703183,8.622430134165823,7.511744185583252
2.242398667578917,4.37370709357297,8.164976670423291
1.4851638387336108,1.5264818415039472,8.609617153037002
6.567845336433089,8.284477346474716,8.064978627268454
12.493491629920717,15.11590145873029,5.6241462779968625
18.42794792375405,21.3373990076837,0.7660274396132035
23.351302400622778,26.29280308180276,6.49112407923164
26.231803337096228,29.240914962986608,15.444759533643259
26.203075513197316,29.3481747521741,24.88800807605985
22.740240604457167,25.834292263756662,33.637056394093186
15.81498634881931,18.258833552287182,40.87581619841483
5.9120923032221055,6.9514122504790326,45.96967028442612
6.0647543359000124,6.698353011790144,48.33505684903267
18.81855035702533,20.51622614556207,47.56501477972477
30.72552634992005,32.20963596870473,43.09782885662228
40.05380879557108,40.01110336109496,34.369242028793124
45.244912598031625,43.06759371937404,21.494053341757198
45.23958962554951,41.391611274849495,5.3611171652484595
39.73776766598914,35.51893676534632,12.424802093231843
29.2928990521921,26.163359580754193,29.907203741497874
15.257837994161456,14.058731034366302,45.31185604664298
0.43462718391864585,0.08464480708430329,57.407116722926865
15.593306396076889,14.507474700145268,65.86482913727525
28.105371761594515,28.016367168793792,70.88160415095145
36.25147197224723,38.49006707087018,72.6214794147753
38.96036213733246,44.17884843166922,71.2126140090994
35.97564353982149,44.02444143602514,66.6919817479419
27.894705627675368,37.954003153976764,58.979137164461726
16.065336024535902,26.858817509336845,48.072970718513375
2.361384065515837,12.319092794686318,34.46616875601665
11.128149868181444,3.744158859893717,19.338922842841185
22.417566116505466,19.34312444122939,3.976042773061734
29.881197945569433,32.567309199792085,10.757983558706583
32.432500148066396,41.67572891097722,24.410944403964127
29.628793911392826,45.27566655775228,36.80456099774276
21.723538063335024,42.64302517399054,47.79157740585259
9.686404407340865,34.085233554982146,56.985868250697315
4.838924088851457,21.12179741165392,63.67969271482556
19.706516290054566,6.2772723311845295,67.12378977509927
32.58987439607156,7.540631774934623,66.81481017256286
41.40432053557299,17.885429498188483,62.685112866334414
44.729406630228716,23.49458870895018,55.28367872890264
42.07988158732654,24.555785426557176,45.401206338592395
33.93487102794295,22.404514157036015,33.64835799797403
21.544474681761738,18.81794160946004,20.548709287220422
6.601941366389924,15.24090160585205,6.8702518859495125
9.062789700703396,12.31182844727376,6.178378310914813
23.668828907679302,9.878655249177887,17.454151516342115
35.57017146452326,7.401700166403736,26.095697940341832
43.307121356808565,4.461953526085111,31.139117266428343
45.72137843667673,1.0905838924765165,31.89371720566934
42.19325942959356,2.225613844055727,28.40385914942614
32.918716828342774,4.792301437627801,21.3597379660853
19.069524868526504,6.010023987879955,12.015142863205972
2.717239066652882,5.567812385187223,1.9220692933116577
13.526713612560984,3.470460811022502,7.434307890099128
27.071561805765974,0.023659907587917837,14.578746692751105
35.9044001725563,4.404749741711808,17.79681172882455
38.96571582606525,8.810644743643543,15.54280889477123
36.253217500312395,11.940784435361552,7.2626082663669145
28.67784392827335,12.187235283344185,6.048065794122831
17.797481707952425,8.114472207000695,21.86597568791973
5.520533339753798,0.8257791731009314,37.19655490931716
6.179995779686616,13.664753395776003,49.53374933777082
15.525282773786204,27.73809235485292,57.115880437653686
21.190666442901865,39.19794103526695,59.29787217959425
22.544260643568922,44.129438767849294,56.459564409701194
19.765000142102245,39.852718731132875,49.618329094396096
13.781789700717134,25.869328770178615,40.18125507813667
6.044458458619321,4.084987603867986,29.07759622466157
1.8194937613051327,21.713721184964932,16.247595663080823
8.3476047036197,46.85567817804767,1.4510749130662943
12.467632594824046,66.83231175484786,14.867298818499876
13.576234240553543,78.07959062991513,31.533638395257263
11.51517549941092,78.41866429233006,47.11286762148133
6.515595180093038,67.2420422555652,60.47958480400816
0.8479015339306607,45.584755443022345,70.94436843462233
9.703231090313713,16.108328864154267,77.9353749273089
18.957680126659273,17.126529280049922,80.76178809598575
27.445596390108587,49.25226741759273,78.51164460643923
34.126246438385586,75.54320227761607,70.44269524489565
38.23508811703059,92.45131126256193,56.88531997568151
39.31575872840694,98.34601657117221,39.448465338227656
37.13311763098977,93.65152293652086,20.126571224811972
31.55421594867819,80.34170832246353,0.5397612715614212
22.52421186286712,61.072483783495706,17.76778505447683
10.208676346676231,38.37472563831955,32.96272197472918
4.756568798665512,14.258886778632604,43.62970813464617
21.080937689021578,9.707797910965656,49.781299725954455
36.86233412008134,32.09108245108494,52.81447004994158
49.91374415186324,51.36308599034912,54.32386586482969
58.27444837387683,65.96463924175596,55.13643532369108
60.70571974799838,74.63792578519735,55.36467397349133
56.97213809026838,76.80329561336414,54.69682907732856
47.80272421976718,72.72501549203893,52.53219827039038
34.61397403190414,63.38367985985787,48.12182801915623
19.165938801126185,50.17017909053667,40.703466603006206
3.2776510717578735,34.58901022376328,29.972338595196327
11.33494529044325,18.119218344223714,16.820655644381674
23.138860017383443,2.2227404057126297,3.532499476264407
30.87197637963395,11.648051702904345,7.068542411519795
33.68659705276952,22.16845004488935,13.10620843223391
31.325677732304495,28.40418342881551,14.713167349991272
24.23918336582596,30.087334661710365,13.831210629617889
13.565120065630166,27.716748759504917,12.820260351810855
0.9720927769928254,22.421644628219436,13.264718013896823
11.59326895194182,15.664824974406443,16.06170305954039
22.177773428879807,8.940516137094834,21.720114320731632
29.057204371428337,3.606880707742403,30.039626879319353
30.94988762218614,0.8469250698965561,39.91685625961209
27.227014603978613,1.6040434855312395,49.752252454980265
18.084101889023152,6.362933972214095,58.1340136607063
4.61622462385674,14.82394203041893,63.965801651404895
11.266493908934997,25.659014594990143,66.12286448004137
27.126058013812237,36.58513940272905,63.551521956099144
40.43447258927811,44.873836182033855,55.601430749438904
49.0454370353884,48.13534396183715,42.32481843510189
51.57955910169232,45.021108044885935,24.87595541384013
47.63646336798429,35.498176372735294,5.52116003489057
37.83051121206061,20.59617179748533,13.111956768970447
23.683693636231798,1.8674379146357007,29.11124911774447
7.402891857748259,19.05842775057815,41.784555785017574
8.444754188764596,40.54541951507577,51.28599443747321
21.3541975502698,60.64962708965271,57.88125171124899
29.35007423806101,76.79035999015072,61.54110499576193
31.39863037718797,85.83344000560615,62.07474378889023
27.646003500084763,84.75091139865938,59.319353877263765
19.375095787353995,71.66424787056096,53.22582145135815
8.653836925084189,46.82871340427085,43.97419064197216
2.20708246660952,13.042580124869335,32.11815752302655
11.189373548310828,24.755199115351225,18.842059627720598
16.938347275663876,60.507021469545336,5.958945613037618
18.88938645223057,88.27316822501032,4.607612478621352
17.180134819713913,103.30958442312925,11.508793130670242
12.45276335653117,102.80108719509187,14.350475071799679
5.637448318704772,86.27541656886171,13.514008393885913
2.2301953885677728,55.78231760415064,9.88753884405417
10.155557479657595,15.811795845761003,4.765766882155991
17.31179220936935,27.186360823419275,0.42989687381503117
23.140862340809118,65.81885970875926,4.516374446559135
27.321503095221146,94.00664948756985,6.799173741764315
29.785831566877135,107.96655188540822,7.029195810021523
30.7465154075582,106.00180902580529,5.285098586115974
30.550260364005734,89.07364102560496,1.9541125569604008
29.516657092642923,60.74388288483099,2.3804415014131166
27.83026355575638,26.42770533871221,6.972055491739709
25.54057476012692,7.8180165026530535,11.009692800765418
22.65421685834247,36.60227651051114,13.818783427254768
6.6682447168213015,1.2447165261616915,1.9210231149956316
9.771512798844459,3.6455978793648414,5.720191413854584
11.467688384031876,5.804068364360986,9.074456746361978
11.031204773359027,7.6663991914406955,10.999609362086224
8.150065909865226,9.101886494170083,11.09058533583895
2.985671216872213,9.92252659308369,9.501450287109245
3.8770683707386553,10.023137474471874,6.656551622967865
11.553972683623858,9.44387465998593,3.046475408954994
18.966946651175988,8.356790743104865,0.8795603600554306
24.96354531452389,6.867259214627484,4.6510462450034735
28.435928786456955,4.845697866136782,7.9518349399361865
28.40246564359853,2.0969948059523604,10.781331351087438
24.10744491357212,1.2633682135400988,13.02528688187591
15.416750886171965,5.079089078164516,14.485119136910068
3.239877094005069,9.53148868626295,15.3807039988052
10.649508507855035,14.467372306658849,15.999132410174372
24.048139232662788,19.04070595873853,16.190217990060844
34.74906707057441,22.147564157136408,15.477007441316223
41.06520684870147,22.739036057144695,13.477184532424273
42.10608572834198,20.251374880271317,10.525314039329102
37.826952873007684,14.758985101148477,7.355454676528692
28.948136892583374,6.764066352358818,3.912741016837001
16.728330712801796,2.9250602501218452,0.49201365709479294
2.7734394635041055,13.315742132925905,6.162556922138565
11.151454521709312,23.157046228872016,12.974619826223952
23.295590274442116,30.891339075537793,20.630951803068054
32.08289826595142,34.880179236767006,28.577993028233735
36.31868639302482,33.82348931933812,36.121546114199745
35.37753129302032,27.29899811775385,42.63594152154859
29.358659306435094,16.04947207885952,47.52636100197147
19.136903178360907,1.8538280981279172,50.26540617686013
6.266364978319929,12.973442024786078,50.59746246608973
7.236222334588664,26.243516823086157,48.51931956730709
19.216573028997882,36.34252191540694,44.059468271339895
27.748527822295777,42.337676568231934,36.92727682555266
31.46776435358566,43.80835882276934,26.42073720564417
29.784102921294018,40.65236466413484,12.033732083767463
22.942326561005586,33.07437612362239,5.8262451096068935
11.966836378288317,21.740088997236267,25.482075127103318
1.5182197266572386,7.94614144602514,44.540997094327764
15.543968650081895,6.441404621213822,61.20314083704637
28.059157944382182,19.372150922792173,74.49707264250604
37.18646238477797,29.185248181525093,83.67111394718137
41.449598111200324,35.10681694964874,88.22265121429528
39.97245459739007,37.395893713931684,88.09556496129927
32.65033904656706,37.07167376214823,83.54957001501975
20.252117132231547,35.360701009594116,75.1210473582837
4.393285904428329,33.14105216376319,63.75828990851619
12.672815695906571,30.65348262941622,50.46249794886212
28.425117445256973,27.55555400307287,35.91359875857929
40.51913557677823,23.22193681812795,20.861780556387757
47.20197488637017,17.10708627093384,6.026198017280689
47.600870772405784,9.015627142329283,8.36304590387102
41.811390269409465,0.7672729918215367,22.272703076969236
30.794234374275515,11.463077858535588,35.58661485463043
16.174977188084437,21.88519986464318,48.06898236737891
0.005098816052448668,30.63898403763836,59.331244819030346
15.569440715443525,36.4416170591092,68.82011814983467
28.47380072155482,38.51590666582383,75.7991185148767
37.05005159918161,36.92479267347233,79.62848041243927
40.2123380187631,32.64639080135667,79.95688686328859
37.59173293649972,27.288352631752595,76.57319374191975
29.58810937689837,22.521427666736553,69.42375806319745
17.332779601236354,19.45797107250652,58.81698628572588
2.5801274006883435,18.291133155926595,45.49913619518206
12.441077946997297,18.370271192514824,30.53354499785662
25.238358804375217,18.608298989922226,15.123353001004217
33.360836928026195,17.971674752850646,0.4220010638173781
34.81915969225,15.780123901810455,12.592217126748693
28.592198103884346,11.674989025112755,23.225804355822618
15.060326011409586,5.390680572603028,31.284007181457984
3.8338566314978686,3.3682070921643907,37.036193648378394
24.835330058072532,14.726406469018483,40.80624749294108
44.03702863211831,28.175422312327317,42.616108549252665
57.75233938582241,42.17309131074095,42.298802887897196
63.31492706042118,54.18776131989167,39.902138506187484
59.535082863201346,61.366356504436624,35.679230139856344
46.713458361200885,61.606069328334215,29.731867429386067
26.352311322732806,54.4920733017625,22.049889007935764
0.7770143087940373,41.562289811728284,12.89421059606811
27.15454188379629,25.692726927575087,2.9377152690436876
54.22979642993807,9.915511069128028,6.830864006328207
77.08068699867509,3.688293844722714,15.302154801655751
92.55831926419924,14.438133161060954,21.580205134947867
98.32921597740595,22.640912967430904,25.145667702747094
93.50110758516585,28.665345352917413,25.794023333316684
78.97211367507049,32.17117667516925,23.565939757861315
57.27488362433286,32.01547164192135,18.742440571696008
31.888153316931422,26.940728580766326,11.98581827242675
6.295114572162014,16.632001174436187,4.203388396511172
16.807346446174723,2.4406541996789892,3.892525211447829
35.83787577501134,12.717490390053817,11.914411675568356
50.13889016775026,25.28891754540418,19.873057253132362
59.512425820446126,32.37078579365839,28.194843287839994
63.82530183003127,32.690872460415335,37.20135682376151
62.94930739882396,26.800479577746245,46.75122785493828
57.04426004907436,16.48754517649601,56.218489761338475
46.913681523576585,3.85513133038413,64.11499807930586
34.149131642826,9.392239950694,68.2112290398006
20.89818379880204,22.12097687853169,66.4143883095041
9.332011008109033,33.46037428065862,57.17941567515361
1.0895139535698475,42.40327259413497,39.8228826318501
3.0579104347825554,47.70134531533325,15.108604328002045
3.2028965388227237,48.20995555146192,14.714846195418614
0.045057844340664545,43.501832183583936,46.38354290327777
5.399639188854991,34.33148851181337,76.27148393111183
11.965213925318992,22.625015048363935,101.01922397303584
18.35938413524032,10.948469335972353,117.86986369150696
23.156774543071567,1.6833351550920381,124.9614802977687
24.91364937478071,3.6921423549958803,121.58024859375004
22.461873960052127,4.88511691060606,108.11834776756123
15.28019019496401,2.58197944295067,85.93144217691994
3.7656365043588074,2.0472135406822303,57.193373211815874
10.7447083997051,7.832132911370724,24.81754781397676
26.255263374803715,13.810096615119456,7.561691471531536
40.5775888140652,19.11118786173342,36.35546307206959
51.777258069066505,22.705025377744708,59.38675326980799
58.46470151639856,23.25830893318563,75.96577896265782
59.887151793630686,19.28601985879361,85.7641805145385
55.88733407174914,9.610029924246573,88.62452992672816
46.845192959542466,6.048040220940493,85.08210057675205
33.650018331224395,26.60644446603399,76.1758061174333
17.68632064000611,49.5536533872288,63.03022168809466
0.7681313721700679,71.36988880586188,46.87477652017925
15.058083014615082,88.30461767731826,29.153993953590064
27.832846568817494,97.23622792993861,11.499593065852713
36.048641572147645,96.32162779399924,4.40794796658131
38.94919203586442,85.23606132390806,17.043261613557707
36.644292128047525,65.01398734296265,25.30889628540732
30.008892548540654,37.70905793300465,28.80847050533289
20.417874522279288,6.1163126095413975,27.94247969319271
9.416592021453607,26.325217867376423,23.87809888617894
1.5498380912261533,55.536088417415925,18.059406238935438
11.27835481335045,77.00563877397227,11.443092077173034
18.82066977833221,86.4763747463794,4.630000570120976
23.434899860357813,81.10746383562164,1.5497502849684972
24.573605709916958,60.74956245778669,6.246525713215535
21.947422741584575,28.680737249645418,9.242967428455078
15.653558659234657,8.723835560852246,10.934124297301592
6.304325499560528,43.48869047910739,11.624784831623481
4.951066953249007,68.2532353187867,11.208397381096372
16.564862705537543,78.30635628466216,9.319973504916824
27.083605341623937,72.57115593896435,5.886086800815743
35.491123784144065,52.85972949141387,1.2339460408442648
41.187928982683474,22.64560465568404,4.2005648903082164
43.975630345409535,13.622664087595362,9.835711606079261
43.967323333387704,51.139061868828335,15.091566615224616
41.480718414885175,85.20888086749056,19.505863688169615
36.953338447018524,111.63419710929949,22.70192279459489
30.9158097458209,127.14797353534735,24.387097078090704
11.509843368853208,15.196028802535606,1.5982910404539659
14.708436055042709,23.249870676129962,3.048737073085246
16.103930310513817,27.86239547587262,4.055384661005378
14.628024619137095,27.742538525977878,4.617121116859433
9.660788486303256,22.99710749295104,4.914308854794537
1.2438520314952288,14.742380830354957,5.062534674461859
9.89331113728804,4.402984248552414,4.922884254878672
22.4674002688961,6.860399789116058,4.207139454623112
34.83339413376501,18.28003270232452,2.8668791651130427
45.189582628152564,29.230058085634155,1.07720789664342
51.764055264893784,38.86789626224058,0.89469299188999
52.99503761044962,45.86281822851369,2.60663691270428
47.77043420675039,48.374283636469116,3.389766376794855
35.821657049866786,44.74200965642258,2.725419614448712
18.05450068638101,34.789682951500545,0.678723012440562
3.49853313171684,20.469190184977798,2.173972329873043
25.972542163371575,5.262842169482497,4.81143341273377
46.16023422026254,7.1032968271937955,6.151262914998217
61.19441807742067,14.049627730150082,5.4735149837880455
69.11291717941958,14.940017061015572,2.4314743775729903
69.16179529259378,10.977194180727286,2.418713282122296
61.80144173755289,4.475421561352463,7.9412643472606135
48.45407168983194,2.0872510545825778,13.523036627731322
31.173170181019003,6.752801119933844,18.894023967455336
12.32865429208704,8.319287311966239,23.67782809140799
5.641985245585843,6.236291940760921,27.04760900097378
20.474447264869777,0.36331628059532195,27.762016310789388
30.370830872657915,9.164396499941429,25.281376132266033
34.29303945900848,21.909236542934426,20.039568561666776
32.19763756883475,36.987539012352286,12.61509086391388
25.082897587645355,52.90907374708778,3.5890374615589207
14.76926029922203,67.55643298516266,5.898305459054626
3.4877181706762763,78.40767289540852,14.089952811801888
6.590337882114519,83.02817942406207,19.3804903125471
13.729950789853753,79.71772305404528,21.264636642338004
16.83108881050623,68.08708435337273,20.76163353901495
15.479335414128595,49.297736008673056,19.480018175953983
9.919271877951816,25.786426396535195,18.345544182648
1.0030490302526636,0.5483790107854912,17.535386918241034
9.873935269588376,23.71740615298448,16.78931883279544
20.9127082504424,45.19280015477238,15.916935405322441
30.181697369548996,62.979404682739485,15.320215292877801
35.97607582972097,76.6493227858535,15.38546902912355
37.171410761427786,85.65666090930802,15.80424754247609
33.46568950088383,89.05580714392427,15.643838863166632
25.41737568287303,85.77449044269882,13.582253173036362
14.283014003450104,75.31176084031965,8.776400358704633
1.751478532661536,58.43766466769391,1.6013568658373132
10.350188510466117,37.420268969599384,6.9934962585498965
20.32402247400717,15.567023604275159,16.000442015996704
26.792116162264087,3.726443244038959,23.98136140827695
28.840996341071666,17.94898616181512,29.121166505101392
26.144874078456983,26.010230079623703,29.920748155207644
19.037412491497093,28.18627600425976,26.06967482263231
8.499969895491299,25.663739392573422,18.74617886023071
3.9670863696072094,20.032273773385583,9.63173549790399
16.56657625979368,12.985487197782765,0.213630621886934
27.454847230270595,6.215190942482497,10.262271052084639
34.97377176694709,1.287257244914826,19.808672425560623
37.826516637784316,0.6702571394758743,27.71814226368243
35.213385386886344,0.5740985406565081,32.63282134668922
26.966162720928406,4.013764191248469,33.53407849057636
13.669071865773237,7.518692170455543,30.371689443846574
3.291770154615964,8.537218584052285,23.915622647070396
21.826587801969396,5.137596006909592,15.33342370545813
39.42145933896457,3.084157224428511,5.938396119081999
53.56719423420423,14.669947508899702,3.2885459770497967
62.21673567529279,26.71231416158465,11.795907222646555
64.11841522522305,35.80949472542209,19.252739618513512
58.96059532634427,39.11946966198361,25.465920658630907
47.327579280517554,35.065999259133406,30.192582635342465
30.538919545286944,23.508737192044965,33.16192861322387
10.484212471821898,5.517841930386863,34.135182978597086
10.523936425410213,16.990118549637348,32.85272377840786
29.91362330878038,41.56071993332844,29.33739448994763
45.10179771148176,65.40969743201511,24.178671399355775
53.88569340924441,85.63650894515249,18.28566088798395
54.9047140944292,99.57484855367814,12.486922093294773
48.01946072030681,105.27187821470785,7.39232425724513
34.45958679527542,101.92610138134424,3.2860799560526117
16.64167609589543,90.08027275587591,0.06344558380429524
2.3181191418684093,71.44143436038539,2.547860435486748
19.248045680145545,48.37832613968645,4.815624598020822
31.527745831350302,23.316440499057347,6.944616013342263
37.50428086615527,1.733565467417865,8.985431040561316
36.6454944885534,25.364863027865496,10.858287114007183
29.469745227301885,46.68866766106506,12.411797787392237
17.33882861681935,65.1032144948944,13.464928321748458
2.1870885376341618,80.05678513115598,13.813005559933616
13.735392673184801,90.92954073062815,13.167812607944448
28.094784673184247,97.06360123988608,11.301219538659037
38.71852187380522,97.88779082229802,8.341700180503821
43.85883002919532,93.10283993606154,4.8004346346311
42.475776756318574,82.8713861434862,1.353416543688353
34.49874726474899,67.94657606413227,1.264600889581706
20.970109955213257,49.68267290610065,2.364324500286579
3.986718076884196,29.88957684462514,1.5785427413485162
13.610448926754954,10.547227297800335,1.0251664458627487
28.77497622790527,6.564840935337491,5.021474778687863
38.89946254572724,20.187983102195037,9.755388063044114
42.38168287005493,29.71447933483663,14.511618986886303
38.93233974392297,35.093938015987604,18.52372318388545
29.538319799411124,36.583797421084085,21.09708196170336
16.121733052368164,34.50963188359513,21.833482434509754
1.0374356417214363,29.19548561324317,20.546719095675424
13.40432387786607,21.110552484947036,17.231033476997258
25.25200273173485,11.148691886700062,12.147847719831486
33.04008589036452,0.8495191879670094,5.802385453585218
35.817643045753535,7.654939282996084,1.071173637236829
33.175591077981714,12.06520661359255,7.581009328922247
25.324029615682473,10.581646611625239,12.76320772720047
13.187169008490528,2.564861075942668,15.736007601699166
1.6065453747758778,11.090324320449811,16.07581056267752
16.926211610383014,28.088883713632235,14.021855790275934
30.52767286303987,45.32536112537313,10.129214178657163
40.51073153759104,59.68272520722443,4.89861139454176
45.66015338401371,68.75262487009104,1.0828576448930223
45.563981622872205,71.20697250318479,7.054116735306973
40.499501050562145,66.77061866302321,12.121380315682826
31.176827756026945,55.94783422416918,15.05770091212925
18.51153800099168,39.725471362101665,14.553207930730872
3.539641738988703,19.465858222830914,10.046301368922844
12.541790070079227,3.0088031748776944,2.172832591472218
28.30097539121773,25.327326472705796,7.601552745718292
42.08686309101193,44.68488039215892,17.488545383420586
52.218598276960286,58.29698941135335,25.816880558191475
57.306838407542045,64.10807097668915,31.8239012616624
56.57203441885768,61.44630143720699,35.648648588371785
50.04382352898479,51.2806349273038,37.47363821506817
38.5742197381702,35.930655455821594,37.50172778856789
23.65786127698586,18.34168463153491,36.21658183510458
7.14166858805088,1.2623809477999972,33.96808470184353
9.075209030521444,13.256623570300365,30.692464374092772
23.292913665337476,23.872423676610012,26.16349376430469
34.17970846103933,29.61873906911529,20.01159955484434
40.8632378966307,29.578532257254903,11.640738665044363
42.971312673225356,22.917643699013983,0.7671562009433526
40.625241937807814,9.354397189636641,12.15768088869236
34.39611943718935,10.184154755848727,26.142469197723994
25.231483691649885,33.155227218000455,39.80890926902457
14.337230862650266,55.62601885187141,51.24032559139791
3.040042286129547,73.1537054310574,58.123600539438655
7.480351539809113,82.65687395198405,58.87845544182016
16.4129853704724,83.07914654060818,53.001376393457576
23.300432964150666,74.76828986919382,40.768305330191936
27.95398763008985,59.328981697193875,23.802152375778622
30.369490499259044,39.20852319772673,4.793289602217448
30.670931912253028,17.194102531821695,13.650845225066785
29.08349483102343,4.002285401866548,29.4318507840729
25.93708343706423,22.01863844652719,40.91223988755914
6.182434419791005,17.361761557455754,1.0071026288888498
5.706023651698629,23.636290866578904,1.863726343693729
3.8479812279672463,28.29308684883129,4.394161520902866
0.6552468221636577,28.772032064361586,6.28814588378709
3.5028705612870907,22.598907390716214,7.586183618194387
7.991398956894292,8.213864762405086,8.510352585383934
12.055543956214441,14.231036144489288,9.299143418965286
15.016148375374305,42.382813600361324,10.013151947665504
16.429443107963294,71.80469446899504,10.508991968587283
16.153445132687803,96.75375732617057,10.572628796384036
14.28902682764553,111.49293316345823,10.067332424247665
11.039890714404052,111.78823074079243,9.108676377556858
6.610059853441366,96.04676615047897,8.097196263903655
1.2646734081163686,65.54062204739697,7.185696139859953
4.598990971120435,23.920426781671743,5.838123249257396
10.525675018902565,23.36137067213673,3.290835140051476
16.02228421825478,69.84950108765858,0.8696586771850445
20.541118507663704,109.07555105467196,6.512527831753412
23.56505640000944,135.4354646327226,13.004359833682852
24.70164505132006,145.08887915377127,19.440816929858183
23.765237468120706,136.74499474080667,24.759786735509852
20.796998089213435,112.12718237014674,28.007940295572908
15.99542446346993,75.92746771482021,28.706623791324013
9.647041023963018,34.964475535819076,26.826802857471442
2.0940022248057453,3.3406465210890492,22.68121006044116
6.21838922750847,32.79174368969192,16.820463615278783
14.642848725945594,49.90827331330207,9.845568217381338
22.28162608624627,54.45821287841052,2.3567665711310473
28.08128275158721,48.902348326324976,4.993926517487871
31.101075770171967,37.05569120674925,11.521584112733413
30.84231755097863,22.648778413951092,16.560900267167835
27.48021121745492,8.45176867948856,19.596445407095896
21.87045669700924,3.794163389324843,20.54325098907836
15.293095377985637,12.874348070049985,19.75608916640358
9.032177542638852,17.566629011267278,17.686513315857013
3.9768209938434693,16.53837779710222,14.656370977415357
