48.449005981595135,3.944473419211766,1.5272871915850166
39.73162834725551,4.503257644905358,2.7472336872020247
19.67577341621868,16.04867381144757,4.392644616904265
9.731944572604524,28.879066155214744,6.351155807642389
43.867736144144104,40.32540158013442,8.288771156727071
76.72825477429113,47.59912931231781,9.680547778171338
102.5819909731293,48.591294495699216,9.965476248723967
117.34448409984144,42.347966536586384,8.682302314619191
119.18652504642445,29.193775356900606,5.621277587171888
108.31259884781439,10.46298657218173,0.9398189896144598
86.28128124513161,11.877296481627779,4.882468791043814
55.47488697289095,35.371336979296736,11.164735946629337
19.157148797789713,57.08751372435435,17.099561116553723
18.187162208887838,74.17913135569319,21.843445138221217
51.0741725248553,84.51530933111914,24.720475470714472
74.087450255926,86.5660262918137,25.402169491681253
83.44343303500118,79.66268289557523,23.892638201981836
78.52449085579353,64.57973384388035,20.441688682066008
62.53986855425002,43.414162966779344,15.544686485034175
41.74240772762827,19.130887040406346,9.911967609981385
23.426839691050468,5.225565367398014,4.340168312939599
13.487761314253369,27.293377910747232,0.3927911513327664
14.601894155324409,45.56911442194293,3.728926699117154
25.808259777964413,59.213307595267885,5.593769819536887
43.48065415248118,67.57120032995297,6.330714934492048
63.01635028837645,69.90814863077972,6.460640013923664
80.31882967716629,65.6751530935423,6.588934198221462
92.45353729609698,55.07066841305606,7.322803078573958
97.46515657300529,39.600664704809354,9.14108347874761
93.88954663441794,22.123923262292294,12.29742475990098
80.61538925902327,6.221977150123273,16.839033579731343
57.35158165429888,4.8925198490754465,22.685278691147495
25.40234200768422,9.477055163182753,29.576718629274417
11.865159093535558,7.803959743664803,36.9849490629855
49.36254540661481,1.9397939696248203,44.07963880144068
81.4936833562822,5.106484511672377,49.70330249778003
103.77437451977879,10.467826355812102,52.53611595460608
114.10318518852735,12.279393215841054,51.44745219384909
113.14075972384006,10.054176640129057,45.686343788655066
103.7338363257694,4.5633377158523265,34.94632680095937
89.75175528317627,2.58626521435326,19.514496099368657
74.88763300577196,9.472772609751187,0.32198435333977016
61.82948371337137,14.3365593545287,21.14427681478911
51.91046707103502,15.959728561562821,42.93430130061988
45.09770095899523,13.966820736310645,62.87706261884752
40.147955951045994,9.019675034733348,78.89061638343644
34.904034958968,2.8148988286509016,89.27079542196826
26.815198624365003,2.2234664063648553,93.06115908325
13.728730761549167,3.5693167980149565,90.15437002091959
5.203031830300802,0.6153905057598388,81.0979456846237
28.863778586554137,10.756500719099549,66.98443204538312
54.13894903963124,25.483225658364372,49.284224624061814
76.64028831011743,41.80457825445882,29.53676819130224
91.94012941189344,55.82324402371819,9.140533845942134
96.80306452065571,63.76662167070766,10.669554890729481
89.93041465128934,63.04169051820507,28.712838726225936
72.02125161617452,52.98253869456295,43.79911547397913
45.316415237684126,35.057155217070004,54.91106234124462
13.00318594151578,12.497536658423646,61.49355366160457
21.20710420591125,10.5334297332138,63.53375447521358
53.28014313680962,29.998496978476158,61.43158096554412
79.05446612678719,42.98213712505564,55.8254905579447
94.73199513310828,48.38167821785685,47.522932387219555
97.71551609559202,47.102045742722794,37.52924464355008
87.47904029790226,41.7010529018877,26.922374927935408
66.02475349055965,35.579793742941995,16.6891838945448
37.569703550465704,31.936497894353057,7.750718966290241
7.4337850865125334,32.78409217211646,0.8792217587642501
19.453154351002496,38.31277391635995,3.5776829485369754
39.825096399147235,46.79913883018893,5.823099605425467
52.66022373213445,55.07779854024698,6.457333297885511
58.93006810956586,59.40791488676418,6.240260878672211
60.79008207725722,56.465411934736714,5.948537849014494
60.674582102064626,44.168489554906344,6.235135644909214
60.63307254563123,22.16679648874396,7.401956113430499
61.99730002286297,8.044803052013496,9.259732042665773
65.29145510547362,43.3353230255786,11.295659998865366
70.20969936290074,79.36191879987999,12.979476320470468
75.57085487642371,111.1505234495391,13.937487365943001
79.3376590541724,133.8022950206166,14.040220604766017
78.82582578418352,143.28047109444464,13.384480129708647
71.20138154315951,137.19630392894058,12.233633185303063
54.22666652406705,115.40525057463265,11.005810994095905
27.03452611030868,80.2023218071789,10.156917345819439
9.284558231166237,36.01193010563546,10.024900879528282
51.46794469306887,11.391265046479978,10.687036385681035
94.35922845966861,55.91964121209872,11.817814362994758
131.65808647043193,92.17538957262786,12.731165831984232
157.06613911882891,116.18693907740291,12.602917705175168
165.65592053540072,125.79532001902271,10.79440846548333
155.11521835937785,120.77212090332162,7.151802356459056
126.4872228440108,102.78254075492188,2.0353743923562053
84.1416154710243,75.22038131267936,3.8817666448161443
34.88670052094922,42.84117569712646,9.808882515571312
13.562278339863285,11.101853853690852,14.994288623305128
54.241922648360216,14.79216604475028,18.87964309126739
82.21950716456941,30.974192690579404,21.06401670035761
95.19848454054703,35.80272615117761,21.189129211792235
93.419649650654,30.215403563307422,19.017657299637868
79.14187727882025,17.417209223810424,14.515533293888986
56.048992540732144,1.9989726798936502,7.942458663230693
28.72059672243523,11.205363989413303,0.04378700632988416
2.130800006633564,18.176390214487963,8.465322512965793
18.971477870697,16.46934437733733,16.15189918427704
30.86287825347227,5.601383396838611,21.950251591422084
31.66118399012147,12.880292867231645,25.011932738424502
21.884888598896417,35.58918727853745,24.944745576818836
4.469191344134884,57.7762996682884,21.848196644882485
15.86508253015238,74.1298593415548,16.213241081218676
33.678776016391126,79.88816656399761,8.702001755150523
44.006832235921785,72.07925437169239,0.034879863121649236
43.407800196696606,50.49910042636219,8.983527853373994
30.69223754032081,18.04171244263244,17.528923034432097
7.299496210967522,19.82156724923668,24.833398961039162
22.703846822245563,56.30333850479985,30.15034263137036
53.15965901391832,84.90335797698984,32.84982799651431
76.97614701352211,100.820143562349,32.54869136168443
87.75848003327235,101.75153882151716,29.128893131805505
81.54198328752969,87.97935659344373,22.757322683344903
58.02583534345982,61.89910421428555,13.866573947106604
20.75408293327176,27.321141951710807,3.214145466350624
23.839890032751217,11.164631883498771,8.115308306575768
68.12473910966253,48.67643284086757,18.98591420804136
105.0147915937382,80.4595552954025,28.3745159514936
129.1328382248371,102.38045865577298,35.35405803211355
137.1889938357144,111.53928148074769,39.123622828384754
127.83389068032469,106.86418105778924,39.090566715944504
101.46310347110962,89.43761083572161,35.04411854662375
60.282321772624435,62.30853956691056,27.28746678481498
8.483384691308432,29.747164573432112,16.629706249166993
47.87378497650167,3.8194441180480614,4.266815874870713
101.60143368063892,34.788098510870746,8.355492933528401
145.77033357890443,60.89655536169897,19.603496521061068
175.24805038673486,81.12272302071274,27.89753596462865
187.65258247755617,95.14333026149104,32.2442830489932
183.31889260133934,102.74850701983479,32.63674987376335
164.41123010265557,103.57834449043165,29.950677766647956
133.73587699642087,97.32262530622431,25.542742623816213
93.94105651344809,84.22052700334798,20.8378552945057
47.47952870882572,65.47161769021996,16.85077838354181
2.8742992094595157,43.21081752716881,13.854023087814811
53.54067132675766,19.977534302510612,11.475163367308749
100.28446114499117,1.937022092442269,9.421254288455916
138.7494262233709,21.023850929407846,7.608154415981081
165.2160859649009,36.71658657222573,5.751754788410646
177.56580146699912,49.04304805295802,3.491983331277201
175.83553051618077,58.12153837470675,0.5865887919338355
162.09458516205999,63.78795943463461,2.9894233072106067
139.76741196034553,65.57293600329604,7.014098870917037
112.75477765311958,63.03857196012707,11.006867942435754
8.351336145354153,10.211879754598455,4.565927842606686
3.7850654620963016,10.81248770738141,3.6807198302445436
4.286974718451773,10.015010672752423,2.154412639471122
15.190158544921243,7.375340413741467,0.2501137438780696
27.52546055521697,2.8861738314512104,3.7312814491413073
39.277616563989156,3.016265202859357,8.26486507427512
47.98856167764544,9.6665667741733,13.52860106905055
51.06741340044027,16.421219955038804,18.931343606662423
46.258420412265735,22.8237546215744,23.6092403981578
32.258189626289294,28.53227595868363,26.528118549805136
9.29868712696954,33.119206392682734,26.791499211295264
20.553575210878194,36.00845634379642,23.947243294617806
53.473867178279995,36.62394098158675,18.137462672068903
84.23248197040287,34.397153772911125,9.896031479521731
107.08368355988765,28.851122844301813,0.1265158161381583
117.28939907416056,20.19019462448817,11.059213796970214
112.43567295529964,9.548425147713674,21.805456401148074
92.98771354258739,1.4121659988459918,31.25527282882963
62.083633293421286,11.026290547739128,38.29379982136653
24.606864113330218,18.215017027438794,41.94855412512436
13.997494425150359,22.71543484253673,41.760377713256496
48.76536971631182,24.84520916175049,37.95647728394302
75.94602732022716,25.169987865900236,31.395136014349617
93.30434816992783,24.20983462050307,23.307259242436842
100.14731503716504,22.453182423109435,14.90850436393892
97.19461644236796,20.58016948533085,7.168644223753757
86.34623657306508,19.60675926220268,0.7141153271986185
70.36320796451314,20.79303028913067,4.332287216206667
52.38951716003788,25.19906695247918,8.322883677602096
35.34878969219497,33.126401239063306,11.731825432101607
21.33097963878207,43.751368707010144,14.898978072365477
11.144469760943783,55.153211475521545,18.026355763660327
4.235923003261274,64.75998535011185,21.160031025131484
0.9280169881757553,69.96169392052848,24.138231649606553
6.1323924076570835,68.64412943216388,26.61583197642985
12.61378093599646,59.497770386431576,28.076626560441806
20.50718401313553,42.12097690873696,27.91792936868346
28.826205178768035,17.062621115933258,25.66744370115709
36.00863827226856,14.108047719021135,21.146150514346623
40.74393998094785,48.73372094869777,14.630463804960856
42.67676939570166,83.17246038501358,6.968004495576685
42.627276462145886,113.22629783493377,0.5986687606538325
42.172902034257284,134.84839233854998,6.842329509425787
42.769631024815176,144.9042823776804,10.956834410507357
44.857981263300495,141.68701547317983,12.687382326052132
47.39258290349954,125.01107212211065,12.219831442158181
48.027220953480104,95.99309208294471,10.094491122115112
43.88881185791789,56.79919249389207,7.070968934481774
32.603030158776384,10.599475793370203,3.9233566444636607
13.171907262544993,38.26366167512587,1.3465654202391557
13.573032970846155,84.21621863756573,0.09338875563482749
44.99838540007663,120.92986503276215,0.10704658015591285
77.06490551527253,142.5132835255939,1.1954030199447725
104.94721781445213,145.14265701542323,3.3800448356679835
123.75263013479812,128.4137242490665,5.770536186180323
129.27689938923808,95.66056792419312,7.505546377493171
118.78043666134195,52.96147563810732,7.822985654511158
91.70387369487035,7.220241132673408,6.332485734679239
50.13438537386924,35.75130573288773,3.125493703860625
1.1945973890580264,72.22034007553533,1.1811553167887867
55.48568856462194,100.23616506742862,5.59942679651064
105.00119592493603,118.48813930295,9.03945236409543
142.51384732758052,125.30580523820106,10.632375304666324
162.71926582225726,118.65520384767167,10.046752626160261
163.26186988277584,97.29273071742806,7.563716183603685
145.13225198144568,62.40174061897042,3.924289315558281
112.34084612182095,18.574898636890744,0.006586213860741049
70.98506132056471,26.70652409839466,3.4346264252886027
27.945928830468343,65.10708086250438,5.811451901159183
10.496879524821928,90.05082794364762,6.7797192328251015
39.81568829697539,98.6055477751138,6.365617565219668
57.892042734554146,91.77564466565775,5.04131978438083
65.04580908420367,73.22620229868717,3.5768480471965116
63.49738816256009,47.35657988012,2.6582637806388956
56.48749240984989,17.907350232445527,2.6915222616036365
47.35207777229833,12.25198413214344,3.7911776230151086
38.82851550275168,40.36580956153836,5.785194891077133
32.72357983269021,62.95255539547664,8.298226774028844
29.906440853390762,75.7950867870248,10.88264427968895
30.47358349302896,75.05614741944679,13.125158523311198
33.94234271748349,58.993154140414426,14.599488220341023
39.41895466835511,29.244889638543256,14.829531217699586
45.73439428406529,9.150281484388406,13.481997826636782
51.59327854801202,49.12718278620045,10.558060042893759
55.752249381520215,83.72464338631784,6.397568995478478
57.15404234877127,107.97355022440443,1.5428709134264171
54.9602694514007,119.73522761895548,3.3872043616699603
48.50531400791415,119.33343246956805,7.7553835428333215
37.26576718195542,108.49182606206432,10.995940342614583
20.955222611667907,89.30402654388772,12.76039223510738
0.21275809709910015,63.73757459243496,13.113601748214235
25.17547345872982,33.726439344413144,12.558889280789586
51.802885691902055,1.5176903545634712,11.725392292678787
77.02683940569615,30.125202143253528,11.072841227876232
97.32530039039398,58.080976721687755,10.792974128903738
109.39230142004222,79.33861889980781,10.783234828789375
110.7994191431224,91.54001461129889,10.734202174537426
100.45341232333482,93.39587369923159,10.358167432564104
78.78622149176645,84.89537915263813,9.649568126660807
47.79128728186182,67.35652568894734,8.937741770950742
10.972292698882745,43.35769182718743,8.667245193795816
26.881928054786215,16.491371026840543,9.11204295672171
60.24922212304409,9.102669352830478,10.144223482459836
83.83711362587717,29.410023414669205,11.16275158200484
93.84388686070429,41.29847277036121,11.286989494266296
89.12475534338509,43.11262847368463,9.740599401629094
71.72381650714367,34.90260540181108,6.170675453211833
46.4278434862642,18.23935367006894,0.7416535010201913
19.395741578513082,4.271287740763596,5.93063142189848
3.654044736744536,29.56039720033936,13.003838113453012
18.98521590669186,54.55944388295204,19.66580230487829
25.565919564321025,76.50101682922426,25.18338125120712
24.803736349556335,93.11012155959914,28.879394962678553
19.59181810261506,102.73951447914219,30.176696883223826
13.228408702274201,104.48707715460628,28.605021300270202
8.598125568645271,98.28300902293748,23.89635770086443
7.738889714923818,84.88903835756179,16.266192654253043
11.676915844407114,65.79312813234456,6.643032051219979
20.3021032480148,43.00304812553748,3.3172700496878953
32.247832635737474,18.746521440618608,11.526192895901648
44.94141049435627,4.903395908396643,16.05757444644665
55.03954217351191,26.47200492234726,15.742742776683988
59.306218104560315,45.48695524133028,10.562973482633677
55.692579148267036,62.61388076750614,1.7912797735180035
44.17289397281352,79.33791717825987,8.27210176222902
26.905399983318386,97.16122525947871,16.92496304555703
7.574589168013025,116.56525359858288,21.675527421445455
9.849610468467086,136.23547510823965,20.717313377520785
22.43026236596348,153.0344246803403,13.40556087973341
29.114529747913874,162.88994074630668,0.6062204331690246
30.828757798306555,162.2766506964508,15.375284817065916
29.857193026735434,149.59514131145755,31.356733686752627
28.791808427743838,125.73379451690026,44.09786448746279
29.49130528320426,93.55690801248129,51.073013845736696
32.430338971978,56.672367870674854,50.98046013984707
36.6108828316976,18.185189476546775,43.84590133595292
40.008065738596166,19.856306806598997,30.851609200570476
40.371579206178765,56.09603010602044,14.059292357607498
36.10062180265784,89.05004425327132,4.020719731219753
26.87345225176281,116.62182216007037,20.855114930496867
13.820321101658465,136.49872300643963,34.153955715447914
0.7856062962770466,147.31767430077826,42.17393809488989
14.708525675069893,149.51699635977158,44.18181692013471
26.079674558493018,145.25461808272806,40.66427001012765
33.054701496404036,137.59029513690797,33.07668188281732
34.301128576127205,129.2156660489087,23.449577503629527
29.414380858513315,121.36238141699756,13.968421096187175
19.1318217076241,113.4656630652811,6.427348652320119
5.281697733185335,103.7948370006765,1.7239068557717838
9.53881375485803,90.71563267156326,0.2576282254754457
8.211894812319127,55.815205451024944,3.754401318258843
8.371355018095485,37.78645225644381,5.640284355603626
6.349445831479994,9.255416015847654,7.514939772561236
2.1840832391898295,26.33534293355749,8.544706156835472
3.6790926539274875,64.56011403471774,7.798948795034417
10.473537407070925,100.95218850398176,4.583094874016539
17.194015945282825,131.5489889476204,1.2861321492307014
22.710722378976673,152.94261327235083,9.268662215984453
25.85421714167003,162.19526448455883,18.12730285371576
25.54956960100823,156.90192080520458,26.340492342221907
20.951818310601514,135.61987373559404,32.472637400753506
11.523690543862193,98.83017405287947,35.301217668890835
2.803218553320204,50.170881581290075,33.98885085664296
20.988093583680808,3.5698512931260242,28.257110014420668
40.41029508181223,54.343159064733754,18.41025199459611
57.51323730426712,95.01759450696882,5.2651059303675005
68.69623587162886,121.15816390952116,9.97090484281672
71.00634513350495,132.0571473907441,25.78993725359087
62.90383434015955,130.2284911325677,40.36484607655531
44.60584699031063,120.01721742102487,51.665215591465994
18.07636474226882,106.02747769991639,57.93420924982496
13.264908211879455,91.89590715383203,58.1920624151999
45.18335269356419,79.918099927974,52.397020896003745
73.27990540480816,71.19984718359794,41.31859351218112
93.62646443877266,66.03713923200057,26.383955079556053
103.28159965659816,64.172039481235,9.519327766649026
100.67531415729232,64.72388147667832,7.278619386334469
85.96370904165664,66.05107781975941,22.340675630023114
61.22463388566001,65.76521695763968,34.333963509568804
30.400128084617823,61.13621769859577,42.280097192882415
1.241196163516188,49.83066964117753,45.64174570191726
28.188787966693123,30.689715266616638,44.28942174848958
46.07001818102522,4.2472546110431395,38.57383676695563
52.91625420144505,27.29297721150037,29.392891913723272
49.734441192070065,60.58624877781565,18.017555493821995
40.05082390917641,91.94950548226024,5.91749288510934
28.574942462348584,118.12138573964532,5.30052216621446
19.529701817109267,136.68007414679002,14.178149740179903
15.374290719048522,146.09525995090846,19.8384925748023
16.414228097859446,145.58024904564073,22.024993387082226
21.3198274152087,134.96686933101324,20.897751441183257
28.112159834010313,114.77241726132235,17.01439009448006
34.992962752259295,86.43585815493647,11.305971166224419
40.6200639514748,52.53540297927073,4.856072785345204
43.89020854912729,16.73205621499958,1.3275433912582688
43.64216031014753,16.704470917594723,6.392799977743482
38.68969161126617,43.671874517891084,9.695751251612187
28.3264637211832,61.03308503243103,10.875280660481701
13.031197168902194,67.14215407490907,9.898134942676336
5.170941794589596,61.94570355450572,7.143451991449364
23.05418457307852,46.74983396160513,3.390720570567741
37.19925794188674,23.896520265260747,0.3488947793376202
45.21746068802135,3.4396767876872114,3.03243717928153
46.54098667442885,31.351020620447315,3.8613769808163094
42.37322535526381,55.400162533968825,2.5404731082408403
34.88422515795371,71.14085846845703,0.6255708714440225
26.136606227874346,75.02373920526621,4.91298935676872
17.35134908473351,65.45149278062485,9.539350860495206
8.85351567422145,43.51057905664316,13.790999511876477
0.6025925388221766,12.933360177197457,17.005866370705853
7.1157862220185315,20.860814314943198,18.641396888178114
13.34041260179064,52.31435575195479,18.34212566191062
16.660571424046328,77.19743070944324,16.05499327974424
15.844941674501442,93.35833779957493,12.097010153220682
10.478133958733553,100.51418286733265,7.0131386808222125
1.2389394520406298,99.40315517664924,1.3705694579460632
10.322197360887682,90.94074319318584,4.344196602874942
22.32309913576371,75.90310447690835,9.770291857885045
33.05154310086764,55.2906296771595,14.68454447417895
41.17871692337299,31.01900327606663,18.918547232648542
45.644983795245395,6.283466568067648,22.322449230285255
45.42971487193563,14.851821834067309,24.820841761870906
39.52453442576087,28.584801472261873,26.370891359598378
27.25706202258071,32.70051390421903,26.834844798116848
8.876670967814915,27.40156017910733,25.975045233006743
13.905311987076628,15.193922677374205,23.72681962561984
37.80702871729985,0.1121646385467362,20.44512189553734
58.479909972806105,14.750888013289003,16.755632272618488
71.51315295539679,26.041834517252425,13.217409634724664
73.61190855945547,32.70358815889696,10.043527058395728
63.509393095192955,34.48235753109992,7.042853451940745
42.282148814330725,31.54104089034364,3.799870578398658
13.050194573781065,24.09339494481182,0.14986029743779175
19.70999907713158,12.48528008752411,5.128918784349996
50.949339056636674,2.45116562511889,11.089798377104378
75.72781084906238,19.147232163002556,17.5914848534242
89.77431658220577,35.44379878170269,24.00774759177133
90.01008202441959,49.16774492009383,29.624230673900392
75.11036126489225,58.85976576736374,33.57019552173491
46.046185930644626,64.23209570880252,34.90471246106713
6.344695132219401,66.10234602991932,32.88191629546442
38.21936730215077,65.84652853799348,27.273745594448183
80.59826399227657,64.6649286679161,18.50209551858013
113.9358148551406,63.044151213450526,7.5041636017782
133.06201666560833,60.67061749119252,4.291798914055093
135.48567686060522,56.779667308329216,15.026496771151423
121.58568575046158,50.69128774037718,22.871916649546208
94.04440246489206,42.25546421035974,26.660827016084927
56.86979241640319,32.00251886765837,26.242277149970175
14.484232837237776,20.93798827151747,22.335453024981692
28.795495066373988,10.13512979833014,16.122943665905858
68.9016997575174,0.33410407891953964,8.895742884819434
102.04664797764543,8.307831469282535,1.6942616085569508
124.91237090686117,16.251004637078562,5.02019206053803
135.09262745336198,24.41306662963165,11.261141196439024
131.6405294468791,33.879031971701636,16.978485788000583
115.4295028369442,45.58106020244877,21.82356948747912
89.06085026703265,60.01285717156265,25.32931027948712
56.27370837261658,77.00085268176386,27.002252287201973
21.10417235015843,95.56601480413855,26.401667027522276
12.854624721478487,113.89995169036138,23.24797161895018
42.83657619334558,129.50180723056664,17.478270328104532
66.88176999132705,139.52276275753303,9.328710516450467
83.60264180327871,141.29349024707412,0.6938170903566548
92.02182253286263,132.9270091509903,11.861099105674734
91.6395066701398,113.81179229393696,23.181249121018865
82.69884898085058,84.8307199963608,33.4179670982378
66.46270310869038,48.22648777836927,41.196164605275925
45.25672804928829,7.152711366402024,45.291629470314646
22.151745753609653,34.89346483875812,45.0491642528623
0.3523838406243458,74.54972230591841,40.58754344915607
17.460585130571463,108.87660619660944,32.703609578790875
29.55116421060798,135.48272147154114,22.643443635871286
35.19891802625874,152.63036944921137,11.793012991780252
34.477492463116725,159.419268319581,1.220979728939682
27.93745340264742,156.01437953383515,8.587227236018812
16.4405220165921,143.77066170739633,17.57458490210676
1.2528045173466276,125.0611500110583,25.88624813784997
15.70723803269582,102.7421285704034,33.519915856494144
31.732677738178733,79.40609422794792,39.94269951010739
43.54565187687397,56.74931521856565,44.20992267715523
47.93937395156892,35.372655839517144,45.480903095413076
42.69600142115882,15.087986804812164,43.477897954802614
27.398486985418415,4.484135942789158,38.49782508775439
3.7486991636496154,23.386391595243367,31.126448890625852
24.764491737613852,41.154258488239606,22.08249829664617
53.73490551433963,57.029166206106794,12.086459849713531
78.89724048924974,70.32022467438637,1.7971352943074563
96.9582980642894,80.6094592932977,8.15920583335499
105.95194928537079,87.64762618691815,17.211729196234142
105.16412673244888,91.05757666284812,24.884070406540868
94.86822999096377,90.15352996159372,30.853755679109735
76.39973953457155,84.38606361836958,34.89512367809597
52.105851378122246,73.66896272355783,36.99376893561658
24.995015477125214,58.45947346536328,37.51742685270153
1.5276596965981217,40.073038922571556,37.04483373686163
24.14175889677226,20.65793964391911,36.15874673531264
40.2479201784653,2.748361264885735,35.200677983517544
48.548966221532346,11.434149891554615,34.020524251932116
49.32193727074108,20.604081447312193,32.088852404260486
29.681843017904637,17.806500742228163,4.75699973963182
28.751004815706768,15.951323355813875,7.927051397651085
20.834624731340615,10.428714799041684,10.64675250943795
5.374146490978555,1.7264663443581154,11.987456676244825
16.232610448231874,8.95177923656243,11.187277122501667
40.766719523272506,19.99628607183546,7.942165664663524
63.983927787709,29.75396910605441,2.5077932842711457
81.71700945055939,36.86030721997222,4.441791245936814
90.81509099667704,40.462118986074074,11.968628997070319
89.60480496922607,40.29537085671269,19.066499593542098
77.83233275513652,36.594990424305266,24.84619690857553
56.3769204564657,29.876163533305483,28.547874060739453
27.117327265910724,20.74118105770245,29.459188683662116
7.007609387950933,9.891923180839111,27.050676565367453
42.00680973122517,1.777916853719687,21.232909692303725
73.1238569019003,13.229139010106286,12.385283770353139
95.57211202999208,23.34833769593471,1.3037042758963453
105.69702844345456,31.026540617548807,10.809461711750751
102.1243435249919,35.357509484733065,22.385092323088053
86.35498822574688,35.885924094704116,31.750742043164653
62.43847969515344,32.83610901799607,37.696715197181
35.75919577685759,27.178326855472243,39.68463811414901
11.488497784131075,20.385139971831435,37.67199566281611
6.658645405080436,13.93794314861474,32.04924492863564
16.959839001392737,8.774603488247843,23.44707704670937
19.48543390630759,4.989333834570018,12.571687956583576
15.553176208415982,2.002130400945001,0.29869787931192754
7.263807787310803,0.888804087280195,12.21880428315751
2.7361815810120778,3.890316899519735,23.49411691316457
11.379790341664089,6.437900829061845,31.889966935935988
15.484618640433155,7.489908222546861,36.035354372184706
12.421241242607346,6.254902284165093,35.22630245304535
0.9717875116240682,2.8940644275141763,29.623022728557455
18.018497773002,1.2959194324055594,20.123840722320452
41.594590084981135,4.4085683971580325,8.238811785713786
65.38170864162926,4.916850620820199,4.009940225439479
84.71827435113437,2.560498147389181,14.517912618333634
95.75833587505102,1.4286035101733223,21.606329960869356
96.166981808272,4.927770927517833,24.2647387721422
85.26850464558441,6.0189609249319895,22.190150161847644
63.83562712558137,3.9584384589262034,15.8975881542719
33.83870687851221,0.5448558498436812,6.850311407041267
1.6959827971234782,5.876475444597725,2.8656413992234255
38.8021159991272,10.515962632038432,11.095219726760895
72.89168325751886,13.857865727504075,16.03065143582403
99.45579471879007,16.336285536391316,16.693462713807786
115.05435839457007,18.810440615822117,13.285816638090967
118.20851307890024,21.637984669264746,7.08694059628673
109.76085146507383,24.05275576192164,0.06763364322410435
92.46475756579213,24.295345687132542,6.374488032096587
69.91910243796633,20.44864941930589,10.432057070837851
45.34840105798738,11.492543293668064,11.510466965759756
20.802589819177648,2.0265226530544465,9.555818721242376
2.9006303075599535,18.07991588705978,5.032019095004465
25.552550030762553,33.914138860882964,1.0324436623803088
46.69833134806818,47.036104160952355,7.189826342873895
65.10649020743726,55.8853977182869,11.954157858791316
78.90174706605423,59.9111511199086,14.097015147383095
86.29887016197489,59.18694125220572,12.961811138067098
86.50168970260222,53.97023293688596,8.663620161650488
80.25496509523298,44.6005437218922,2.0471430127423824
69.73008898756414,31.816080212172466,5.509988711600853
57.79768208256715,17.218353681770516,12.433265582462827
47.09299619910828,3.4504895030361578,17.38865095519729
39.327735820502085,6.240102465658625,19.69779340940411
35.10337393455077,9.00673112335029,19.44707926136521
34.15443992500777,3.548859231806316,17.251868364438437
35.671615724158166,9.170225911634594,13.910333023992752
38.40202434421429,26.033568111262984,10.123288613379923
40.49466352608896,42.66405797209027,6.403120308608396
39.33690602946563,54.665429559634674,3.0166204718102336
31.775271638671615,58.695398177725686,0.039553464244977854
14.925729443448098,52.99597873447159,2.87077124612939
12.616283729152325,37.338644485742556,5.624655017455913
49.677660991391974,12.678546686244996,8.546268643562184
92.1266451013266,19.148550244543742,11.815425539550672
133.54552658348146,55.52026075928358,15.342938299721508
166.77708785579588,92.99706722924695,18.748632859823456
185.74684824070684,127.44851898048486,21.499634340484594
186.89467481468233,154.54258576233474,23.142506371250423
169.7700326521826,170.53825437176863,23.353514545211283
136.75483174640956,173.08672249069443,21.791248293852185
92.27799713617651,161.68528673177158,18.129273786125747
41.92399033986162,137.59268962897852,12.245492261814576
8.338457253002746,103.31003045469811,4.369288515960964
52.79573854158382,61.962235947350806,4.805996608781307
86.67805033846751,16.92543335935855,14.164503735906782
106.92507529537575,28.183166211322153,22.360011045238426
112.79647040124517,69.38223266523455,28.056072323928586
106.04401538238105,102.46412572373195,30.27741711329144
90.40933276622687,123.60682083903185,28.69246894052262
70.50934377627526,130.3810480045083,23.559872779886216
50.55296006936992,122.73960316509628,15.531595504364041
33.412643940188964,103.39235163367591,5.56258949791343
20.3919656020138,77.2790178770218,5.154266550033762
11.655068652098755,50.283784268534454,15.182319381868501
6.926211380125763,27.66008051730972,22.813419869056343
5.989704765044622,12.824495569280765,26.383687561563075
8.732900767897224,6.928664692195656,24.751171945759115
14.809379202743703,9.154184278289794,17.628236277762355
23.248336882516526,17.374483615053787,5.871451932575584
32.36722854536761,28.78080589981762,8.475432338699632
40.09080297449987,40.28755834391489,22.532832463322706
44.493204877690104,48.81829636544927,33.27906233302326
44.27053339487948,51.712795046277414,38.45081830460179
38.91188451304771,47.374223722597335,37.03114177900644
28.59824113422136,35.954188924629754,29.22137770664141
14.034299707115856,19.645173683415603,16.29193876958228
3.606730773571665,2.2276309639802445,0.2572866587175509
22.575151220345603,12.13421304284155,16.564463935173688
40.46491654316554,20.42872655103948,31.905983744656012
54.40845668077379,21.974343355606873,43.76614003271688
61.64104233319436,18.645100554854146,50.57495725164286
60.33359752037135,14.049361279199983,51.46830247304093
50.34076247667124,12.079696407643828,46.531804607565206
33.495044170786244,15.48164641626212,36.819760406659746
13.30695785759584,25.044133787451756,24.06255501499975
5.852727614035544,39.638422320626944,10.20264551692204
19.783193675584812,56.86943627635327,2.914326305059133
25.327206841132224,73.90651113032364,13.738651084972751
20.913624694197356,88.13664631900832,21.25723567740333
6.760530043824334,97.52214930503035,25.217271344963894
15.190934437214127,100.74121350096387,26.18765677243255
41.528377121564944,97.24129683576533,25.321368271752874
67.8060644052985,87.26058607290547,23.964050951496194
89.199602958132,71.73301883996727,23.30348730400316
101.32918324640606,51.996672932532064,24.03957820966565
101.1124060447134,29.38610949445391,26.112141999471834
87.42000322913246,4.915551410952245,28.668267935088753
61.310846453671694,20.742442974380104,30.46255119551623
25.8198400903828,46.92694017767153,30.472887589192087
14.569754811912215,72.48397835624537,28.129909759695252
54.6273053277099,95.43476175966914,23.178538500696163
89.10409554985364,113.11086263219427,15.653956835040189
113.46199121663147,122.76089983868039,5.887145175568044
124.64319610842456,122.35866580397645,5.589681871026983
121.77245161423889,111.25633041975415,18.03015084440253
106.56841420246279,90.39636616586675,30.389305072768156
83.17067032801947,62.050594524787094,41.23643527182207
57.17586510499292,29.33971665996289,48.81495372736269
34.06137194572605,4.185916140507023,51.48619654307598
17.54674664241702,34.81018321430451,48.32362240908355
9.37834484267299,59.13702636397263,39.70812068340339
9.835045892676156,74.55824181647259,27.178950001827
17.790145665734872,79.60108624724265,12.729308534350148
31.0070510940888,74.3974578585631,1.604102699762605
46.595427755814576,60.869310148456215,14.129467152223885
61.487599649248665,42.417532689929295,23.827953326506304
72.85491502081601,23.108878633393783,30.325246860284533
78.48836119877672,6.6039645730785885,33.51413219999691
25.683929838241585,16.52427580069397,6.50965245136396
18.282056201002042,19.00824746510063,5.2058183746021935
6.712677112667393,19.151904549959703,3.266141408427623
7.849442012160639,16.165861517965045,0.5199762957448864
23.970169163295626,9.73371110632084,3.175527500370997
40.02780245195971,0.22055830887855854,7.700186076878564
54.23929910770579,11.307780888435456,12.57560618585559
64.76665169314033,23.33596285544569,17.046991131182377
69.94519189159612,34.325789994182365,20.270325788596892
68.6113984644044,43.172566931614654,21.524653057213136
60.37096530177898,49.447628821378274,20.449431045009206
45.81288322533331,53.26911905073716,17.240716989713686
26.79673414795073,54.91993372580395,12.684785445649286
6.491989963983385,54.561283092024034,7.793857227384386
11.540763594696116,51.98725466471409,3.2913512486855567
24.72982012543893,46.339515638318254,0.49480071266269166
32.119466670729174,36.34828894751885,3.602031807288138
34.33415752786724,21.044457261276026,6.363072754007705
33.18280983672234,0.37808349887830567,9.031639913683698
30.9157136977395,24.417290080668742,11.547792857787215
29.54736116561627,50.96939145684544,13.710281925190285
30.334577993679485,76.36020684135089,15.444085446467703
33.49561645781911,97.77664117160758,16.858417499109986
38.362281156009594,112.99300202547927,18.117044446169785
43.832627841092474,120.51320815543724,19.275400956081974
48.958052388318,119.49138380254047,20.16392821078766
53.33302990260734,109.65871947466373,20.436507309089112
57.007748757909035,91.3964010711696,19.652073836888263
59.96964537141327,65.9903842452453,17.41061415404877
61.49858180101798,35.83806499669796,13.637835398532605
59.93436352770709,4.336180936547824,8.671639224982167
53.17027712733121,24.688007475100274,3.125891098670238
39.71585841936709,47.90342991176219,2.3264720666359757
19.803372009741704,63.41128954488809,7.218803528418101
4.172683391640374,71.27186756792564,11.404331215210192
28.29292143273385,73.32717370936764,15.056214963048987
48.58226712394605,72.379644821016,18.470466861425752
62.54710089527519,71.08128428075918,21.63113402668025
69.97102834933462,70.98698182649395,24.04085295498883
72.57715349411467,72.16124851633164,24.94180894435554
72.79875267013674,73.426924619224,23.617246412904517
72.41697483166884,73.02884638797991,19.666244416253377
71.84614219820537,69.35055867651216,13.245842506005781
70.34173401474708,61.39081110889249,5.158031998453016
66.82138072886102,48.90446545157065,3.368299695746712
60.69179121647408,32.3037330046929,11.069525019050449
52.14185405763722,12.520724364237061,16.915074895317158
41.80254913823994,9.037413930564746,20.146086931953903
30.164055585524167,30.47879081819076,20.299984719847373
17.276030446814957,49.500373636130504,17.353563293989453
3.005846362877027,63.67279387065656,11.747025916354392
12.322426961038529,70.95407331466221,4.277849726056098
27.39330228792577,70.29769442123656,3.956584929354135
39.93733589621749,62.09249085314752,11.696824085297902
47.47474854114692,48.1852380884268,17.792450959857796
48.4288295927636,31.439494069933545,21.484187326224955
43.04768362882562,14.969672821204304,22.53235282764744
33.64904578730687,1.3114890500050116,21.066807373122877
24.01378115347333,8.153769019188315,17.445908527973263
18.173130925000866,13.355008737802049,12.274931035681718
19.06112120650807,15.27201529644965,6.361563447144343
27.498405450653184,15.381370656733676,0.5326524175907551
41.79309123370338,15.0649693302383,4.690103113820241
58.01416192801249,15.19119875738789,9.238258643100705
70.86539760470512,15.941643796814802,13.301235349908497
74.97154261286559,16.864701651379452,17.222324104025795
66.30481140058599,17.038084397825617,21.41095442482236
43.44431590420766,15.252106305492331,25.9727846756989
8.301987390379406,10.208403199385511,30.388150863189445
33.98806519373741,0.7730450310477176,33.54603191418962
76.09182091468514,13.647239289702815,34.11581236902691
110.19412264684196,32.634584618945524,31.05185034781593
129.9137602289229,54.381706899711716,23.98528094120643
131.78850400569087,75.65660753221772,13.416580987259586
115.88205983324734,92.29065879268009,0.6402026077352214
85.44002571460894,100.17010356122888,12.626256208351991
45.8301812921184,96.42191159199251,24.747756730517324
3.1872649048660744,80.31831281910024,34.49655410265514
36.79422253533657,53.546910679938634,41.06666708856006
69.68021939693965,19.742343643855325,43.995316126272854
92.71905412658538,16.50449310066471,43.11610427342788
104.93717431477965,50.672713978440854,38.59159883278254
106.97723171231962,78.98405706564262,31.025580863354733
100.72183436314056,98.64314228281802,21.427200341677167
88.70495953338643,107.82075761024453,11.029198315742777
73.3777806164738,105.70238210715404,1.0414918959656367
56.467279479195284,92.77819728871349,7.694811314191409
38.67007023250594,71.21367270977426,14.8762278976846
19.81942734147671,44.94591963785798,20.609337542178228
0.5038701732943855,19.18125774826663,25.159527838232485
22.223784656420424,0.7459445867598393,28.67123066711071
44.26901227913253,10.802420158411211,31.040641042261058
64.58098148235247,9.411781658620997,32.02059604985885
80.64195100889322,2.1455105414891364,31.38210354354245
90.2352435875463,20.205935881208507,28.938715099823646
92.06957171844574,39.77488689492968,24.54131470121621
86.01618821735461,55.69332649539538,18.181842324940096
72.95766169942003,63.55756071854751,10.071487423572234
54.4616447942273,60.28593845171896,0.7510581034808899
32.512959968563784,44.47055959333348,8.869523567915426
9.394937779949414,16.68762718964506,17.751928717022952
12.4051523302554,20.26497068719175,24.923042866625728
30.43863438349025,61.443569793672076,29.572742371258578
42.7743819291225,100.38322722753821,31.278169912881307
48.5871821149993,130.3031599107936,30.15729055550349
48.47495041208773,145.60749471570006,26.79404954351588
44.24196608511038,143.15186174953837,21.991964762150477
38.178652308490626,122.8358642349222,16.50428508684779
32.12628132307339,87.4003905789618,10.871971854931791
26.81688426970849,41.646365809027024,5.408535676730622
21.843158638042517,8.498997696574467,0.360819784144385
16.21102617358101,56.75382896106391,3.945649734479447
9.077920607432095,97.0556185010201,7.156664385121074
0.20525838774319413,124.10427272839027,9.014871033671174
10.11013660671365,134.05499480363255,9.490024268685305
21.46517003238914,125.31134763035205,8.93734447204291
33.679268951671595,99.09921751701377,8.083500949773885
46.6422637251193,59.44737427818983,7.689977143581735
59.69086530115928,12.416236576346249,8.245272203051973
70.94652871627802,35.21714931035982,9.883847588053102
77.20123659993426,77.30393277576685,12.374706250369512
74.64874366196544,109.1776817594516,15.272185432585358
60.26704409476584,127.83201276511375,18.126410245468765
33.21401592500241,131.6476324870871,20.481200532869675
4.493175937574656,120.12783385203329,21.79206634100958
48.333401459286264,94.00525595079095,21.44893222524001
92.43785182821334,55.695129920671974,18.880971751765767
130.93758551238966,9.683602929854858,13.708432894814424
158.89516243299366,37.67501573703154,6.041206155731055
172.60924642508877,79.20830790275926,3.2232260364530814
169.56981408323833,108.55734272199544,12.560105968752714
148.54180997174765,121.75856986599126,20.32435335471469
110.03060545478522,118.13406350338859,25.139238937868285
56.954470051810176,100.12923106188192,26.206323766205813
5.02595286711128,72.2559518015267,23.66955413242109
68.05178628878151,39.71872258792632,18.654095700173617
123.55919921709227,7.315649479101576,12.693156972735588
164.27031076261824,21.082708002457302,7.089510603420262
185.8769425437771,42.57947845011564,2.652745005428724
187.70988089421434,55.18233533308954,0.2829031270230445
172.2283888169937,57.91053916971985,1.5509330857769825
143.73233150972916,51.100834608768004,0.9113287310124263
107.05784971693465,36.81773736955951,1.6636389760301564
66.79736479997113,18.557071052885767,5.738896832717343
27.061201597437954,0.25072251949097785,10.494776833843142
8.487695286998159,14.719034408077311,14.834831623411983
36.68392189416123,24.361786396425412,17.615589428846324
55.19980768279723,28.4119728186757,18.06388191687597
63.07991254499484,28.030042473709578,16.137336342129455
61.1327233184048,25.061738584325237,12.467420845577461
7.1684466168989545,8.935559565384684,1.481422670633772
15.477341075239021,0.44455775103779976,4.945029641411832
23.167906375167767,10.959830435842692,12.185483873844221
27.79183955766247,23.633829151412073,18.80594911735949
27.332607613622404,35.42691553199992,23.55636069859711
20.924717496902183,44.235216498688445,25.493721879417645
9.200003399178131,48.51990461301352,24.061109166692674
5.889252176134597,47.53370997672221,19.18617550433641
21.65304137660957,41.28600049003432,11.278818921013617
35.42559320279634,30.25568320483089,1.1570014181815738
45.18383106609399,15.123562203471879,10.118451154483127
49.74646942869179,3.1402741323056005,21.298441530868658
48.568743603879554,22.895041085867806,30.859343980733307
41.61759102141132,41.96167164494944,37.24332512332045
29.520433575415016,58.135793744531185,39.28399333628043
13.619624450347619,69.20171487745573,36.4882211748777
4.046232082571334,73.23372320605164,29.24049245589168
20.88347910523722,69.33165926288513,18.78620349041382
34.268327321227744,57.9379440616215,6.946410870191484
42.19413382889976,40.88930407951445,4.3784435052121085
43.79336086236097,21.010261142376535,13.744456116053806
39.542185157878826,1.353105495860395,20.341095535962108
30.9654069827854,15.390394466356238,23.882548709712744
20.02690057453071,27.28853474064921,24.476418200687814
8.496353192955977,33.219568979925285,22.534345184932867
2.404950629655005,32.788063078619295,18.742326538136343
11.944900484109931,26.373500495689317,13.942023121771028
19.543660549814405,15.292016118035056,8.893928103532337
24.41526317481453,2.032769317971829,4.155338442920213
25.473317855324815,9.793131131013702,0.15834924629928215
21.599811415504764,16.022040300210097,2.76068873009969
12.163367305365748,13.006417681655813,4.405801929781406
2.4760695410146263,1.0864406492863303,4.728970172844528
20.749876166028358,25.3142317904721,3.9158925449763857
40.04124833106744,55.766393394267666,2.373994970587367
57.155500324701734,86.29954057942724,0.5909203253159157
68.92585900540935,109.99911937034554,0.9344003355162543
72.76131396098408,120.83570209157523,1.808446621444087
67.04212450936518,114.97754804289944,1.8598025050221403
51.35244916436992,91.43816686227144,1.1432417638144239
26.58538619006272,52.07092323170613,0.14439209767100192
5.053566960294251,1.148119284620066,1.808077151142223
40.19923008153808,55.23223983174367,3.6561492244252074
74.70034251605368,109.81264975669326,5.413882488655236
104.19433588161358,155.00490748021863,6.781014380659612
124.78435827285399,184.00386509453807,7.479305116854028
133.66647094193914,192.11939175598843,7.204876963866997
129.5508547349788,177.98308141165626,5.675984711224465
112.7878632235525,144.10380224621392,2.8189558810159694
85.21588213596272,96.36840521647636,1.0305293652346177
49.833293808401635,42.506960976013715,5.169861245730715
10.402500166100356,9.962332689693582,8.84093507796267
28.95873042384399,55.491710129920506,11.407019445643906
64.189886267354,91.27502154560042,12.371921836299997
91.72470901888548,116.83047057387896,11.493505638386438
108.93286216341332,132.79757672962734,8.876476888678006
114.473042843155,139.74680126581123,4.932805584871754
108.47657253992016,137.67008625653452,0.27354820987504236
92.49469098314529,126.31364327088663,4.377535567915851
69.18029027537601,105.99670657846312,8.282779243243276
41.81745669918425,78.25759608060957,10.871340333164582
13.858786157164197,45.83658572479711,11.832003375665042
11.432137963329131,12.0264444402547,11.149447395539779
31.19425174640281,20.157925048790553,9.22254054373864
43.12005361365026,48.435466851678704,6.836776493798036
45.67327138486235,71.08486234735936,4.864669954836942
38.396749928683356,86.4009005185135,3.8739017257556285
22.24736583454891,92.36410233557476,3.8733074390268567
0.21325488940727594,87.0157571343707,4.383340289201104
25.016581025570645,69.53237058616561,4.7964893797351875
47.441975921065506,41.43878443867423,4.663082394100338
62.97318608481498,7.164772136502801,3.718761623258272
68.28263745831651,26.607632796130567,1.8560954499102023
61.89132944368799,52.71126464269182,0.9117582885590308
44.29076358704201,65.64795457958,4.466213021648777
17.610169604273118,63.16013204368638,8.577235906016673
14.923825993862103,46.55996801153535,12.9097681411034
49.45533169220323,19.824238363036,16.862089407502477
81.74703559993645,11.952400646045481,19.553826511340905
107.34444179027903,43.91577024752051,20.19397519873536
121.91727269768094,72.08135061167239,18.3295143247861
121.95640942671007,93.27815382197363,13.906018753322677
105.79110310715038,104.84602046139085,7.3560828025612075
74.54824542411853,104.60705882847792,0.4003147933616846
32.52890003057349,91.35328277948815,8.164686971349651
13.353495406901374,65.62043725916752,14.86101415060194
55.08448015995288,30.236442750582505,19.811528322409675
85.537940193163,9.834243345209412,22.617463532412874
100.19536918392473,48.47031384092722,22.970251106890025
98.02351321851968,79.8644574992313,20.75257207658442
81.29551178799571,99.91039111327935,16.190428425600224
54.53782045074993,106.96690322870111,9.805326858048462
23.151743569723454,101.80446121544371,2.3319289999116033
7.725766733632204,86.92386374105885,5.354704847252394
33.87132989851198,65.64301103073755,12.350054971056375
52.20624715516331,41.37908786448311,17.85989070865697
60.8719700263774,17.312259692207977,21.44888851141288
59.37943708271843,3.6842731091135454,23.148632930303766
48.83183658898409,19.110548805167163,23.173737984608703
32.00084741452846,27.123906681054404,21.579319874839868
12.973054855476693,27.044372675004293,18.25068036846724
3.7545507013515214,19.8708125548023,13.142110304660717
14.521219302683045,8.458211098037163,6.429235800099515
17.617675973101502,2.9385462009088004,1.4103075612401172
13.76396042333742,9.763831327567289,9.531149215877479
5.675092840515779,8.596963092814734,16.880867284205777
3.1127568606115967,1.6178247786008138,22.468018709084276
9.610967140488315,19.08727809934435,25.580415893120644
12.34838613711922,39.67373818253711,25.915970263433266
11.543704301031832,58.206113654691634,23.518958389213704
8.471441563122706,70.06787648283955,18.71807768673279
4.442673530301119,72.44859300723353,12.122743226234233
0.007895356314162744,64.84129154627556,4.538939168455379
5.304933209432039,48.75522789221765,3.1220574526527423
12.3539642077841,26.98100112875386,9.952767879957495
21.722225531464975,2.849942793938915,15.157696074484004
32.94249221661132,20.226998900392214,18.113066511373503
44.32274836195257,38.962352938725445,18.502892434872546
53.350398238532975,50.405214355957504,16.47489643088854
57.464904996472214,52.39852755259357,12.549795786358864
54.85091080349468,44.25455572087449,7.394318890073074
44.974135589238664,27.33908868513863,1.7277150226030833
28.74031795086511,5.149701744306858,3.865525059533281
8.323648900296252,17.3410502612619,9.147415871241225
13.201994163252257,34.919264090001775,14.069431035202946
32.34918922939183,43.455957003668075,18.527237779756245
45.8020398071161,40.80472742578465,22.21267789356231
51.04430621296928,27.010719294541104,24.472605561747383
46.92872986148181,3.971434236235251,24.465426345375697
34.02800491594504,25.078771628338913,21.548196237027174
14.583418646488482,55.9806726737518,15.489515601707632
7.998260825675927,83.95563051067657,6.5653322719441105
29.958398978756062,104.06158683929088,4.33148709550689
48.032275279416055,112.04609270652774,15.751417793333871
60.049676210902135,105.53191424630957,26.047115363911217
65.15100469847131,85.06299259087575,33.81657000434509
63.63715760548985,54.35853485083049,38.11613995330171
56.617892788696004,19.416927286370676,38.47512378152546
45.628051991566224,13.299422667088093,34.87553398856936
32.273468646272235,38.81002749467737,27.703266706324808
17.907529043369816,54.799893142002894,17.704256876937077
3.3288599775803096,61.5800398995386,5.969348089415362
10.893841498764896,60.288414729894875,6.090765097058881
24.352126955595732,52.16377424376254,16.990299982884043
37.023684115065905,39.14884873505189,25.49708483195794
48.88653274705667,23.69561790312142,30.82070648502866
59.56346726153532,8.607286073306657,32.77540864932774
68.1634414708576,3.2669053207714684,31.780675717368624
73.42555608397065,9.617562655654517,28.620746162866364
74.16502429814719,9.423441188401533,24.225634774424424
17.731400236044006,1.4447671491197736,1.9348874927932058
12.33069116709473,4.619867344217512,2.323811649645298
2.1201734618447494,12.06160030765749,2.9885454292737137
11.295298358338215,18.85198941100028,3.722629968279095
25.024579557072524,23.21875743974429,4.082616808063729
35.645492459883016,24.15558684013772,3.5748257498616223
40.221422357327974,21.45111762185129,1.9157672106487895
37.25778085189225,15.416748680448004,0.9713700943745344
27.224877344352507,6.524120654186243,5.025859213916727
12.446823801957725,4.6826233546958544,9.956978387248505
3.6400246264782883,17.425935552118766,15.135961991633627
17.554039359932972,30.585114313032243,19.649578069354128
26.666174884068308,42.70483632516767,22.54632702873631
29.52312942447612,51.75846349741023,23.029535242030985
25.819944103855118,55.35788898406877,20.46949541036163
16.376440386553206,52.14736021536121,14.595134234998218
2.86505901123291,42.763116389372655,5.844292375961028
12.595379840536701,29.537926206960865,4.6443017469266685
27.68742387553676,15.614952806969226,15.420174216436731
40.141793646539426,3.641257766373037,25.091439469981342
47.950990932124476,5.1114305976536984,32.47922907927364
49.61480437873146,10.784789817640497,36.64376608581558
44.48150287227935,14.487423373930955,37.01995018044906
32.95275417490634,17.571522374198263,33.63142148564291
16.46704491404668,21.172836009289714,26.990916457294045
2.814790341118426,26.082036092858953,17.825688591055656
22.57628261737349,32.736065944714824,7.095144047005124
40.90249720241525,41.21076759195385,3.9769752819054
56.59599454756065,51.02902657336994,14.174753208938835
69.10997388342885,60.96163257330926,22.56976264093992
78.20147673922955,69.06111353117105,28.610532481813458
83.53530316412942,73.05498757709802,32.07113874779336
84.47757022013091,71.0091662451249,32.92722673426508
80.24774984533606,61.941223799611144,31.29509096879743
70.3304318715099,46.14695476205006,27.38822369625416
54.919931463497235,25.123846887964056,21.35078869740481
35.170613127918436,1.1912621824326473,13.316242949683316
13.113249119615412,22.97929982245663,3.855274368374674
8.718645420291896,44.774731198031844,5.845839529057257
27.831257690767792,61.93546098900831,14.338369196007559
42.30461158535784,72.80931523478955,20.36980953492207
51.17078873015395,76.6025886838728,23.146437361458357
54.59650581107606,73.55820420873255,22.34597234494959
53.8271294328589,64.94812279583402,18.128022041868892
50.872389639834964,52.79865390942989,11.21952967630015
47.97520727571059,39.39425088378533,2.840795006546315
46.96321913933072,26.73858128027973,5.44928541267882
48.6736958317504,16.194186425877856,11.916783152498134
52.654196319722175,8.39740578036773,14.996520734282678
57.290103104134126,3.413006760294474,13.763964295159871
60.382251773869726,0.9744650359521232,8.237045875753216
59.9647102730007,0.5989446684636568,0.6855725663100262
55.01622368195136,1.5532231494442195,11.547680798332193
45.770503103032944,2.7762404137912142,22.677739146872494
33.502212836051484,2.8838960173766197,32.40419152614512
19.90125323237098,0.36316186245652826,39.22915660286923
6.36275524008719,6.072831259755122,41.98031246050725
6.441684981193964,17.0589571453236,39.8794840151511
18.542125824969023,32.21804439880904,32.68927151760149
30.272691528580438,49.98988515149575,20.84132421149262
41.750626242167286,67.68201505569083,5.452463313863118
52.55569192033554,81.77245271953846,11.668146542244408
61.784146358995535,88.46433914768949,28.31545612764259
68.38520486980305,84.45679562969873,42.42701804080484
71.52923665660113,67.79907684859822,52.471865091407814
70.77597359311027,38.590406105851656,57.758404956376054
65.9655973473913,0.6878638882358536,58.56334544387035
56.968538716555116,45.39043017984058,55.80588763180283
43.58150731062987,89.47312952678143,50.4007993497845
25.77269215903978,126.58334059417695,42.740529052172256
4.2009387763979715,151.20632988020657,32.76267905599514
19.311488055663638,159.5778344101943,20.478607836155366
41.7431182493041,150.1943476965682,6.367998004325482
59.46824934809029,123.91978694884926,8.543783322795685
69.32348735684457,83.74741984383638,22.815529298127668
69.70007503475746,34.318319502775864,34.96867297885126
61.120706789201535,18.731862496555113,43.95725328797367
45.98262002209806,69.5245102671965,49.33460742809476
27.595124846590185,112.66551071497528,51.134245920568326
8.985639651212068,143.83309465282292,49.66415474634154
7.963868623594192,160.15152639840963,45.22254998556236
22.69496731374505,160.36549377370304,38.057472164761876
35.51448471577732,144.88410792898867,28.592220522563714
46.86320374528926,115.7694077573438,17.52459271203549
56.73831405290831,76.65787721250514,5.857936431360213
64.5295547583767,32.47302228092539,5.135838105509152
69.24534976502102,11.17920652427895,14.172611453754628
69.88127452897847,48.90952134544178,20.33715190450568
65.68859144783234,76.51527916197836,23.356183501132953
56.27729651890755,91.66628541107922,23.554606780596863
41.63251273120401,94.06194404131111,21.59473950751505
22.191661706020167,85.04803972388716,18.205591710233396
0.9688419690463362,66.96652765174537,14.003456693165013
25.972931254366152,42.636802033160855,9.443560480332895
50.19332824202108,15.179324203189951,4.863304941000324
70.63930300495674,11.932687783843468,0.5777428955434399
84.64766664672456,34.94603800844135,3.099711932297771
90.61936401312327,50.341425542022044,5.887147885208238
88.47806628714126,55.77587875053564,7.468228904296771
79.65213017639631,51.02204188805031,7.5426693072609465
66.58792228828447,38.29802221033065,6.035377966092133
51.989092255252686,21.630298273625716,3.1971393433518953
38.077475186888606,5.4285196938778135,0.4086031122439065
26.106811616175886,7.051907828480857,3.939203930502878
16.21502585176706,14.588764697357426,6.35841260738334
7.619408842753797,17.812978806669292,6.705689405955697
0.9338847119298727,18.18219717717588,4.53537276969529
10.64014723377998,16.833822292457736,0.2852992942517275
22.160015070566917,14.048726769461133,4.7565329225770245
35.300491318134796,9.58708807984445,9.027586377981887
48.97180066196191,3.5719905243488275,11.320536323981253
61.42437227037032,2.807419715065982,11.003067261388857
70.64098157087408,7.3587886850770605,7.997632435596418
74.74334367145421,7.729158945743406,2.7191978268603734
72.29838755942569,2.542401285152111,4.043893922783705
62.51484893564433,7.861053167900407,11.345967009610852
45.41400063260948,21.532241920777917,18.340500056118085
22.028142296433153,35.747618549043466,24.27602799229543
5.395455136568284,48.022089324380715,28.31057215926903
33.35274889211538,56.73726407148122,29.643217714520425
57.45133066348299,61.1505024448379,27.793549247803142
73.25404288530038,60.98580331835064,22.71585656667392
77.41176289732714,56.05681516397815,14.906409337190976
68.72389201015288,46.24239479715038,5.408101611882141
48.65396686832341,31.772401111678306,4.443739692153107
21.001405925943097,13.526996810776783,13.421038527576608
9.125878585345072,6.959544748864991,20.784132347121815
36.619406898184266,27.86228755423466,26.417437141310227
57.511605175968775,47.54295201425444,30.557950454951275
69.58022144647751,64.80150483800435,33.35478676062726
72.34559100324768,78.73888786035906,34.687062898907286
66.69609627152268,88.3673715526321,34.20371086044135
54.41389483782775,92.36925747876623,31.434838341346957
37.77677714164099,89.30912515305566,26.047429528353792
19.242579507181077,78.23623883401741,18.10912231255951
1.123196834545155,59.34117658069036,8.17147107794779
14.76945116336858,34.237341138575836,2.96805994695843
27.44535331066908,5.622823568627108,14.62272154702602
36.87655962893091,23.50104276262757,26.20624576755228
43.79906337082226,50.58799973142185,36.95015149630438
49.23730945586039,73.85406743356657,45.63129893039628
53.975696673175115,92.00561669398887,50.540861899756926
58.30985240458865,103.88719238415162,50.73495753345868
61.89054151855586,108.70817570808784,46.45330583223566
63.77445955485838,106.43759986006663,38.335511328376796
62.918369444619984,97.96277344959259,27.332513275874167
58.69960758114572,85.1129104604694,14.671117259958915
51.23518669889334,70.36320777524818,1.8028563249978748
41.387000924265074,56.20669837701609,9.787609437727518
30.493740856359306,44.43156061840821,18.875060822358286
5.949315664351507,31.505793753590453,18.195672375344973
0.05953099451573772,31.993989720091758,8.80682442273522
7.892513471920606,26.102537107944777,3.831513814289237
16.51859087701156,13.97965046960585,18.353903517057844
24.267401938621838,2.930648126209945,33.07860470577371
29.836318189186816,22.375342073897624,46.278215059262685
32.37861738420397,41.89752826112479,56.39207876111513
31.458959205639836,59.34520127016395,62.127000089294896
26.888281230519326,73.00002859725733,62.56143806576338
18.620243665340823,81.48924184889201,57.163368833930114
6.8169345823931815,83.58424322749056,45.90931520103202
7.933504833706542,78.0187261194514,29.66703099375021
24.366500292470075,63.74310662870345,10.580847818307776
40.538427095245254,41.144745929517946,8.58452349257294
54.242763624564404,12.933886973764745,25.706683251552516
63.584965170480075,16.813759174683266,39.59918132228097
67.41338605448794,43.956563998273424,49.84219719779453
65.43016844538572,65.19801344729963,56.54493900630775
57.928633546257544,78.97281727015462,59.91652343276286
45.42053176141477,85.47061478132022,60.153132871157354
28.448897017974218,86.06566168876009,57.37734660863993
7.70891883765053,82.54971047197728,51.7293752159976
15.615816076072651,76.32023206832501,43.57934681532046
39.628380431272426,68.1340445414043,33.49880214258036
61.853173155494424,58.271595498832255,22.292043460205722
79.74285571660684,46.94633357644045,10.927984167676055
91.33356220953591,34.66810976928736,0.34368766421775376
95.69221516541565,22.213244097910888,8.768241318963515
92.92756983636568,10.355244577756322,16.181588799797613
83.81417944293737,0.5031755903716867,22.056828387586602
69.32716133220706,10.486721564949638,26.60295997270592
50.38976910840049,20.030105924618393,29.776908015145434
27.945268794842814,29.45755855438819,31.2848178759947
3.223492433755316,38.62023029378567,30.730836957649114
22.093785638739135,46.89141008787651,27.719646038704905
46.007976958151744,53.524528453271316,22.117199773075544
66.5987485721798,58.13992108833804,14.312132104985643
82.44866163269711,61.0240893642297,5.2084486259068505
92.83888876531395,62.97212150286637,4.073775751793062
97.61630555270752,64.70015608145722,12.515723704094674
96.84553295157947,66.15649167662083,19.174586369739522
90.51231699541819,66.18552089243299,23.108769698600724
78.49720918765924,62.80033614327232,23.538549332711682
60.832697334179535,53.969281953019895,20.065978033957435
38.076496537554796,38.56869601774854,12.830509436666793
11.563551020077913,17.050166600676206,2.5238562549818138
16.59986432069127,8.485226290497083,9.668825168175434
43.78838596711348,34.79072748823089,22.21414205852225
67.24173878087053,58.26410632206568,33.53324642084914
84.42793050989003,75.68692559744412,42.36663040560315
93.32938021075294,84.71806424406851,48.08995318464271
92.68890154207533,84.14543531048497,50.62795670927152
82.24155397999768,74.03811310845946,50.09536788277537
62.912628715512554,55.882625696519796,46.65180923753661
36.91993666619771,32.630072301490365,40.34341108013709
7.688065367998375,8.444973468188525,30.977177327244675
20.481331720418925,12.023569022400038,18.436291811345782
42.96602351533734,24.77800513062476,3.2291745674924353
55.5879115250476,27.669979894822614,13.306603638773053
55.533886671741726,21.145429179848733,29.419272264574328
42.28613879260297,8.146947869588358,43.43093507671699
18.308315289432016,6.8487189212556325,53.92521066036301
10.896903397677022,19.275482916603877,59.878230442151825
37.66925928860766,25.783343513781286,60.718228628496284
54.0070390005231,24.921424929474924,56.35384551437234
53.92796618430474,17.029435756754033,47.25400047037574
35.5474926131623,3.5763272427455792,34.52748259569373
1.951681915347144,13.517318129455965,19.947635422292368
39.54938407617841,32.194686816384284,5.685752993621516
79.52607937239416,50.18292061998075,6.137861302955436
109.0718974579425,64.80968937027977,13.913956037219087
121.92871030743554,73.11804444818176,16.982945368893574
115.4111844046228,72.46400086302943,15.658481809848118
90.17985290711384,61.45527835406362,10.939718425942328
49.44543501603231,40.761014115365654,4.319106678643196
1.7509489813653198,13.289893360842937,2.5450302254960877
56.90309934693965,16.446698737127733,8.289983261375077
108.33396677255965,43.57127636796255,11.966770477493547
147.9623777397338,64.13283596112265,12.928338859991882
168.80671349934553,75.92984172379884,10.94868571358858
166.88244378543118,78.63233861884474,6.407338215092925
142.6106011075246,73.31373740913124,0.22705700035581147
100.90741807658756,61.7722995665629,6.351370882066833
49.74083171190498,45.991828912139724,12.055676978765623
2.307275248484897,27.900877642488403,15.937336841058277
48.34791377745007,9.370658929626874,17.784460803247814
84.31407427064802,7.781724653565247,18.21884646586218
108.6596569613103,21.937283339041755,18.142515829474227
121.18097051936203,31.930982034585984,18.15158624220504
121.8849092447766,37.27430705615132,18.449173648670584
110.6582818081323,38.22297019619279,18.90952719804207
87.83188289742014,35.66868995923451,19.260027857886172
55.08728056131147,30.918022115151537,19.38462927296527
15.964545532748895,25.459830256428667,19.292453835287674
24.453132944119655,20.74711620288003,18.918215202688053
60.528246611476,17.970335627587122,18.07010638551955
87.21469398057742,17.80320525948406,16.325925499485404
100.86672319385345,20.1331341770355,13.079661366420224
99.54223768678017,23.934251116584676,7.947960187647148
83.01667504423291,27.453774377253342,1.0747002714389782
52.80784844363451,28.718245310548415,6.84191771234484
12.290587490517986,26.193180573105415,14.679361395908161
33.30772215044158,19.285276771480078,21.259520395956713
77.3750504039543,8.425693624214835,25.78978949267254
112.99944918400479,5.292433387269781,28.16530935198659
134.4231322954966,20.685062697852477,28.94400096141121
138.31908148664013,36.86529944730896,28.863629768408344
124.376815083901,53.17448106106606,28.411340070101478
95.02806121980339,68.72140097016889,27.750957849427934
54.58320409937687,81.90685898658096,26.716912073370782
8.280790871868435,90.36757838795208,24.955767422687604
38.402835445856766,91.55894589286211,22.181065840624814
80.15139906638561,83.7860505486432,18.18772841473561
112.14011705431332,67.12435860650376,12.781297049155077
130.5715977636321,43.68422666006017,5.831983373331752
133.41227970887402,16.997520998930085,2.6445033627089862
121.0281643554229,9.226505140170218,12.363553334817077
96.31734464557348,32.32452138162164,22.57626360714636
64.08464990311604,51.26296833018498,32.01799806812674
29.816068073550003,66.34823703629365,39.1145064674085
1.652075612832616,78.29667461101447,42.37861516689807
27.049733407504842,87.26298325178794,40.95521341521946
44.87593486994614,92.40950198013643,34.9569259712289
54.97370193883835,92.25159489150455,25.45114977990537
57.88666224713865,85.54651215166515,14.267124913999393
54.417553488592304,72.16097595245017,3.436933736455649
45.554398617295,53.423932165048214,5.444157441534366
32.65519782352273,31.794967074933652,11.489885059405628
17.61311917253411,10.061869103156265,14.598134938900762
2.747680620718901,9.463627071560076,15.334700147066009
9.612930923978247,25.359681850831205,14.645699318764558
17.691358303280925,37.01680640377506,13.614422031885335
20.703716139347588,44.26787415716734,13.187280116652557
18.99444474467625,47.062963144931174,13.875597760787517
13.867913475128619,45.434948600086074,15.620903969877999
7.2288125706088175,39.753451289564005,17.869399897358733
1.1544794722128462,31.033454513187234,19.774665057586837
2.502627069559953,21.01953664533204,20.340697782405893
2.4636597828527167,11.895817030345162,18.460398701937645
1.6639212277711788,5.702162709259199,13.163694590847724
9.173797943016378,3.720167168198787,4.123358368618068
18.274643601966066,6.093818054415666,8.055881824324496
27.17800547974584,12.110274586101427,21.9064155460352
34.560465620108744,20.608619860667226,35.3797771232151
39.14646188225899,30.127172792301035,46.420630943751625
39.97677901808774,39.13896482702272,53.54439355666773
36.660511982423216,46.23914751138045,56.0556312635338
29.531925489028314,50.29006411476428,54.05619898810186
19.645178249003127,50.580610722205485,48.350050551124895
8.588496665810485,46.99041199148225,40.2290984041478
11.052559766982645,7.118328511708625,10.460942973608308
16.289266133878204,11.237612335633314,10.836242322973336
19.128875853548386,14.169565999512061,9.572952946969776
18.516947834776815,15.176091775893742,6.45470801555277
14.12823434764194,14.06166019059873,1.7190596161420362
6.260760057942582,11.259711137397423,4.021458102395759
4.367050899560688,7.686518827654062,10.049490966730247
16.75097874766765,4.370761461711107,15.727923823387647
29.554879626518744,2.0505959151088313,20.590810716222798
41.03721198476556,0.8259598061849799,24.35035989698535
49.12621990160496,0.06192943745458565,26.791247054593434
51.67911818084729,1.2900206956729021,27.720550230462905
46.91922427470318,4.127167190535553,27.005207705547882
34.26914232057392,9.015598376481032,24.67972925996636
15.145804131309948,16.1959497700554,20.9285326650207
7.283479204841847,25.219244031305248,15.814840947956931
29.11680338065585,34.97957532325071,9.292431422760242
46.85872091097666,44.18434463159534,1.5403482309721468
58.41170036924942,51.59079077811743,6.966757021912583
63.34746479933264,56.19583500343204,15.613789029690002
62.50478907453843,57.21650230352337,23.78496297990188
57.307005459606685,53.9246760751104,30.95302289709606
49.08591024638791,45.71224484121772,36.64886697969737
38.78950107471117,32.33199539489105,40.359451744434075
27.026466540366133,14.329487316564483,41.56723389795448
14.273109260227203,6.653018038936144,39.947204721176995
1.0791842819680828,28.030008121192203,35.436912866365226
11.89055896636547,46.90274718126917,28.230577920761515
23.91537110087177,61.037519893984175,18.91620806904804
34.30889053595843,69.67978723438237,8.559391846106
42.45825592322703,73.73224985424184,1.4418950720606118
47.807224365965475,75.15084200764682,9.670621668397091
49.88215032582011,75.83538255982833,15.065137020829436
48.38204354678768,76.63767748487511,17.222956359863275
43.32869304600091,77.01134307539128,16.53032639989401
35.207207624701866,75.49262231120878,13.994573368174546
25.00507563280163,70.70279987811293,10.825720056003924
14.104737265255467,62.217370227037335,8.046733636292638
4.007426743154323,50.77038619803814,6.28394398167513
4.030045283863491,37.68582467221772,5.775596754233969
9.319887952231744,23.90969404785212,6.538854982317182
11.923868218854572,9.297157505782625,8.46655358747779
12.58595073812822,7.333292705478521,11.31721916566633
12.409421134699963,27.35920467139443,14.73712320454053
12.378102018035088,51.19923629963597,18.250255159236623
12.895630356060792,77.50622664126267,21.176973408777418
13.577388978808868,103.18247995529474,22.71417004867069
13.419449992713593,124.23720829083076,22.280573979329287
11.265178182146848,137.04590070435012,19.82269077509952
6.357058150289464,139.39942615065706,15.78008274688144
1.2993855087574553,130.92315169714195,10.82449368338937
10.908086121780828,112.84329825767212,5.581818642208768
21.113387142911,87.40977618713957,0.36621675098210443
30.295411473507887,57.335728000777664,4.912227735677836
36.73724947121482,25.444529073601718,10.471789013722574
38.64204667344476,5.491878612103639,16.236326017512557
34.19149982594871,32.87564423622337,21.67510324548919
21.87923682746136,54.49294891921344,25.978631394338947
1.1834753959712618,68.76144041553464,28.3003796974797
26.689671536487364,74.88463600421083,27.86390561105421
58.448793236022276,72.86059377617129,24.098526986687133
89.08362864853113,63.37620616504827,16.960656225024053
112.96717944734526,47.72175483996399,7.2091293982342455
125.29731769921678,27.84539449994674,3.6660891830539413
123.26842156521826,6.473340892288502,13.842857523281952
106.50882293617722,12.91566028746521,21.55209098131677
76.7593022213189,26.480350604332745,25.369550465047293
37.16982225333508,30.830696998453774,24.592105756994346
8.327579326419542,24.0352179042267,19.48433336633551
55.29281722575193,6.398668927379657,11.197689988248248
98.81407161786639,19.3746159519551,1.4124667271270728
133.72001387856295,48.75649974716722,8.090975626699981
155.24675141253286,76.49131214509933,15.69054406832476
160.08359950149395,97.75930258139597,20.271180668471114
147.38713626757695,108.99576536060567,21.564924124152608
119.21437300954588,108.2339864773738,19.940838747452858
80.07140976871726,95.10637302683723,16.014307836600143
35.73421129781165,70.76997609728508,10.580610217867495
8.130620242075429,37.91665842058953,4.642812270059832
46.96673219114506,0.7397869517748571,0.7699057448552151
77.67510751158733,35.40423451939792,4.9717858991979895
98.4231552202271,64.82902445587959,7.8502132847663
108.27675945860021,82.79709043429663,9.760603572797889
106.98900796931974,86.8382535329631,11.233397890925367
95.02750173964463,77.54125947820643,12.72155926665425
73.70058346813111,58.41326545025065,14.429833431866188
45.20341606955571,34.79398892818029,16.109825304658887
12.504743515604474,12.24669217982687,16.995470151990816
20.88489174732812,4.9207229272200514,16.09778531955259
51.17623282359333,14.42497369527291,12.704482598328141
74.58718474204998,15.871884126248936,6.761143673276057
87.75908444560554,9.985090531332391,1.1026050543599255
88.38571091663266,2.260973206744184,9.77665503743091
75.93309858530324,20.070970872935167,17.904433912346907
52.11842943497501,42.599677115201686,24.21251136485925
20.814471936149523,68.2723294012398,27.801073903869746
12.745033291481867,94.13508476841072,28.194894297191162
43.22267336682624,115.73545961726485,25.362902522704367
66.36164365717352,127.7920088235336,19.770082986923907
79.62852129363766,125.49792981649472,12.30075382182946
82.19437281651699,105.9824070663862,4.080437849655751
74.51683276618022,69.37071758329036,3.8072771807979184
57.9754043360562,19.02263457880714,10.547703946975554
34.841012355440746,39.112715640924144,15.579646040671486
8.462563592616535,97.71517820292432,18.555399476367224
16.764864798536987,149.42468499334248,19.39634631841678
36.05787800956526,187.9064808711252,18.314941868739297
45.49571534188507,208.4961734871314,15.704204524582277
43.3249459036529,208.5310406684492,11.985607071074721
30.64021318503644,187.5957386506738,7.565348716919756
11.01651112633616,147.7772053925207,2.8581550200612695
10.777195145146683,93.79497982336632,1.6200489261815727
30.2721942430236,32.709572804010776,5.174393962589692
44.23846547333992,27.048857067354184,6.983866968647123
50.758221510090294,77.27664328737814,6.275282217822151
48.69131478708232,111.80230236796184,2.7943669530384434
37.20669967236535,127.85740959306285,2.7135316376743703
15.950752468239155,126.42977683369415,8.600286200595743
14.155934099749656,111.4528438176819,12.825267604556174
50.074313910632114,88.22475258923416,13.577202672106688
86.52626693887125,61.77173500427258,9.853915751664422
116.9731874239431,35.82751657515202,1.8009983475495086
135.3810100267216,12.707219214672522,9.150996702699233
137.97840303069893,6.177902631877638,20.607151718138674
124.18574720002324,19.739843222622625,30.05962309152183
96.36308950315451,27.05951453123929,35.51982465916144
58.712798051487226,27.765559704903215,35.668475981010246
16.070169355814258,22.621229606630436,29.941415832287507
26.85185825157595,13.79183797540031,18.618043919228565
65.69425382145296,4.428750051863324,2.7882451986894665
96.51641764049236,2.371809820277771,15.724525641601693
116.16618931594442,4.774151981302074,34.48614162882719
123.05850303181583,2.969354495638259,50.641843546251074
117.93201882744944,0.8993446295744021,61.24067452791197
103.97978546261,3.6293098786312603,64.07693543533945
85.97465331221532,2.2674494823537197,58.652398169850514
68.58994934537735,4.735947915289261,46.34106613083088
54.71735784431102,16.97816088174136,29.92562434412195
44.65464313627889,32.25803359028904,12.812528683145198
36.55480895991774,47.26811047485115,1.9746644460515477
27.812985993099293,58.534781321931646,12.601369773965558
16.564221610537764,63.2585377730939,18.924784953767666
2.447653258178684,60.302351150642345,21.789615099099368
13.688888514578405,49.9411195957829,22.078295523072885
30.472056757460443,33.001731204265795,20.595286799219956
46.51666823007037,10.97378146653459,18.037914524249004
60.698927643589386,13.87296988087124,15.017948296859332
72.07246715696861,38.56228185137335,12.02848309026895
79.64019611344784,59.79948850526139,9.437868719312435
82.31531539608919,74.62357330393695,7.509741191596473
12.779632524136941,2.9464259734852973,15.288845741767052
18.54518031694012,9.777943282563545,6.963315460122022
22.291241777259724,23.715583859679377,4.7621497201721015
22.695965154331706,35.66297403620349,18.422901503677462
18.837415560214154,42.95602925386751,31.962761899524402
10.308533834527612,44.20571620794354,43.14067833134464
2.6560228396001992,39.416037541212354,49.96309317267672
19.071611352174273,29.547012955691123,50.983161732784815
37.14786722535276,15.912990580345054,45.58394532995101
54.417385322424245,0.22666019745411098,34.13077762231447
68.07682403894543,17.68284696931485,17.929628540435885
75.39378014889313,34.97304399197948,0.9089004590949195
74.08969039951343,49.866942980412205,19.542527481614062
62.95277447528691,59.582050545950814,34.82138044174974
42.44059211736466,61.85453466734606,44.27642396415468
14.511407611063074,55.98801136955606,46.82399088564111
18.018721480839027,43.28652579596349,42.889760523419625
52.0027414462171,26.68084618468013,34.07610608135448
84.3090874966766,9.524898337263037,22.44078518350355
111.81770381602826,5.708649997206542,9.973648109586106
131.32006568529067,18.12016291457729,1.5805074049063184
139.71378114759733,28.166579152648765,10.809827297750422
134.55032022794578,36.70269561321318,16.745987070107965
114.85687508492363,43.96175688700332,18.983513181723033
81.79345721830315,49.07396615377949,17.667224319882227
38.76716276026036,50.41092649081759,13.402290315711301
9.110681483570184,46.50004073806823,7.090830939819268
56.100354707259875,36.88223191491141,0.24918107635016026
96.96781612628797,22.42939603506172,7.583070742645209
127.75493182362908,4.959539540986196,13.985558569508212
146.01366418025984,13.520447190599818,18.747904106823054
150.6137088754695,31.417421943680367,21.45342084627441
141.4622168343815,47.65392370587828,22.015886044078215
119.41587080456343,61.27856507236743,20.64000005291534
86.43776540074717,70.98330226223239,17.793573791817995
45.78996789567043,74.96431646153853,14.070730776813365
1.947408288065118,71.32367004257678,9.967331866352888
39.94815804450249,58.83849434804025,5.850960413369862
75.00144763661423,37.65829788186296,2.053004893035569
99.50369729380728,9.539757186894738,1.2179370573802608
111.51269021513119,22.513587570576266,4.093968710920188
110.860672890456,54.95133922535412,7.064103487528961
98.70429618491856,84.30671101278729,10.70241958175734
76.95737827552448,107.50033185372162,15.260062979342587
47.92212581493118,121.81578769160198,20.393483576184842
14.26805007724732,124.86503559647123,25.22627021787783
20.775032563603652,114.8772195906692,28.560396193808174
53.360640762574505,91.36003262849424,29.13807515326906
79.37938521378425,55.85475534582439,26.083116319512392
95.23993865804206,12.285299118093251,19.392588379888522
98.81105978893967,33.45915338817218,10.081002554132342
90.10358165327307,74.72399327209558,0.19386165322255597
71.37234416277224,105.67436912450957,9.650109610995544
46.564742372894536,122.61534122089877,16.62344045424848
20.31393465686961,124.58535013129298,19.672809485674286
3.1565692626092896,113.13207121075347,17.9302927015396
20.884554912781024,91.5363616346291,11.482528204373988
31.594110285567915,63.927870642142594,1.4051437857340505
35.667545119890455,34.60452410097305,10.375224923857091
34.762168586741474,7.591753084627177,21.40801185875012
31.226450917662365,13.74852511345861,29.37874843774389
27.45350440464776,27.21123367643262,32.77885012356388
25.332215534362977,32.270051000463134,31.29385976044118
25.94761599358301,30.361846530406687,25.785110021499204
29.565396528159653,24.605671095664615,17.877415179152518
35.8558785921985,18.86181536791934,9.386952940688301
44.20417715342535,16.427345552204596,1.810886793462331
53.902595424529615,18.915861559104528,4.04960531359013
64.14921685848249,25.83984538528605,8.327195981993455
73.90417804138164,35.065665414434015,11.970942432136292
81.78541960273229,43.88438805330616,16.071561381854462
86.19400526304143,50.14495923151681,21.09927117786427
85.65295075799152,52.89540729986313,26.784678852641004
79.18575989998571,52.33803249749576,32.50756798791403
66.51013480255328,49.29707597460469,37.57538606139918
47.900698434352876,44.59733637154442,41.311429449181375
23.828681938303937,38.71445334994517,43.02442590847697
5.304850357631197,31.79644874187678,41.928308639733395
39.06212379935668,23.88447958744975,37.3271010183914
76.46500178874855,15.077094446272515,28.969715001686154
115.36582155994242,5.510850603764814,17.247876084874502
152.13746417599316,4.7733237630240035,3.265467100024013
182.04984166938593,15.89395669801234,11.27904163607883
200.32423556384134,27.978060896648064,24.403882487880146
203.44750458671174,40.83656752693059,34.157949994851634
190.16638531522258,53.68521714674603,38.98962063999022
161.74164776309848,65.14059092251131,38.05374579554474
121.43116661012895,73.57179910735555,31.38376066869028
73.53778244454865,77.67754964297991,20.12178595959743
22.518755984212746,76.99966020435176,6.39809749336278
27.497475540189637,72.10217081256756,7.260487239901513
72.8111416718235,64.3329860939674,18.535927346359053
110.14319576132549,55.30911137550847,25.8480796408438
136.80527256475855,46.39572679447008,28.428173875947014
151.13535578912098,38.40784479645117,26.00524149997843
153.00460834092962,31.590894962741267,18.78584327229877
144.05103261962665,25.761371627577333,7.531549642102531
127.37507865759551,20.44067308492397,6.48180345892583
106.72703024934619,14.893470215591226,21.49403357861054
85.48928198131156,8.10679496472664,35.44147386565417
65.84217432222972,1.145164153437066,46.305100744715105
48.43534652529216,14.017222343587916,52.464514076398224
32.6279367661099,31.111375767966294,53.017364527842616
17.084255404058727,51.99076355724992,47.99558678361572
0.45063394303425425,74.9496312448383,38.29111741043138
18.08553092214593,97.21084521389601,25.420858191213323
38.45909383092086,115.53544378730646,11.24328378537525
59.62089136399744,127.03148990883584,2.5023743188190917
79.6233637328995,129.8188167976845,14.4857764564876
95.89814991576144,123.28578640002405,23.81495944988756
105.73439218303078,107.90727398460106,30.108347129199327
106.88917030313904,84.80002930422334,33.429097212174845
98.18903515098214,55.33682716872389,34.11509042767444
79.93397162558763,21.074102927049413,32.724820157919886
53.96705056030501,16.003685902313897,29.980873607216925
23.411576642879822,53.14461123411496,26.629672008326832
7.8509854639756265,86.73334449946783,23.24222943148086
35.819658695833795,112.68237142460215,20.049059209412047
56.99290385291719,127.30767186234085,16.924214942351927
68.94227091108394,128.39554891107863,13.542132995196901
70.7848348686284,115.99000896773477,9.615077183978757
63.43507549505507,92.54856340203064,5.119087282037403
49.505179641834935,62.37896642763516,0.4030943393153379
32.736555401278586,30.555913650452077,3.950652280519517
17.024307761603648,1.7452556921638998,7.344928910535171
5.336738400043398,20.64503274914995,9.333112651419198
1.0411680828166654,34.79589731734614,9.81873538619372
2.600007072701223,40.371271519357876,9.044922427193507
0.9997240554147679,38.21721089111854,7.3456416936445
1.9294834115015718,30.095794541173106,5.101404630076019
5.059940488622974,18.52994298844525,2.8809903031769815
8.264315807572617,6.644310116163331,1.411394293379191
12.049999935307037,2.2000333798414133,1.36855361546253
16.843030676072317,5.07940554514345,3.268760090973467
22.414864643562037,0.3630038772772007,7.385428889354022
27.795557980056923,11.577943973550692,13.517618630641275
31.6750310432694,28.190462065695748,20.904508294775727
32.96003288534789,45.31999824202012,28.283512360107633
31.051598662814452,58.43653652149937,34.09154504858867
25.678323596011833,64.05454002973137,36.93740066740193
16.501937533552766,60.78286756469052,35.98946104828829
2.916452534257182,49.58083875747366,31.187500149611548
15.075374387391115,33.01138139433425,23.38897670013565
36.401780663067605,14.35095404604025,14.058716012128338
59.19911159654368,3.1097896460770587,4.738614078315475
80.75179446256591,16.823370262109666,3.3769679169637445
97.90191338151088,25.396066093456643,9.716765892041112
107.86215729947538,28.616642654237406,14.202729792195804
109.10667931930031,27.213608872751372,16.945214291807517
101.92274168862684,22.492734590282616,18.06160127797224
4.39852968948077,2.3854541889625227,8.430190746367064
18.16452855986603,2.6303558102199656,9.230858616498692
33.09419098138973,10.31435842125959,8.659110197242406
46.82603048654296,18.714569833392098,6.371901002591514
56.51112898093167,25.15954183177346,2.252419262715929
59.12927622169912,27.165133986147826,3.348875412891582
52.170606499659975,23.25630060762338,9.538009178932688
34.46813597987388,13.39959810687431,15.161289200433881
6.993292206904171,1.0983121289422533,19.139282981577303
26.935865456427894,18.02331193333421,20.745531472634763
62.149513852028875,34.796323910920535,19.783801933337486
92.45816985355772,48.99445589749305,16.619121792207313
111.63462089651809,58.669049565005935,12.041335946701901
115.29227708626965,62.12920526359543,6.962696742815471
102.63368429294572,57.7638413015315,2.1928762009774054
75.92692084065322,44.739915743005646,1.6552814124489013
39.20273498479169,23.790652190252988,4.182085062781839
2.6245587941817137,2.540942676989977,5.115313836497688
44.69148882200718,30.10822295741406,4.3627508008800975
82.39984827797481,54.06996598079765,2.2156659793493954
111.40048513750035,70.08821420161681,0.6100650161125472
127.9185012853478,75.28048861006387,3.1303901443411286
129.23257942440443,68.73465684814066,4.3021729507967565
114.5000001971688,51.413256288169364,3.295344546726892
85.2841232568529,25.730659364036512,0.15391441867645195
45.44862808961112,4.925818684713587,5.544092024288451
0.46481271022834664,36.57493642810628,11.755949243276275
43.74650592408925,64.86966513395105,17.453039168423494
81.84962287749445,85.37718329689751,21.514086654465412
109.73965897706493,94.04370283858441,23.303378965244917
124.71046147531857,87.87320773827375,22.792911638637207
125.32984715532695,65.68876754887496,20.452494471768937
111.3676455961845,28.737485594586595,16.81499935277975
83.88571335655963,19.089573374945385,12.162342939047315
45.491685971031664,71.5790016334967,6.624559925929971
0.49065616406481394,121.052102015097,0.44386574813440427
45.371551062903464,159.6433830535845,5.807773909185424
85.68081334576473,180.75412527175124,11.16387302698117
114.518358344884,180.37216868501548,14.41317526835368
127.6817282878638,157.945906629436,14.494589903347254
123.61268005238628,116.52686474746287,10.945318880826104
103.71867276477454,62.10579196372683,4.068039636938272
71.98474585471412,2.2941684848051813,5.065441013046123
34.02792152528041,55.304801822971655,14.697241271209407
4.126205314970829,104.55252705335114,22.84370364759507
37.212466988179784,141.6372139986074,27.916791239598847
61.56848651821273,165.17241983972121,29.011728966596767
75.48039166111117,175.66559824036185,25.857038488556203
79.04091531107954,174.67857354741582,18.653306212775085
73.67467755887078,164.07116779714224,7.975474351693685
61.53830140220839,145.58641984995543,5.240296277545956
45.03239426698426,120.78145069083473,19.695246806733817
26.54012972638854,91.17716710892623,33.745657953235195
8.332861455046803,58.42368854213628,45.663789041672445
7.493547637128754,24.33789035298423,54.08994610001031
19.175321761718326,9.183795967228018,58.260125887057434
25.573686911813972,40.324599475174495,58.09228692510489
26.509217143390096,67.48201814404922,54.27787744478622
22.89463559042495,89.33306126181215,48.15753778814417
16.47261745811692,104.87583613799839,41.33724408657359
9.175777989964056,113.50580308886127,35.09713673280275
2.3432491646353006,115.16689488619393,29.745587275291022
3.8020559585626996,110.52538560432035,24.374686694841596
10.09324620829983,101.0422175657746,17.32598235133587
17.736111025561502,88.8075054485833,7.0874488015020916
27.299858456995967,76.0726651894511,6.939315492394204
37.95192752518562,64.58966449303438,24.070111718518252
47.401854809264606,55.00958757161877,42.450446909311275
52.633645361157726,46.63061875588456,59.64831802049263
51.09027203939347,37.66021504658427,73.42749614196839
41.6728063742068,25.931694972642024,82.2781325914664
25.016749135417044,9.825808286658692,85.51064985999393
2.9813090440886243,10.970988701887013,83.14751769009762
22.221905859417678,35.177433199639005,75.7530564496401
48.646252958032306,60.1678306615158,64.13284571491728
74.573000294571,82.63199256245174,49.19654212079953
97.93211396459621,99.39864812480828,32.06814193213793
115.78108874159015,108.14415342893297,14.204765440215576
124.48749943549537,107.8155176607027,2.628669095140036
120.83350634432117,98.75702131890472,16.76684295430801
103.60376956946723,82.60060556365919,27.211728299449845
74.74283059829129,61.95232984239064,33.93193305979214
39.28576509777966,39.90455992106037,37.82347747784561
3.8827669166985777,19.433575661526778,40.25824960271974
25.47639350042066,2.7847983836866588,42.422925477681446
45.408545211404665,8.970469165262449,44.777106099954786
55.82556002259748,16.010734126691002,46.86280413721389
59.191374064714324,19.408203764155356,47.73777679135727
58.91477419424935,20.529205089919685,46.68930707367028
57.83777695604789,20.52387971648804,43.5413433003202
57.57900584549391,20.1382704617921,38.450895154999266
58.782192386214,19.918035675420672,31.67823185129103
61.715018330370924,20.60341893231919,23.59858914687742
66.55435757084233,23.298733015587004,14.636931596003162
73.06428802137796,29.163900854472033,5.1575287744858045
79.96353733445316,38.728156284856176,4.459344735665842
84.61748221040105,51.21536618268811,13.735698364600246
83.53792384398214,64.34250751016795,22.05494309495976
73.62243240017293,74.83412105971631,28.711437065682404
53.51868623127633,79.48726702814751,33.0689906186741
24.372499927615173,76.24676504053228,34.65317134900437
10.442807335055994,64.76063200424535,33.222931849033984
46.412513105186946,46.24080001908948,28.793597800602235
79.14103476441645,22.843295141958574,21.61331301107383
105.149255987655,2.9814281348040246,12.277575982667072
121.95683130195269,28.799750678170575,1.9242034602124942
127.74674736459404,52.13378519600572,7.708922840823621
121.16477729047969,70.36674869596096,14.578879069277093
101.6257460993162,81.02327152640501,16.94909748609952
70.0771394243611,82.47311649053586,14.02635125159914
29.71311490002285,74.73410987580142,6.281356268515856
13.944976394957392,59.84585346396588,4.773721713455028
53.87101845833323,41.396679060050374,17.05916469474827
83.10234188445874,23.307921364413147,28.36139204175681
96.4844858229189,8.466407662116596,36.7087524534318
91.95314929328872,2.0724924954104096,40.551646204552966
70.97489919555552,8.922258377589424,38.88136220608631
38.099522669459965,13.448583745401681,31.415353623821044
0.13089858840895932,16.721876011766994,18.659621271654316
36.55207731736761,19.015710018832305,1.9338856280780465
64.70466008515409,20.10469517986452,16.612644226935394
79.91717675093017,19.979069300334324,34.25767116308125
80.01638106685226,19.31418682139782,48.23723491015127
65.5768487614334,19.261866762668685,56.38463854273189
39.712827324750144,20.653794589803077,57.70141979695275
7.448999957219904,23.197189572310823,52.595353599753516
25.254714691619654,25.332682019672358,42.64415060402235
52.65093238390783,24.99483429254337,30.096397318666494
70.31788172616774,20.849796541591175,17.356132378086905
76.03581895714537,13.198322324880552,6.383798025155248
70.22744032641867,3.9081952882271773,1.7639940217908043
55.817903896624884,4.66723308030954,6.85455416031018
37.46170345955317,11.134530155006523,9.19439787148506
20.244128994681617,15.918650214896367,9.562043523876396
8.195061661045983,20.947324011393864,9.25448915707361
3.0810792452367024,28.3135738895205,9.973406742544707
3.9292878111276712,38.72558168114287,13.28338119906654
7.529534363338972,50.712134144742755,19.912570602576942
9.73068747887062,61.10206255343739,29.336914639141966
7.010650285685499,66.52411668648047,39.711896222438384
2.2907666187480755,65.03226904510102,48.375024536114196
17.553921044336526,56.917632786474186,52.79988835526163
36.520755140852636,44.17743946093847,51.69323018155336
56.31546843658774,29.390056102738054,45.04323190293238
74.19071646465926,14.780783615029128,33.52478685233713
88.01330996280369,1.654032759149248,18.379077928732304
96.41136511742208,9.523813557286891,1.301365512984166
98.70119060609149,18.604800692665787,15.689163322273211
94.80941667924851,25.263153876057327,30.573440350162652
85.29517367205762,28.89527415419439,41.707530759101196
2.8640941026800957,3.629696622611336,2.7753254453271112
9.052173533290295,14.91162152742271,1.7679834177855571
15.77051944826529,26.748529227519313,7.66301690157925
21.74740385323834,37.04994272136998,14.02771394809208
25.64957360111947,43.805136527313124,19.67188394889332
26.393517622467222,45.454688786659624,23.337899461179575
23.426574451119354,41.17044419246255,23.978010489625735
16.875460728301327,30.94100282067123,21.03208051761714
7.554006921915438,15.60525420133504,14.607065721753065
3.2239366375768275,3.249730570164072,5.414388540955571
13.953765842217452,23.425756363679664,5.417064521618393
23.20612453250037,42.1043125252306,16.42414992424626
29.796500439083335,55.90067980163604,25.882196395518164
33.14342954028899,61.93931066419964,32.21652363302794
33.621554216453205,59.33426792017588,34.450488406566635
32.30210213529733,49.299835263863976,32.27236318297701
30.444872554219682,34.67354325301159,26.09827142805694
29.104550314124495,19.365385393185015,17.09027665820615
28.760818301180787,7.197245782435822,6.852979372622463
29.22803390632827,0.9521080884397599,2.9020535223722845
29.781120526583244,1.7485272137326018,10.711371534982577
29.3537186988116,8.77518490050782,15.697806356596695
26.803252181938614,19.67194859516159,17.636388938796518
21.113726701983055,31.13836590808981,16.85582094495147
11.605051007255502,39.73036262191909,14.126426784141927
1.8518686906230035,42.59431416531494,10.480088079907564
18.646108604668054,37.943949862006114,6.925937312545653
37.30207655288247,25.38043937832451,4.194664524908494
55.584926336165296,5.937818587798496,2.6330066536636823
70.87372746447929,18.076747453496704,2.2269858492095214
80.75478372730515,43.49275637781421,2.6809321287069103
83.6370468110735,66.94773785772361,3.5383934424645935
79.12086835326714,85.64527892933177,4.304932259179494
68.00619079016128,98.03736809048026,4.501286653079085
51.96187328865098,104.14176341207477,3.7553313356215177
33.04145136537103,105.31247761875285,1.977156383279028
13.270366612052253,103.50638937375889,0.5582411594060294
5.581982428589111,100.27586037593615,3.337139010282385
22.070568533421746,95.88414380463678,5.798140811043626
35.11058498675972,88.93914439292371,7.4548802219740695
44.07824863297936,76.75012214553361,7.964403508104751
48.95267942639971,56.31984697070661,7.105961044899098
50.34488303084352,25.65952532440197,4.862970486669336
49.26742538438433,15.021266494828174,1.5870777635773963
46.669499234084554,62.67977530587282,2.0845985067707717
42.94643409766522,111.60770576975328,5.379940267618561
37.70398093131891,154.4076112768481,7.532226468173473
29.96045289973075,183.53256069579297,8.060686179027678
18.759870422217666,192.97612659362477,6.9329592670656375
3.914993291759524,179.68900329243914,4.4388221890779285
13.525275860656564,144.3829602010133,0.9753061291337948
31.323410065050368,91.5412018870823,3.053351696319615
46.58922789050928,28.71605149043746,7.280312141307208
56.568245958658,34.66783601927013,11.413521682619898
59.33049633258447,88.82577685342896,15.20622598234922
54.136126842011855,125.23177103598563,18.34640062847437
41.47828084148015,138.14269179284616,20.273507088735503
22.911216270188902,125.82336426880111,20.221266684215177
0.7951120054057562,91.1343583772456,17.526205322722152
21.97362075223572,41.19833937441093,11.932449785322271
42.27168819019209,13.960494854933454,3.8382177043016927
57.15345446427241,63.63481787827978,5.766644473716014
64.33854475833763,98.90769633043163,15.55308265081775
62.6700685195726,114.61487599187991,24.10742495720603
52.40739470959449,110.17991365580026,30.382246854954598
35.26347562751109,89.08736142062973,33.87843719521858
14.17321281974422,57.34347457223071,34.39605716410436
7.163336216264224,21.63122096658741,31.880933387137205
24.888287957291034,12.192644155467098,26.49681675894233
35.66939493053235,39.89345872322695,18.786369621164145
37.391649865512846,58.96626687342898,9.598728417742056
29.69505447052284,68.42073882612337,0.14897055257229003
14.13493997673195,68.58026745005793,9.48016839883581
6.163590307051833,60.91555955686016,17.346579484472198
27.31489408751392,47.768412071905495,22.819738241906965
45.68310503448284,31.84133413579604,25.354432421420718
58.691053897560074,15.496495122836492,24.86411930233703
65.11152980995337,0.17983568852589066,21.628029141772096
64.81136861157512,13.659991581125976,16.339652692510423
58.213528990577316,26.052592344762974,10.069777664196918
45.847592993599925,36.64398944965462,3.9771441560396306
28.286570613250923,44.04756560451056,1.0474040172217516
6.480446785352138,45.91471801479875,4.540408586472905
17.8523651435141,39.785126381550654,6.210273904169026
42.16416977747933,24.32263005815576,5.886113698201224
63.514951555240884,0.2555584890146389,3.8057196142452416
79.36916593805972,29.53603762238921,0.6163557514785676
88.3702030179151,60.77872675274978,2.7954925186635573
90.66881208961887,88.95820183476177,5.604228160988248
87.6153105761149,110.28404968862704,7.339339064836954
81.0017315529467,122.08306741769036,7.84117064578171
72.24713472978662,122.71554138262638,7.134695482566839
61.91159682413669,111.42424108315736,5.301352957446413
49.73982606052732,88.46605561110847,2.544094627283935
35.14142394451797,55.51470892853671,0.5484290682302831
17.826006585528024,15.939815919658159,3.0473505076089986
1.7048379971088579,25.49323390000664,3.9554197789782184
21.976261938331806,63.639499658330074,2.621240961633852
40.70919237572444,94.31024394540817,0.803304193722256
55.28791222366196,115.2279654467228,5.311910034291089
63.340306437276936,126.0787970180729,9.407085038791816
63.245469984117214,127.65740912426757,11.520355477011353
54.49541658565249,120.7267731505278,10.266509045889954
37.88462175970973,105.41602172958576,4.8377802894261865
15.527700713018024,81.58844488718047,4.515945102759411
9.266482189741321,49.99161861941267,16.409899843275014
32.248158930232385,13.382485965221063,28.54686489945367
48.65483804843723,23.298176234978932,38.3636302509617
53.89459119248987,54.02640676429204,43.932767652968984
44.51112898749482,73.59619599768601,44.30746125386665
19.294934012386694,79.3581714574197,39.324161474954934
19.80762058591608,71.9209639476776,29.31497952204877
67.39149149508816,54.53278549798726,15.125747191520023
115.2077946850996,31.628279733413407,1.6906611427725746
153.72001688691145,7.4554328046755005,19.107859638461772
174.20402112857195,14.543009944391642,35.00094322317899
170.78743333267641,31.554798969426837,47.38535832442968
141.82001695877068,40.990547621715855,54.77676595238201
90.1977508007815,40.55078547372158,56.44003038213495
22.7103007675838,29.026168098274855,52.400670370939
51.25468881560868,7.4327768788169655,43.474861500069906
121.28865404580344,20.33445788543452,31.26702750411337
177.53581463197148,47.9867322781209,17.8515808210629
212.14809052141337,68.47710082007723,5.1978822292559625
220.5582628639513,76.1673641731097,5.3291794506673975
202.3585096193201,68.5471563882431,13.224760338178827
161.5014176909574,46.733509641530574,18.73479389101397
105.6071343783028,14.697725869881392,22.491475554692833
44.35549254776666,22.210549279659194,25.162914680575387
12.614882170404936,58.65272143325689,27.151173372935027
57.61610327733066,90.07530312495304,28.42637798788175
86.10313448380847,112.84419721125644,28.514216487114027
96.91646907410203,124.10323697811513,26.64348040488129
91.75564692747776,121.8186007110457,22.213896093078386
74.3529873790519,105.17454621374378,15.331343452806122
49.71409304034208,75.11045992084892,7.026423299330379
23.518792780026775,34.60159488355655,0.9319630632992367
1.5287198347275126,11.611953660325238,6.589298213414753
11.20731941062643,57.79518198865713,8.454290662698547
11.33078905399602,98.20250573053336,5.971707697550807
1.9717362848853328,127.94571103436853,0.3161720906149998
26.62109349082686,143.56651262885038,8.984785547524735
58.28300809884838,144.43387655856893,18.634445861408334
91.67943495661589,132.74708719189334,28.186116689535083
121.77645370964521,111.9361111248305,36.504814601493436
144.6613043402291,85.89135487519698,42.44291531143409
158.00552560161535,58.34836682984653,44.92958559399762
161.04302488503004,32.45765511737585,43.269523142820965
154.25843219284823,10.497879950914099,37.501491143885474
139.0567888841006,6.260911212644815,28.49464838100955
0.0421398838526463,12.6995731273183,1.7677847793625492
6.5747267102823335,6.122330369915256,1.2956399088201649
13.329503693225725,2.443822990311908,0.08302999090939531
19.170644611439805,12.366007557357719,2.299919336753373
23.33147584066817,22.863618411020454,4.823340315622612
25.28915002764939,32.84391029820254,6.863201552122824
24.61877281605731,40.87068974246678,7.639551862692015
20.92167740676924,45.34705947640702,6.606504246625455
14.056655939059725,44.9702836584956,3.6362275932309545
4.468163677463496,39.184942651281055,0.8770692613322859
6.599969484776713,28.420701022057163,6.0390096920862835
17.124963043584696,14.18126231964638,10.75472208459077
24.71034566409213,1.0148145805526472,14.121479368385
27.760812239437783,14.414079769826802,15.60412084657868
26.571322872886466,24.219464713739107,14.997394852743744
22.961932560815203,29.821692606894707,12.32690661466207
19.298190505515304,31.343719509536918,7.86284042901206
17.502274226418184,29.2449840758451,2.1499161152912425
18.00341867670885,23.998935568339412,4.089714224607008
19.571965897727434,16.246649225248404,10.074898034951447
19.977610640629436,7.165603091413341,15.050939934909868
17.01636710626956,1.439141411100712,18.371228937737673
9.577617301878393,7.393509759965912,19.708166262830016
1.9352930988623402,8.862045443201248,19.25138236593368
15.816081859352897,5.0804535124077415,17.541169739007433
29.663875784212486,3.307450784276468,15.141521157282215
41.02423792245405,14.44804717900717,12.416968772550696
47.74028412347446,25.95474944452695,9.448339340047294
48.16356225124616,35.6146906454184,6.134863673870521
41.349487587785575,41.7946833846498,2.296460907121589
27.394895201959926,43.46589559404708,2.24937934775122
7.830275505479645,40.01288456131186,7.5076351331116005
14.274695907490104,31.174280382425902,13.197207614717023
34.68183057403005,17.290614237579927,18.830082066067654
48.90406280284721,0.27253738641619113,23.832158344350695
53.41882307979755,18.893034722308162,27.58358731968012
46.6999628926927,34.96291840691736,29.49257899992196
29.72756705129044,44.738311831276555,29.140707998150596
5.813597188875622,45.50448318187194,26.370448102546177
20.150003007384,36.505009911412564,21.370080051592208
42.7370762148737,19.213510179384613,14.624251441222663
57.119308618571786,3.118797054833962,6.6814530066563105
60.08639855942792,26.36466035384869,1.8806949883066804
50.72894053959575,46.41056041609002,10.376841896911593
30.65377842870397,59.69388463258206,18.159015043271296
3.635417087675213,63.385555708331765,24.783096905169977
25.29743889687529,55.514937351701846,29.888103708236653
51.09227293687649,35.31295058527706,33.018100379651635
69.80938231657056,3.798290494596604,33.71503247237047
79.27906461019946,35.676491189764285,31.748962557290803
79.11251740089129,77.41989237821083,27.25859974841608
70.21982835033464,114.26902360402087,20.73333762312351
54.20473151774627,139.21952369719108,13.00654777398828
32.953777940197334,147.28145886006183,5.2011323697405825
8.4955355840881,136.82124636270274,1.6377757220259717
17.01693267352731,109.88598932706572,6.828995007589482
41.43380369316536,71.47807841430983,10.101539909997706
62.92280672719291,28.163205731368215,11.568234753890128
80.30850463749601,13.38994249932556,11.443532604304
93.17461521961015,47.49426938530033,9.90216089426804
101.5611909859903,70.0840580641975,7.298272916073592
105.4102456234554,79.08867467164363,4.275028185157394
104.13533554353893,74.69332050286965,1.7105168037193448
96.63240162220596,59.45330510151075,0.6238028947573662
81.80992425708031,38.03522793903817,1.9688116753039744
59.35897632642587,16.339385222792703,6.213324682005077
30.314126967680174,0.06697620747512834,13.038604573263566
2.9089668299400944,6.826559326653348,21.42729639575776
36.99824408482375,3.185440704797845,29.852638516765637
68.44214283076013,9.269988197697764,36.704383027838404
94.10346383143077,26.868130562283792,40.82953424401082
111.54543955924635,45.44125602027063,41.70194649953228
119.20263166514188,61.63170227801878,39.2950286654781
116.58090023114738,73.51590362508502,33.75209538097394
104.54806359503242,80.45984944688034,25.16881230041632
85.5103979658758,82.5522035394889,13.713293581482716
63.14475414850622,80.09602323136812,0.16125741000180943
41.573990825877665,73.44485539628988,15.550600999714014
24.218078137034837,63.134651259212674,31.185809190058684
12.798840428090163,50.02261944134397,45.645105013233824
7.014281679481045,35.15644035339216,57.418587907763225
5.032015305562886,19.386640273690432,65.03702623824333
4.470539753766684,2.999359882550827,67.32772896948775
3.335045350378673,14.312459351529407,63.6246697407971
0.47408390149007534,33.00555648918373,53.85359114419599
4.495469021959906,52.97797872833412,38.68103014024179
11.48759967327765,73.03359152325473,19.713944284355183
20.10247378050424,90.90165750626338,0.6822227545258388
29.49527663826393,103.86161147399578,19.81229962070628
38.17821261470627,109.6582424888288,35.01394742947879
44.136181011131185,107.24681391260579,44.078447394394324
45.42793046792397,97.01521715063525,45.69673225655898
41.064019609605616,80.47035734034384,39.7237858610336
31.68790742521233,59.6880576660087,27.256516638602474
19.60841108663802,36.87709907569127,10.533110241619234
8.083623102060727,14.23328297386435,7.511645989363987
0.2275245771686948,6.024248959063181,23.790618525929347
1.8999808692308453,21.68772085478449,35.4151891195854
2.3415453855932125,30.83910280133397,40.10449784759536
12.357664613032927,32.35266849587265,36.725062074696375
26.738461817579022,26.393967187214738,25.718706963932522
43.54383569967232,14.628866210323599,9.043828984968266
60.38052609857408,0.0035268968092284805,10.38879074782766
74.47749683011128,13.876449276794347,29.31066705010005
83.01703184016985,23.39592229893223,44.743793419457354
83.78333636708271,25.666433090031035,54.67787806967177
75.84317669034345,19.007445790117153,58.31504001272363
59.83369741991027,3.3187043592084406,55.878703638399074
37.619742301527076,19.69592248756427,48.285254596239284
11.484782272261041,46.55764948044401,36.86032183081746
16.617676409693775,72.44785230103207,23.09739273722328
45.27226098176485,92.1149370537189,8.499689682338907
73.16769140377379,101.1167606433511,5.5111962638345275
98.38815711270917,97.0050922026341,17.782962787494338
118.09303281359777,79.99561839366747,27.5199880564356
128.978463464454,52.85045601335817,34.232505109237614
128.35722668858133,20.04254416718228,37.757912894856545
115.30673358114322,13.409865316730743,38.27381281724719
91.21169612389703,42.96939257653664,36.241704870569095
59.35619937639503,65.18115540355794,32.23946147985114
23.847694150735567,77.85958069353647,26.79945857048125
11.459456557506185,80.07446092591279,20.402579784339583
43.48564492360741,72.15302592290054,13.44539808062987
69.78102721464268,55.713062878457045,6.20682575301843
88.08626090248923,33.534249118516364,1.0493195943782272
96.1760179103009,9.073844700284901,7.955070165154226
92.3225823395552,14.362165220127386,13.925957205072708
76.2378204116621,34.484773043280384,18.157170658795867
49.91648540394502,50.4552248814641,19.93289322813477
17.746268549198387,62.59121263580815,18.98074030515199
14.34151650594978,71.46648294010458,15.577815864061282
40.41526854792898,76.91494725941111,10.469558919661392
56.15002445785397,77.57002113936927,4.610403773146735
59.80217099796864,71.2721618966888,1.067559534617911
52.272044305692276,56.15800701455055,5.749078901793496
36.43809078725733,31.845736024491384,8.912663153467415
16.14089667991055,0.04311722095498661,10.399427385902001
4.751279929244186,35.75961639266238,10.2671346899728
22.934501545691436,71.27496302219568,8.719797439850819
35.94638397092219,102.48808816850597,6.103188928322424
42.27428218894716,126.26467048229215,2.885708904222895
41.39633176153117,140.32092609709804,0.36554428243234144
33.72640875924357,143.5556884063387,3.0291960153161024
20.624706313893956,136.14846358244722,4.621655233081972
4.363233136668482,119.1960890437736,4.975667523727297
12.244079414944144,94.8166122925033,4.2560145362184505
26.432752237026538,66.17300472461247,2.925835566907274
36.09691045854498,37.16518187715177,1.5521858796165182
40.20793117857479,11.70877365684218,0.5917732777950637
38.93726805988645,7.20274502850009,0.2725059278050236
5.905051376943137,27.547720962602572,5.478487279940668
4.309853153675241,22.054009209659046,5.247977021832503
0.7932373415589004,10.847592004277937,4.011299949293077
4.18698053505092,5.114905299823159,1.5852463300414787
9.851561602070928,23.940172881381947,1.9083541593812332
15.312114968578722,43.11908359606493,5.984534808746776
19.69534210503826,59.92108487223989,9.893251631861682
22.170652326712002,71.81678980109648,12.841981270072766
21.947488380868556,76.84295340811349,14.277639310488825
18.397548769261213,73.8867704773449,13.996962931135696
11.302062542876076,62.80879898756635,12.154091709180157
1.0871523847084323,44.434583256502165,9.29064376047481
11.06748021148843,20.604709421513846,6.204559050815419
23.205033159454928,5.729817477139348,3.6122908205321225
32.89849007231416,30.93990228515457,1.8660993386757836
38.108568017669825,51.72989919476507,0.9287626090498078
37.940535389357365,65.82722178971737,0.4387777616167759
32.83931280388446,72.1863235771951,0.23971099761190753
24.336050608430682,70.97242753114357,1.821404240695141
14.413811203114344,63.27321474666453,4.809879710562482
4.875953974206143,50.8040734278525,9.303393827152199
2.989072898186423,35.67141566779608,15.024274000759934
8.473304471477732,20.12224692619713,21.418653466156666
11.344428639724592,6.348064691670989,27.57416592163211
11.80415288341147,3.7511865911728797,32.16995730019852
10.5243319582348,8.799639980256803,33.6804140365652
8.631447564675325,8.147121356733411,30.885451087931564
7.4883772422190304,2.0569719883884092,23.459757733490598
8.173039920611735,8.20292724525995,12.05159779446931
10.893539404031312,20.392912366023378,1.9793500004370246
14.698547265763493,31.543494780176143,16.775966841853567
17.738957447403745,38.46699217749686,30.344982057255788
18.07533751402846,38.47304325481494,40.963194974938396
14.648315460851968,30.131453917057186,47.40558047532243
7.885161373539344,13.819557050576183,48.97777488041774
0.4163975023006548,8.181381845689264,45.53834478788963
7.8655432025892384,32.138640662431165,37.659313521915614
12.469915138823078,53.7641825356457,26.568950986303108
13.31937200189677,69.25758460823495,13.819094022686828
10.662117539225203,76.14622290631824,1.0263787872255696
5.464362266252812,73.65859994735445,10.226188664246216
1.1557852923987133,62.59934804800211,18.56117798460686
8.227107101686567,44.91760247574929,23.259473704061087
14.851914261792592,23.2336574362319,24.63192514866562
20.01301523518296,0.523032116043661,23.917261541589447
22.617986875508176,20.041887936258306,22.70766039047446
21.929423033523776,35.284552301860444,22.222632851642683
18.180374192080293,42.465686840528704,22.995360313207765
12.900810902387716,40.00104471339023,24.89342070197509
8.548155269925942,28.21675251508192,27.16037351426732
7.455805774611397,9.714159295811038,28.68197899131691
10.592948138407479,11.053195204623966,28.39247971549659
16.83879442525924,29.027018164869297,25.48130841129723
23.23999052442803,40.19563699615248,19.441607036428387
26.19682235176854,42.94802264171079,10.226258387244744
23.003894479770324,38.46710071216915,1.548373971459482
12.953331055407274,29.93502993901956,14.652438929040455
2.512809103254198,20.927944546868698,27.43472203110833
20.555657388970204,13.808809461820449,37.97274174739547
38.09586270876712,8.9217389610079,44.332321281133204
52.74856092848861,4.93597635796242,45.082901448817275
63.1521309437364,0.05213494979101982,39.86785918685654
68.7368737997526,6.707783283559194,29.641505114842847
69.31944480370619,14.904880923674725,16.488797980970052
64.91725085877468,23.07575062402815,3.0656437353733192
55.8925671671004,29.75346941858155,8.147206745627035
43.22093339817112,34.32668894115028,15.349058955899011
28.564462242871382,37.12949414259512,17.695870338275817
13.967446911115875,38.72942721334909,15.496023077924098
1.2516060799521778,38.94571043010621,10.041624571950456
8.572252728984846,36.437664557791486,3.093362617924141
15.514022301700095,29.351218810909096,3.5462032917984767
20.320154747394135,16.740486516988422,8.355386267058645
23.875462191649188,0.07889610922285897,10.40823173196669
26.61562874235574,17.18887881050145,9.498980475718488
28.266627279711198,29.18970802642148,6.063262145274293
28.04124124175906,31.35491335115705,1.005352056740168
25.16942890652507,21.74245628078959,4.495631796746911
19.477402363428293,2.169951754902403,9.209151127969168
11.752640422328797,22.430051911436024,12.113775083492271
3.742645073663233,45.87870932487713,12.590178605055737
2.2481254711981644,62.82834704433248,10.588571195996995
4.025975455428732,70.07552611357686,6.721337097031519
0.21806765698099573,66.72445433966914,2.10503205894038
9.186933078963166,53.53127872551801,1.96713302903939
22.66223757206256,32.17080977155133,4.399863474543472
37.430170521512764,4.970748169550655,4.6187260876838065
50.14643954905491,24.89676398549229,2.7423849478559923
57.7533607818131,53.24543732889223,0.42178735803640394
58.22525764218827,75.32802324096438,3.668917464472899
50.997452676756474,87.06930067893506,5.908093460234578
37.00719941931597,86.55360434722014,6.586581554433536
18.438073394463967,74.94779782352695,5.853653777587288
1.680542263740882,56.233150233197556,4.43013217256466
19.920342629342322,35.71171835666551,3.290513397941714
32.94941799333771,17.995733219973154,3.2446473606133064
38.14417088884817,5.490181497025281,4.527734312314313
34.285186862656914,1.9313782726398265,6.771588647284025
22.115967711253273,6.040383811068775,9.40491224777192
4.457559081280366,8.831068162036864,11.94200960621168
14.349295496766558,11.43882477692211,13.830167864649065
29.628992598639638,13.933500494279668,14.312188679645898
37.769167263717364,15.919162456730179,12.635499933387292
37.2215177742773,17.357978669380714,8.306426455736862
28.646634844490144,18.970272978599304,1.378771117042228
14.184687557694517,21.926273881346848,7.354045666750337
3.703157851425515,27.058163762393022,16.573268038446265
23.14310317624749,34.14955971324815,24.766040280435313
43.00781689701029,41.80257954011134,30.57491268685503
62.35693659800848,47.98207129403171,33.223251551348525
79.67624752403704,50.866576037241295,32.769539935263936
92.58316329120916,49.468832919623104,30.076656211001715
98.3692062496486,43.68550504609728,26.429343734210068
95.19362485188236,33.82920243186039,22.951862946363104
83.2474817987039,20.050733786748662,20.113756523915555
65.07481411078962,2.110735863368823,17.431246767853295
44.720296126627964,20.294524039579223,13.675484415165084
26.091775694289062,46.821080562148765,7.657062052548373
11.366830640324256,75.80700720626083,1.0531068825443213
0.29599493125235604,104.04019727244993,11.995955504812798
9.215034675765361,127.1509614510167,24.11682271769154
19.617138106282933,140.5221086668709,36.089199588402764
32.22504822347459,140.345401563171,46.52855947253162
46.54538303061088,124.47896143781809,54.054732377642864
60.69845102965081,92.93684713626772,57.361463184984935
72.58899419088115,47.98034310751937,55.49760058680375
81.05055001475323,6.117538016684197,48.1394227588744
86.23802848975396,63.5372337260383,35.65158726131902
89.12073809683955,117.54676990210515,19.13316806399564
90.50778799210403,161.30029625989653,0.5032678918077851
90.27287784054201,188.7687995634799,17.686723332683382
87.29241693938164,195.68431733293798,32.81246862986038
80.14587608518676,180.31230704398652,42.799368096013794
68.12236813037225,143.85935467789494,46.565613682778924
51.86335915626842,90.4093712550627,44.27298396754309
33.26277814080836,26.379502289539115,37.28893944094835
14.713824214647781,40.37424770919453,27.674809056907982
1.8767262941103822,101.61390083999532,17.418873039666437
15.772025736197818,149.82246458269816,7.887545801620877
27.50067583202989,179.2072687264177,0.29353209674315867
38.44051401043354,186.4716013971378,6.959014917622961
50.17937648051682,171.28827457949527,11.99486614143816
63.17369725644398,136.89914449411802,15.192410880380862
76.09460355796344,89.44958154119483,16.454904023503484
86.59928056076032,36.29156887890106,15.97649807390645
92.28197801604267,15.218881435707361,14.241296296538739
91.61514161528925,58.86269817337805,11.993675543116408
84.49307479491317,90.40672921398945,10.033433135138507
72.23405020891076,108.00277854422043,8.857054908922027
57.1181052123494,112.10789355616618,8.507920160907512
40.43485599374299,0.11243569406573503,5.569336170200789
28.245562532302074,2.36289633864368,5.326918966883787
8.93217857807485,5.022623765326128,3.6412887495217436
15.13524818826601,7.934499860987125,0.5689290722400216
41.08089028362122,10.763217971315234,3.5336448497805137
66.04696508367387,12.938431277533285,8.098481972885141
87.40443391503368,13.76224815581122,12.454917510564323
102.75728840307093,12.656516813763718,15.887428732554461
110.01272023086428,9.440044529603723,17.681904020999472
107.65690683594487,4.449822714198274,17.267188442224928
95.15720735847071,1.5438290139322899,14.316870481211996
73.39629607945783,7.5475440141819226,8.798190829816408
45.055629803622814,12.587657870502536,1.093339525894304
14.308889830255959,16.076738027432327,7.785689912782354
14.625479518936228,18.02477247783178,16.21548789958991
38.99278564602514,18.693028699760575,22.49031331540107
57.98985801407763,18.222840149718934,25.358396802855875
72.28212032997112,16.60152469759354,24.251485348219983
82.89606102812022,13.78770262707763,19.417003151761868
90.19490011211245,10.013557774199857,11.902919079738387
93.60175838444397,5.94531431088896,3.2404003605024503
92.10465599308799,2.4705381371256214,5.1405395986175435
85.18774321390893,0.26363860866895306,12.261605586691315
73.55892696379202,0.6724147610796508,17.443246485858378
59.222918848866115,1.1103840872666848,20.10510913313217
44.89972010609424,2.193725986734338,19.713980970004176
33.13516068781497,4.722474287144552,15.888185464553937
25.582748835848175,8.541744325354543,8.697533457310884
22.716963485831275,12.456889079672882,1.076057082752613
23.95703328177326,14.747800670330127,11.926512843101925
27.949906888119042,14.047977629047207,21.917128573222197
32.769141015813965,10.122350516247563,29.11972643549944
36.00905307162398,4.072372396409978,32.086158457452484
34.92350984344223,2.13070610791949,30.30708957757034
26.820277234149554,6.493167723117745,24.384752722131452
9.77219471447572,7.759277893052983,15.770122682393492
16.530248661771747,5.71155334133122,6.180514378871246
