1.2208142913253996,3.028331704031594,1.9749870478630438
6.098427315460912,7.529548197071291,1.6448653503847275
11.575064831349732,12.12180164868988,1.2643561127642753
16.72176531106313,15.915430142120229,0.8240047516443891
20.47448806819973,18.033828043432173,0.2920375047615008
21.81863327736199,17.773183879630984,0.36181706484628384
19.98309434369942,14.735783700872512,1.152205809917893
14.594617669803071,8.893051300958513,2.050916439068762
5.820487493710837,0.6230102146603971,3.001840200894985
5.591764765008454,9.31616600871923,3.9339343084476432
18.357899023491555,19.83413217060102,4.769283244580139
30.70307839840073,29.513048087228604,5.462023351463149
40.47991441592105,36.65409319810016,6.034251297255903
45.694349004161296,39.7138640752432,6.489935283005636
45.14468835955687,37.86738353027332,6.714237111355776
38.528509132940115,31.072139859818638,6.559166023298146
26.4304384294155,20.01821670063675,5.917650264061825
10.343205367556441,6.114573039027779,4.734058246980342
7.592422651878061,8.794188316593722,3.0591000029742936
24.87207650725403,22.716617806439196,1.0409329015229178
38.9869482516773,33.81014825451905,1.1146517999677579
47.85471188830353,40.68000317219013,3.1994407507759415
50.136411802063044,42.520583566776224,5.047313736829967
45.501186352804424,39.202914537257364,6.5230362314974535
34.70422524647309,31.25519856764329,7.549908355065209
19.474752764387564,19.76764144943771,8.109033760469247
2.2473948341534795,6.274616604379596,8.211829484069684
14.269528372833927,7.4382473744428586,7.906167785736986
27.527310569501704,19.557371942452857,7.266319522943531
35.53020598446742,28.49655588940921,6.400709217335833
37.1396541890144,33.13862614599738,5.429311867887438
32.230694086457675,32.99286653464245,4.427386639579186
21.709400894663936,28.2425379588705,3.4282217057407793
7.37948669035646,19.66676484406546,2.442573777899358
8.326192452360566,8.477515309152704,1.4773312357267867
22.743444250812622,3.8780356269027108,0.5523290101360909
33.44882439159918,15.890843469548008,0.3153742168309699
38.69830462459748,26.116123245001944,1.1262457008285434
37.73434251037295,33.28645247988161,1.8940811396855306
30.863857525497686,36.428114553082494,2.6341994916796687
19.305759640620074,34.98734817953874,3.335702844741838
4.880222433253799,28.964195219858855,3.933004710421689
10.36450742361017,18.994021469672862,4.337779571660534
24.458840530065196,6.313745654362711,4.49664477827665
35.70598158978758,7.385742902304164,4.395350255719819
42.79008650478557,20.207952687628854,4.054994044248707
44.84145243645058,30.343406311794762,3.5253898883749675
41.517711890023286,36.32009167151583,2.8590941998010586
33.0926893207208,37.197492909100625,2.118937980534256
20.498672278389396,32.702583870853715,1.3761091530934015
5.263164786550683,23.298862096018013,0.6750408011744337
10.699869927112239,10.19347238041086,0.03747420744646404
25.39117131681688,4.7509465148127425,0.512296325232667
37.02628028284408,19.23844166076247,0.9483347543376904
44.256601320370486,30.88739040796853,1.248961204174325
46.26265145506772,37.663069046681876,1.4002941172635726
42.76173661542797,38.29235017371506,1.3983097132905005
34.00814282524739,32.52096194081226,1.2441823701783954
20.80995350500538,21.157068261558734,0.9487266863971641
4.547508607828763,5.90485321492801,0.5355723004380067
12.865642038475388,10.973286193163272,0.032262875210646726
29.15851443083631,27.04492686531996,0.529082271566528
42.035854736115546,40.05095131413487,1.1076007348782844
49.59409025722939,48.18997703889212,1.6542575385146572
50.68642594557034,50.32729739302847,2.1033574341418215
45.13358412245471,46.12471880837003,2.376910638496129
33.73688716377783,36.107157524682954,2.41534514008435
18.111753721323545,21.6344809158828,2.186438232489707
0.4054320776720409,4.731284109529791,1.6695153608342346
17.02061531222858,12.21214009987697,0.8656085712393753
31.87792975943081,26.816541737024973,0.18290955043802123
42.21387718967555,37.100620764322926,1.383861778359851
46.65965859254976,41.777749836650784,2.5852672385301805
44.631492439948545,40.40523022237093,3.5945117495857954
36.45504661142773,33.39986060051224,4.229664661581545
23.353996417298543,21.941140588172832,4.357105960430738
7.271792371257386,7.795092883446874,3.916849517014055
9.42637822437789,6.905597263420654,2.951201938334806
24.319283333563973,19.91462356503947,1.598823718428265
35.292995017507586,29.157279754691267,0.052802762629296854
40.823244009543565,33.03432987309032,1.4694932659358158
40.152108506854624,30.69218136518003,2.756782253783577
33.36497290326119,22.19624295298366,3.644005142337275
21.385854914482195,8.570700904605651,4.034411859593496
5.884386388978707,8.314046614533027,3.8990503052938443
10.929396194503232,25.997950117422672,3.272972902318991
26.609122387217113,41.78697112944182,2.2652153207978984
38.83988288707922,53.13931444578352,1.0506251549439554
45.79463593692519,58.04292871754117,0.17392156327704159
46.41059972277976,55.34786662881506,1.2319251948172878
40.54944323344132,44.97586300820234,2.000805518457135
28.999333345254147,27.973536611288363,2.4380018560567933
13.339494010331386,6.398181527875034,2.5704476449976665
4.289895002211144,16.98300478059251,2.461831627718234
21.48369366811585,39.123005345798816,2.195353537310296
35.886725871858076,57.15603825012881,1.8460429600405928
45.513792632644,68.81344014938037,1.4474015328736165
49.03225543790809,72.72014760089513,1.0036443794333174
45.94529549230302,68.52931542946888,0.5246279339782866
36.67263332763191,56.91026478018232,0.042590157533136226
22.50542492589376,39.41833902898738,0.3815011506986336
5.419923774732204,18.28110328898712,0.6566300344164386
12.205921435968321,3.8816034079544437,0.6971545322812198
27.92813458334467,24.400755909289455,0.4789599314299761
39.58196873472337,40.91557385656697,0.044955999929606714
45.58242604351875,51.683452637631824,0.5176366728829458
45.130521754109644,55.79116689839742,1.0957233536848827
38.314680372616685,53.221161143432056,1.572321619062066
26.105237852662903,44.780632098246016,1.8376401874826862
10.218729371947925,31.938935643671698,1.8164988581480601
7.126168650144568,16.61077545206235,1.4848518741738062
23.515946769627963,0.9270647840296892,0.8513874761584863
36.67567611050648,12.99014846320884,0.04251825046474728
44.7805116779058,23.270865478520363,1.1168730859347678
46.70325685037642,28.554839007981585,2.243594034921391
42.158028356215674,28.2263111238432,3.234486807715224
31.742751482496505,22.564661373778044,3.8777014260841365
16.88315106182071,12.734073463927485,4.019956175977967
0.3562262005310376,0.5796362632094738,3.628658695171497
17.561160749041857,11.729125834623792,2.7954904185149
32.305692083316764,22.117545522820585,1.7181792249684842
42.510613670044556,28.9647915282245,0.6475763995731076
46.753512841394404,31.297018840483318,0.19969323161758365
44.46667983243329,28.81138674850391,0.6923919460132072
35.99735943740216,21.79777992205272,0.7995012861261034
22.540404508051566,11.028572075684426,0.5662869930707337
5.973275329831095,2.32878220728398,0.07541275301557124
11.400671408077843,16.780871232207353,0.5656151613965227
27.168319470790543,30.607891016240966,1.2402845182264814
39.128066164094506,42.037798481729425,1.8328145508983988
45.59843329069962,49.51056441663485,2.228610839774155
45.66700459455619,51.97534850593009,2.3296215564627865
39.32376715904795,49.108086735638416,2.0695156385296
27.470272379043045,41.369306070116245,1.4174478271934117
11.797698195946518,29.88421767672043,0.3979368721181893
5.463137716298183,16.18552938288804,0.8860269387219751
21.87816829358985,1.9228483714687035,2.277507547005663
35.16301885517353,11.357160074295093,3.5918611267717933
43.49448024649614,22.32578025264761,4.626654307851885
45.75029087953693,29.920087222619493,5.201508167029143
41.65367958687702,33.39900560250678,5.222547344625197
31.80706166670651,32.46046340894693,4.743396698398756
17.701547611017897,27.430790778971936,3.8810889178073906
1.4001685512428808,19.260456552160775,2.7346494376988444
14.949017740972064,9.330119429715344,1.4231903576614577
29.400718260876715,0.7686059097302546,0.0860805110858026
40.4535018429474,9.543229433626339,1.135081639755335
47.210760589093184,15.901328279868407,2.11644892089266
49.44098900436943,19.34091651302344,2.7739109076597797
47.526771176706326,19.97322491843117,3.0686279399295486
1.2318135359682567,0.26864559327524085,6.6097718711155
6.191795667312679,4.749338226803716,5.399132993142193
11.78014442182685,9.866825940449582,3.207686746084041
17.042047093375743,14.807746238218957,0.17101572919038704
20.877449402065455,18.605353128906568,3.4534147032741127
22.23627171930682,20.2963828179454,7.327270718317185
20.329893156059892,19.1173634751423,11.057923475155379
14.795541063316302,14.671587649890764,14.208002697983657
5.832051757363861,7.073232520833804,16.36078341721224
5.776291075103075,3.0157576598018196,17.197823270432625
18.717831430390756,14.43795611031827,16.542779990506265
31.21146593425043,25.59849135550098,14.425436415470012
41.12493537797557,34.56391647154304,11.156519860623066
46.488659155441255,39.538406514555895,7.23608044705206
46.12048527525977,39.454858669183565,3.138652289900506
39.71791915545552,34.03450070628879,0.7680843992756101
27.835424151404776,23.736229663701554,4.233476609120476
11.90047730295625,9.786927664577588,7.149415469848647
6.050047240968189,6.0248286640464,9.50634377691961
23.6427185176103,21.561695805110222,11.321296340006912
38.48858673586649,34.61649838185821,12.603408369264512
48.57126516685659,43.27978772611012,13.365642167455855
52.516740357787924,46.22724919059161,13.631397584962519
49.80660504829951,42.97424597917925,13.431505770271636
40.84789390227605,33.95762229036384,12.83259554841553
26.911819771702238,20.448074394781276,11.931991387054017
9.966149232845956,4.348864183351933,10.815976129159203
7.6236242075039335,12.105927215279614,9.53123909236871
23.41968904200443,26.63679360631647,8.062559431949934
35.25605458785817,37.204370967406874,6.342997156217467
41.551106893271154,42.26535033254917,4.321703880495082
41.51839261399823,40.971069834781666,2.0283407166351597
35.27722416035537,33.333698473792836,0.43514871866235916
23.836590280939124,20.300993861381205,2.919230970258597
8.943557420026654,3.7043595345403415,5.196050075075286
7.183783490906034,13.958981215919197,6.96240583008991
22.18689991471513,29.915247360465468,7.9763842820029645
33.90703734802829,41.58448888156196,8.193787728563832
40.69922421626873,47.03245839289418,7.737995514482417
41.66767491049911,45.30204289448606,6.812469720672127
36.77031976906085,36.557844752999564,5.6804854759680605
26.78778212643631,22.034444335251884,4.6357784372014645
13.191318652453036,3.8097428746350763,3.921143769608995
2.0784820050412005,15.523437071509473,3.668159741614379
16.900601297577435,33.22428419147118,3.899079888744042
29.267894437383443,46.76761412024088,4.558025562397804
37.5406267000554,54.164307740673166,5.530748703917648
40.6477987403064,54.22932045302587,6.623626055314466
38.22043836086531,46.76525812797845,7.557936649468996
30.639405139337203,32.63597489494868,8.052582595063479
19.003553989084125,13.714909229978737,7.915077629933644
5.000294034315809,7.343653931517064,7.0731200534794025
9.322695160066967,27.49181905150205,5.576067474789057
21.83922964182106,43.76124751547043,3.586520951652356
30.64670009172778,53.759633886929834,1.3514264105008473
34.338577647676,56.0682415044126,0.8814761735401899
32.20349173338038,50.44353072029268,2.9372709099475487
24.33302273273198,37.82243756791933,4.704992603498621
11.627153175957625,20.135090897752168,6.122505943112553
4.284796104544372,0.04007824580395678,7.2005743361245536
21.206330879626897,19.882308431947884,8.021869573339169
36.63239600076877,36.7212645366855,8.671748105672645
48.08477295599151,48.37886128129108,9.164814910295156
53.491412408863795,53.41938295396516,9.432208721832058
51.556508544729645,51.289466078479634,9.360959118761047
42.03581502099185,42.37338060548236,8.864525253200476
25.839357719242624,27.96425373928047,7.918463360396699
4.922028507047609,10.118379958474154,6.55426196339757
18.02295576841004,8.618788794367465,4.870264795648611
39.99186312351088,25.589875033397806,3.025320810128308
58.11122893287795,38.441572297489735,1.2010211576916756
70.01049682243898,45.508297995141916,0.43069276308300225
74.09784758124862,46.07216598197964,1.762569108037952
69.73155450237468,40.41483055723386,2.7981185807798146
57.29938648831516,29.68594871623151,3.5935420085888783
38.218544246587996,15.64731985912016,4.179777083447811
14.827411711042727,0.34390438731465467,4.575012365282098
9.869049736625135,14.191361532475748,4.806627738746351
32.60412194243272,26.142674575521557,4.902617037031336
50.34473042398383,34.05644950450778,4.8952011017226065
60.77995977776446,36.94933758165283,4.812693875847349
62.700738751741014,34.4040304569808,4.661606594685691
56.17019631793587,26.660961880564482,4.4392818058933985
42.45766538081757,14.661885349522347,4.154940267256729
23.785449808418555,0.009473669438931633,3.8425949373632045
2.9563259584469583,15.324191525213232,3.564576516899216
17.055868541150303,29.12584241208107,3.3622366524830403
33.4890757982108,39.488169286797365,3.1961774337351723
44.124782103414766,45.02176457809265,2.955457687215129
47.55814331143916,45.061004262273215,2.4901105050273276
43.38625143605164,39.69137191271778,1.651344922632655
32.28355151358508,29.657847874482908,0.3640667567825411
15.93946188201893,16.22509633955208,1.3181431975759352
3.163270943171997,1.0052077973528988,3.179806860277649
22.12703858731331,14.223055544418383,4.870217648055101
38.108931054572366,27.680448729143105,6.045982916901079
48.774697061825925,37.773951471269214,6.485278851064494
52.646516083991735,43.31091034010688,6.102349390672334
49.292027884688764,43.68755370192368,4.95685005551562
39.33261220713308,39.00350506606981,3.2363839827630985
24.28709761193012,30.067127486658173,1.2058931075619428
6.3024785343768475,18.273753530607433,0.8197558468333741
12.167545502855342,5.382851612300496,2.5011303173737502
28.684886680543556,6.753545243332643,3.5187023267706024
41.12528560832927,16.452715367684647,3.640299376381644
47.92671965560093,22.40534441482825,2.8106417958613585
48.26493351753526,23.819381102686656,1.2118465477432039
42.164847035131125,20.506386672335914,0.7665941659314506
30.525377710745296,12.904618479666718,2.626221673790357
15.022715601886278,2.0565262334959074,3.885369706010421
2.105211960205774,10.4815703037003,4.233836085999157
18.37789583958307,22.831183087529666,3.6299580530098052
31.44970676309647,33.0527179885569,2.2654832945058305
39.47106566330248,39.43347410432282,0.47228236385322775
41.35258195132196,40.76810131201733,1.3738479455120896
36.89737336819828,36.5630845210019,2.9385399890309216
26.808714323578265,27.110373281795756,3.9671633787453477
12.569213163103086,13.443486154087637,4.2913523668642695
3.7786024145642374,2.8037947841394426,3.860197762436915
19.904698330513348,19.632781194056253,2.776125026240351
33.49657792167479,34.97373472076113,1.2662741467062477
42.57688900648983,46.97854188971524,0.36624538618350594
45.794071824094885,54.2749218350509,1.8015226345516364
42.628078152021104,56.15614223733689,2.804035173330189
33.48095987641054,52.651939174936516,3.257131819975401
19.630163031410508,44.46409540898293,3.152204814594323
3.025006339762134,32.810758600711075,2.5976767697003735
14.022579375345178,19.214738073299483,1.780330739835191
29.17782664721839,5.278379247802706,0.8983281477448382
40.40284576823915,7.499836838501909,0.09233883272201737
46.21292229466554,17.844995322360248,0.5784782051963613
45.84544971068213,24.784711511402175,1.0818004942388193
39.34370870832728,27.73522487005427,1.380712756671705
27.571210439987357,26.601704678950696,1.4457367671203267
12.129357156055468,21.850190103276706,1.2650787799438619
4.848821437117631,14.509670853206998,0.865882010385755
20.986869826895997,6.052212294974677,0.33906302835790153
34.00763881867664,1.8671741008995606,0.18723713466668593
42.08676368046455,7.737371230184215,0.6182014322336667
44.12584400140629,10.477374355622995,0.9140322562934602
39.89533729298508,9.61147099474669,1.0758181407403544
30.04259169102152,5.307393460946546,1.1291881218795214
16.0807154956086,1.7147900682747834,1.1030102104442405
0.053857141230063105,10.39696960690462,1.0284553014444504
15.95578296741118,19.547039305158336,0.9331273091048673
30.085333827115594,27.967782865476675,0.8231944620143269
40.895837822511716,34.58133464860432,0.6897981287930862
47.50695729962131,38.557176270993686,0.522541322932653
49.655949650308266,39.44019491371469,0.3222041414329552
47.67941413801739,37.246837171167066,0.11014121727935886
0.8012199503834949,1.1404449338110791,2.554025210392859
5.756369885411536,5.776111674863188,2.4517995938336403
11.36486082646389,11.129312135174825,2.105721564851528
16.687127220129856,16.39891678516859,1.5322103492320722
20.646780836322282,20.61569317536792,0.7605361557638686
22.211669556623175,22.75795924612406,0.16345038239182255
20.59134812901579,21.91577377956751,1.188106449113837
15.394674391561155,17.47133115989798,2.2586060858127626
6.76723537728569,9.307507716352555,3.3058447735937007
4.561709551387979,2.052928151375813,4.255189134574808
17.31672771212201,15.41776308587136,5.036350667875578
29.736184158133437,28.98586839684871,5.593417751668494
39.693529123197095,40.53249776069862,5.919479083635385
45.206784493135736,47.95243013594687,6.030437422990862
45.07413674606572,49.89480594811221,5.918746243204468
38.981947760387996,45.89965617135077,5.576287413656052
27.465612893059507,36.34487837964921,4.99275095651416
11.909164055036507,22.395531016258925,4.15846628438289
5.70777144938178,5.763959482205527,3.087315170762613
23.07062721264417,11.485454956437726,1.7816675438877956
37.82980380746935,27.134731175245193,0.2414596272361828
47.96123304169438,39.084655274965,1.4743340870954866
52.031444406276236,45.63335184234514,3.2267884609291544
49.43579551075682,45.825899300479776,4.805462089873899
40.50580567059465,39.71404365766296,5.964466641340221
26.467872692199798,28.428022684657346,6.498653475112437
9.279160158879913,14.020360256771019,6.350504914927966
8.672551548943776,0.9326252368564251,5.672928162654051
24.912162241203248,13.819135507854854,4.781083000545049
37.23099559548829,22.453762746228403,4.03311570805528
43.982932350399814,25.387578342556637,3.7042025916004904
44.289055022781255,22.04116235196521,3.8885991519104586
38.159326584390946,12.733750066855366,4.473541924401293
26.497150437104402,1.3619123748389146,5.217394859890687
10.986725783292082,18.29630053949814,5.843772111145977
6.13443493305392,35.48857180092383,6.098088037475927
22.400419318326367,50.01863589664575,5.8266206279989134
35.49105760240747,59.074595093680095,5.00872700208434
43.5837526706817,60.48666579870185,3.6906307619776975
45.607877416287856,53.192957092810495,1.9348017667063528
41.36063008325834,37.500728397220556,0.1675564678412989
31.478370948653176,15.067354106995595,2.456081378256412
17.297776444505885,11.39836749979559,4.680997409285934
0.6548874917443936,38.60896036425426,6.5365638615500385
16.33394012085215,63.21069875979592,7.740149028116744
31.48489612063036,82.22889341489156,8.153714156486695
42.76449307253536,93.40234588988272,7.865419627789519
48.52912617559285,95.41379918456164,7.132785181241657
47.78381850615983,88.02909322933951,6.267598560145722
40.41451278943071,72.14835231440922,5.543018107689482
27.317789791194624,49.72992633708178,5.089137715987507
10.355977023327068,23.547124190933193,4.842716641026999
7.907932649235924,3.2063201845364904,4.614694476281112
24.65036143399169,27.405690120075228,4.183743645543908
37.29319378728427,46.46998693249403,3.367434708214806
43.96372422401988,58.697610980369845,2.099618494411288
43.783600136498414,63.41097651388018,0.47688011261019136
36.93986294411268,60.92204461406488,1.2957778387042507
24.578679386966158,52.37652030291838,3.004879481930361
8.574860427505255,39.538748269455965,4.478241879673065
8.744275244902523,24.54026113707004,5.603842728377831
24.88130401429444,9.618086977402058,6.328889796576003
37.46743146839633,3.149283225017956,6.64460681176766
44.573417797449686,12.106612635007908,6.585273689022977
45.01780718294498,16.24469063740818,6.218631916947291
38.61236317959925,15.337109247344214,5.628198174017621
26.251007790771897,9.960720662433785,4.899404800317706
9.783797907724262,1.3900016762390746,4.1032659137802945
8.325955923175764,8.625193883684684,3.2894316844861264
25.475222691340395,18.15028402044181,2.4815215665805272
39.36857873352015,25.360988763228818,1.6710838998583457
48.31636160673384,28.809261705942877,0.8306770324931265
51.346302624947924,27.619354778630044,0.06304592220587717
48.15790573248949,21.602663310613995,1.0222024307361344
39.01429713179783,11.303280746915904,2.0377235915270906
24.695548661199975,2.048708898618127,3.0577009828411565
6.539728494020124,16.685918750594123,4.002934130936481
13.517865546841836,30.531641183273308,4.801883683941021
33.01144316396142,41.47519295280242,5.38988092552454
49.208937076910345,47.66991046832519,5.699019008798985
59.570559152757696,47.82874735648389,5.657637981952128
62.264142215343206,41.46925605071901,5.199287810274232
56.58441783811825,29.060698649101454,4.305622520506594
43.139658011386366,12.04111763385703,3.0551003113791335
23.741526925704562,7.324741987975143,1.628317399844229
1.0636692013779254,26.25437301527812,0.27360838739680005
21.816380350345774,41.887038036418346,0.7655374668786831
41.86576006821653,51.76169963477292,1.3302546455350663
56.465552788114024,54.22975028438402,1.371409474533724
63.711128244482744,48.72876371798079,0.9269780005747178
62.646778137651886,35.85928284946648,0.07096780408212058
53.42899049138705,17.268649574015765,1.1120888942830551
37.3879868382587,4.604857372466755,2.4966314770637648
16.908058716482714,26.883913168265675,3.9125887396468304
4.9255962720101625,46.64319129365521,5.149743290893876
24.86167932585363,61.2870669797443,5.952565367581466
40.0686338542746,68.89546546277884,6.064124877887546
48.62415882684783,68.50946702507026,5.26303361870174
49.77020634736781,60.28413096608013,3.408458071781745
43.89804608000794,45.45435657161915,0.5295657246090765
32.345509984011926,26.114565201535942,3.155513471501553
17.089691933714743,4.8505059878004,7.310106231062679
0.42261220818318357,15.687964550956579,11.532147770075905
15.323505431770789,33.1755430382964,15.38358438400835
28.016954331313926,45.88577613441938,18.44093088830019
35.9582948773257,52.81292053721087,20.31298694695735
38.10081996197905,53.67582595855088,20.63417783851501
34.21738647633065,48.866757987543615,19.122733994775405
24.95652776208908,39.38034266105396,15.69228260109698
11.761430068530125,26.715571689818937,10.558948660692465
3.3624480147842806,12.729093569825272,4.231722074845808
18.182051264391298,0.5744566995142382,2.6209521121234354
30.574072059975475,11.306520511946637,9.281606904938988
38.79925570340842,17.962522335632897,15.088788882702369
41.697879060513884,19.6415981627415,19.53760566483988
38.81552462114035,16.180166956590806,22.316238414954498
30.46722416679621,8.182842959363596,23.340618634897535
17.741099168736678,3.041498040350135,22.724148648904954
2.403837624102549,15.638924806095154,20.652328067099592
13.318609532119911,27.447619725273153,17.337645885621733
27.059312964027786,36.29415404274021,13.06941492318405
36.690453516323345,40.336805433357625,8.205676003257503
40.68525115729417,38.39363799967688,3.134812772382658
38.36424830118684,30.18055860813944,1.7142379733420237
29.993221331289103,16.391139409145477,5.941237825874891
16.749132180088615,1.4184326719177627,9.324881924961202
0.5726063790245534,21.088479163521935,11.840407446241413
16.078676143251577,40.188923401703036,13.49912268496676
30.561019496629175,56.34583272277104,14.204962829035965
40.43839954266651,67.48732699693798,13.808510258936979
43.898614041771935,72.01337330907569,12.231035736979075
40.12851299272848,68.92357086357538,9.493936794475053
29.55366526318822,57.939746188650446,5.760018094377479
13.834677227429843,39.63090629197332,1.409966281874994
4.43688982095802,15.497146764080915,2.942957290093995
22.290092751862595,12.052410552433722,6.53419010909925
37.007997840768006,39.875768099380615,8.673238594735498
46.64741868534289,64.41059384401953,9.003175106303264
50.31267148895571,82.10200022633698,7.5669265932022824
48.134859406776734,89.90431179115424,4.702997579798704
41.01838096099869,85.77277284057045,0.9240633414701097
30.30988244390368,69.10275181923224,3.2173296925551695
17.740172053596062,41.5755496188117,7.245825679163247
5.244652265817752,6.734004109683851,10.767662067379398
5.475090600304344,31.28603715029454,13.40701497136512
13.219505511190162,68.18666006820783,14.821504862379916
17.459366230984926,99.96527029253689,14.84020332937488
18.370257134947128,123.36421899076605,13.564014570731006
16.71114221307406,136.2726081156506,11.30249052980833
13.570951531073725,138.00273284294403,8.47426411639841
7.001999441735438,0.009572497153993066,4.7162557478344915
12.681717637626456,12.509090153503742,4.2607757242126425
17.806801873940397,26.25410287952844,3.1020638474619826
21.212925888842392,39.308583362394955,1.090545966094283
22.02393141914718,49.67184916027517,1.7762412302461854
19.798557793763607,55.50200105339254,5.267821978804787
14.532174729006655,55.34655256063009,8.888599234031647
6.530260745053449,48.28463941453515,11.928813918969437
3.7224650287234424,34.157292951470424,13.66357098045637
15.661137434706168,13.670179787307509,13.595416418322364
28.64754624281498,11.565450807866176,11.61120154884048
41.80758270720806,38.81069110673077,8.06138984741978
53.798358776208666,64.06691248306065,3.7606587709871118
62.904024038206515,83.31916996721968,0.3004224363639589
67.46416331599254,94.18980259374078,3.377856123290467
66.14386443309812,95.76491318588243,5.098399521930371
58.12643312143354,88.17266913128265,5.435982601714786
43.33108981578646,72.6195639914545,4.673671538414857
22.444982359137082,50.88361635139101,3.2278042970212995
3.1221530926120615,25.15292523478048,1.5248638484591372
31.36776179220248,2.085068790718588,0.010430013627661685
59.89570278874167,28.32224753852216,0.8578590789297135
86.07511604788334,51.09378762742132,0.6947080608377755
107.22992868195905,68.2749416848147,0.697472468483302
120.83841413070009,78.31326312559982,3.2508879731600095
124.79358697861664,80.41898770738253,6.56603783524139
117.75945888447522,74.78061318357126,9.897646860314719
99.5397595766633,62.57136760354435,12.32055777826916
71.38801313272577,45.879616213158634,13.0312459246622
36.078181952222856,27.414404871002716,11.616984409044989
2.3782381200976674,10.036060723010248,8.212141771415462
39.34888943953146,3.7524650506077117,3.4759141351669047
70.41229170139513,12.284408155835115,1.626080694715217
92.15555117472113,14.974639238950282,6.082052565072057
102.72355797284077,12.299202951694886,9.056485502633905
101.98948765935513,5.5331602798069905,10.084543890280438
91.3573877739648,3.608728199723751,9.10467750101234
73.34769350803353,13.273287410290768,6.309578645348216
51.13271970145381,21.645724993503702,2.0569880955020348
28.14909950298294,26.980571345673617,3.1012864344311506
7.772985765973591,27.64758420385681,8.427244867195318
7.020314170227838,22.318839741550633,13.064320582785152
14.061816305657858,10.304910096976897,16.12749089903171
12.458773148936421,8.03297039514526,16.821566021953455
2.972540310553254,31.01034322949729,14.636104404198782
11.90011770896859,55.69684984620396,9.601708387740725
28.279171964474873,78.39976272132068,2.385728881908041
41.687636628513545,95.41119156112734,5.8845505753530825
48.07523102471341,103.76045063233254,13.92127784070927
44.81553943391175,101.73439148512186,20.554685059827005
31.393850057061226,89.0496266352046,24.92793100877458
9.564845682134736,66.738285810104,26.592008633621887
17.03968316460695,36.920234663402894,25.514170568780422
43.729226761524856,2.6101115709293596,22.02784306978947
65.76122583677191,32.43737533050753,16.742256504555765
79.28017989691182,63.97378631217972,10.445404364961037
82.0218628436176,87.73466194562079,4.008319175977316
73.66308079884664,100.18405027304361,1.7397894329707104
55.8190429157956,99.38233374237957,6.126805240961878
31.75437703753958,85.66827282647367,8.767750173565355
5.852778037333134,61.82400683911619,9.680197260329374
17.07855326957189,32.56426818075726,9.266960625844815
32.619363418130916,3.4557570083845772,8.198287551704174
37.55552118063481,20.37662932437225,7.181813613777609
30.552740381493447,35.31137203147137,6.691973905936291
12.553556296350601,39.766269256629045,6.86502309757758
13.267473731191544,34.158038463696755,7.546973006775962
42.039143862283176,20.45730659796755,8.401964719882965
68.14244246291018,1.615887642095285,9.042620015507172
86.37508853316263,18.932088710242404,9.175299491726236
92.987953046054,37.643731565793104,8.690083619715175
86.35022414666939,51.19998016833502,7.603977556331813
67.11986492572848,56.9124756059011,6.007458149224107
37.91467062415265,53.20204875187715,4.082473079241815
2.6568699520157706,40.016211238555904,2.0837581569010464
34.18741359224958,18.993939340223672,0.3164965916434652
68.26543418130602,6.762483894664607,0.9151599390688294
95.81464131680764,33.290639422180135,1.425776240325138
113.98883988156314,56.5825923424991,1.212043404181842
121.05217777874608,73.3442673426206,0.46129366605278505
116.49777376955629,81.46007702758958,0.4333343970626853
101.10842963185041,80.11650457888796,0.9800842171764313
76.91196727260439,69.69020933120306,0.8198481126017537
46.984088647412634,51.55108003784956,0.17199731167988994
15.074697963586468,27.902428523083383,1.9145434758972986
14.885541566691572,1.6495976316562615,4.129552978780328
39.30100292809252,23.811042205410562,6.420957805689077
55.3449604516627,44.960385687435625,8.421025246549727
61.2446164243211,58.69578649070426,9.843106341169529
56.43430672280737,62.94396029057685,10.482878620000475
41.591736381967564,57.1383632298303,10.259473611208554
18.582855879595137,42.38127191072707,9.272874666409123
9.641003324022595,21.23997598173707,7.782138179127062
39.22248819922446,2.7506400075219957,6.053548990713748
65.72808847125988,25.73274467378362,4.2672092076755535
84.66182082275962,44.1415993863627,2.5522275324936823
92.11764594585634,55.1835581251191,0.9779208152000185
85.46808024306127,57.14970214034053,0.49341584517323733
63.95950949652377,49.57423760513791,2.058730935367301
29.064281219296205,33.28515141741396,4.060439195601531
15.541340892266108,10.337845008596968,6.774661685809089
64.38395812866175,16.196995463083766,10.187377034964975
110.91661823571341,42.594653144016235,13.931178792117315
148.48009190763852,65.00072684512652,17.327531082914586
171.34100539121613,80.02040993014965,19.52741730000518
175.64540503462243,85.23586980587953,19.74766271514064
160.13883356632644,79.57519703947735,17.51866169494753
126.48880280183266,63.45741650149246,12.799746529368576
79.11216044558873,38.692757722125606,5.969384525629067
24.472470931469456,8.193519896506588,2.203770715898463
30.030915845195384,24.4263869927685,10.663990663250905
77.33295670990407,55.30181024974432,18.28976038517952
111.85346160169098,80.75948289748925,24.178092250351387
130.25043398139746,97.70522733217229,27.838176848198007
131.6652610708424,103.95344411262705,29.146995590109448
117.51247579078196,98.48471550595431,28.15661967459271
90.98230201508744,81.61071550576443,24.993846971877943
56.46259634990392,55.03652735766699,19.978795820125587
18.976458212337455,21.763820615759002,13.721592259956799
16.33622136913207,14.202314043974,6.987260553222882
44.74150556838171,48.34154129828204,0.508990500397702
62.482854336491265,76.25154886160651,5.149380170766953
67.32675337750473,94.29492340431648,9.702620720935515
58.95919866582395,100.14198064084212,13.153665545080687
39.064978743005135,93.1124122533889,15.699248346366673
11.007682316365099,74.24477473266711,17.599614218576694
20.794818953720235,46.10239071717811,19.04811219534982
51.61769021965748,12.390308203331873,20.07290432779909
77.0720396123761,22.526203473875917,20.535290115285935
93.52406815202359,54.152305511375985,20.247961173674735
98.32172918654834,78.39073628556952,19.132891813746255
89.93662524251151,92.02332946763491,17.28785516659256
68.15688388726792,93.11510954467175,14.92956406424466
34.335446497459955,81.25858678196026,12.303758198368845
8.42962944659574,57.626714922902956,9.599879714277744
55.35496030700501,24.857354958996556,6.8740352122005905
100.43050039461423,13.212510865396307,4.066686514092862
137.26628704072428,51.912846591905264,1.132606982473757
160.1601636149264,86.17114346927401,1.8966906176778577
165.13694102906044,111.02701261572625,4.993974413781148
150.69286126685432,122.26943757528292,8.156265870899047
118.09884243960245,117.17026071956889,11.346837409857311
71.72349766086818,96.28416126568143,14.41258939028489
17.947947530190614,63.207113230851505,17.117763880935563
36.660958731060454,22.602281773743663,19.268541364370783
86.15943639631128,20.42738251431947,20.73501686587108
125.81935913513017,60.9504600356702,21.423110048005753
152.50243172859496,94.7504401719844,21.259073462020897
164.84270399384795,118.74067393788822,20.226170808479086
163.24567441176916,131.22083864082003,18.42212500588656
2.7670052685142057,1.7068301424432777,7.239649821324734
9.312852741375444,15.213137744708241,10.77759482530125
15.473086277821333,33.55207765724491,13.088098007768478
20.16473285235194,50.43147196781408,13.280751644831765
22.566948306429804,62.93213507231334,10.932931706977582
22.288115101179653,68.48457938550492,6.241281409252576
19.45917050375156,65.26544232253674,0.036182605042691746
14.644611747585058,52.463718428320945,6.793081584111419
8.68973367229601,30.62060633487233,12.801490715004688
2.430439951885076,1.721492553376361,16.891739685175533
3.556272486979361,30.887149773853086,18.21317891494816
8.887540714130548,62.41769954568484,16.53652681572422
13.110435994708144,86.71532014438979,12.266582565568388
16.113575161485347,98.17725836469313,6.4002542272989436
18.611856923417726,94.26565110209647,0.4483042629074562
21.36678580497646,75.48696900196765,4.036022913715158
24.532384731831304,44.73056524859506,5.709053213584374
27.714588227278906,6.983890790521882,3.5289249336759734
29.98020022969441,31.820330604172575,2.71687236865068
30.324770413537134,65.62410549024837,12.020983932726693
28.20000124772179,89.01833419507369,22.2154360817695
23.76800108971749,98.18396428134541,30.412992523231747
18.053148774751914,91.3418148952499,33.76468681912822
12.66192390883694,69.13373917480727,30.33610569675687
9.333703397343198,34.50171973365977,19.899789363720615
9.367638235147831,7.855746322684319,4.024608051673628
12.971378290202106,52.19073206345613,14.470326490299646
18.852542415464203,92.62610897798578,32.23548186587125
24.131450650929345,123.8582101844929,46.205811319154456
24.785601983667483,141.69774685638328,54.15310572430109
16.577275132299935,143.44199066557997,55.01914314485239
3.7211298910253174,128.10898393112652,49.0791473939913
37.076898198887015,96.67785731584,37.71036220152089
81.39852909293973,52.17045555886821,22.93549166753109
131.42872792690764,0.5175013021173506,6.943426245491582
179.42839572649336,55.17279825611978,8.10268374777758
216.53613589948884,105.20640912307016,20.13236389741732
234.44314437081195,144.7479162429644,27.53981489346912
227.01611711537174,169.60561854290648,29.57148823505485
191.52666564930345,177.78148153510918,26.52912628185981
129.31248112061914,169.4502358018954,19.739275507911856
45.80098890038961,146.53779797635494,11.190104491041572
50.125310695986194,112.15480603046889,2.9316583533249405
147.31808624817,70.13222844727059,3.5938695002436583
233.98631824919377,24.73811428752916,7.834764396583265
299.5697636701933,19.511663017149672,9.961128955467267
336.5306224111158,58.135390375392625,10.503012750798712
341.6593345914809,87.1807738188018,9.864032070561116
316.5322663007972,103.88730124275264,8.181768778090689
266.9617183802199,107.30857663265493,5.569148362210261
201.55079947934718,98.60300044102883,2.2449079235904668
129.75045332713051,80.82935276405779,1.467251567369966
60.013832406043946,58.30774818292779,5.171245446604628
1.4549566083275398,35.760161953000924,8.388791691889304
51.12878667293791,17.48789278989794,10.602266719719168
87.84314412856381,6.751379009244418,11.455687156545721
112.10915758549737,5.368742010821867,10.882244191947015
125.49316083218918,13.472324283771366,9.107848339428259
130.30647813961642,29.40096416376504,6.573682961473225
129.51987529454013,49.78824247964385,3.8130245298524925
126.62991797656206,69.98047172493152,1.4093884118120463
125.2174757918332,84.85835054852035,0.13109123923220042
128.12949294900287,89.90519863157368,0.619979524918755
136.56234014727815,82.21513805809666,0.17511298875818052
149.4937562273884,61.118533890003164,0.9948877782131951
163.80343189214105,28.20918313997906,2.6498349485961725
175.11474872870866,13.178634461893717,4.468800451187369
179.01834335516577,58.780572358015135,6.030309109013305
172.1880604353123,104.16874394900208,6.8385637370722305
153.00535702749292,145.23447690287315,6.519142027801753
121.61212027746002,178.3880816155061,5.022380420218924
79.63769685725542,200.65899728969532,2.6516440669361416
29.90903431959295,209.85352879857948,0.02347306616592792
23.72767232375541,204.79878396187056,2.1496069118061016
76.59004890695368,185.57570817108538,3.3983284155033964
123.59405946201205,153.54028396856881,3.6217001523877927
160.07426205570133,111.0287569980127,2.9737152958232467
182.84227276637836,60.87239984617408,1.6935536029837932
191.05671519366808,5.972367089493415,0.04036908207476319
186.44289482842382,50.797008238048,1.6579995269955086
172.66902345093692,106.30833916910666,3.0330871319033554
154.07810006757103,156.81178456694627,3.884887705339781
134.32461024292965,197.8624521554389,4.267151230315811
115.4747626984446,224.83235982656583,4.279238749052253
97.81966111965039,234.00380967555478,3.923528797612051
80.32615711017554,223.83728949021875,3.0678781951901724
61.41178457931655,195.8347668060541,1.4806903892943761
39.71151981073722,154.55008629789043,0.9337334971337052
14.653844232135087,106.65514593125751,4.057115890755825
13.170279248325794,59.40678213918601,7.714631271611327
41.80136533080017,19.089148965382474,11.711609462079458
67.94484455873136,10.067122996432872,15.688418770860865
87.405543608553,26.26588909154402,19.01652386614436
96.0185804885901,29.92632894192921,20.93887334246126
90.93284873040464,23.186281744869202,20.79760538970002
71.81337758332819,9.433290049552273,18.222700365413214
41.45417594436791,7.049647929886818,13.33357400831279
5.424036571498184,21.437927280090445,6.867371622590648
29.24179308953066,28.91802882561042,0.14625417526061565
55.81897555606245,25.494201312904483,5.147758632219173
69.5062547453468,8.876600473357483,7.354722422492849
68.35569962056923,20.82279695850367,5.437206459142456
53.33360035386556,60.90280006054919,0.38532252374165654
27.719078856934654,106.55375081175237,8.51636770141044
3.815700972958466,151.84780382313642,16.414295004252054
36.161013621759146,190.88520141648965,21.334236747817943
64.615951818445,218.7482169516535,21.23553204732061
85.61818473723099,232.0690649217843,15.47292317789626
97.34243163697779,229.18774648120316,4.856940135681601
100.01810183629152,210.03280319006754,8.861552233631597
95.76147624478891,175.9344324752121,23.51363720858612
87.84430963591488,129.46610657272285,36.80430632758898
79.5515818697276,74.28015511820325,46.60533889108437
73.0541678459347,14.875502005528718,51.339503846672756
68.76502910389004,43.78169117701364,50.35733190491635
65.42185737340505,96.81555930734655,44.01811084157732
60.86965561174689,140.05031848865823,33.51192426715802
53.15325396463094,170.50251875873693,20.811626814329518
41.366224916029815,186.68412944990752,8.639149122022074
25.917312770588733,188.66923041834974,0.005785644946439457
8.179992311722362,177.90117751908946,2.779883322075139
10.193805050541526,156.83323115003768,0.8660467887295469
27.86497249664215,128.51688306075036,9.374292048442316
44.01444228534255,96.20589451031346,19.31276947381278
58.1533908736781,63.02271817262067,26.278075532037345
69.7586305742424,31.706573658168843,26.19334210832411
78.04394401809502,4.4576796062852795,16.684901344186585
82.08257772847593,17.148644038892737,2.1254503245437224
81.23030610926989,32.2214847893192,27.852268664594884
75.60246186554156,40.598894699551664,56.58523095483587
66.30703337222232,42.879252543837644,83.65291198243757
55.21910940271239,40.393938633256184,104.42336519094052
44.3759627625467,35.04856332743072,115.16438355747007
35.29393278427033,29.002815785583177,113.78954503274271
28.5547979284869,24.23095505931835,100.07458233652623
23.898256618902728,22.04739486330292,75.36912304028066
20.73956489193951,22.728842125113484,42.34115043952883
18.782999120057447,25.41610888144701,4.79740369998651
18.34698395573163,28.372283920835187,32.78259272970377
20.165060173818958,29.522730421270083,65.84447527943466
24.765553501595875,27.10488324002402,90.34359936183625
31.820722862548408,20.18363354356214,103.51601417845808
39.7088999621851,9.132111324287889,104.74433642355905
46.13317860353919,4.692583840826869,95.64298938658509
49.32106914099247,19.71653533329846,79.37812396402478
48.66861297979898,34.398647637421796,59.786887778882495
44.89338315562343,47.3625473836235,40.37267167823064
39.61864063619924,57.44661967573104,23.618443665897228
34.58140214087849,63.73891578617309,10.745713722438476
30.846996095508256,65.64819437363793,1.871142237089896
33.51091328332628,24.83863198083647,0.39297566986327986
27.51527193566306,30.31275234714672,0.7727000067740791
12.764956077167435,31.5783441798036,1.9743709243446945
10.791187908511361,27.237575909140478,3.013899566105588
40.73797579439358,17.08243549481981,3.722931578247877
72.24223442548718,2.0942122121725633,3.940436188114173
98.96147603731427,15.923422252351491,3.5806740044359717
114.56999635023517,34.84411564693952,2.668495360713203
114.5312272375823,52.59480301051257,1.3205705515571686
97.41720858691174,67.3402055814725,0.32645670839663915
65.35832005464957,77.51983736836581,2.1095513734249556
23.646720218763637,81.85864046216204,3.792377150065282
20.385835902855263,79.48562638761886,5.1177127502224025
59.409712712341125,70.30011309624975,5.916381645140666
88.07976387989606,55.32410389907653,6.112923618427728
103.49822026657118,36.530307806710745,5.667321569897644
105.03434005525452,16.228270166864874,4.675316062223796
94.12001035655332,3.6895796429485705,3.405559448752233
73.69766663073258,22.354574689655742,2.1259401569058243
47.88081454789182,39.95678161648851,0.9404167564490705
21.567288703976036,57.20499524693647,0.23200704454127624
0.2786012470069797,74.54081789302799,1.432425573471741
13.483370264694818,91.51329511496829,2.553682356614325
15.730235284686213,106.65265706337165,3.507167257951296
7.324047490769528,117.81800354286098,4.27009149356345
8.733433405654775,122.80776446023143,4.870836492492308
27.49864845563878,119.91908666064816,5.347067857115871
43.56698936785076,108.24394218582886,5.664658798435099
52.61875805855722,87.78272505403997,5.7704041207392205
52.46137751301518,59.50791231357551,5.614010183061747
43.184823232057965,25.447019272822978,5.1252277303406055
26.489863146211782,11.306376593874942,4.340943370605815
4.700812930336517,46.869617593473976,3.5456833778803665
20.001237988445766,77.24842038208669,3.1413340038268642
45.730428263447045,99.27767439248554,3.3764400050940133
70.49204001676078,111.43711511943295,4.290300365047573
91.6762316594572,114.13644405746606,5.670946529976177
105.95937980622412,109.31148953226263,6.940317353265167
109.89265244100707,99.52038894290732,7.359646927606382
101.00468168748118,86.98816189790634,6.410537984338286
78.89634718933631,73.07295289513024,4.001957965782611
45.79032383235263,58.346381995615346,0.5619604313740992
6.28136138100063,43.06472958312118,2.9887281537872057
33.62209656200461,27.607594961685635,5.655328669600541
67.78726759888771,12.579165176506686,7.0190834102068935
91.0943599806,1.4388649324417802,7.3851608506257405
100.14613308414607,14.235035110786306,7.452775065979317
93.5734897833683,26.06569571315569,8.115217134410509
72.10637733093745,37.31879032498148,10.291004169461115
38.53222337892352,47.938856198917165,14.5531060757408
2.4749812514942993,57.030393058990235,20.816602653490982
44.80370594218765,62.97877861471571,28.28924706364162
81.78003612822432,64.12733983564503,35.58522012587675
107.41450757597279,59.68005307552735,40.99029243748503
117.72692283520456,50.31151454991945,42.8756372804735
111.6930099618227,38.09185223206284,39.9517567223046
91.38634537892318,25.720670825475317,31.476218222326374
61.19544612184682,15.443351749647231,17.68569105013542
26.41889374759817,8.18281768733126,0.09150601549675628
8.158199667908567,3.329034077341049,19.804592030671184
39.13539835779927,0.7161538961902923,38.96830595165099
64.53583857166139,5.555844579870538,54.95030195115006
83.14715963067123,11.904913070542962,65.70145384147614
93.71462081340053,19.21614055916284,70.42979135048807
94.61369995082798,25.95479472067442,69.30904484184337
84.31163962644861,30.352007359085945,62.88748059697477
62.411159197047866,31.25030710218016,52.14869346789839
30.658362037191758,28.61574587972038,38.50964377221212
6.727716538599519,23.49972438506968,23.316034564694064
43.73614819277316,17.519414061980125,7.428247858680421
74.04009855331056,12.148638036013958,8.628722536526553
92.55552119013056,8.187794731341562,24.086452883117406
96.36382733018867,5.6495525781514,37.57917600737593
84.69804078809733,4.062594567032087,47.35317593295243
58.23986836680542,2.95489261003481,51.89238080965344
18.435405615662866,2.180169239698155,50.35079249060769
32.52639353194178,1.876618622146235,42.50565716036348
91.00815009182436,2.090144626825309,28.866631611791448
151.00895536071695,2.3602879324588013,10.926840637349061
203.91362711465206,1.6432390498667278,8.946714313484383
239.6047530241982,1.2655056295742073,27.863486123685576
248.87581101414818,6.978723257251055,42.75632079584258
226.29239222021002,14.862677367856774,50.8354765069132
172.28014544921643,22.94303755639367,50.40034045054514
93.49498490297255,28.56462055037751,41.355952836763024
1.3015788507932986,29.549301868566634,24.898953498264387
90.97685570390055,25.28488660631947,3.199905786086106
170.9324120031386,17.154229265311393,20.657557409546367
229.13924060428624,8.03054883046077,43.05361281909104
260.02889664644647,1.0834934064601716,60.66000121135112
261.84344377091617,1.5057012389401714,71.36874285618528
236.24132758600408,0.6989391146073597,74.71571746779031
187.92028109556682,6.456691526454406,71.63317870761453
124.26655447468183,13.551738550559197,63.79337208012164
54.70392713807597,19.631661424327316,52.96704443439905
10.5558374075406,22.727810963584783,40.76076412092956
62.26288705002552,21.318443166600737,28.44719319876952
93.94254038244205,14.186855263126779,16.779544729177545
103.13599965256343,0.4688302713474812,6.045912946306459
91.5951236878435,19.921828938181818,3.78343841526072
64.41870387760223,45.6541120933083,12.906642462846255
28.52266756422342,73.56180482208202,21.496130444428726
8.955107236904963,98.86261257279814,29.58258383537598
41.85904532720924,116.12418790600339,37.113133412296534
65.68634160306861,120.67299191210886,44.060673384671524
77.8103479759898,109.87624210159153,50.35635153135734
77.43767796518246,83.7980456529938,55.72355943637332
65.41960836151083,45.06006860492432,59.66440962408609
43.954313710208076,1.8790753112084781,61.62078170396433
16.156587213643935,51.61421115423882,61.16219252895257
14.491345570754065,98.52631574797586,58.0986328344835
44.68736181186264,137.28783285339355,52.50091427922658
71.71200549068452,163.2920942148447,44.67363203321817
93.56923891667833,173.1759294996084,35.15980809864532
108.87349422531165,165.44170600556262,24.66059541189951
116.63305156270525,140.95494184969172,13.812628241871225
116.08705504524117,103.00773489950019,3.116124983192421
106.70235519187507,56.7911332059815,6.978787908002011
88.35938029806644,8.394940812511381,16.05404646717103
61.67456758066534,36.29448712297499,23.67900020987204
28.336027147776278,72.41147043287275,29.39011635347709
8.709038790829855,96.50548980701551,32.874849586554085
45.367909953439494,106.63107149735703,34.10565825862156
76.92515182670891,102.3706431369763,33.272811222633905
98.95647183035733,84.96749925537249,30.75522478037381
108.41924195079753,57.49340456266599,27.12531031754507
104.53643756845811,24.768313737428393,23.10000479646755
89.08143323481411,7.2425194229014265,19.502849645675692
65.86921285651597,32.58094045388887,17.111948044515945
39.605432635622385,46.650559568261315,16.403955308461292
14.56629223705988,47.25964964894304,17.403502565076703
6.334330432289304,34.95769911990068,19.645293220613976
21.760989952149853,12.580967110483366,22.291283579213445
31.555955494809634,15.710659786921237,24.39524688097753
36.16237625213334,45.43600886376235,25.10616690482349
36.35510949955045,72.46975488081137,23.87497169877544
33.455509428361644,93.33109061667768,20.728072600486705
29.71634790085354,105.28707799500783,16.285892190600233
28.313981558911372,106.54884523366117,11.497940216962494
32.56252154075992,96.6542601446043,7.308567713233965
44.487677141601075,76.83478458945459,4.320288258078979
63.47143979054275,50.03494237474035,2.674052131321572
86.18656474492941,20.459957853321427,2.41446095582857
107.88665998790475,7.508149823658254,3.5608574176318597
124.00804443218976,30.496762340407923,5.822649618784666
131.57695208741933,46.75549289966731,8.584862403296963
130.00642625910714,56.1875268298937,11.021015644303988
120.93629153179766,59.84121352596533,12.356135376134626
107.23814340639214,59.167034343388984,12.119393261423747
91.72015822362957,55.40979961346529,10.247469300065454
17.590469812074343,4.845502416350564,7.629951540767708
18.935423273124112,1.6809949789593022,10.562866328921928
17.473230420419096,10.869268267622505,13.296816664989816
13.06469827714186,21.42236381270658,15.258789402783574
6.234678170384567,31.059284055467504,15.755788128120663
2.1681715850393735,36.969430447984784,13.951780761345232
11.309127011046396,36.69861724033267,9.028082824787896
20.482361055411356,29.123007967979806,0.546234793658125
29.0468524908211,15.090242464826112,11.303501601832762
36.28518121738043,2.68991612834545,25.746761580042953
41.429546762018525,20.536510585237174,41.2542440874684
43.93689036010328,35.01401201971436,55.31046053928258
43.779663821528366,43.91457868641667,64.86094997693007
41.28382749995458,46.87607379949016,67.31737477674615
36.903136926762926,45.32727835816605,61.053504517734275
31.37251184027768,41.40572769198022,45.5860103609604
25.407609392468377,36.715358875928075,22.326460202696023
19.156958374208862,31.73648136550188,5.333962111311463
12.213439611524782,25.89646743081524,32.92182314109734
3.930853588122,18.261210848940717,55.67947105856486
6.024008058946757,8.273960846285211,69.64934871594744
17.23046849340878,3.979604664746878,72.76000332123677
28.60280808766211,17.97574471655259,65.32272662006783
38.81929407780167,33.21769134874541,49.91214402457121
46.89753428274612,49.43624395174492,30.51521316504086
52.53514355661239,66.27367508548721,11.525390704860586
56.055216968757414,82.64160226730345,3.294197223066122
58.08829144710621,96.19157539632087,11.500439003178547
59.16923822224283,103.4442732057421,11.8416789066764
59.53333221680457,100.7151577984223,4.297325472237268
59.114627224035026,85.48925526042116,9.56652026888114
57.64757345729182,57.619235304526,26.744281337228767
54.785423672317805,19.755494084408856,43.41333041267683
50.13413633136231,23.19332973919492,55.538961611717916
43.24878548972351,65.32370379424661,59.546076186989
33.66536348755871,101.17209998798337,53.371903202865134
21.010818338851667,126.78086991790403,37.16973509810151
5.151878843070681,140.14873656833828,13.247409517242321
13.6842820454992,141.10761839422736,14.417630044961754
34.819532380658785,130.847943237916,41.2407453147422
57.0854819294309,111.3634727905261,63.328145261929826
78.85115359058831,84.99348852914346,78.34479896084841
98.14688649493624,54.13516314874739,85.62357379164476
112.93847050183321,21.122630989135445,85.56772251767289
121.52757692806833,11.760778144884268,79.08934158000649
122.93740086407605,42.18405971057784,67.35421928533276
117.07000019889223,67.71283247790784,51.6860437324051
104.51674491208999,85.94472865304948,33.66245032141041
86.10751420852563,94.90269906391356,15.18446752891975
62.44902813624327,93.62459105052756,1.7001700835248184
33.75316287895126,82.69615049835227,15.238048104487724
0.12975278487598046,64.41691892948027,24.341519096716713
37.75644966631594,42.42861225197926,28.768461030371913
78.03935280280426,20.858255955215874,29.256520186835605
117.40122560524081,3.2997738711286204,27.2465380014432
151.38332433646502,7.943448050203644,24.171160291713104
175.17201537200944,12.099031589266454,20.84522607362871
184.56946953675472,9.673025237746746,17.30220404669215
176.85556789491775,1.9913373837376331,13.100819878314999
151.38612890829577,9.138204051374734,7.7745293282675405
109.89625437731301,21.524348848301916,1.2052438623493178
56.528538976275705,32.59314796826282,6.116933637721313
2.4940196058057915,39.54492206414334,13.151232953177809
59.66843012453102,39.81967351423023,18.688581406768776
107.45840869535101,31.806787305723017,21.652725939597584
139.75751752806997,15.501761061623496,21.20512168756969
153.1325442613386,7.240171533876898,16.92885748984242
147.3883543336616,33.017477303389285,8.916671907854955
125.26988309715391,57.65138932371131,2.3225465986085774
91.533651330122,77.08831041105412,15.902203018453035
51.86736719932188,88.13275159843299,30.68698553224784
12.050064172313578,88.87799493582746,45.32600861528926
22.534234177976238,78.8641363110743,58.04975901779433
47.24765432034004,59.0868257989306,66.76806247608053
58.73750383505693,31.927640610796402,69.54781554114716
55.735326826721675,0.9317106882662071,65.11298338280821
39.77541092743414,29.691597941117728,53.157255239563
15.218826760124387,55.85198248084524,34.49726632139148
11.786508920807803,74.46510424588313,11.221359664061946
35.2065356888159,84.09539153465404,13.438257657062028
51.13791961452761,85.05312387978088,35.82406654776842
58.919094777049565,78.9082236578509,52.71008131930106
60.73136577009785,67.647411444539,61.73094102245678
59.95316197653889,52.911582629363096,61.69227260985506
59.184259331741885,35.68634639273777,52.95571689526888
58.97481871691511,16.495477865293562,37.37787496829152
57.843575380678814,4.105068327044744,17.958570410298915
53.39443927278889,25.104452909929197,1.515316150616565
43.69102539661212,45.008634698356964,17.16008754973932
28.01947238554762,62.210611422100975,25.86668541668206
6.725086331118254,75.49164844004277,26.135625710930103
19.49382575466339,84.30225838012709,18.507424263242783
50.08524211723982,88.63183117863197,5.057072469028053
84.40613756226749,88.56903975423234,11.339411608167884
120.7945941045343,83.87438623708198,27.403680973515478
155.6178669839432,73.94324812915382,39.89546537709871
183.15188481321596,58.29552460495523,46.16802224838607
196.69503039190855,37.349097058835895,44.879776621424696
190.63295483892298,13.00294342990494,36.51926028790389
162.5944222550428,11.401312609660561,23.099405819799713
114.71723730422977,31.857797423812283,7.399420168651794
53.48013248377109,44.957519467740454,7.583877690868709
11.789195512623204,49.054167255700236,19.17932097470258
71.09433159044961,44.75533492369923,25.751552952201006
115.88586120223177,34.54842892571837,27.041766870135223
140.55766408879268,21.782262308643553,24.139183731982925
143.0978817933253,9.537257130409165,19.48977184864366
125.0183366896282,0.04895319535575049,16.361808546558432
90.77572792527961,5.767769828932743,17.433240661679772
46.85027372677923,6.844427256882194,23.29290418888629
0.6308964312244716,2.463367556489876,31.902834209442236
40.75615620752395,8.254172010864554,39.45272285146983
71.47788745474918,25.722213137948337,41.706855706419226
87.70219526107077,49.09920758098193,35.3372561898751
87.89979996797744,75.7946651553805,19.46358993730354
72.77572711610517,101.69817367805018,3.7077825417894252
44.96885762382321,122.13061304845468,29.883136707162617
8.621521328095431,133.132929666904,54.226618094015514
31.155500226628156,132.51076484418834,72.6022448234823
68.94994397663076,120.19500669996303,82.3905786320649
99.85288616755149,97.86891842794245,82.50772082037513
120.26063988101235,68.16928215126461,72.77552200685481
128.39124314348265,33.92751526172658,53.64796569056173
124.25331169858521,2.222410852021516,26.561551354290952
109.07551537233999,37.8828590911566,5.709136959507592
84.53565250719073,70.82294027767094,38.99523307635962
52.27369167211288,99.04500480208559,68.17209780570593
14.051886506904784,121.07607481942436,88.44160913112094
27.476143867278584,136.31456814604712,96.89738300909869
67.91686974288247,145.12363458119083,93.278012701141
100.97639937994735,148.52778989234443,79.85308995888676
119.4926084407635,147.62225766114545,60.69044718492264
117.50849282388687,142.97630162947354,40.22544415063058
92.58217767248493,134.3667631591602,21.533031869517536
47.263534068015424,120.99964081694263,5.333160244010713
11.036425283276001,102.09194712546055,9.382920289807632
71.84484960699723,77.50506127437949,23.82727403576219
124.36507980575978,48.10846519164295,38.235850208388115
160.01300280318085,15.73026638605397,51.40379518231222
173.8409082400605,17.22869750578113,61.3478414558943
164.60052316133277,48.33558456519239,66.53113048988617
133.91117382785364,75.60836848246343,66.38490039685199
85.94012633552599,97.31964463367872,61.32238929746763
26.973782374608824,112.12600785110595,52.34069216929221
35.46889664257827,119.58534723173467,40.56228112952934
93.29963393516944,120.09339377242678,27.140767370172206
138.94544591114175,114.73643446916758,13.245377899151434
166.76530097166918,105.05460100568877,0.13341413557336515
174.37684311772765,92.71788497682995,10.971836092121917
163.2851220806146,79.20251123335458,19.06992007993785
9.106229972391889,23.60766547092696,3.27688091275587
33.88278448813295,14.4579884178341,2.725714470278935
60.14282099050516,0.3366684829652797,1.3548981453415596
81.9502922439549,18.93286891922595,0.5542294146700659
93.62402623123752,38.32295277569689,2.497826688966526
91.09769090789536,54.99157269878177,3.9872015009070503
72.76302460615715,65.75372391095884,4.794077623457512
39.60446397003645,68.49090446227224,4.982311942546015
5.150024705902961,62.608017406652095,4.906909203827502
56.65293984565819,49.056546386152434,4.992693545552766
109.02176587791476,29.97647648059584,5.333358236051653
155.5551473070572,8.241599032413115,5.647280104419532
188.75087544904548,12.881355865162616,5.677574768541458
201.4538935505182,30.365576321478844,5.497860939533613
189.0947922266442,42.187606650167226,5.408849725640962
151.14096684457814,47.40453448113662,5.738634515180925
91.68095784396003,45.995644821124145,6.715492312693827
19.11078629519127,38.82404804550721,8.218059438571602
55.71465568675194,27.41531636055494,9.5559356593765
121.9297688296141,13.819614353790431,9.718534406532342
171.0314598729021,0.429443628241447,7.897403591219776
198.54901404294012,10.372692186719382,3.6682109157444027
204.29673302035894,16.5492938040465,3.0374532209438048
191.48036168180155,16.785785834514698,11.945943222891861
165.04625925155918,10.730560939703,22.584598909666052
129.99596056133183,0.9973159970601615,34.17103240906115
90.33777032105291,16.987949507853052,45.31829372145519
48.87219673340943,35.36272912584446,54.15203167578249
7.724578877456019,54.053577221085575,58.49986536793101
30.92430093257426,70.95965106224975,56.001067344266964
64.42530800709211,83.96254337570629,44.82208625827806
89.85903543658387,90.8953263961611,24.952631556690694
104.75932548722258,89.64167035274714,1.0710530905906508
107.93408472513973,78.44946906309237,28.91367070883275
99.95948995259582,56.4463179094262,53.823816403613094
83.03557534428272,24.205641350761127,71.5727072426697
60.3094615859816,15.862161998239808,79.22733025527441
35.057322232154526,59.52667911494189,75.63661259643833
10.128262356465846,101.27868020490706,61.383700262333356
12.09935680462556,135.29458680898946,38.70887069199183
29.418352555205544,156.59423738369563,11.190754391593934
39.544806468640466,162.08006704676475,16.847712551844634
40.286301458494194,151.1565636482427,40.76851922919693
30.247437137175773,125.77307037642818,56.31962307158562
9.767720758140905,89.88715106019178,60.73168694745151
18.44920555697285,48.53371722252169,53.44889952767173
49.49606893597588,6.846372736311991,36.06177674593469
77.31905710896375,30.661977823623662,11.7704340742195
96.31591058981847,60.431463529745756,15.116580953583133
102.87067359796265,79.88697838082915,39.951901306470376
96.21687414505449,87.41936038767307,59.05296979751665
78.34195862266905,82.56249445317468,70.37736034687981
53.09002916106296,66.42980417903672,73.04300866039088
24.89098256236585,42.17236504813939,66.79748127764938
2.3712117673390534,15.000782664725666,51.94026319946237
25.98722500907499,8.59343686397329,29.644834546838997
44.49304286000702,22.390386871924253,2.351000120336798
57.36989468305592,22.279404968675635,26.540507612314897
64.6472377894632,7.6147017699717985,53.341954734991035
66.63127297562616,18.544270421065843,74.52543042460348
63.863175589065264,50.422749904730914,87.31924713234211
57.283741693457756,81.3058201037543,90.456175660471
48.44247363579229,105.29292252208151,84.34137493152704
39.527458462248305,118.3001695988968,70.42920074266152
33.09241639273104,118.12981903268019,50.541122814884666
31.497098910269038,103.99364488482729,26.701331046583523
36.21102931908745,76.1206849538307,1.2724422172610679
47.24942139629574,35.89176679489049,23.154408604694048
62.996638106013386,13.581534174504506,44.07580054960786
80.52137541005158,66.99669654292077,59.136088163855355
96.23661900731393,117.1772044627657,66.50055937780465
106.60412832201068,156.4202303804482,65.69354879094828
108.6476744441814,178.477469920439,57.84869983071597
100.19849908023599,180.29959306093423,45.333870613036545
80.01648952489872,162.7071086456148,30.95767316139154
48.02073273320709,129.72608794446253,17.041101887149416
5.717523208859993,87.04249196101358,5.139314289773937
43.356130577417424,40.42444673224363,3.9951675397924844
93.59912734325334,5.163493216623001,10.432026956700815
138.0660389411119,45.59169512513958,14.597770821552935
169.9361756791364,77.17533474696523,16.715556147415356
184.3171755266632,96.5384340922318,16.658676267951797
179.63499679487686,101.13556996426166,14.338631114059028
157.99866135207176,90.24104787975074,10.268342526180279
124.43826896952815,65.80114221755693,5.688896284470242
85.3969407187759,32.52756218982163,2.1672549926792652
47.157051321691746,3.001441261228546,1.0075259118136162
14.796236540463967,33.87376955981241,2.7531741798754172
8.15241900160442,54.33172222345944,6.826382414892122
19.63269318406482,60.655365754757035,11.593335306502635
19.066520487873852,51.33709253263219,15.068460169543602
7.640486613585836,26.90076821166851,15.796668471189815
11.297698595107619,10.21210746173402,13.413052139969093
32.20658271129511,55.538200256688924,8.693018655707732
48.128462897692934,102.51863413368017,3.133800816853637
52.30398992200039,142.96569983851097,1.5817194668993646
40.14198158456181,168.3887708761983,3.985250016862786
10.71117785848933,171.96098103971505,3.226826807272807
32.90638912870532,150.45154853085407,0.624407852407236
84.51151992583334,105.31342292768937,6.725001096821699
136.5208209705998,42.44958237877239,13.732929967251865
181.7132330840779,29.173648236794143,19.997614867316226
214.2896228849231,99.44517673069367,24.05675154985597
230.10132456780474,158.86095316956644,25.166016199258905
226.37326516723803,199.69951128837852,23.27813775692711
201.52527081992818,216.70142058782022,18.590952162345527
155.5534700727186,207.57519949344146,11.26679478154336
90.90378939396433,173.50037811345538,1.6765862696307283
13.253456520862146,119.44962789783897,9.32912965792367
68.56516937175326,53.86157969848448,20.531629740437157
143.92995610334597,12.710453348294577,30.58459689849235
202.8546571838463,69.83361226595584,38.16762730031341
238.58191502304194,109.64585161301251,42.23899757793293
249.20363589317057,128.6159899066475,42.51944918734027
237.5863202115507,127.90394824124314,39.73236339130771
209.6661521435478,112.2549465630103,35.39571666326471
171.984484949226,88.03514361771916,31.2141952392573
129.6716355538107,61.29279752895443,28.08743953680529
85.74943229280349,36.56075081311317,25.447443405214965
41.85067929537514,16.60330781118643,21.511102522773346
0.43325433972768307,2.7629020354472,14.486375814633766
38.65272059214026,4.612493513565631,3.9162734382508533
69.69776605102832,5.991318134494886,9.108109484800982
90.99946528640326,2.711435524281873,22.678794076701465
101.86472158871113,3.0483909664773896,35.22500571875099
103.95025245289601,8.65744931319953,46.47083235242644
100.48296203388486,11.769854803359596,56.95185862653509
94.64935828038803,11.087207504665963,66.75124877205236
88.17702761626066,6.697135298615826,74.81030399418235
81.02489125287026,0.248374246113808,78.77696472052457
72.35836078145852,8.349535039397644,75.3221735775647
62.102657026013574,16.81120406015496,61.187700694598014
51.92958690307879,25.836714992969082,34.996416794813605
44.920186576644085,36.33165148317639,1.2987428466628135
44.00565074105906,49.115765259692004,42.498884773385704
50.09631203132864,64.10998105786842,81.53690968904303
61.068002836280456,79.9383658401113,111.60358553112869
72.26433087367155,94.14625350862048,128.0307331893624
78.27732418347519,103.89590376045498,128.79077048928423
75.02123757568219,106.77614032172147,113.80103067236044
61.0308441440809,101.37062277739757,84.49479790238408
37.49864804746643,87.44454521238823,44.27601443479504
7.918046446411005,66.24065553383264,2.1057634061397037
23.22133174919597,40.15809679550734,49.28963038834233
52.129182315926485,11.983470316205228,91.26638279497043
76.18919108582382,15.388682748735397,122.43614480139544
93.78414976838687,39.22089927159782,139.0733441378309
103.91690150628081,57.23562961108399,140.19609343686304
106.07489718894549,67.95163642164994,127.66854696079088
100.45324800433112,70.96359251377423,105.57780990385024
8.750579927524285,12.955115026630464,18.420081578734628
4.815327438186426,18.363018473153062,12.846188508668805
21.782379366274256,22.069012275765825,3.8985439213854476
40.147270326227634,22.269281725021575,7.799384301965677
57.11722910353924,17.673838642047606,21.225380935523468
69.31401779488631,8.115364837214235,34.934802285379845
73.39510344968656,5.147760873016417,47.13301319478121
66.94880764912014,19.6351038017015,55.96657495771485
49.45043645162072,32.29925021475092,59.8059402480184
22.730349963933218,40.43102769242115,57.44832677562766
9.237502698989596,42.47251820114073,48.452677380228565
40.947038971546256,38.419242981837286,33.40829124695953
66.16573079413614,29.729085983634317,14.050242815341711
79.65556820547921,19.002614225441814,6.843661981563474
79.09995607794535,9.471245137181079,26.2585664570515
65.26124798343025,4.159527603753348,41.97617044077613
41.285385484989064,5.110934000746647,52.91411625259403
12.034812328889632,12.82655498696811,58.80819402170201
16.940810082460665,25.824869111000233,59.77548072728727
40.07722248243833,40.61567325785323,56.17870626844966
52.36830831698503,52.18414530162302,48.68271590463856
50.144409583244084,55.01576035041956,38.27692924597803
31.786577697423343,44.59736676691508,26.260035085879576
1.5117263570493351,18.902147170335834,14.050654152472125
45.45528737799324,20.622330597965846,2.8922789041862234
93.04432558883093,68.96956103047795,6.301177304350786
135.5837239575388,118.51845761652682,12.909923991081408
164.20934330404333,160.6668382901724,16.642563691350965
171.51220032896563,187.63732552218698,17.70345262470457
153.06099305618653,193.94709847256874,16.60108347044772
108.52299196401309,177.26410942274248,13.794311970986461
42.17370476221439,138.630421333879,9.8013420659677
37.32829748984877,82.20027385369325,5.380235718921213
118.1564786854138,14.673454492579888,1.3575315666974055
187.4490505613848,55.55113964565084,1.4673725105700277
233.9453907905596,119.51373890316336,2.3111901371333095
250.39901302963133,169.040358475988,0.7211921220712296
235.0297716977518,198.07759245920977,2.997364110174687
191.60412039295562,203.65226021927373,7.685042127513935
128.18248001530782,186.18416195860635,11.768649863138018
55.14897044070433,149.12225693327832,13.94526056927489
16.758692093257995,98.07682898494936,13.521667212278787
77.95021083294357,39.78711100498346,10.509865088445045
120.90190752351074,18.760950356492806,5.657286367898334
140.7921933136999,70.98092102909202,0.2172318947570269
136.13504834764404,111.20865029955092,4.450529223406654
109.34231446030627,135.2380327019852,7.289418919963536
66.77236888934327,140.8847619974905,7.791799075781602
17.7682442736595,128.41325861848932,5.732194277545552
27.39497025084255,100.54392587127768,0.731650568446129
60.18454117536398,61.90034913620091,7.560870971419299
76.15521331815681,18.032123347763857,18.964897015988154
75.92103142158857,25.652013217965436,32.45853974992247
64.25208035512341,64.63339990543332,45.92031712332571
47.690558254994095,95.5237151567883,56.29074046555353
31.769147620977858,115.9467600072033,60.46324919174708
19.015293723189338,124.3807328693253,56.32909155880268
8.543811681057239,120.24488180802918,43.425345670080716
2.7261468348421323,104.25114385290892,23.115020937238995
17.974284301051593,78.71551399699776,1.6258905696551014
38.517200563219134,47.46051102830919,26.938613314358633
62.82015112254853,15.165191201426829,49.1518834499363
86.79382985227322,13.682970392822202,65.62763211321534
105.06110648306652,35.81883638420862,75.14886833846407
112.57857650234956,49.73694311384867,77.817388104779
106.05701665755879,55.569189991591465,74.62532865162251
84.85129533897621,54.49973986861622,66.95855930833585
51.212676489383014,48.091014486387074,56.263141469011
10.001096208291433,37.914055615608994,44.01115305642341
31.98951279578477,25.613230841092676,31.49027295445061
67.0373783541553,13.188497153922734,19.46244756062265
87.84671615712222,3.1304336540825055,8.27226629373051
89.17481377207007,1.875569106713392,2.0662504730928366
69.38686803000093,0.33565715467516916,12.036541345534408
31.495219098170065,10.565704703662213,22.390517915768047
16.76795319609093,27.65363174351158,33.67033206780321
64.21251391417017,48.42271383316241,45.9407302867962
98.69371303171137,68.24676505436584,58.47980814831897
110.28458451823329,82.04685883966411,69.43954353996612
94.16838085341838,85.4444740791863,76.0408822601154
52.23501505388977,75.81049676829012,75.40285978991642
7.182640702349914,52.99131474757679,65.61435548020907
71.39921081578692,19.57770564982174,46.76371274878762
126.62989227891957,19.364856641868673,21.53070781965505
161.37114022479403,57.099283338968775,5.262383383418856
168.92629457222392,86.41397381336078,28.322232020564886
148.43052498915515,100.97196357822287,43.84572273049724
104.34180631810707,96.53100643717436,50.43987826355681
44.85236315395242,71.81102790312686,49.072593488263195
20.143102097630205,28.906563982597312,42.58133008454064
80.98525641504936,26.75768159393153,34.44029676375416
129.78981243404832,86.92285786234622,27.336889926434974
161.40723122011104,141.47963486506146,22.562596522131372
173.79556820439498,179.9830448000809,20.082233061423807
167.85188534825622,193.6517618729964,18.972823493388535
146.73637526825559,177.50943535576602,18.087651623062808
114.86654869455434,132.01252781731256,16.50255703751058
76.81810970398018,63.45794166688086,13.45677481892818
36.45653911647906,17.26952308508756,8.112084039964728
3.4278319556364143,97.40044650264309,0.32469839221383845
40.97792841952185,165.52004595572424,12.198343953067868
74.7842594695341,214.13940895947397,26.89741878061546
103.35888251481823,240.64124586260837,42.3197710523418
124.88345198557086,246.43226880627634,55.0555217400977
137.37009121703224,235.01029075063246,61.63696114923263
139.1716071184303,210.07469755015865,59.969513999998455
129.62117336506523,174.62432257263885,50.00735395980186
109.56617634084758,131.22998152292774,33.602577259433374
81.59207425394929,82.85941937986921,13.872257514257228
49.81611428816067,33.34535831408897,5.76489340862235
19.266582557717292,13.056905548797912,22.699261816482515
5.057786531283911,52.842076337855836,35.77182934953344
19.244258956590922,84.376908583898,45.031411259641196
21.371932097384757,108.1143062059892,51.03031182154329
12.007196148498446,125.62029350321154,54.11847082121438
5.927545574929637,137.970275820753,54.08825523224291
27.88961786259129,144.56954351524158,50.57228579062471
48.79752894211806,143.29197658507306,43.57885280740145
64.12775175727609,131.967117944557,33.45160635230232
70.69892110062996,110.31974600502522,20.82224761391902
66.99101169546937,81.13096038770617,6.689559670552861
53.07774112536305,49.774741098117985,7.859604103286728
30.335571626372836,22.278053719653904,21.88306975374395
1.0895486192901702,2.976036582495075,34.529928256081554
31.72737862984705,6.949697419746861,45.003947609267605
64.92858678104275,9.302357289543828,52.50768902667921
95.46358541885517,7.331322105623828,56.06464086715849
120.7877225053426,3.8784687269205054,54.55596578832919
139.0958771034575,0.35321266167269116,47.43460726904258
149.3144222508616,2.959594770715102,35.474140855483704
150.870387532403,5.721376453219396,20.631906035516767
143.4317075068655,6.505973804473689,5.303530587824339
126.85207649622397,2.7893589769213323,8.468698274577182
101.43016960658049,7.85048234117604,19.493973032194837
68.397143334569,26.026437435569825,27.455385217719716
30.34006664903591,49.44056226370044,32.39776477284907
8.761328509731303,73.16340423648991,34.19495520193481
44.03083537072176,91.2501509124832,32.81206375511268
70.65139076743168,98.87153290451951,28.599078927067275
85.00117519012082,93.87807572835176,22.009992800865376
85.589622449598,77.08447621920793,13.59201910365078
73.49334857630548,51.34950658515894,4.130067815379098
51.13613007893112,20.277129382463496,5.434574078480602
21.482089974973746,12.537490634295285,14.08562706220427
11.588615702297037,43.70769261563309,20.897061523727174
43.60643670541584,70.08545006613546,25.3569990393701
70.08949902258993,88.83187973900817,27.563724634598078
87.32607467260074,97.79140275181032,27.90701551222351
93.18990825336361,96.13118486258837,26.631736364508715
87.71333713075646,84.8781838915877,23.852257251783726
35.84756669672116,1.9652906925313622,5.014538064862399
19.118612252312424,6.377423605025191,4.4588510645981385
4.48363428347916,16.512630115865772,3.0498177817111554
32.08996882763273,25.877097406975683,1.1825896380603564
60.34979222708951,31.824836724997724,0.535951254361572
85.90219099837225,32.49159792594287,1.568797914582445
105.54368904639462,27.33463159406881,1.7295923420437989
116.19659817333628,17.165739688010863,1.238913141624077
115.16006361994941,3.6771233822730065,0.7642686083976535
100.73986057287905,11.225536249579212,1.4483212138122785
73.15975404007318,25.964246601833306,4.536842469865594
35.548593319568305,39.46848653214628,10.611647801003375
5.608651615400537,50.85480594683639,19.23219638901377
42.064010175799886,58.731495877859864,29.330404549420205
67.13168727756323,61.02432377435938,39.271914220430745
77.95004222554132,55.84512428125059,46.7337646827943
76.04191722618913,42.48621842736508,49.50385685947508
66.42262336265308,22.010590519934965,46.08792889381683
55.11618774990692,2.64617697987189,35.41285804970998
46.718569120450155,27.3784002496908,16.858915054427
43.09629970308409,48.02499838684326,9.01836985729001
43.51034519953762,61.431555095623885,39.72225803531654
46.035541769898686,66.13329366446186,70.75824289890056
48.973404004427564,62.343586406267534,96.54883295349143
51.45256121617519,51.46559590421932,111.88137923888424
52.99203106292111,35.45079006178865,113.52305661378348
52.54555081179194,16.332730059008824,101.26602473841139
48.13677140229564,3.874675408508686,77.67762266461582
37.555254713531625,23.043369502607955,47.111661137138185
19.92478652978447,38.80095278153677,14.679348079597638
2.8636075290807046,48.703032864179306,14.888814297272859
25.99816744074588,50.77031203906107,38.043276748887884
43.226454777143346,44.197035772292615,52.63720326382006
49.45740965588226,29.881798329194638,58.26210207935803
43.12371973616181,10.424164611475005,56.12466063716969
26.982119814083394,10.472666190831331,48.139906016928265
6.968513370042431,29.01417226513069,36.57546807647226
10.255145920154094,42.35500689889892,24.2192191316695
19.77534334752359,49.235535056377444,14.128978944258375
19.74804056725435,50.01369404008406,8.811743364437033
11.131874910088218,46.1352509202975,9.251510737190491
3.6577820380979946,39.33283346383543,14.604222366861494
22.138506352168676,30.946710334457077,22.663817055363232
42.38124869860822,21.638085810999467,30.662470106661903
62.70036111978916,11.545632948567981,36.40429513606812
80.96547875999121,0.7290499295828854,39.226654546631444
94.32642268699412,10.36394079246927,39.74951825794215
99.75355464198913,20.70966394155902,38.80633437764316
95.17601896240856,28.94271997099817,36.89327073143194
80.49209774631055,33.893962765037344,34.2105046574471
57.75607579854204,35.18808631395386,30.777262206748524
30.367437666514338,33.57777962257079,26.55306226939191
1.6841893562586696,30.784284911490904,21.4425544523859
26.11270387657825,28.85693790242071,15.237399633212606
52.24079682441424,29.2577984812412,7.649684014256439
76.5969070843136,32.08288958207984,1.5438516494251162
98.60357973100088,35.81829669697596,12.244759420886652
116.35371823116968,37.76976866040254,23.967673711817596
126.6355159729926,35.06599829907792,35.967121365183026
125.86569520096253,25.86224604384401,47.36785266782505
111.42275343545647,10.217304449723175,57.36757737296818
82.69992186896792,9.734102986328208,65.29126134033977
41.41584360343926,30.391263591203796,70.51533620447458
8.79372069912701,47.81406105024356,72.5277130334061
63.13349830631855,58.86034944958393,71.07696590746578
116.3475638545978,61.86075400251714,66.24172080554474
163.14713500091796,56.63958211023833,58.36753306523124
198.4935021408485,44.05126426434243,48.085999271855776
218.00734780367452,25.43707902870687,36.32445112116188
218.62816860999598,2.386180286381037,24.150706248263926
199.3734369108584,23.099133365352333,12.717949265828231
161.80952659522364,48.28600019601491,3.0584856641186993
109.87621937198456,69.66799100646556,4.47871858187162
49.03376322103823,83.51076223310655,10.500110492925197
14.908889299069612,86.91085143561864,16.155138779020866
76.78550962705951,78.90216728220231,22.380902908242525
132.53691282651437,61.00888532086721,29.44191887551382
179.10882052770052,36.82379633617536,36.84737016163368
214.12150137323863,10.730013644005837,43.4267710178278
235.73708435443788,13.594533902435654,47.84951206209595
242.8834094778912,34.13959189025381,49.360918990945564
235.68214380226968,50.52996360853851,48.196026909520285
215.68495836635685,63.139237194113605,45.560797647959475
185.6306190229986,72.04001943335003,43.09991940113201
148.81749589641595,76.5608905748686,42.06188623729395
108.43538176902693,75.78857225271932,42.50030726464203
67.24889703790474,69.66897537606972,43.18976541025205
27.733370883967346,59.87943952462585,42.55471281887055
7.653964233903115,49.71283142029722,39.367102572279975
36.51480484690456,42.818615237820374,32.757779273619064
57.10641064408422,41.41422673319085,22.310392575777165
69.23991778709954,45.01512227583896,8.203223902788716
74.81408187918966,50.48421541208262,8.777711726324188
77.40202499886082,53.436772518078115,27.23912894769666
80.83546872399319,50.26955575206632,45.19358321992135
87.42309464202039,39.70150492431738,60.263007787355214
96.81314575185891,23.00460128736821,70.20199463086757
106.20490156164152,2.9470164227613114,73.39750106548391
111.82775081948972,17.752428635514878,69.24409915574488
110.85988196020713,37.48980575121302,58.46444331181745
102.71346699006405,55.83504600580533,43.13465861318618
89.03273114962956,72.76552104860764,26.188114892401895
72.58501950860735,87.838915756574,10.498922083543688
55.9152119643725,100.0396621724858,1.9303448144802797
40.66410272699182,108.39206556231517,10.539334244770318
27.8512340750935,112.77717180854246,16.08098017248522
18.65646960807948,114.16477848478951,19.43912086830517
14.827781491840474,113.85376052058263,21.002798700730253
18.14445372443098,112.08795098831045,21.138367598566
29.126650291152792,107.02719881195654,20.40184064077573
45.863628457550476,95.0178398389837,19.236361263157516
63.946806140937845,72.32555050162047,17.55978210462921
77.83455564188793,37.52518375849932,14.709683741312075
83.03845044361552,6.761515486851561,9.905592526893884
77.9263410425181,53.87979421285753,2.8913739087663295
64.06731801084698,95.09747342718134,5.447770413051157
44.93606851757709,122.59371455118794,13.02648203919444
23.796271814286555,132.0170138298241,17.247666447043443
2.001085274213325,123.47847995840989,15.980514186744044
21.361315174451978,100.79082981402942,8.44921003465267
48.37339487521429,69.65924049413309,4.348094311016758
80.50341097646573,35.94451312510664,19.933157270467184
117.24367391941857,4.797584599934602,35.05563379416724
155.90967536396647,19.374001265394504,46.38539380383257
192.52982890668454,32.749438427099065,51.40788079784677
223.1298619269868,32.418430562700365,49.206924541317186
244.60923233777214,17.36644962854384,40.375661804026564
254.79432179526387,10.39208057019514,26.48587223672672
251.87940185474025,45.41450054293776,9.581592663144699
233.89293485731105,79.79285939560219,8.12534262686684
198.8177963772939,105.33204844422134,24.291512021475523
145.53620391884598,116.04620055622759,36.660847107072286
75.17658559113939,109.86132265105454,43.45042668329772
7.844117076868975,88.77322572316434,43.82027151893006
95.73142312398258,57.501583868743424,38.272718113857934
178.4563273119534,21.47163004268877,28.50524702817829
245.8295494037314,14.835141541992474,16.87609943825786
289.8206792232617,48.50205054359407,5.760045565634652
306.3517140712438,77.76910631981403,2.9959982488967856
295.9398618205715,101.18686279190868,8.276394905882135
263.0133999968759,117.07593432537675,9.590496851637074
214.2679169260967,123.7130697288973,6.991003066315766
156.51849533767336,120.60550323172076,1.2451083525967643
96.029393355919,109.15863499672311,6.382314003486063
38.85433436444313,92.12913522418626,14.584156045948147
9.546199135390923,72.9069220520906,22.136753928733825
44.86719220124889,54.5293787362767,28.023801177901777
64.62920684482974,38.89005513482597,31.54825728968442
68.73992983175809,26.503461232189746,32.43140829897053
59.67346831859033,16.874509263777814,30.870510303453365
43.545484455327,1.2206134177759855,6.354525227260258
48.67571912939097,1.1874796742509246,8.701401143015879
46.475078204686554,5.343596932731052,10.691433383795935
36.21016372976951,10.520400520800777,11.898690607014776
18.18369085752202,15.394747849819707,11.522721046161926
6.5518590122493015,18.40692525897405,8.394616968291638
36.30949829717474,18.18065187828982,1.559806445081199
68.75902040812099,13.861701942568358,8.893995287684694
100.7239897463341,5.278092243850323,21.618709223779813
128.21944378627683,7.0499200372414235,34.2673507227783
146.78707135071278,21.95071559685494,43.81742630361843
151.92972669446564,37.64165751323415,47.185422107087746
139.88819452093833,51.7868342005433,42.24011472921938
109.60843882700432,61.59001347487851,28.719720913005872
64.11610732576362,64.05475621206627,8.454593928596543
9.003037869627388,56.67247998185889,15.20927175719641
49.4393462973944,38.423005001404334,38.35025796374335
105.08086717034223,10.583171673264552,57.23264097963806
152.6819844707357,23.078621942532347,68.85640224102991
187.75198284424852,56.92654548247193,71.45449803836667
206.41215277629027,84.76003531705595,64.68019479016333
205.90608329346526,101.34314104014058,49.489563315560986
185.3538658505379,103.6406351808495,27.93953127262349
146.80739965994908,91.3866309544746,2.9519255861361224
95.60961837285004,66.94571185571185,21.88935375589097
39.62887416992302,34.672981196023514,42.983635928631934
12.489292599475977,0.054479868627605066,57.788401948535146
53.671656975542966,31.16278777888472,65.25397713463013
80.22538201830537,53.82674694948869,65.64256435199975
92.43956267054978,64.25640839534704,60.4003107828517
93.74507486895513,61.08195857321476,51.69350998726957
88.83650849691415,45.826983489389725,41.466956019105204
81.7254225249959,22.89294629440614,30.74902885368882
74.49766261209204,1.2895786712111936,19.658532459718955
67.22360554384463,19.858903615190552,8.082310437618263
58.82633131592376,27.411736057496576,3.61220952633242
48.26832492071264,21.52910790942233,14.603813899793343
35.379474355778605,3.3690066339345583,24.049578830931548
20.92301401276558,22.86471848254217,31.26088074325445
6.090686929542245,51.282235505546,35.78987771950791
8.082295185256852,75.91281768076585,37.71519813577554
20.926970876954194,91.98043038744505,37.91026724984974
31.802190323146228,96.56493369562554,37.834921498572285
39.54582841162035,88.71391317756797,38.8418713022659
42.268987139988525,69.28021989727941,41.556123568396416
37.87061454641006,40.732046651937615,45.5923325541324
25.22159526331817,6.92630825689624,49.585834863294735
5.396495484324971,27.328315423122383,51.700813081465256
17.85947455056594,57.06142925861849,50.24622316278999
38.898881513453496,78.2281311868395,43.85256224971096
52.04215758322538,88.73914855484284,31.676575374834783
53.76389640389224,88.98959452031986,13.82275519938874
44.13104111649281,81.60053829490224,8.514964845175934
26.752583338448925,70.42079523428059,32.981420786196416
7.245830551886815,59.20325077340369,56.08692400498748
9.020768616642947,50.488370592097716,73.90586854834912
18.81043413649061,45.086070560519715,83.22412239240045
21.669453516851704,42.22661743499582,82.52281505666966
19.229404168782278,40.14236969698183,72.38247347741068
13.77923562650616,36.75644364803598,55.20019405699535
7.014992445258295,30.247250797297625,34.53083248692659
0.35327201726390195,19.432327464453813,14.213263696966145
8.096681787197664,4.02537826636001,2.5189705152413144
15.59686664962132,15.187248981029894,13.582040863466524
21.32902716071897,36.295773460607215,18.345104473136576
23.16355367373364,56.47057860463323,17.624334136454337
19.327395514054174,72.46607359830263,13.080336444380483
9.409798274580035,81.34540133275728,6.630751300454694
5.203791149748758,81.23579657612399,0.2699347044168218
21.750023287675088,71.83044793257261,4.295629139266361
37.10710396614408,54.480824479914745,6.09331821448793
48.82049910673785,31.915094847662072,5.048371585697899
55.61174531519455,7.699689699312656,1.9840494437996379
57.234523342014306,14.396813887449987,1.8424529277574324
53.98873063938699,31.033571740619532,5.422352104813632
46.36607644547194,39.88783832851634,8.22784320133933
35.10063004462047,40.167509028920136,10.351565649809379
21.513034059810852,32.94506206873904,12.625396189151678
7.770330226334443,21.111347229736005,16.073004835890764
3.292986721929845,8.777468365287747,21.12608452261213
8.856826400465305,0.16081308041727016,27.49178269033613
7.015170708217819,1.7416634834695417,34.4009915506793
2.4850098290773737,3.793974978471188,40.691137742982434
17.958067155977872,14.877312999408865,44.931896163874676
36.0323941093057,27.542606788789566,45.82288921632488
52.263327286653514,36.984122694810814,42.44300176097547
61.920765253765765,39.02512675744113,34.18124260250657
60.878808841541726,31.28910819344718,20.83399488954232
46.58659510403619,13.715691895071608,2.904864591854242
19.0065592868372,11.630841247905883,18.205590109012178
18.845736751535114,41.256595960188115,40.15929757414918
61.17330709338608,71.1075541515133,59.88456694340126
100.6587840716272,97.32289124712914,74.21446603111306
130.45136863768758,116.73138282724105,80.78125418139666
146.15311001471997,127.07878117967053,78.58974571712572
146.94822720873836,127.08501546097051,68.21628891538481
135.3019653575797,116.47594566027803,51.709690950673746
115.35574518711536,96.03078725784805,31.77248632962412
90.8748505652531,67.57368916808836,10.902637075706528
63.83941421359776,33.7995786779996,8.60596688375608
34.37217931284025,2.154241195297453,24.535580899522035
1.8700448168639663,37.34674402057653,35.09708736878517
33.45583701859098,69.66974454694518,39.31789692931607
69.60033177841102,98.18099415920373,37.17679207008478
102.92039004956582,122.88195344969112,29.745344965925494
129.24615684490513,143.9532325732625,19.193507226753184
145.22552953562223,160.8075441347216,8.272895872811768
149.07657202798123,171.48632418543752,0.31880313930314236
140.38654124577843,172.85194161288163,4.5106582225158105
119.34715030663287,161.68267182946934,3.429485022506974
86.17475623884614,136.2258385195545,2.4162870680922515
41.31248653802691,97.43924814745904,11.332666631784353
13.546899483583026,49.26362839553778,20.99667042159594
74.22840900313543,2.3115710007772363,29.339143155583898
133.54537505901794,50.96617509897414,35.20756460865082
182.15731829569037,91.67405642867145,38.404771393412524
210.795083431775,121.51388503743345,39.112551235700195
213.05005710865024,139.46723548556102,37.418337109030034
187.54344116817157,145.59804589322178,33.43953519646586
138.58013632142902,140.351365052847,27.466853690225477
75.03918122941714,124.49184563815322,19.966574963998657
7.928853109241704,99.61483766654014,11.59597313652456
52.44151243864545,68.66866002923884,2.962058458959447
98.71477731344001,35.85052752446818,5.665360498323604
127.54229227699082,5.6624695798637275,14.300969357707366
139.35192724384189,18.459059811757236,23.041473480130225
137.27712088956696,35.15924338547762,31.909133729857846
125.82465175603531,45.178472289786654,40.621832469294
109.74405882625754,50.32906844677641,48.42730889368531
93.32503127394195,52.11571209547327,54.21489110050197
80.05768454297655,50.90839606419731,56.80367009103167
72.42161084332407,46.169416560278364,55.435663088724624
71.58708863865,37.522161507308695,50.20854705868442
77.03963348338696,25.847922948216283,41.94580866634566
86.36753567493324,13.54656313243395,31.782167301863776
95.51589334459541,3.6884887643269577,20.85975565631584
99.64559103965922,1.444679014490334,10.091501589068608
94.4499024110649,1.5081691888611513,0.009071963300972116
77.54538857407138,1.7997526815258846,9.356316820947038
49.3782883818827,5.717392351266824,18.032299528932203
13.19415322944049,7.838287278140104,26.063825988188945
25.97229913758481,7.08973850673515,33.69912080941789
62.32750071888612,3.552799452114514,41.034092502849234
90.80270444373662,2.153122651007206,47.70916466480064
108.59644262181239,9.295975433174156,53.31282719237249
115.45720803678263,17.363586322539277,57.43898486985355
113.15816529072418,25.957077527556773,59.66136723676761
104.4870288105611,34.37673351762113,59.58162316710827
92.22501199604595,41.3285008719736,56.940745140582884
78.4914310787196,45.12413996471617,51.694076339027134
5.848544870314637,2.198822194020791,0.3441017918381119
0.874731218823519,4.7628315549773355,6.8057093191286455
5.349224100084363,14.163981186817837,12.580161481319246
12.07334361567867,25.022603384479307,16.757279052222415
18.71459901932404,36.17559716021361,18.847021968126114
24.81872792876649,46.27266104807832,18.812376263870814
29.84065466310456,53.608356644170634,16.904669144537625
32.950059467489794,56.039597378278614,13.57425264419857
33.10242396494382,51.25220200530509,9.431800635270355
29.421385021059738,37.413395426619644,5.044396573183186
21.727199816067653,13.949822695824746,0.8173771751331339
10.953964880672546,17.917530021759962,2.770794303115368
0.7984519823333858,55.10726774717708,4.777287677091681
10.878072858158802,93.11176606201604,4.476547174085943
17.252922121466483,126.82488212331778,2.457701108644849
19.473239952543455,151.48562549263008,0.1163092088801674
18.89848817075182,163.3703966677789,1.3144910641822487
18.129242988154136,160.0677009610574,1.08860142018503
19.83926653503416,140.53673546301667,0.817595989741358
25.63550886395063,105.27737937096812,3.849158052961551
35.4898171903301,56.71001048973611,7.221306778273716
47.88724608342663,0.48905313289709224,10.156291855729886
60.51172756432701,59.599586713198,12.103577612176585
71.00328888916623,112.93274904598938,12.874921646782592
77.42337095879198,153.53586252742087,12.541035777066686
78.34241865872977,176.8870133595933,11.157912212111986
72.72019470887335,181.85682633889635,8.919608232626219
59.8741839316924,170.52374413738468,6.439388458175864
39.68073552435622,147.04833700412928,4.5980955745833745
12.937962195482354,116.2804929771801,4.225937975706548
18.363517539624986,82.75856773663288,5.785800907180095
51.13186709969169,50.35564401869634,9.176558681495107
81.69712230727059,22.34508065573449,13.666294509961753
106.59493231214377,1.3907621945295248,17.984518079955446
123.28749363187364,10.866588162752533,20.716462181391673
130.52831093326472,14.479420408030542,20.781598752688826
128.255421105999,11.617513349859934,17.701857646276313
117.14953162849615,6.269338702622186,11.634322920085491
98.17377370588773,3.128205300485288,3.2806168699231946
72.38458236135249,6.0678920174519515,6.353442660460502
41.10743505001197,16.884372220663153,16.32076747673389
6.306813902189964,34.873489784254346,25.944082583800775
29.152830568664147,57.35500275721871,34.7363656884261
61.609991584293084,80.73779578659847,42.04680858528749
87.14254961339394,101.55880135182912,46.7354149700164
102.33679084538333,117.10410578328255,47.43312504665505
104.97989900772288,125.53852372305643,43.23202543473273
94.44730272089414,125.78773335882873,34.17460112619466
71.71614418912617,117.4774921255475,21.410817661266467
39.14088525385816,101.0185406836963,7.031756604685678
0.205906420021376,77.71039223594148,6.568825342255907
40.661538193532586,49.68317908324596,17.548734657943353
78.32945305105372,19.583271979318447,25.096989932651308
107.43793540835424,9.905773857948988,29.28552297306458
123.21889537985547,36.45872975714786,30.519548380359076
122.53615383647914,58.23784706765489,29.092770499764004
104.7621082900652,73.8061020802293,25.13449814470648
72.0711609084278,82.04463398536417,18.707137293968596
28.966986949072666,82.285391892347,9.9157132238277
18.781668791983137,74.70646731922396,0.8368523719601048
65.33106542459568,60.79892555268335,12.553347935565478
105.62079686485698,43.56379990080302,23.473729326596903
135.71992352175,27.162846879685826,31.348805183304098
152.84180269603536,16.007183729278974,34.27418241551401
155.42149559669684,13.578261253800825,31.316307849113013
143.4694520037605,21.404708884485977,22.640369583163054
119.02561417405208,38.545794990695725,9.495523542101962
86.23259615852643,61.72729121189966,6.167255786221997
50.56527983643365,86.01228653892866,22.31929990563405
17.247140341039422,105.7616535168561,36.96577841406355
10.498663320890456,115.64536360685598,47.93322465889971
32.401003651883,111.51880829989278,53.31857359531134
50.59536780474883,91.09221450421819,52.35314574860125
67.67305228036139,54.397643466335325,45.71377306755265
84.28872173049105,4.024626381428188,35.23373971805994
97.71890765342123,54.94243018936242,23.25996385846212
102.36890655701798,115.37718478308304,12.003060850944147
92.2175286780793,169.04500040764356,2.952099380943254
64.03884466451049,207.99583985739943,3.62369583078788
19.685451429221356,226.1964379925672,8.406530241742999
33.714247955284634,220.98699110699158,12.515141895245742
85.74135285112618,193.86145259486264,17.314124415607
125.89775258967445,150.1743230722579,23.983065775184897
146.45526340953762,97.7478293931486,33.243812309658104
143.76606667523959,44.79898906311751,45.0583534538885
117.89450902247539,2.1074248603197274,57.88401828662938
71.41404282191701,39.31852907239182,68.70071437525985
8.552315369629008,66.15696658798072,74.01432845090763
64.70909694506317,83.93775187435543,70.8229214496942
139.9290771857079,94.54194583854613,57.26905329450775
205.99165020900452,99.33380490251473,33.44703786846733
250.42787989819973,98.89475226818845,2.170065532648484
262.399026220467,93.51142826499768,31.434462400735853
236.34974353164307,83.9424142649369,61.41699159042257
174.6523271395331,71.82889435791101,82.57619373222204
87.79483076911883,59.398532088976864,91.58543311177517
8.267340988793475,48.65443900102616,87.65245451954596
96.61010540696452,40.612943994327786,72.71469267225265
163.80763557050292,35.118149995978435,50.54815441335774
202.7003203860448,31.354312659744714,25.34424093381026
212.66030726424114,28.687182450643466,0.9388781941438964
197.72228651146878,27.225944686195614,19.55758445014387
163.9560793677625,27.682076714743513,33.760918388482985
117.46196535237024,30.590501224115567,40.12583006153916
63.679070066038726,35.42357757634498,38.80427916303381
7.767891288697447,40.25465810813234,31.85788334160271
44.84053181113548,42.30176999661778,22.255256282384074
88.56365097956375,39.115350833053675,12.776381404444049
118.72568576005177,29.746012731539892,5.4072444027649045
133.0313816121592,15.217646018004128,1.1605437026857037
132.492212413568,1.9463339069912864,0.03058952658445746
121.12060178504453,18.84192762688783,1.1932541040027156
104.345986297123,33.31715580985197,3.500529304904416
86.82975692564051,44.51774519889668,5.851564200151069
70.73404271140389,52.64101553469986,7.340320324589476
55.24219521725123,58.21416890500784,7.225034365828995
37.49959439583931,61.45312786452813,5.00234520162736
14.473129567544232,62.109345987974564,0.7538534038323039
15.208069863238043,59.82399967178517,4.750025868221458
50.305374742455456,54.67341744579368,10.36837581098005
87.22333403271985,47.51851690311886,14.961411211120225
121.1512560125066,39.90936744523671,17.498703798092766
147.46272209136507,33.60709743564445,17.07182620792691
162.74759516845606,30.04023817182405,13.276802949033371
165.1917209781239,29.957912319613254,6.582752595364026
154.43126086052058,33.35244616233294,1.9130990560262304
131.24095061015453,39.56686092424826,10.897135474822342
97.40133035459137,47.43086330580186,18.90956730859924
55.800496039085374,55.33877135748242,24.412161631408164
10.525780024155837,61.334419352610574,26.185111300297805
33.37570514580777,63.33510922040828,23.679496025649595
70.64002347976991,59.516526143651845,16.970759317101393
96.88540076792975,48.75832297066518,6.612096254753803
109.63806185881793,30.992495393423802,6.231663969183995
108.84918856312025,7.303535502851899,19.587097857581124
96.70836209423582,20.236302020623466,30.908563374682025
76.85860835912243,48.88794694197159,37.851253275207675
53.372701486415586,75.59784161794123,39.1001415392229
29.88536942990267,97.35849137428076,34.531203149100506
9.076986244245536,111.6436029045504,24.858778260793432
7.504417184743527,116.90519615964946,11.516962517744016
19.441001619227674,113.0002838977146,3.3875112684762114
26.548656613910104,101.30793600931929,17.648989584034467
28.594807703575594,84.26708213766828,29.497517214154648
26.031408433647297,64.68233501666018,37.72833741249865
20.138121462960388,45.15695010327661,41.779539778968804
12.849446047046357,27.63112310432603,41.82423410359051
6.26076070782104,13.157439429029825,38.66043879355858
1.9905908756220945,1.985592112771051,33.23709590565061
0.6907032855724955,6.09998175665042,26.336211151307328
43.54002409808787,1.6959694967973624,6.505550406690755
15.681714106582897,1.1736227382023006,4.961339778911524
24.72617332929744,3.464194002999585,2.2810395861208246
72.64799094524865,7.996271219944453,1.4956240438378183
120.82790458771665,12.618527374408316,6.04146137152829
161.0333625041899,14.440722459145052,10.803024990988575
185.48417908384982,11.098470813514464,15.13296600023518
188.14290680540628,1.7948764855074912,18.430417878854676
165.8593027174398,12.445209962781872,20.28314995800129
119.06604049213114,29.312732395779317,20.493197220651
51.97589531520228,46.1305990385913,19.01503994013564
27.50938181656179,60.662845342193904,15.918408559744304
108.20213740833853,71.46592980354434,11.512521900525241
177.65894895182345,77.39715657221379,6.280905025538896
225.53816196119274,76.74926198459025,0.5435689740132829
245.60485325300095,67.31106668171057,5.47108627532371
236.51808148914864,47.43039867347026,11.42370020091418
201.8682825487536,17.367426477791152,16.988287869835062
148.76596604602565,19.75454071575277,21.908330207057784
86.12573974519833,58.31422944985876,25.912999921572887
23.02230880693461,91.8571550134657,28.537705779349565
32.73269979099347,115.21693417615069,28.94761922784137
75.30469441192987,126.0632492108817,26.125986652954968
101.34394767773743,125.03616466678712,19.460386522369227
110.17213935936758,114.6077564294675,9.339956722978679
103.61839951862899,97.45966922196595,2.636943075691449
85.5586831879894,75.37200062389316,13.860040269079832
61.00065505071094,49.24977251537686,21.235498086641318
35.063140728497835,20.02951949834392,22.160252709653296
12.060536627272816,10.31901426328798,15.75836599059469
5.025020578048413,38.55121880311415,3.4331576350379236
14.577698158486008,60.93397521661467,11.81843094040432
16.161493159435075,74.59587743987817,26.41653779353133
10.287977362379841,78.65982158470241,36.91597414559867
1.6780236503996202,74.47135496940678,40.657094985199784
17.530708056604315,64.84821951274195,36.11964664793597
34.39119667457417,52.86151805337506,22.94659934971544
49.177873121955884,40.827923576015124,2.094329517479614
59.36868350831367,29.983006285088777,23.907693517678354
63.735535679952726,20.79205095778892,51.01823477854488
62.66326187193455,13.455711328682403,74.27377425958792
57.87143279889348,8.154381815953428,88.86029978381082
51.64998340693857,4.875916033609309,91.48955032922626
45.96760604445884,3.0447963944113874,81.45888767414205
41.82916963803603,1.3501428495595393,60.77923752622713
39.09280103172471,1.941423350625004,33.47279651744875
36.67768551263616,8.256292255688061,4.473347826674763
32.90744801877979,17.939791550057432,21.676460460370304
25.82739300309102,29.841558332956406,42.035409369935735
13.533782968438848,41.500637782468836,55.53105384359096
5.36922175040327,49.83987842704355,62.227305671587494
31.144144545993658,52.02476779356463,62.790088031374424
62.306607404616685,46.185916046410185,58.441171529044766
95.42374679614848,31.824525315933226,50.783044949406616
125.6411658859256,9.87340300847147,41.474372801811825
147.90784625817622,17.46906000743507,31.916609288668713
158.46518503075538,47.05462602033522,22.953217706672795
155.91342132941088,75.23833575695633,14.797454708030426
141.350589867494,98.45708382542921,7.344996278242982
117.58541793477298,113.87202472520029,0.5809055547936057
87.92919291803403,119.8913554075058,5.230869047217851
55.30321856409241,116.36637029082854,9.525541466416806
22.092741739784735,104.37334812115839,11.545107874492734
9.4085935211544,85.65950985459426,10.734599530874625
36.54247844446368,61.9913880811025,7.2812928142981175
56.4585634207879,34.70123477206704,2.308129530074944
67.07894000406625,4.613488991646289,2.403546251020755
68.35848331710878,27.681256476752885,4.980111725014738
63.01828224444173,61.37866710528402,4.127202410206746
56.06984121183947,95.07908164032885,0.4037003739654595
53.115870549360125,126.66113149366093,7.85347733447159
58.133889602646605,153.41498444029702,16.970373368838484
71.76509307358602,172.39014825639933,26.46207988736453
90.9582559662011,180.88099989175663,35.01499621536778
110.09301811715369,176.9076072363458,41.19018510684552
122.97152118606822,159.6337187487245,43.58369856219952
124.7532297057125,129.69135710813467,41.30260219177327
113.07974877174705,89.35788370450595,34.36736634692899
88.22382566565042,42.52878210287437,23.71792869995723
52.56638900999391,5.590765002445278,11.014373661571986
9.900707819245666,49.10703039912012,1.6833674273434087
35.05779369218937,82.32806868829556,12.38053771111155
76.9806598612832,100.80071893171046,19.624726177916877
110.34015441446,102.28351276483737,22.830263334612937
130.20179683603757,87.38875525557458,22.272328703967762
133.34599743870473,59.684924289710125,18.860491548865316
119.34116795842615,25.165843547158374,13.872268209822177
91.1026716684988,8.879269579201939,8.70186588810459
54.53427382345542,35.34020620900138,4.648927544232242
17.232100760011516,48.73879063628236,2.6607872836508557
13.40688115622512,46.329304123467494,3.1292611002395962
32.14734005890866,28.54690653301628,5.834676526771004
37.30617206326989,1.290952549873976,9.986054583672875
31.147243382450018,37.84507848065824,14.40668366887487
19.158352338718892,74.89948166908249,17.77201252218747
8.37691280489649,106.50554943296835,18.857111710799614
5.22438731321,127.89899695783974,16.89346902596955
13.455326057143658,136.10804219839412,11.88434869111388
32.91325372008942,130.25721192898823,4.670282296385107
59.54132986301201,111.59517188967405,3.2289236722609864
86.61039155478892,83.25907155920854,9.89261844559001
106.72631024566863,49.763496429998746,13.411899432335964
113.90049986172919,16.256871396849863,12.466971136176356
104.98135711937482,12.352966145825585,6.790220083361112
80.03453308016155,32.260337838818394,2.871539855482271
41.751950329894754,41.418926856425635,14.92211334150611
5.61472847304215,39.852048565719834,26.82521794183681
57.23298342468843,29.568526811119312,35.54425633661664
108.21559504879562,14.103022426300836,38.64654023074698
153.7183250906583,2.2340865207466343,34.98801463036695
188.93660484842945,15.243288518678517,24.76295036537348
209.36349931284155,21.643222587032273,9.299921952621286
211.48124329648704,19.6182854372351,9.330103749602246
193.71439689800565,9.005823296392334,28.7077991899825
157.22674121984517,8.914139548204822,46.37472018817782
106.10767691630032,31.90962349020095,60.21348123016903
46.72493327926388,57.3277357103292,68.83650931703592
13.550867009680172,82.45790718307929,71.82558412056984
67.79585785517293,104.6509282881975,69.8012054589318
110.7108054172594,121.28229735678664,64.19103590709261
139.22557329737603,129.77493885958143,56.55136062599318
152.48604657094342,127.88696109654927,47.59944836529855
151.43645331589056,114.27054692232983,36.77983776924918
138.3005592166753,89.10303060925656,23.040812443563254
116.14652048304183,54.479562293292965,5.777207968394244
88.55640825220485,14.28276087940645,14.855526944185664
59.318489845220185,26.482765915274285,37.59042932248077
32.06072405884275,62.63562203471655,60.02012140091355
9.825737702266588,89.70609186619869,79.2850817279876
5.348744248689863,104.5083842727669,92.78116211159237
12.732138814476968,105.38283546535511,98.69258315459759
12.997986785420386,92.27325839537538,96.2123389279926
8.088983068614656,66.78879618200688,85.5143358611951
0.8437400007246594,32.28652168721854,67.84523753902623
5.589040344909613,6.186921316312202,45.389788813088764
8.479039629934757,42.36258458288141,20.91088637883199
6.249462820404757,69.7349084589728,2.4831894159698353
1.0089318614830947,82.8917627124929,21.708851962653153
11.51035475739357,78.78892307538484,34.332899404752276
22.366433134020014,57.52350035982613,39.28276675082162
30.648672275457145,22.34397105442971,37.40984572462403
34.513990135674796,21.08142609281981,31.360806228551137
33.93289838763046,66.10428502105097,24.2629181630512
30.080619906613773,106.55419783674454,18.665909312695664
24.20532673582359,137.64130741967722,16.080048844996924
17.14667264299009,156.43890228733113,16.54146513012
9.199321604196523,161.97664975046231,19.084372092554492
0.35700453051836833,155.07552445185362,22.518037537312132
9.219294730579964,138.03735308967765,25.74039400188401
18.788344970012425,114.21997330282154,27.930895699621555
4.337416986403635,7.262114934073814,5.4741853401246106
11.095847541644797,3.2299958088405623,11.35971670647496
17.872093664309848,2.7380179595676624,16.677902389017532
22.476095968528835,10.42534694569078,20.20981069847384
23.134802690175494,19.053764490890067,20.8817253274224
18.930571473706447,27.288523059152748,18.002010443341725
9.842876976631022,33.53314380663451,11.565170623794641
3.4467989645533783,36.34613840325211,2.366765967021544
19.82207573497463,34.848012708179034,8.046586968383332
37.78026779936777,28.842655949691245,17.651621288439358
55.346768706623294,18.69617059237616,24.429161635503878
70.08558720202181,5.2635868751081345,26.90282567780439
79.25242367341153,10.049815041082226,24.544013124854633
79.87411685463145,25.636902029751003,18.192174627582308
69.43435704555365,40.02082595726866,9.995130938634317
47.48523047789111,51.33728249657483,2.365959874826474
16.350725266472285,57.20207404407027,2.7981784643360976
19.6177366076815,55.4309453185687,4.341711852933104
55.3280968980585,44.832125195473964,2.179539170681869
86.44170806517408,26.072030425542764,2.7447945803631093
110.13377577391056,1.9545055712653823,8.848443131049947
124.8444027037783,23.2137398171931,14.333782142611092
129.5869857129838,44.72921464882049,17.627629571563723
123.31444196579459,58.757326440207756,17.6949479300636
105.09706869284143,63.083682959995734,14.188480455345571
75.06412329855891,57.16904110536363,7.370247268676146
35.502908163073414,41.76352755553435,1.9505640094125472
8.63614617038687,18.453113272524934,12.389962909584682
50.50560139572325,10.403905586830486,22.13546712123945
83.1731119104029,41.42540197885309,29.328240910789223
101.73509407587233,69.99877222569755,32.68898865751743
104.74949769928654,90.6014613395477,32.04871517516178
94.28133136527633,97.90870618850981,28.32344945377105
74.70267012728308,88.38523041607353,23.001454868860197
50.92611882492219,61.729160402071486,17.567087544638063
26.987894603516327,21.45665206270372,13.09640051174539
5.558106075656549,25.699780107091204,9.939093672374035
11.73283782062575,71.37632552152203,7.661643322846725
23.711483183521352,107.55691484316611,5.425007758028938
29.466396584888415,128.21539874699872,2.350416792698678
28.753677693838252,130.1689961859786,2.3373582910693838
22.6273130415978,113.13745665286828,8.982173958906943
13.652680070195165,79.350504142635,17.023921902410322
5.255967526669411,33.07474477521306,25.00659144992034
0.3390912463499633,19.772335229924995,31.140032782305777
0.14238708018708776,72.01226121950154,33.816800736243124
2.222277003079144,115.8861319071509,31.998061523548955
3.994152546680331,144.1782272516184,25.71213899708239
1.5997060405887376,151.63583083682786,16.101254424880334
6.810799480911415,136.29309873831085,4.842661125252706
20.346332065060373,100.19179193803795,6.293656271373272
35.71985540861868,49.160387740558015,15.715989846737338
48.71463443309745,8.35161494989128,22.235989382063348
55.98001348999567,63.03952562709184,25.050157724847303
56.254552943550095,106.5822408052944,23.75631797171271
50.506197279142825,133.0937422716754,18.541651711099416
41.11370100676703,139.90235325683207,10.23079446533359
30.637709051442435,127.61589723480462,0.00391683274244184
20.84686936224904,99.63457493794726,10.800579046510121
12.394901683537267,61.33936056453285,20.59038251496923
5.0569285105498905,19.128316773705876,27.672125872601573
1.8206507707317356,20.590296660781796,30.707036760076665
8.981018118559867,52.334573143291394,29.048149997106922
17.145131026179666,72.33142490746017,22.841898476575295
26.989380469419697,79.03149484062178,13.053572236444197
39.02317129412416,73.20965121359914,1.3043157576465674
53.304154869673525,57.61765528598994,10.780627305411382
69.1022457689953,36.25662042106001,22.049732276410804
84.74880333890134,13.442779563998819,31.63023488057421
97.86807887171518,7.076712551863682,38.707930627305366
105.96916482543084,22.724819700000936,42.53936264788142
107.15757102477936,32.26014502640892,42.60379208727856
100.67259658425833,35.54990793740703,38.78182685241769
87.04256144303454,33.161020196773684,31.32750838941123
67.8350033719755,25.990554542933776,20.833653846121173
45.16257393287986,15.087338719378762,8.286270640224126
21.161166897621605,1.692285303898322,4.920289796497852
2.3950628238733325,12.630390770309539,17.091442845149498
24.277957067744303,25.98380882331916,26.63939642152214
43.81070080983922,36.35167530520204,32.55448091754637
60.76019055174209,41.970655333415955,34.59946079464545
75.15640123742098,41.71570952360777,33.321606959365845
87.03604644169415,35.32937355519765,29.84262305846679
96.1744386723374,23.426726276801535,25.350013560350025
101.93234352181214,7.342910821736522,20.73899567907167
103.33573218026383,11.029412523247576,16.671880481320798
99.44818169869112,29.30459949416558,13.673631191911598
89.93088392193012,44.64925531222951,11.97068358972537
75.53790925894451,53.99824712835927,11.200928633032063
58.24391530813092,54.59630565569478,10.39929638873438
40.80131640032336,44.87012527328591,8.387307481587051
25.811347144892938,25.340785058238982,4.21750905190922
14.678252043282864,0.9171379949425232,2.3864457556655365
6.957953957966665,28.646475328079156,10.758648389770858
0.4726339224309358,51.646320765414465,19.56212440483232
7.807554258728954,64.5174509509607,27.20083857142763
20.468074038369693,64.25112671526439,32.01837111604607
38.494589917762255,51.01592956857698,32.57243360258288
60.733122305460064,27.878389190016392,28.09342891977652
84.14079655944617,0.3121972457121452,18.910781588722923
104.6288546534641,28.313611744375933,6.58286070808516
118.05822931054973,51.590778317207956,6.353371761936492
121.06802330002945,66.84186029973615,17.017806427235012
111.67374462524539,72.0431199351088,23.023749776868726
89.7146537996167,66.38670104171028,23.019213550428105
57.251509083147745,50.40981533823601,16.84392769928751
18.82621938417676,26.267261825444518,5.5862494833823675
18.764888717446855,2.1860602844356696,8.440728789134171
47.54436134796387,29.911555918234082,22.101309797737812
60.357728775619066,51.9291413708525,32.22598383864736
53.3095210482627,64.89961384712707,36.28787599066657
27.61593652189478,68.30772544021879,32.995250539005156
10.050940721736724,64.56106555822886,22.716616222561672
49.1121636351405,57.80901552595966,7.094403783115797
78.0948132094346,51.96364590299758,11.549260626974387
87.9685054655343,48.88897553344154,30.324561854250437
74.55407019323648,47.68237116280133,45.99951687134471
39.177538451071044,45.386108055613605,55.62566393796406
12.416620515686141,38.70169002091807,57.26914471077113
72.10198906794642,25.767220165662206,50.52169404674338
131.36212493042905,7.081881556214717,36.65879280246889
182.6004701908517,14.798019005980809,18.329389673712736
219.76206323999128,36.44915800566303,1.335271842039845
238.6409542967362,54.85262093848863,19.536320904714582
237.2224158214323,68.02690947907517,34.1156479662723
216.0849710373132,74.8742875129783,43.78069637867217
178.49931736915306,74.69085819890901,48.216566518529625
129.82421379199135,66.98910176850765,47.77294631901445
76.1125821954413,51.98409105354815,43.0740963768486
22.40962202906908,31.48457166499137,35.02250026122059
28.381407658360516,9.451637741337041,24.85161299635749
75.50928765961352,8.476548216263907,13.920328296471412
119.30678535893023,16.63022052678141,3.6614947166640466
159.64431971552548,11.49295343645032,4.529897072394456
194.83214426597723,6.655116311048643,9.823081205426965
221.58336378005137,33.53146597839109,12.243988131413696
236.03506880857017,62.2345937883278,12.441504420681786
235.26932580837877,85.53481931422462,11.274249855844602
218.51989960995732,97.99157814720398,9.430439931212522
187.55015489077914,97.01777963580598,7.1941555055434625
146.19359679822122,82.698134877421,4.399488619379857
99.43061619219088,56.884084407258676,0.8245936464510673
52.64032199095667,22.96358642190062,3.441788569723219
10.599112206839658,14.77558262657577,8.173955234155695
23.408468357600288,52.1552111243427,13.060997149105965
47.66476886478278,85.21531611052853,17.65178953408164
61.870247811063436,110.41122133761183,21.563828531274147
66.9436578190356,125.0898866320828,24.59167157809859
64.77109448714582,128.13213478471835,26.57755308251394
57.80264234494306,120.37841292658428,27.33745293229403
17.04213013199426,7.2160808541012065,2.6452707482060283
20.738812830578834,19.263545150371485,2.028603178797015
21.438800594198714,30.318090739884006,0.983418491855417
16.969105879606765,38.51144219434533,0.5238809408765013
6.029856429361889,42.43150902074085,2.523164929791556
11.2391784525655,41.177628125625006,5.031490581469391
33.08854513125903,34.434058764610214,7.945424648641394
56.35662639010865,22.521827443672958,10.824511314807141
77.04449735197728,6.549931351831492,12.862970433081413
91.0413805188037,11.659955797324216,13.120096937748606
94.92183720576186,29.852139747855755,10.791453479174587
86.76127126441564,45.471897957196916,5.617541962669341
66.674305627288,55.72703581343699,1.6657772555273398
36.458043080342556,58.73377215662726,9.484099315296872
1.0498649712979082,54.82436834010187,16.081868070782523
41.90021819737464,45.75684065652886,20.112955226446953
81.22364476762297,33.48194994701287,21.009882641220447
113.9695010846382,19.640430738087613,18.891109799859763
135.56623686349155,5.109675825916919,14.241855574453238
142.76585327090515,9.6186933860953,7.822563919248246
134.3295546711096,23.82804442367416,0.6049034842871799
111.35938516618252,36.35534981202274,6.336605160662668
77.35758379259461,45.60196197461041,11.948873854821851
37.70665975291824,50.0928001175941,15.368802113896777
1.309154826813645,48.96626786837935,15.980856255534013
33.858118820200275,42.16152691393246,13.572897394315
55.965460013622334,30.35236818749604,8.640737591220551
66.38154724990609,14.621683384654274,2.3401079322088356
66.6206765824372,3.667076173741856,3.896258760036366
60.0673705184359,22.82713803553611,8.662218273424406
50.541809020327065,40.75148217932204,10.99468250406781
40.981253951904705,54.94845836136106,10.879899770776866
32.81908466600095,62.96120607063381,9.083534642751307
26.27607274585465,63.019140853644856,6.406888373514332
21.164153476643715,54.630908878009954,3.1795718152739285
17.588119061246537,38.774714294508954,0.853083212793289
16.04152518808622,17.56968942284051,6.242005480472714
16.824716789231818,6.346584038302979,13.230611394328898
