14.499604061891558,30.670269018270545,6.324751638918635
13.172519382481106,11.669821972227265,4.824805079026856
7.569815271694925,13.663812637584943,1.9124838569223233
4.649104799378643,42.49651757147482,2.1389857366473217
24.474478195867047,71.54977519109917,6.905508684012147
50.358290521017175,97.5877093414693,11.902381509020383
77.85218506285423,117.70665323378908,16.347996544230366
100.30545237603101,129.31587530974426,19.389928118163194
110.63349039638292,130.21405265468582,20.378840345415618
103.41982183761705,118.70474327193047,18.664904540027692
76.64032608253169,93.96395996710855,13.826691718871215
32.574237520442864,56.97870025988641,6.233326229761678
22.470159227957918,11.598008359360804,2.8335537714592802
80.16536191761395,36.40969092234743,11.547376626144816
132.5597270031611,81.67730025330594,18.294336948148548
172.83661802167038,119.83760941778253,22.033627306127848
195.67035547023175,147.702601456182,22.185564540059854
197.90231564389182,163.75281908498349,18.645892144228117
178.86259139139247,167.6128555862748,11.821877205703494
140.85553850249974,159.71747844141285,2.683600311171745
89.23228349543035,141.14109315634596,7.325734631652335
31.55525600820377,113.45828821335296,16.50898678539702
23.85636156431197,79.07602211085593,23.140099721413836
69.91908683771734,41.26041324916674,25.88156498999393
102.42386750255577,3.9333890913249863,24.12068375030457
120.77057696938388,28.903803580320044,17.935561815458616
127.65479891036071,54.068354415252806,7.832203623252026
127.71952810333407,69.8046430268002,5.139431948425274
125.80322989783977,76.01907556987042,18.948068757881426
125.33426466538108,73.92471792913962,31.048250925105716
127.36778812512176,65.34368682706629,39.515201593459864
130.48650050379226,52.10021240676927,43.40180271683338
131.41643521592854,35.73357014862516,42.5073323499607
126.1774771809914,17.70661864894718,37.354966557039106
111.41658586897738,0.1723591927416359,29.045247421893148
85.53042832701982,15.470667680697531,18.922819160126927
49.269816994196574,25.263474801229258,8.240540630192024
5.647891363742255,26.727004862285593,2.2974396351038595
40.79563364980546,17.922803110583427,12.385961736671987
85.10023701658695,1.534402765671441,21.653624097870374
122.95413198499419,30.184624267003745,29.882636618647684
151.36984990047048,64.85844338408803,36.92544542216033
168.84167286919276,101.11409434101404,42.09581239468311
175.15211636108992,133.7858578720812,44.44901643751966
171.1013611326576,157.51331956812305,43.63393844769769
158.3419925890265,167.30513373117697,40.00081680783998
139.25008267227736,159.21801201171849,34.16021499258502
116.58844310199608,131.15944070555085,26.564935884224887
92.87368850141507,83.67647326889764,17.497087593006253
69.58028576935703,20.458169742741283,7.567779643697176
46.57980410148223,51.71570422943642,2.513974965323836
22.318978026494346,123.74471898561131,12.354505946535303
5.153496172432492,185.60517919205694,21.255076234006683
36.73090904729834,228.09613951831724,28.17659554335245
71.13868957029523,244.57099747501363,32.27447570311363
104.85290591595898,232.2213240854346,33.204189036325204
133.14453847312848,192.63966960230505,31.71470931045382
151.73333009252624,131.57372216258995,29.3698489682071
158.19115501654858,57.8876810363826,27.45646902102877
152.4153085150899,18.047314717695368,26.435454228779584
136.1139566402481,86.16962950033627,25.80454351217438
111.8143753490849,138.38187602656114,24.27881682025156
82.08904587443882,169.7118345473756,20.43001738589364
49.39550324836102,178.759750623589,13.528456116215946
16.376631017973722,167.42594266651048,3.9185218691777237
13.951657223735038,140.1020405238301,7.441888105121438
38.62592962379101,102.59745665150896,19.774914750353584
55.69897342944789,61.058547880692565,32.43531801228309
65.17010151104353,21.034609933253336,44.15436418129604
69.18418560494658,13.222284675321918,53.261519726594784
71.09507686094975,39.2042110242497,58.19312283084537
73.7300033832268,56.351697599894436,57.537780030263946
77.77331421956441,65.92398819288516,50.6971906496162
81.17248324459915,70.47170771237151,38.28228608774539
79.97155245710272,72.99843952368859,21.776586351954645
70.18975112574047,75.96095340344377,3.4149999442110515
49.81545208086447,80.3754690534891,14.14170396444339
20.008486219564624,85.39380120169336,28.657818237498244
14.95994213351706,88.5314803276577,38.936844486832165
48.86613925376227,86.50327383563837,44.63594537525916
75.21101552840244,76.47073909639992,45.92552484241568
88.79930073863379,57.26277775437778,43.58038844158899
86.79722970399496,30.082323173593856,38.73881508014992
69.17846666121352,1.5634432964850238,32.32870130010482
38.660289318002356,32.7234554809084,25.197716246089296
0.22383410370098888,58.34351654802963,18.618050920489058
39.72653165325028,74.58851098092155,13.92623773319738
74.49341225345853,79.70867343014757,11.628091593329936
98.30749483309174,74.15872923295926,11.253243952431117
107.38169604201669,60.03086698185426,11.752308678839624
100.55093045389016,40.1857878670836,11.856449503494233
79.31951487925852,17.467544218826465,10.505968545179856
47.36306948708701,5.7074480450839635,7.132163099412891
9.659794532325911,27.31695546877689,1.7849688662349532
28.55025824473293,45.51658774240614,4.97175234802902
62.76212450798969,58.55909545009698,12.482533857763713
89.99459440826762,64.99328872500281,20.142058027969203
109.18971436180446,64.0922010708788,27.25004388100663
121.04078950682036,56.23449271813053,32.90892482183817
127.20741891347276,42.90435172605236,36.09608904384422
129.13694331512465,26.207239585185018,36.13828136949751
127.01473978825236,8.09361929960709,33.098687658877886
119.38387651015225,10.318164574835508,27.62660788085837
103.69463051954529,28.928289845010593,20.710514576006865
77.64570160610396,48.23550081908177,13.534010477852291
40.71728289362112,68.51533089376551,7.191653810072447
4.888892286609693,89.01189008898966,2.3348243076818593
54.396328750364034,107.62625162225353,0.7696771134744111
101.59208662060394,121.30884997274174,1.7976109637808948
140.35663022975675,126.9659619807338,0.49630313843572477
165.9209530614086,122.50688028146753,2.566292661189858
175.48017613480923,107.58254442044107,5.9327460524673965
168.22701998752882,83.69392494429769,7.980918146201589
145.19437642141278,53.703043901118626,7.390859976999307
109.2182630948024,21.009923405124347,3.573473938354059
64.96952467236258,11.249749761085527,2.9820464758660474
18.7002762232365,40.66546055039559,11.12540640198291
22.65766022320245,65.58289013837789,19.297720494870745
53.036685152615185,84.81121435100918,25.670937431952787
68.90572160362032,97.23978864159126,28.79830895576669
70.29310595148526,101.65022125161268,28.026786675178446
60.58997413223205,96.8821319735043,23.710551524515495
45.16461140626296,82.35134453194387,17.12921003018519
29.403472533912986,58.73401348773448,9.919837179414982
17.063757243404076,28.47540456657941,3.339798009203765
9.631844610500636,4.200151768152541,2.193531510376889
6.74891302172087,33.942938264094565,6.529936916861573
7.182577849852407,55.48594610220143,9.23505389048351
9.648271167722617,65.02038517543598,10.023784105071776
13.031401072142945,61.211521920720266,9.146106952128356
16.086844590425557,45.45696288723643,7.275261632748343
17.07406735559401,21.31179342956231,5.419541492187553
13.828476590601513,6.657229194047404,4.8576984657496425
4.46512107569042,34.07327304349289,6.198133497335547
11.577638492827413,57.560655248927816,8.729108943782794
32.71497313280814,75.00144011332253,11.187707557625286
55.12685871615778,85.34790024328225,12.019258346227664
73.57676794206806,88.33891763401256,9.643737563847058
82.85081598760677,84.41012330285542,3.4218523050718845
79.28954673866065,74.7740197637643,5.999594073346864
61.86775196423557,61.42784468357013,16.514894318075587
32.49451760118867,46.82971728963407,25.116457418230482
4.8859895923664824,33.738744363091186,29.62697135009698
45.64984306082433,24.40048115825381,29.367075201412938
85.23754981437902,19.39339604339374,24.771940780095708
119.52146102496877,17.563112102341837,16.78490615072273
145.07403484723284,16.662501493215572,6.489968244999993
159.44700306889646,14.42328820896141,4.69846652257648
161.49547981047957,9.58244627058358,15.356345688750352
151.65470812360982,2.3981824119051827,24.39965414496448
24.925510734955232,8.83116047943576,0.001130399541751513
24.246144694940643,7.4781267183593085,2.528613749430219
20.243454904588933,5.087638984448011,4.8618202640034305
13.008833202869356,2.5387574581023915,6.67793446561396
2.810077097431621,0.58011757010992,7.686625053418176
10.043429534497927,0.5132983103228197,7.920713767526527
25.182285383003034,0.9770444933145283,7.711334744136818
41.99428256718806,1.3221180557406191,7.367426953613447
59.347601995613715,1.996069917981878,7.0408854661783815
75.44042326785919,3.218411224534029,6.59503805371186
87.86880543000055,5.053403148318293,5.688660010678637
93.99969494252696,7.583603776414671,4.067905927226131
91.71291118038191,11.067490351828424,1.7899376877660087
80.28619992984137,16.078340959086237,0.8092010864359546
60.56743651340558,23.240895695796553,3.4140917521384027
34.219256913058814,32.39644621249665,5.72634328973687
3.0875091508694283,42.076752768115476,7.3209927059667335
31.029574289008355,49.717826461029105,7.706378106613242
66.3695120164943,52.38021354445758,6.54347372566083
100.77693719253537,47.82518153518829,4.112556549181571
131.33945051449965,35.33633912940736,1.2941101749582788
154.4883941346261,15.892731023919458,0.9905246292435269
166.66205704483485,8.21834239163293,2.001226736251767
165.45728022643215,34.14504285747757,1.202119943586755
150.66187186438682,59.07999663718551,1.6443638672126673
124.60589424065903,80.50071206013736,6.33978775227877
91.49753168528208,96.13244212496451,12.185730473260634
55.905918995893124,103.86083900801695,18.048430616791244
21.103782347520227,101.88827077266066,22.37584402770505
11.980370327093352,89.14841839721703,23.597865088179887
44.64103968409595,65.79817305335422,20.813054059446795
79.1334639060292,33.51508722529516,14.050321970922674
116.90809271681844,4.573100831407931,4.316916119936552
157.17963247832958,44.2570684504877,6.584521132836384
196.42833497594512,80.77712537320807,16.626091545585997
228.92388055900176,109.35192093642073,23.939158665247913
247.96359266997862,125.65735582743743,27.069924794333186
247.29048343652042,126.38944949657582,25.44695283140956
222.3073721933056,109.97358548064092,19.71716669183811
171.01895204250823,77.2853773397602,11.542421200533777
94.7930306640864,32.055953385550204,2.8394132080198933
1.0214494508783893,19.406213679519556,4.818765230604812
106.92495900635134,69.29949339749105,10.2440341251526
209.9298588256768,109.96661178373428,12.685265693487498
295.2550624833325,135.53855925816447,11.952974516008492
348.9770634796566,143.0104235022408,8.343468437497314
360.9893025167434,132.44879512992406,2.607067443777911
327.40763526056844,106.4423691206209,3.8989338657653465
251.73542769638357,69.21917189502875,9.461083325864061
144.44277177863412,25.85497744149638,12.74067430863245
21.169592821307635,18.251127667593124,13.051014477267403
99.96691314075603,57.77320507286334,10.191706330951886
201.40340050390574,88.00844408261624,4.407833706069957
269.02785994422356,105.67473285332444,3.5470158113573613
294.58284319806245,109.7316475781797,12.392772949456589
277.0856847655722,101.77728552768383,20.349848150388446
222.86189104600632,85.62284108729519,25.10627714048512
144.0128240500828,66.03624589487045,24.45898189173749
55.55769435013362,47.12946291217114,17.69572607633067
27.947455527647126,31.125473524964036,5.6750659830938925
95.29024306166747,18.099239433133775,10.206055812958722
140.0849534970479,6.768258955443614,27.881427574472067
160.6733698717276,4.1858767093684435,44.47219172337569
159.01646900528596,15.043914577792629,57.08602975283231
139.37667236917773,24.79702656318785,63.089037542298776
107.46166636833217,31.782746689510713,60.68760970269283
70.01687834129207,34.751869667312754,49.737782841600264
34.31147040234571,33.67665330793793,31.482647006822766
7.0267806178814505,29.810030197559687,8.168522473322357
7.504404908073612,25.035151063903676,17.34740303370325
8.955817436316108,20.984463591906,41.827797979272574
1.4954754551999638,18.463183424306088,61.664932441814294
7.494578691263275,17.4761252286364,73.7728968333315
10.18069113446141,17.71416533256945,76.59010599912764
1.2848542514195878,19.013300363970668,70.4254992929145
20.114931689072133,21.40162773136683,57.255708284957
50.79327299493898,24.696946083454595,39.964753942506576
85.29991290659639,27.950073993671552,21.49350386957543
118.35441284655175,29.22500985067697,4.2941553335074145
146.34837652680247,26.0359162678302,9.777496993799318
167.32028760268065,16.316245793930868,19.64507672457965
179.85362450708547,0.5487967171805987,25.09052400997151
182.03858146673772,23.171150659573748,26.637641703232926
171.51056254429733,48.38465370258552,25.653887675758025
146.70285817024543,72.10156952260193,23.553557867122134
108.43469831378599,90.37089416428539,21.00143106188546
60.640695763448655,100.18270873137698,18.283888111045723
9.520285070766995,99.77529422690144,15.59213990037237
38.61851010103599,88.57025587011604,13.226924665386756
79.61816586836211,67.04818459917828,11.438975844124583
112.54037099032873,36.75837180371739,9.98207431640011
138.97765293424078,0.43681291367720787,8.382907544331275
161.11254631509422,38.00068572656579,6.4736113817790635
179.76088664621386,73.87246495742775,4.534170522864261
193.55986891253468,102.59519323507085,2.6926934402448848
199.73485123946614,120.71782157184649,0.7215584970412046
195.90303126346893,126.7072976193101,1.4105746335464107
181.76575270698686,121.15378431923706,3.703975919215722
159.67618841268535,106.3320418064394,6.32228913330387
133.8101490788397,85.38578373271581,9.192700189723611
108.49327967479081,61.536767459832404,11.911655753227608
86.62173208971166,37.59970040267977,14.059155926414924
68.96034067017725,15.820919511950862,15.43524975775471
54.48727649833061,2.1789733264464375,15.933609321994087
41.33403200721163,15.570865072014591,15.347776328527331
27.653468592920806,24.586265647006236,13.442384156519935
11.944383133424536,30.653082338259082,10.216941862953284
7.115028899214258,36.0887347920671,5.94601997303904
30.903736978636456,43.24328083232013,0.9635579988670276
60.74159461285939,53.36821242304644,4.439277482593121
97.23309839539972,65.79539804578552,10.085103162586647
139.3337390001367,77.9539366463944,15.728454650192957
183.68860519912678,86.33952805830033,20.94205521813943
224.73753083029166,88.03186322931721,25.395182361949797
255.79209300068362,81.98605341849849,28.65361007708988
270.8179039138805,69.41490204185668,30.037873070546816
266.2769193274435,53.09404514172781,29.07735373004948
242.3031881769273,36.01593761171205,25.700236632865245
202.75780594893254,20.15464486994531,20.11504883897501
154.1668923143772,5.968921910867684,12.62231499787038
103.91170874736358,7.210062617761254,3.5316720307251854
58.28082558984271,20.31311653542194,6.729078536909041
21.008666316631604,33.83726672099536,17.54685170382071
7.315244803972182,47.71340405335551,28.07145595024701
28.93785849766084,61.660224319155965,37.218924348076015
47.971678450760734,75.54272140080218,43.857552599665944
69.05812015081744,89.24965409653501,47.10190210153659
95.97901596841643,102.05156368756069,46.47788436493307
130.50130471501615,111.85704055212035,42.00365501488151
171.65389588955333,115.03160606309473,34.28993538007442
215.5806179471441,107.24728431950771,24.268530011013645
256.06246594646996,85.17065588724174,12.901910516518354
285.686070846225,48.25042755185464,1.2348931837638306
297.4567883446299,0.2902303351447256,9.947892699540908
286.51361606450956,53.8374203117274,20.357992391774097
251.478656168477,104.01061568032462,29.556830707472063
195.01249426404513,142.80859831589797,36.6288575137847
123.41974241774192,164.43878140854582,40.801150004820265
45.422271726043846,166.29783316971594,41.8632950884211
29.576945866563094,149.06827264780978,39.90050459580109
93.31299283466788,116.2538765387189,35.09807303192367
140.13990770521596,73.49997937447979,27.887803716330204
167.32201128710764,27.09661214674068,19.05591109245028
175.06272631522017,17.130848031420314,9.547631519663677
166.45940405989947,54.07795799678016,0.3023136753391392
146.52703781150942,79.96523696162394,7.740235837924204
120.95244340117321,92.91433310415906,13.794844523491406
94.86541408094274,93.27735046331092,17.431680085815433
71.92182598134917,83.48677063708436,18.590072191054155
53.892840035497436,67.33298997062508,17.5675877644532
0.8605508042879509,14.655078193838994,4.491265511289489
2.4196120625920026,4.145525517291693,9.423593251056182
6.384034243596462,9.465073649647223,13.924523113766025
10.526415861083255,24.89672920432146,16.329727555887512
13.682685467598578,41.11912845561223,15.672704528531803
14.15957633421425,57.19266124560373,12.095796575933635
10.363836680786722,71.80292871174007,6.4705602411508165
1.6754343822198199,82.82810120489835,0.28745796861725265
10.830488337946043,87.36550840004784,7.457744349834238
24.37810389812565,82.31997494003836,14.334456780538167
35.25833376996851,65.35043955910898,20.28699290060828
39.94427024665001,35.94139707794335,24.790615557240752
36.085462387717044,3.739033684009392,27.164734119061826
23.407666376164478,48.99206792060776,26.72198270213202
3.8298296251235597,93.96770946614117,23.182037723637244
19.833989698278522,133.08404056763362,17.032633217151787
44.951816264756836,161.78219085284155,9.56068862197565
69.13198109771353,176.79041010144678,2.392572894893868
89.90031657313892,176.0324440248367,2.7833506934447474
104.10615706567876,158.67353238271636,4.821785584776765
107.94373357675224,125.52244712793659,4.004834016094555
98.03416978176679,79.47132758771592,1.6392161507259682
72.95810803784354,25.59238661662228,0.9738602748809658
34.55863090677661,29.53947726938123,2.896477486516457
11.92582897034349,79.22113052402986,3.608844358661574
59.10415602541933,118.14905867270002,2.888110646546472
99.49333599680335,143.4731821995293,0.4787575695160383
127.47145013912787,154.89388254122537,3.8389156914247025
140.20373602930562,153.89244873477142,9.940456863870601
137.45483234948568,142.62474230101455,17.33507192706257
120.76924971189159,123.1086307633665,25.006448494995514
92.7753351700156,97.0939993803873,31.460229177175744
57.096585379842125,66.49710434779762,35.57832018105102
18.608189494676132,33.912340314541254,37.191222967090276
16.59166776518915,2.6895777889111554,36.74299098422501
42.04802057255736,23.607394466522234,34.88926994347641
52.6467157162964,42.130693875575105,32.31408524055922
46.42363460788541,51.559485707667825,29.330660017802774
25.51220921161324,52.32382516278001,25.59317352122014
4.367692634238621,46.149847248682924,20.387709181634357
35.74572508065037,35.23604751585325,13.260864316832311
61.70675055962141,21.550281790944915,4.515437593925201
77.5869573299851,6.6133142469987085,5.138785585637986
81.47096155882048,8.210810235331387,15.279470157271446
73.57585528667009,21.253035896042306,25.673426151306845
55.121871109076665,30.350327396241926,35.935901384858354
27.456983955056888,33.1735518255999,45.50452331987576
8.132223440715633,27.996332029436406,53.709445257848316
50.018478123018795,14.50627270331936,59.77671839767852
95.68789729522625,5.825128760013466,62.722073830875566
141.49433471285184,30.013029562889045,61.60497185234845
182.88698321558792,54.327913610284895,56.183715895249016
214.9894387973995,75.1990350250645,47.24084737488066
233.2766326622504,89.85978287522839,36.13459613968422
234.18693828447354,96.55590199450566,24.224198413399897
215.62820844441362,94.41082226510633,12.752200549390198
177.40490952200284,83.24451823384092,2.4749175456822115
121.6045777270312,63.608165082873484,6.602117561290768
52.81655155426047,37.04236152597122,14.794355812161387
22.05309038378417,6.351010266810379,22.496430837582302
94.51447478420401,24.410521580930116,29.904482542021835
155.76027431322038,50.43756977897049,36.72618783693081
198.2263813552369,67.14535451932697,42.36302557561712
217.0938360094715,71.34395475612938,45.81950386782341
211.39739623299135,62.209719284257325,45.98628767988393
184.4404482468267,41.70466378031479,42.45000866417121
143.33444586562533,14.270195110411926,35.583224070033545
97.63202878414664,14.137572466921036,26.51774361050243
57.24170694137815,37.393995015578916,17.067429280376423
30.06732418679498,50.603040322419986,9.105271387816037
19.96505893458009,51.20298909428113,4.107736022122797
25.656293368571035,39.50155756802888,2.8269304824845727
41.04243930304664,18.524864555383218,5.071293505740685
56.93884889149668,6.786564923775297,9.78842081130521
63.77173084672226,30.83107392029112,15.36055163657257
54.41962563025918,48.700011457893915,20.188432275210577
26.33148260353213,57.24377151998949,23.001260313783956
17.701919601409397,55.54387617965534,22.66138998677706
70.30161123147322,44.735182594887426,18.111256411028684
121.47155968279608,27.36674525295443,8.99805435642385
161.1563908629851,6.621846406960774,3.632768829459009
181.62055063333386,14.282064754194147,17.494867676584374
179.05526825043572,32.3726218676415,29.770190924387894
154.10190368286288,44.956629488495444,38.29179078657725
111.25370434697885,49.656576763986926,42.38310189065889
57.452006291433044,44.65779823191673,42.418369203826714
0.34600221284931515,29.143128048302653,39.4729840545697
53.26608288623238,3.753537789976514,35.12156061281218
98.39155148629669,29.189568670893525,30.84094812852477
132.12124138031177,65.89242226108327,27.814950399541708
153.37629021192038,101.65976106207363,26.692008042199326
162.38574993911342,131.63133736769174,27.214771947127797
160.18952966279332,151.4362962107359,28.309091433665433
148.29934813510278,157.6285033026866,28.46310869012365
128.4553656167868,147.9982676211694,26.05394188723808
102.34304708379189,121.9180608010084,19.704839609373078
71.24168368655106,80.76980655551922,8.968118003622765
35.73603788567094,28.280908572822373,5.552682517510944
4.250510238948803,29.561423694034218,22.433479718182742
48.9085498633691,85.29437105141344,39.19658838421913
97.5849899693243,131.45631221826358,52.85202332419291
147.8016901565592,162.3454799734278,61.04307733610508
194.8128968060246,175.40272442336934,62.59703401012084
232.1377764807195,171.59916604363553,57.585449434717404
253.05818511988778,154.64125005136407,46.97391328026225
252.59697253263593,129.4060095406497,32.204574736696664
229.1648292571266,100.30101878821185,15.038093589628803
185.16216097724708,70.24020098054477,2.5817491023201864
126.3031258834925,40.5913355156882,18.70302080438158
59.98244678764527,11.86597400217942,31.420764714327237
6.579414167325685,15.390818308083833,39.00760906547617
67.6629341893538,40.0457978945392,40.345985940717014
119.45408809064975,60.410517486076756,35.262712806275246
159.65309813104682,74.69630056180333,24.76949957160448
186.81513731263317,81.52249695732729,10.934985316478215
199.97977265729025,80.16965228571338,4.047578458888741
198.83365642976727,70.54139621380882,18.335198965994234
184.21768866589807,53.04443018441034,30.254354871033456
158.53894463202002,28.638076005747862,38.4278482328621
125.66448096810014,0.8623083497495362,41.85031409035437
90.17015008573071,32.45309036118524,39.98982617522141
56.24730891185367,61.932801573536366,33.033013988989204
26.77525332780958,84.45888543954464,21.84030089365994
2.987989264970745,95.63353093994057,7.890454460515542
15.16681525680181,92.71830043507238,6.8850968670691595
28.271531602372857,75.46579145197995,20.569667708365287
36.72278979221226,46.2247406343761,31.631124333284244
40.446641462483136,9.301749641845731,39.14707592849653
39.18902359626672,30.099204734994295,42.89025345277791
33.136285085168055,66.91331027505692,43.220275614257964
23.460977359919216,96.89120232922663,40.6413789249669
12.499056677241914,116.83934747253024,35.270988988741024
3.464714030538052,124.59393372234224,27.031101044287155
0.18239764196421668,118.99450638498779,16.076472627000324
4.501261026898654,100.04489456948082,3.0167515056667757
19.241495605377526,69.21671269277115,10.631359678786849
44.033078015163,29.678901283771296,22.635677255455935
76.8780449993475,13.768745209279022,30.97538694372227
113.81519365013564,55.20067557906273,34.27740791918565
149.30617568420485,88.47558361641116,31.96494946499206
176.98219612098538,108.34503549846582,24.523911546345943
190.66766236306194,111.49608207892061,13.471059523941006
187.09215587374592,97.6875311317635,0.4935896220950411
166.67643440286477,69.53198012559069,12.963257316126745
132.077515026426,31.376447796633908,25.471467585676066
87.80933540014384,11.281364059541243,35.75799535611553
39.53054385411286,52.57056726446899,42.64248257568631
6.882451560941256,87.12308202315741,45.11629706576604
46.26273089656394,110.89684022478997,42.71743914794881
74.86628385390719,121.78165668950257,35.85829274472781
31.42815611001662,19.157341055278113,7.040491032440083
35.45284965698807,23.124738230508854,3.878426688646784
34.651431189140744,23.607379705978627,0.734933509757308
28.194169130638826,19.356533599034176,6.306071236216473
16.44418389878946,10.027901334903039,12.086730455054521
0.878170794291243,3.5825447253173137,17.343814147670816
16.36271800115208,19.638923504405227,21.372836089210658
33.127890460461785,35.70428385614387,23.311118583936093
47.805806839141155,49.305007833590935,22.386591310282732
59.638186691981424,58.47295513915589,18.256882438178355
68.65966444056357,62.03540764728006,11.214232558515628
75.29278175079003,59.53976521332281,2.246921086665723
79.8963541574708,51.04160137218094,7.008713603906653
82.68477331123299,37.28020359427259,14.707955331029483
83.69645762785105,19.91541223170146,19.702434285695286
82.3641263916315,1.1509903747058492,21.796661974699802
77.36462853472896,16.67055211050767,21.273487707602744
66.86563013989078,31.3559219987423,18.65777313783463
48.82486578489989,41.36557203495805,14.757925998228721
21.626177077691562,46.10127733120579,10.402228978469918
15.14993757895703,45.93582180624353,5.9908130929743395
60.04304315320201,42.001442238756475,1.6761542370904368
109.26865389220367,35.74370016350758,2.2136680834020255
156.9199623935381,28.619426629825387,5.07200675584643
195.82834848672718,22.036987521783267,6.305082447975977
218.98478350430753,17.536576478403056,6.057607909696644
221.15113784789398,16.929163699726026,5.301751882956947
200.14618842135323,22.007494822114875,5.233777744042136
157.5162341107078,33.79193207485783,6.734355292376172
98.35625422333945,51.53923670317847,9.933604623797054
30.416722703000012,72.11208087711005,14.13276274915978
37.221191605294536,90.24930450952834,17.915600561092155
95.65937258881475,99.8557359081406,19.57456435116372
137.56206395877015,95.90605481303294,18.031737837294543
158.26754010819383,76.10978981530518,13.382662573234239
156.53679631555593,41.61885005003221,6.380100976079542
134.76809735680254,3.4711416888769393,2.2604277326305353
98.5723866895488,53.46417141403979,11.552932788101156
55.669292884333764,102.47103934060472,20.020031559576037
14.273874117106345,145.2475553782815,26.330473914449698
18.641145866553607,177.33157868339632,29.755034303930653
38.73546219937616,194.88536462660022,29.967650756439777
44.92393656994383,194.82778643217634,26.66166265540964
39.09730205736014,175.56367935702,20.142032808937987
25.130867658030525,138.04787259461727,12.069499697288647
7.578360893384132,86.45401328195692,4.590490990603263
9.559254987311707,27.81931269610807,0.8284351097170053
23.72654326022177,29.461745857627857,3.6215156086547466
34.200779136169956,77.7608160910213,4.109784290169214
41.962305321023315,111.99351492639181,3.508179020264569
49.110539635919785,130.29322475725053,3.3909871671347127
57.901158987640954,133.42235402144743,4.763818397169795
69.60059268154038,123.46042824845924,7.540163595936967
83.49801710777669,102.64563732929012,10.401080834012602
96.52698136192083,72.96686953348967,11.614626689370626
103.80513644370792,36.551967074232586,10.399478522744582
100.01153071347143,3.643465204988202,6.8214869330777965
81.15925433892359,43.53374676656705,1.2263686209238924
46.10189625353769,78.33947311335572,5.505750268210705
2.7973544418564016,103.58704760686787,11.859993665533974
60.03702143801299,116.14444587660734,16.056090619805644
118.13911684065425,114.77644709228738,16.62749989465017
169.09202092500996,100.03657176155028,12.574158579742567
205.64830892756103,73.72616243712099,3.270058503273959
222.31621213975538,38.365660326027154,10.906740544540686
216.15010621036146,3.0155009769648466,28.032279073227205
187.44770123621043,46.814777103489256,45.17782922868551
140.18960841485443,88.82176126760415,59.22765527131622
81.80554393116319,124.507844830139,67.27735967751106
21.895460098472267,149.6936954067557,67.28017752917303
30.037006407392038,161.364396357545,58.781831296065164
67.18521447861384,158.2619000518464,43.073631564431025
87.28634954360558,141.00643570591077,22.991702265200104
92.79542249895806,111.78024341508609,1.8833191409858325
89.28056084785693,73.82316706591797,17.64900033822529
82.85008641251379,31.028353563954475,33.795908417706976
77.91917177508803,12.272268189157488,45.386769721927976
76.33301372936815,51.48979082108972,52.08691399423723
77.98473511039255,82.1525744635237,54.24336249866833
82.17084530583517,100.58984166565975,52.749350576521245
88.5078103199055,104.77727070101116,48.826540072505665
96.71508548525996,94.97884484597034,43.625447191059024
105.54148151021846,73.86191430439891,38.17697921955371
111.81105859541171,45.960451917158636,33.159551546655635
110.6364271264019,16.616015928868155,28.469811073565918
97.08340163172306,9.222680181926307,23.52077432547914
68.51221580337942,27.92084165241696,18.044687927830612
26.26506946183622,37.57895346909358,12.449258331687385
24.374964910728938,37.96679995648633,7.4349624839029635
75.99345067315292,30.149509243764424,3.3596997657287067
121.58619211628323,16.04620377723233,0.07145935466808953
156.42221984383184,1.920943338166693,2.6943731005700737
178.3355088644398,21.051763822813204,5.179780455750398
186.6817981028501,38.53294074058027,7.730886652898921
181.05937290166568,51.66851417039045,10.662637973386516
160.9240996619042,58.231405639446514,14.197530432354434
126.46978855194413,56.89134612643184,18.34764582301204
80.09061519316434,47.63269752926085,22.77373054393697
27.192200378966877,31.987840120381474,26.950397100412694
24.554218200087934,12.895108711525374,30.19884569959476
67.3868896179238,5.872830858335364,31.74405816440596
95.92998217304441,20.621827926515834,31.0820508498386
108.61126475370784,28.728572138649923,28.25262405860289
107.28507067706839,29.327561737564995,23.653898238831882
95.46717114456179,23.41519751228641,17.66314470518589
76.42247799180221,13.332284775759284,10.86553363470401
52.287968843369256,1.8497540708080469,4.459439199063579
24.639180114660576,8.720782945663647,0.23488029777303693
4.175546238578257,17.007988765226926,2.6973945827807726
30.191475805108563,22.541207534461595,3.2612157444145264
48.34455285079262,25.379506357213273,2.295473776158197
54.2671418379241,25.74701413993239,0.05512923717068994
46.31596094335012,23.931036322524903,3.4978748615177384
26.544217480926104,20.438494761267304,7.589768352696994
0.0008882134263433233,16.169562461886702,11.7243271906535
27.25761202844938,12.314249574402531,14.867968135878854
50.29497111494026,9.852309955230938,15.833155737554613
66.42924961495822,8.8810061675601,13.978229038988234
74.99341007941514,8.23127063186958,9.32910899059127
76.23545923021351,5.718211019213998,2.353831575731522
70.33060633523083,0.9657036017242876,5.8156154565156255
57.21725377101015,13.090835643322588,13.703504593162895
37.246782687718174,30.085506271856634,20.403319415003867
11.96449941442681,49.52135034449463,25.592122286263855
15.736357017612061,67.8811270470381,29.330274559512294
42.30341737562547,81.73105982544479,32.05389703229391
64.61496870314481,88.71735265841771,33.93063469081127
80.67345113337988,87.94678739258875,34.459985484178176
89.38955429623276,79.7333512560855,32.89861471417249
89.70213712251878,65.0485516590266,28.89655329231273
79.87611877651777,45.087666413969316,22.858752070649334
57.79748588809591,21.182590588562057,15.798305947043081
22.438933536724317,5.010148466827216,9.102396740383012
24.234049943836407,31.331126289881894,4.152087632516139
76.20510408454851,55.2096573147737,1.4332063673411548
124.12905088317116,74.09019456832307,0.1890097400040745
157.7485229363057,86.00019032977833,0.7819639366265133
168.95058335737156,89.95523918006907,2.5598931948475627
154.02137977841164,86.03565133617612,6.149437940493196
114.16826600079243,75.1667872700194,11.917223289606849
54.41465850432316,58.78398743108909,19.169543414142826
18.167280393635135,38.578805633768965,26.812502893509077
95.00303604898953,16.288518388862418,34.020493687040876
166.57934014031667,6.3892172760966846,40.39161786289446
223.92485534637638,27.68442517985113,45.75537566415122
259.82717257013167,45.73949301000222,49.7031760947767
270.13534778182265,58.85664170518661,51.494247923049045
254.87248228607726,65.89605165435215,50.46306291113508
218.61912150796056,66.60443507414162,46.34873179945957
169.68597965142447,61.70273364015014,39.46436497906155
1.707991319755357,11.522242823934498,2.8474544282434073
23.75298781215398,11.334919631318533,3.453162659782019
46.52992497294775,7.536802454362297,3.3650725976884646
65.64205065810167,0.0053994383987725015,2.8541680703972845
76.84315232132472,10.418751642038751,2.2455586572441155
76.84089075558876,22.110715001716123,1.655701454643673
64.2117096812995,33.2339653280888,1.146319345681949
40.025754736959115,42.08476202069672,0.6834769867480411
7.958082551558431,47.25926993049858,0.16368338330278454
26.528987345142614,47.61383374161752,0.3180929245379502
57.646316421092216,42.20535989180648,0.6982096318146065
80.42687946546812,30.343243356476208,1.0480155001327711
91.05083873458962,11.846797528016145,1.1056041506829335
87.81894309065315,12.474478350736407,0.20611691235789611
72.45768026230348,40.364494726277805,1.953640049566066
49.16465125574962,68.15855545058187,4.578530917837641
22.86264822894415,91.4780417458334,6.3721436819839505
1.775866453511963,106.27616853878179,6.750326566730608
21.225169121763013,109.80557341665788,5.799767273326387
33.24921284865519,101.11983456628596,3.8094660741405897
36.87392747338897,80.9995491736958,1.3317901009490174
32.686240398638006,51.52324059298235,1.1693220199578944
22.886971765050614,15.5856911470501,3.7024177495353894
11.13702754128548,23.40513789082842,6.520852226724829
1.6680367073696165,61.6438425408532,9.794492587050994
2.126915201913922,95.02754492123405,13.383851982435848
1.1139795355366704,119.46187295895362,16.743557370598953
10.22271773269369,131.48121047059809,19.27124739589372
22.15172135371402,129.00125304530795,20.689011609632118
33.313923979636684,111.91660325496922,20.58396179695546
40.891372684642015,82.31062697548715,18.28171365586618
43.46621760607411,44.141277419290354,13.751971315293329
40.743631580174274,2.4886367207224858,7.891296017748016
32.903583124196935,37.41321642755523,1.9499202497190893
20.196450992377013,71.1103253680257,3.261197917667862
3.173860559595472,95.59057573690848,7.629327796536966
16.65271369799085,109.53761405291533,11.109039136745665
36.370330885768276,113.14362804410607,13.721000535969408
51.984522130815314,107.54917708851269,15.736767884490108
59.62758068579452,94.12079928714992,17.301619026744532
57.12674057213709,73.88454616325411,18.635956959889185
45.143066200539764,47.40104440753949,19.961498688878127
27.2553935554708,15.182338839940027,21.224376711049175
8.861031646738937,21.534612572410957,22.40658705777891
4.6255603453124525,60.1279574954073,23.404174066734516
9.582296212805282,96.51873787935371,23.907740166432166
5.36604478722531,125.87349731237869,23.523161579712013
5.4639363963499,143.8811908872078,21.635698933943562
17.814524670213324,148.02785796244584,17.426477749788464
25.384326776439604,138.2520205242453,10.309807121440539
22.38780534373553,116.70034652821558,0.6166220851033557
5.298970968315556,86.7608455204232,10.439473564553047
25.8270035079353,51.95953142286122,21.311420919007492
66.8206407949901,15.337465503505191,30.194571930939244
109.90477529203001,20.49551474407416,35.27984808837781
145.23398757066062,52.921998837851355,35.41280000432407
163.10454018109158,79.0467747345993,30.684985696376604
156.21880265411244,96.04420109336846,22.597813044597256
121.3656254220639,102.08255792525485,13.466910930225936
60.17865730896233,97.27805800861084,5.715685565221193
21.018559459829763,84.02709227285703,1.0740803370388798
112.10441420714913,66.3798629361494,0.20917029875503584
200.56795759726486,48.67645842370257,0.8771128216508762
273.31379012379045,34.159430788367494,2.7679652050359764
318.76371968971193,24.296173904103703,3.9773519933142567
328.95944438373823,19.068732724483084,3.709161064031524
301.18351399848973,17.893332355966177,1.7609854373833513
238.59858882295234,20.457114853997414,1.581843066056085
149.62388054440981,26.862851022602918,5.509607108604167
46.163659242283984,37.0008825565298,9.05418112106982
58.75282166075883,49.61097493995671,11.41107034363392
153.15872206708522,61.760374116406965,12.106101459488775
227.65042831680742,69.25384976148769,10.98255418341726
276.0892219923651,67.90253838033051,8.064021707574732
295.74274066683284,55.07143812198464,3.594028473622619
287.20105977006256,30.776009259267475,1.7830825231224572
254.1740386072513,2.1484834409592257,6.864727423607687
203.0811159515106,38.789632472054684,10.175060726932916
142.22730645859144,73.41140296791896,10.467290712335856
80.4878250102182,100.73121859048453,7.064186801092837
25.787847580454287,116.8942499365293,0.2824940621633893
16.168461090106053,120.04580336570132,8.438065185366836
42.519877490627245,110.54083936528065,16.924628519548122
53.15639572433422,90.8265100975778,23.070211526427027
50.21287162290011,64.96985157846579,25.77444496601998
37.49518280811483,37.83003754784852,25.229667953443386
20.04051735412327,14.018084918977776,22.42634131335429
3.658086719746394,3.052160119105521,18.228900115289303
5.879997534281695,11.697520994217957,13.073592331992943
4.0642854143773235,11.959929054850193,7.237831080433783
10.984163948808815,5.199533350557415,0.4413772648063896
37.59290482727777,6.394984958967971,7.84906140838433
70.66778422552719,20.097799609917853,17.449204046204557
103.02152904791775,32.72240248959282,27.339327415410892
127.44845553995813,40.69805632037457,35.78947182258699
138.67686813796874,40.43770312660063,41.070738210841355
134.4680849297484,29.092512920984113,42.15027775909981
115.64253560083002,5.467655472103327,38.720232444868394
85.31638746855617,29.26958083699248,31.565610808933755
47.93768037443575,71.44782760427854,22.50261158385832
8.542047875883712,115.3983215532695,13.547035320032968
27.750163155325684,154.33794730773693,5.86788921500872
56.26596927479603,181.31623118618182,0.8293482859706542
73.57888930309065,190.0831173586263,7.7175881080817375
78.40959660145228,175.93057734442408,15.6136658799595
72.16080811075744,136.65409798173118,24.25280010517922
58.60614915272158,73.62208834931764,32.79749033506878
42.60747549280939,7.44471815792282,40.154348224504716
28.359570021974445,96.61596113952511,44.88462083945411
17.970483747507473,181.21224449859315,46.245066765157894
11.027430280576125,248.4264644069985,44.54736947689541
5.337446017068051,288.3025885123115,40.39465393591627
1.6045825477757651,295.93539752528454,34.28715825177607
11.252412162653812,272.0791649080567,26.35084655725003
23.391957774632793,222.10072178388927,16.693573710934373
36.382367065425484,153.98754684213418,5.793703508092356
47.89954253290857,76.44774969616087,5.73031310362073
55.686622458432794,2.2192463964344653,17.04029329637129
57.995912588927645,74.47407530032737,27.032470143405416
53.73453384468631,133.67702903545566,34.68883638133599
42.5868551424043,174.669661552488,39.748984325354314
25.31771980408766,194.8765608542248,43.070655666718494
4.1315239045470005,195.31561046775798,46.007527052996515
17.26032785420116,180.6730910977941,49.58119964111934
34.1690125973133,157.9322656384344,53.79164087060806
42.074761147002086,133.87941565553814,57.34838913410242
38.02580949041271,112.64723427778377,58.37087034916437
21.714711409316767,94.56685070938825,55.258481239572376
4.2372864223926285,76.91308069816816,47.01609983867184
34.882574141664044,56.09615922475976,33.486217466008
64.14736833803936,30.03615673248402,15.355638606129393
86.17227351090187,0.5778933235934389,6.211773636570678
96.38337068044441,32.66831667400987,29.389104635363815
92.11445718586053,62.290521878557286,51.52707134681653
72.7956345390288,86.15795005593233,69.86756459992861
39.80714848087435,102.22330269029464,82.20419039074622
3.8661482462785357,109.21907147390348,87.26190982844948
54.11521003396615,105.86702622656291,84.9237849490444
106.23722423698118,90.70637684468953,76.07455216976909
155.37897609738673,63.00472495919736,62.310738747399085
196.81796650001925,24.264956517376657,45.497066960502764
226.0763542336873,20.778630829514654,27.324361969148995
240.08548066224006,65.88327782772288,9.421332525078578
237.90637896826723,104.77170762407013,6.580085577840226
220.3639458044863,131.6078370047221,19.456850225885535
190.0598828924436,142.73855175989894,28.398460758278954
151.12392990684566,137.7592121433252,32.78975449959058
108.6588203008683,119.42122153888285,32.54241540840558
67.91898512992891,92.52212451318036,28.38419718669892
33.34875329722589,62.39881120711859,21.81916084033454
31.152034876452973,5.610079845730781,2.2532515974481813
15.77646227895114,18.856558447711144,2.681523173586101
5.475835475197436,32.758883818410254,2.1340216513849026
29.264656365374154,46.66189390941182,0.181164035602269
52.03643089770078,59.59145392535245,2.8356602025176114
70.72829650142424,69.63646530767294,6.014897754449407
83.0085421021333,73.93580825557866,8.470666658744815
87.17746334664406,69.31035056538022,9.46539231541971
82.1483459209396,53.48886953360259,8.569420415515657
67.70602542165183,26.1166497612378,5.899177455870188
44.95065088158087,10.80362602153883,2.126897322606552
16.7671916465066,52.811946969740426,1.999598555111455
11.950055643205788,93.35403184153606,6.106211645500589
35.15357220742536,125.98501285635491,9.700851322016037
47.815094258699254,146.89038806755596,11.871112438637619
47.9232866057767,154.41540662611888,11.893791762686996
37.20158401059923,147.80273193810683,9.636103603035725
20.476582530916282,126.96012511925062,5.417657734787052
3.843148560999437,92.40287906117693,0.11735530143637139
7.417053333750009,46.21479811074414,5.799736984918957
10.212993557687197,7.042460662928721,9.924339113486603
4.016280049616071,60.5760093015481,10.807199970220957
9.663259619395312,106.52651155140126,7.5736756506859555
28.104009929247887,138.14960788836026,0.5842910799307863
48.068005084605055,151.75452998852091,9.028738199817244
66.25238131872467,147.57328581459615,19.803721434124213
79.59895581021254,129.34373698700534,29.80845883597505
85.71636596904258,102.7072810711211,36.8667265030026
83.39209503160735,73.42788711119107,39.18021436123643
72.95963173461804,46.01248638531137,35.701433014433874
56.276275141853915,23.124024294018543,25.983597049983413
36.23957620120967,5.732006495166962,10.09076730929739
16.0555400414728,6.513101436887418,10.845917544428984
1.4307986140591449,14.933272250688788,34.293631363512276
14.107836226184029,21.652898964514467,56.80180418857605
20.706876106785803,29.41717475738204,75.03390646314884
20.90677620867193,41.09036298806868,86.52730061665133
15.571643485041426,58.75589704469785,89.61354902022867
7.0022954874715575,82.60595956378002,83.69042772111493
1.1285584873800392,110.11499927029989,69.68432975383723
4.5027399285698255,136.00083337294552,49.314485235813244
0.479880381869875,153.2494392696827,24.533312140658932
15.207744051894801,155.01938893974125,1.9650891844391598
37.98717218014844,136.78337363032654,26.874382707011037
64.36849128892818,97.92056977736429,47.26802403958831
88.62096462122672,42.10529644634275,61.26027928287236
105.69364843992037,23.64545331942972,68.16921315137414
112.74862548404661,90.80194517429955,68.4531527841175
109.59494821970867,151.25930942237724,63.55623790582576
98.01815671860896,198.65483494693927,55.451149694182384
80.58541171487268,228.77588921684023,46.041002763664785
59.64841110664336,239.31393621901546,37.05135639186864
37.01566545526835,229.50758232758878,29.71276758519688
14.236977347620313,200.1230928288405,24.1094398254777
7.029626470187358,153.79735347767436,19.607820491795515
25.08262390790496,95.32313371834249,15.71654228896927
38.76635663350667,31.3222567530556,12.063843614695227
48.20866012437352,30.920702214146438,8.46869311794147
55.113953964817554,85.11259390001375,5.160296734392547
62.21816763068913,127.3521670221368,2.15754675799847
71.98075090985101,156.56682433422586,0.9070718960882946
85.08524584285682,173.76918213682677,4.068308178342417
99.52614173021391,180.63734023944983,7.082395054175549
110.75675249824724,178.31173399768926,9.866070364663976
112.8424578086395,167.10606708365853,12.285301779884936
100.18098772005628,147.19025987805273,13.975516222626416
69.1887484417725,119.59294166063822,14.620522535513278
19.453868459766813,86.65027582399212,14.374622851334374
45.83822142346488,51.43674875810069,13.775775695866392
120.12408206411523,16.468104872480342,13.299767869121933
194.19188395743805,17.414776562202842,13.392983140538117
257.35295493863504,51.07792767603856,14.378464255458297
298.9313471650466,85.79358473521566,16.045599326951113
309.93983180544313,121.2707667420345,17.883501124526124
284.74207771773774,154.21633020994517,19.513842084235947
222.31252444952145,178.4357516354644,20.679673491631043
126.78072809391995,186.67386057396152,21.305126815258586
7.105408544966985,173.35254173996543,21.60432842543903
124.06961895170483,136.84945289306492,21.733922741183793
252.1029390661516,80.24586141554619,21.53080466886762
362.3182815281139,10.287867860085708,20.732526176381022
441.9724426723505,64.68670451671684,19.187056297072758
482.0094271751551,136.65385748095022,17.028334238526924
478.41928583178674,198.82054522186004,14.773037562799376
432.8882820088351,245.5054178917421,13.307679368040503
352.4646848354927,271.65860928478907,13.655710606186293
248.19116099223137,272.8642981223779,16.160921109950728
132.9511747505775,246.20871333913672,20.05726706039632
19.048390769609203,191.6991898165378,23.604774949847567
83.80686894264545,113.39085168094134,24.248970850287076
169.5062051836849,19.42559505508254,19.652531181796146
235.4119952787107,79.25680118261317,8.87316471537079
281.3946580946779,171.11220599909822,7.374658212352354
308.56630394273714,246.22126464990154,26.94345866339336
318.2993043317498,297.74228815623235,46.996463931677646
311.8216775185975,322.26430798742985,64.82512247805525
290.34245837995917,319.3064920346737,78.20400570761969
255.45934538864586,290.51363857763124,85.33798493116386
209.4854723700291,239.05985205084542,84.88247725722445
155.49127713505007,169.49200370588056,76.45251112622212
97.08948117405346,87.82862137595484,60.76734435349864
38.112019520622816,1.5166212571254958,39.563040874741134
17.678101715835048,81.0680657319005,15.455736889873554
66.79568168460658,151.6458947315786,8.809542912869459
106.20853071337234,203.36646164605796,30.66951406554916
133.55527696575066,232.06731477903298,47.77918395646296
147.37166030684972,237.03508704323323,58.41247735004047
147.22996088982418,220.96795041144512,61.585204645479685
133.7200457759135,189.10091884732324,57.543223546829246
108.25745344380388,147.72016095631673,48.18768005245026
72.86114652301198,102.5469588793572,36.058439129930385
30.078635365922597,57.56859837427812,23.110874264077893
16.857603131894766,14.71659258083005,10.454571592400187
63.75636749636254,25.56358579257796,1.5309751125732123
105.4262218913424,63.182912426084194,12.670183527368197
136.17184567812984,97.30825227431824,22.612227140029763
150.85479217325386,125.88396031164292,31.280199787967902
146.20415515825366,146.0220261005351,38.627890017871586
121.83970811427227,155.01029451304726,43.996878051582414
80.52475100186047,151.36784031718463,46.384033411172354
27.495144485135455,135.39032558557992,44.509745198904234
30.811176040743106,108.95855429891196,37.10077248142634
88.05549756665226,74.82037072649689,23.965852787989153
138.84002690335234,35.8493508406354,6.392418018832577
178.92360203678803,5.269826467977722,13.283704450890335
205.1169872273738,45.852398355684656,32.35714301733354
215.2973033535294,82.8094247938858,48.53230829692331
208.75451790156828,112.48309038164548,60.17879435876963
186.7074105922785,131.05365286543966,65.91817193912568
152.47015797648092,135.43766213199947,64.58789532831206
110.85393330394047,124.26649631646849,55.855621011381764
66.83646573589162,98.49715660736358,40.89272481298825
24.058761712197423,61.38849056520156,22.51119662925208
15.98126441872173,17.925752800333512,3.976319064698503
53.50280063151869,26.000372057581078,12.05874337156381
88.97597373717527,64.40431630141086,23.563524462031953
121.47890865360222,91.92545611573779,29.63493685901146
147.94945379689477,104.56157426805434,30.580416149845643
163.93281065207077,100.47334875162407,27.312085803227177
165.5533199609504,80.66433080250198,21.41651621429624
151.63737244314635,49.15566484953236,14.88561712738157
124.74871118656586,12.282712111660786,9.52610619742945
89.77872869488398,23.705141071562636,6.5879853318888015
52.218827037106955,53.70660462322567,6.292499654006349
17.209998410620766,73.52771110540984,7.951892400177699
11.61770662645328,80.74464808457012,10.271453868567045
32.52567715943257,75.20853248444273,11.836481341583218
45.28317516375899,59.00426780599397,11.907016412444932
50.4677406878521,35.898277956444474,10.255281424881847
48.97374680775158,10.49740968074977,6.911314069979216
16.800503613429136,18.4546210926066,6.605284748956012
20.988318738866802,15.286438249502504,7.51377080149128
17.983321818299807,9.259838921697808,7.494229406437468
7.426188481183601,2.699580361326624,6.102115799355387
8.468834651296493,22.84388316249486,2.8662652141633322
25.5553046455605,50.938867919775966,2.4517193294473976
39.01431806258301,83.65094183471255,9.403777401536988
44.81292414119953,115.15974559199121,16.867646780769082
40.69984600818793,138.94426378215536,23.449195925316406
26.671346886080535,149.52785516740116,27.778078243634983
4.832081727347909,143.55219247746626,28.864580179714896
21.45319247221265,120.39149350620947,26.400032866432774
48.629478144724914,82.21191446430063,20.774219803792093
72.71374087111064,31.950200411097363,12.910499196261451
88.65467948128381,28.466602901563874,4.027876509051804
91.85059975109402,95.94831416022778,4.45626374074647
80.24293736002086,164.19553207070237,11.354250366064182
55.42655491131152,224.30245076774813,16.261923782663175
23.016889146236856,266.4498557739432,19.33908983500059
8.811036215080732,283.28420859073276,21.003012837624556
31.980637883048956,272.7173444931834,21.859361057239383
41.17237289318152,238.28116789499163,22.500885209820296
35.81294666811129,187.47801345142412,23.45950182751369
20.22033083397255,128.43449941649178,25.166541813177123
2.0584761392176234,67.14650632836279,27.636359583083067
10.279826692315568,6.5968167909299815,30.063272824573644
10.443467738561155,52.26498636579068,31.15815626370531
4.091741669609159,108.39610150793169,30.124261671842987
31.561429723839385,159.28149548447243,26.79936856493584
66.79127232368606,201.07114940313784,21.27575934675885
102.86957880556437,230.05623899780417,13.881005997815503
132.90214376870142,244.37377668749923,4.99399877174499
151.3795179253361,244.56865308161952,5.219803893359393
154.86809161054447,232.76108402109665,16.484325133157746
142.19479897758077,210.99821096059821,27.822341933847
114.35940637172816,180.06784727011316,37.79948462651275
74.31406540978938,139.73312541536345,45.19504902653872
26.636156950217966,90.22588098827009,49.11962485242425
23.03750863408332,33.96875420523578,49.33357767963324
68.85680374939268,23.796363040633075,46.43454014296789
105.81126023819625,76.06093423163335,41.079320499589
130.73814893080902,116.302472912408,33.58857096964573
142.89040262889415,140.6960659374656,24.339273102886445
143.81765299741954,149.03548189727618,13.865254819585008
136.5882737344822,144.0114728701041,2.9375819155641327
124.63989856766561,129.46618643166846,6.948594980081186
110.7069184099984,108.76932902305644,13.547626335556693
96.24326720885581,84.25356340681058,14.803220253811324
81.5153964296155,57.77259457541313,10.169074249073724
66.20442829644232,31.650619785445926,1.2669624441704712
50.149185091777106,9.06643944659904,8.701093005641516
33.81963491318352,6.612360431290192,16.26096731974592
18.282120877997347,13.200494217963096,18.94355384130329
4.725132392485349,10.888510698779184,15.933263188821329
6.177250390072141,2.4240506352105813,7.665361794843024
14.704234256101174,7.932099033607043,4.950357772826691
22.06796021949277,16.120750592347505,20.69216693111412
29.915770167649768,19.75288054354193,38.009212957845016
39.57114004323176,18.611305285228394,55.10096702562044
51.366470283603306,14.094179655524927,69.52097672960458
64.38756233965562,8.126003256022175,78.50153734976067
76.76544781932954,2.263021884493174,80.2250971608592
86.39268393074734,2.548928576752704,74.00443497576121
91.73125723793132,5.6461860101777015,60.09212778829456
92.32875789775898,6.213398170608394,40.09466734034709
88.80866730473443,3.215394353653549,16.918397293170557
82.37015939277673,4.142218405966804,5.7483585219367015
74.0646285042271,15.677163494313735,24.60258844869594
64.20616878677588,29.69481381779426,38.11464716439435
52.19311380262196,43.04653923847708,46.57871580786513
36.80245095186343,51.853766431945026,51.05213973242939
16.78344337428593,52.61481898892702,52.380088285138065
8.503385766597122,43.236271334030896,51.04190340401233
38.583407861107894,23.597618424683674,47.61719703933426
71.58352468031974,4.478555490253462,43.1010098597244
104.17498286409783,37.72954708845688,38.663510988273764
131.74692695610972,72.19233866595798,34.96895349356982
148.9110288800113,103.9214772471292,31.81584584805825
150.47291816814842,129.50286855667818,28.397208698939167
132.78955945715367,146.32460660793268,23.90129618217376
95.14667374364178,152.67897797639625,18.05957737344016
40.5931200553906,147.79724354876907,10.983549865539791
24.313128920350795,131.89501144215845,2.7095388940454295
90.94016701080963,106.25746581291646,6.714525847884243
150.67780298842678,73.29090949085509,16.7892826098172
196.80988429428803,36.38792529953203,26.30254366758567
225.3591306030334,0.5184144172403314,33.61681770734913
234.70084706662357,33.71028425157226,37.28910412655952
224.47873317578328,60.53536752895854,36.65657383386684
194.68524683422217,79.97753748356875,32.01610175648342
145.61049203011996,92.63909513753786,24.28709567904844
78.78306469151767,100.08940635388247,14.883441979978679
1.7598009167188795,103.86786432071719,5.59861524825102
88.89271292688152,104.66441650818741,1.9810047859439435
173.16827844614355,102.15044550844496,6.933737920067063
244.80617370300848,95.54085673956199,9.10099994818076
296.0255781260018,84.51240386670345,8.905742395104092
322.58198541751415,69.87541036609326,7.115180405364699
323.89264589887745,53.51504769354633,4.660121479529879
302.01180879493927,37.59669216178235,2.172990294222994
260.3099351205895,23.532556092296016,0.20828681661300272
202.76755233626955,11.391051250342025,2.5466346406018485
134.1991605935056,0.18893645163098988,4.994910676465168
60.887089218946834,11.087324230362611,7.640418253854153
9.310248478293017,22.40171425034602,10.258656974271343
68.0640915061892,32.27090686892186,12.302573401086306
108.75592372693357,38.3835037147676,12.991105052146372
128.77134074341205,38.8938767706538,11.721448000621058
130.72810981237936,33.562637704821135,8.578804267230883
121.85774547475354,23.997733040839428,4.211511955258139
111.58085872016545,12.828216972526773,0.5404004847197695
108.23525289863423,2.3264121336905594,4.703570681195719
116.35908749033096,6.62829540690958,7.4217887478200035
135.6105089050386,14.55437460344249,8.306418216662161
161.5757841248138,22.3751800287582,7.404129442167376
187.87458976604913,30.1404590097581,5.176803532257277
208.47577226111105,36.35770774826068,2.2235535284489343
219.23691862937372,38.459008144262604,1.0297305438493505
218.30092308286945,34.14819289196478,4.022593496724866
205.56574358764612,22.774520163523636,6.117307131382538
181.80291210432915,5.8705371052081805,6.678523288408526
148.07736105650415,13.501833266248703,4.959184295805174
105.73964970445947,32.1615339657603,0.7013419287743943
56.799393673138894,48.07154342583433,5.877035148680193
4.265241964273947,60.71911014012706,14.137292019285972
47.939629549547966,70.4741371212185,22.11191330226077
95.6083621034764,77.48598665062346,27.0921059103365
135.19110599343588,80.97439731746836,27.35584848097703
164.5779401909308,79.45915340633358,22.78950085955757
183.34148832673216,71.78817810378688,14.687816283553454
192.36603761632878,58.25969471398552,5.089340359607326
193.11384189019435,41.0948868563831,4.242645402197015
186.99082064655582,23.91226344340284,12.4726925197823
175.17143798366632,10.46934036982103,19.548068686369184
158.91282724277588,3.3773370467841226,25.481640818502683
140.04049437959875,3.4046739552892546,29.727993246049216
121.12493683359088,9.550887429180918,31.250879913829003
105.068015695416,19.597134483396875,28.962364155141664
94.17045338805526,30.65493444870625,22.28649131513237
89.09554298355272,39.47360132423668,12.071495028681282
88.31256112010868,42.62932624506618,0.39200955423570283
88.38541145795497,36.936959432255875,10.803745944524268
86.05667281752179,21.24714940929006,19.995859156099495
79.62545321717549,3.2687346318842354,25.933167343161735
68.76224238001869,34.21437883219164,28.3599126592968
54.47978389714386,67.94190352758406,28.005209416496733
38.58072095973305,99.96842029431166,25.626858016976712
22.920430158234634,125.83208826926207,21.55683445033566
8.868692373112408,142.09222323187598,15.793194509470954
2.8255261809353223,147.05514691943205,8.596525000792841
22.603377492441666,23.214434820888215,15.482923930246855
24.529264114991367,37.12167585122102,11.430313056075583
16.214458583017326,54.104467401983094,4.4718322025929815
4.546116793533429,69.57950892062425,4.903805963147685
35.89860923950159,77.780296654017,15.87972407995184
71.6065113197782,73.53690564576222,27.419789541085883
102.24532482887192,53.82013264585778,38.44999961848757
117.99163848606115,18.553581623445954,47.84764241341902
111.75051154394217,29.60402142031748,54.47126023258023
81.22389331584611,86.02337052561568,57.02397916070616
29.533765468789028,144.97154194325935,53.940231627572295
35.731515642071905,200.39502533547278,43.798045530090796
104.3988416408928,246.34389248111256,26.19285361392611
165.36767000134176,276.3291537128408,2.3857127964464806
207.86684194447633,283.1042029399101,24.78296931803267
222.95345582727322,260.9819462696099,51.511584728873
205.49919425916968,208.52283154701746,74.12173518267134
156.20178457771348,129.80891609162282,89.78997761588404
82.77364841467251,34.34973927528379,96.53853509097023
0.82427701483611,65.21356225778261,93.49935209788691
77.55232032633324,156.4466776901586,81.04980328590493
132.02051795255147,229.96142454895164,60.559632681299476
155.00925922786934,281.0094776331329,34.36220880326006
145.75394216861338,309.0689855493366,5.474231673037626
111.32615815783699,316.2292827981907,22.797155018940323
63.751907115293214,305.4341862013261,47.115636356586684
15.91765970641994,279.4192988909766,64.63975433132593
21.820478593610158,240.79143465456343,73.57967511107104
43.13010585171314,192.65893550025987,73.56858488164085
45.7609066447129,139.12345213571774,65.68818807881209
30.866941444798403,85.03274435905874,52.14512402155798
2.3654354333535212,34.978373597967995,35.87328299426321
33.48477888134671,7.829323739358443,19.810877685248382
68.91373605696396,42.19434404878643,5.986365983531655
96.2301298233743,68.68971857908778,4.71403223111621
110.00617966533449,88.70605957171732,12.187247930742796
108.91168006835329,103.39564793612905,16.752615668957926
96.01971363964934,113.12312468610833,18.81586668905045
77.19771277312164,117.66997630830897,18.80974168151253
58.24754888474322,116.92876126190441,17.454446554551225
42.36355365043624,111.5733095459568,15.711321968169566
29.297361125976742,103.22724411869416,14.29496229691565
16.52369294125433,94.00901448906824,13.561820439722469
1.556047356006172,85.75342640035093,13.791412337375627
16.11099446585925,79.37730227382858,14.840866768390779
34.57955876469427,74.74287158846387,15.699372016642773
50.72045613081207,71.05342329128001,15.11061094592382
61.99874650978695,67.5129207056298,12.458026338128887
67.70720438906196,63.85544643358176,7.663207618078246
68.97512426877032,60.47540329400873,0.9483442988317221
67.83136205052523,58.15451808311198,6.6461073650791525
66.18067911832075,57.57923330875091,13.451696514557318
65.40788762027236,58.915092338098574,18.23186741155611
66.62435228928317,61.620861171023165,20.269418874789487
70.99037419493953,64.52474371579018,19.061405894212818
79.50210062643971,66.08693589310461,14.757458346261393
92.15087684274611,64.72765248126534,8.227908531081018
107.02661836180565,59.12580386520013,0.7708013628809053
120.16651698914472,48.46543191908778,5.678784231418687
126.53723567651296,32.60404429594612,8.964040353916939
121.77139275298384,12.133245443777527,7.864457200734102
103.73637084192268,11.681815630198681,2.4869213951955835
73.11943764954015,37.1191796457528,5.980845912164422
32.87202523900322,62.3506023772443,15.491174527735259
12.951264936994296,85.82888254289733,23.511783795494647
60.16420830765347,106.60113742607165,27.847912575531964
104.79566964783159,124.42449714793872,27.44007382697964
143.01969380156174,139.61687403695544,22.42893620542837
171.22454093912486,152.67809788779164,14.068916560833836
186.63061379999593,163.8034374398778,4.43423451666173
188.29737709542465,172.4769633546048,4.536713274703664
177.8071568431947,177.32264323407284,11.707134348974014
158.9280115949484,176.30964592380846,16.71962110340927
136.13563314767526,167.27689043099912,19.685731736034718
112.64289318589415,148.60313254334108,21.09514384801443
89.01202062651014,119.76395839962574,21.708510799302747
63.17098651956486,81.54963953537394,22.161853282067835
31.905695413778535,35.907561617449424,23.00833310526271
6.8999221950604035,14.449879466628357,24.58885785529355
52.42408886666324,66.44462274507141,26.501717246783038
100.37312323710795,116.82352770765831,27.632267219208824
143.91845366428205,162.1542146057852,26.51751796775076
175.5844333433593,198.85804709838854,21.861270872959683
189.26346062975549,223.54425000591303,13.231953878269595
181.6899895579525,233.76812867917195,1.604744241018942
153.11281393803986,228.97701226529827,11.007669415242656
107.24146666205658,211.12245605187005,22.51302537530842
50.690755497066135,184.44508841043822,30.861214867749947
7.919439892520136,154.28872862876048,34.37556626004547
59.16675775164561,125.32512899095586,32.62825066910551
94.34654747981219,99.96074125661752,26.353384582957528
107.19169391174933,77.71840908600514,17.185038314197985
95.4189335307892,55.92012713498975,7.344509209962412
61.69855037432411,31.29260565397316,1.263798198515068
13.677593587940157,1.6178522558747777,7.5140692063434225
37.19451467366511,33.413751380749694,11.02513667168384
77.98402879348883,72.43804624507669,12.047791715225504
97.35111281323141,113.37495375852872,11.303901492806899
88.60360430336078,154.3202579167639,9.816333235806619
51.778202731936446,193.68175433808847,8.459629422236622
6.013835413303963,229.51353495123132,7.568158807396597
72.2995579557537,258.6653541009256,7.2117599237925365
132.56250365780966,276.60043883070654,7.51803440260847
174.06876178071118,278.3840226357799,8.232858551590924
188.8880530706338,260.5581828635353,8.532612884708364
175.12595508062822,222.9384307298588,7.581929721693851
136.2640520317433,169.28022930877728,4.651682611200453
79.30303154432137,106.34584356116841,0.6872685780692305
12.758333193688646,41.799324225946734,7.91520025624529
54.70708876252769,17.987390972078128,15.685581256731897
114.93564034101759,69.13384861241742,22.106720262714006
160.6300472642831,110.04304017367325,24.914262649290663
185.96299974791796,140.25790488069174,22.568294235100574
187.66719348414614,159.37857669196322,15.206487947057234
166.15149525843879,166.85295593784315,4.436243424900559
125.82613124557523,162.70259499665363,7.3175404767949574
74.13450409719768,148.54020108144258,17.473819642692998
19.522832326114877,127.99411747362802,23.94154813664389
30.800390622031998,106.01550002389442,25.546821961464246
72.2705211035673,87.3521897203814,22.068030607170385
102.94968197784911,75.05617745554147,14.045409814443714
122.38237975602466,69.84991918043143,2.482131943823571
130.25259679378593,70.63125026058147,11.444529494743033
125.82805196246555,75.63542730263005,26.43000664616159
108.56943525664708,83.36858944459988,40.95091823818444
79.40375577104359,92.69551572476853,53.1805019702411
41.705030653218785,102.1489752879401,61.20222952972928
1.1873429973750873,109.16411760614713,63.23331424510707
35.41351688827308,110.05408684180874,57.799390461464725
62.234215699614374,101.03075586210667,44.91327015319765
75.84318513256041,79.82737465067234,26.62187774272083
75.83488741753018,46.99260763911712,5.563096711194616
64.37077722960592,6.03777346578798,15.954878983018231
45.136222612142475,37.6955384353002,35.944825704978534
22.35960931006962,78.80593191362118,52.75244244588538
0.20880393229222186,113.27315823738526,64.82617903727744
17.513071586452078,138.88978990706158,70.83691238858344
27.660798776485787,154.7051994249753,70.07878515669549
28.244076903346073,160.15389932562414,62.821376132235976
19.001455327733012,154.65414258809096,50.40431582333692
1.6978850475742664,138.0204106056456,34.93686013229462
20.141788621783004,111.39892580843554,19.184659985847798
42.26017116842568,77.99707849723593,5.730480438705661
60.59097929338556,42.62775997103226,3.535913990103911
71.9501152469771,10.35352337136662,7.297545743648125
74.77898240439416,14.893051051529621,5.229615799336663
69.32946874366608,31.334119393660607,1.6459450390867534
57.32847110600339,39.51320318673544,11.046469494431213
41.37601505012988,41.55636287939367,20.60320828187669
24.332011551438907,39.96539971283195,28.615278378587195
5.408365353895258,39.0836567822276,11.618234707033777
9.606009503615544,62.50047224871472,0.7926709858406535
13.866265522185984,84.55462845843356,12.925329410378032
17.883624620072858,99.54942005618915,27.664603621870505
21.822644492290063,101.94173363150725,41.269418098007456
25.958473102852146,87.77867212385097,51.6218730508149
29.94166253835903,55.808684006696026,56.95856177669034
32.10374280846014,7.85531080676262,56.099076150542885
29.303814514690444,51.42091114406817,48.74286698151221
17.680358801122665,115.3079749479332,35.53478705753196
5.791689672674382,176.00717306749667,17.99056637918559
41.466953748437405,225.3837554871097,1.4190770911907635
85.7195314404552,255.6836326969418,19.426991098434595
130.86941455082956,261.1320889481865,33.36000311322589
166.83317558197007,239.69137548211054,42.40368069823272
184.12053647879216,193.37710193843628,46.61900374561969
176.56003492339985,128.09094685900428,46.33201129859784
142.62306949367513,53.06198633375314,42.670055100963914
85.2305399086435,20.997054181618175,37.0145619193407
10.386271331598065,84.08547292798802,30.725530597883598
74.30804786047166,129.08837277068938,25.085210454222846
160.4678625627688,153.30639262808916,20.726594798805824
239.0878610975719,158.5518899130667,17.800877223994792
300.5930311868454,150.2254220840456,16.15277048615065
335.65336721790186,135.5992552460635,15.092810983626904
337.0438413262412,121.94431928367275,13.558175310504552
301.9710655526002,115.0908867427524,10.644210031182782
233.6970766926166,118.4461438679343,5.938736448420774
141.3142960377536,132.5352672905249,0.48179007156097703
37.45664000407001,154.88502103525323,7.880199595978667
65.21634070535639,180.2802451986302,15.03676502922254
157.13776206531892,201.5420448328283,20.936336890872393
233.07449753845748,210.85415414677934,25.03716825098346
291.17843893670914,201.56334166843175,27.2298453651387
330.7363807642266,169.9737567662013,27.61703171910787
350.2327560770343,116.55503837896822,26.139209893112206
347.047686857854,46.1114499142417,22.823772649895137
318.95700105078123,33.207083588208185,18.361814462003558
266.4377602702454,111.67368504179441,13.951863387042216
194.18951548705158,179.96193976222656,10.632785117042413
110.76009577087052,230.75254144288968,8.829186304955352
26.333006675155797,259.61636015529655,8.52865645790006
50.204961470886865,265.2185186534512,9.568246813541164
113.38931711543482,249.08245629249302,11.167018074190525
161.57572258109658,215.12778377241227,12.107250848587766
195.7752285206129,169.05727509604498,11.801821129378068
217.91346556542715,117.55890894711743,10.200986507700984
229.62561564459986,67.28613096094594,7.365619489059218
232.07301265233716,23.741752243032174,3.608391483044409
226.46669220586463,9.603230392806866,0.8576014517047252
214.52468571985696,31.64900337750098,5.98832164355671
198.25158558437877,43.31749467230816,11.294498125669346
179.09208286349747,46.64980647866797,15.942286120033495
157.08396525916444,43.786440979860096,19.186091640473776
130.73613007402355,36.27725670934596,20.402969124306413
97.8988471672649,24.97977859259608,19.573234638781955
57.21426576763147,10.479542638082103,17.464425619406214
9.38566518684312,6.337125637408684,14.904990118527152
42.399675627598874,23.937308316189274,12.431061697329582
93.08518772171827,40.22428373179165,9.96139467181681
137.0157079352047,53.00373697254231,6.659802202977893
169.26223157574123,60.54969103273678,1.792735234711131
186.534990256983,61.95860974422548,4.795147029379276
187.55008859969496,57.17406991819475,12.431535415939857
173.02896335111456,46.7653725962039,19.261243418889563
145.52706654521216,31.64421182557585,22.937469621701545
109.14220421595577,12.891807357631155,21.640040745027182
69.03914023043122,8.263793969636792,14.989268142953446
30.747958954086233,30.416061623866504,4.548412605073772
0.6264924883087425,52.01025001611911,7.220932884435513
21.05794249771157,71.48457112755622,18.33502124712539
27.95804514997044,87.46953536115305,27.444114526372264
20.27345408840689,98.94123252159919,33.47232778905319
1.4580867117451237,105.27736766646323,35.5321118766849
34.89902213812482,106.24098998738565,32.98482593072635
75.58231629264733,101.98117443956578,25.784036347401518
116.80506956357934,93.13829597942865,14.733668857526705
150.18332699347442,81.01980444160876,1.0688252320243348
167.05389196083345,67.68727627784479,13.574757694933124
160.48526263976564,55.784236265920384,26.83770905920433
127.21677925644505,48.02817556014854,36.2420273217329
68.77678800768871,46.456216549462596,39.96072995981961
8.610342523156286,51.69975056059742,37.36028528272518
95.21150412343204,62.567835349448124,29.574853787287697
179.5196491542541,76.07312718202623,19.043699880416387
249.9861170526727,87.89878483336497,8.201723906370582
296.48727851531356,93.13996276727052,1.3306168542032388
311.5469538426086,87.11839125201232,8.74167024851259
291.50310282113355,66.17762095581169,13.574363994833652
237.5781293263251,28.434314905280626,15.497470243173282
156.41657567838772,25.527922805064854,14.480217214966185
59.543815322803944,92.14193566413724,10.925750863213885
38.51836185485423,164.77899018407751,5.602190431980345
123.14488904792321,234.3756444085961,0.567383398791055
182.64153164536842,290.8525648236644,6.607655793880207
210.38778747441773,325.0834035765194,11.483736607721607
205.41303726248506,330.8821346229286,14.198569349123344
171.51123699041435,306.38934337411206,13.963720653772667
115.63879401885738,254.4111991987257,10.463241019846286
46.4746203677289,181.65187609288387,4.002683712006341
26.3815220309129,97.1861606616855,4.457563213494446
92.76192657587744,10.740601735543983,13.42265747042821
142.4571533792666,68.75702793563875,21.510825726042036
166.48870244256113,134.19115323581786,27.791650274052078
159.10226988239424,180.86394361634228,31.446124841621632
119.74159733928305,206.81987985421068,31.912873377303175
54.05217136353226,212.96736304195275,29.308242574392832
26.7536133393798,202.88538468192678,24.26318755998068
108.14442843843524,182.14274743781635,17.49389575806834
175.32460435204788,157.12554832906216,9.537557513200055
216.0591856798063,133.61240684800094,0.8417675886197121
222.5447019051164,115.52079916836831,8.020146125289811
192.15824014161177,104.25950495418249,16.230720498356504
127.4517130576507,98.86964811883463,22.700371021340068
35.87406309953766,96.7789977062825,26.387647233307007
70.64195003818394,94.79399287542766,26.82866761102336
176.53932469955149,89.95926909354587,24.391132206768166
264.4134477641022,80.07723148746109,19.909575323361356
317.89589249430327,63.90705270889402,14.337313300269058
325.2131691957636,41.20630722817359,8.769049601996485
282.33944054081996,12.748738677412108,3.813046359124056
194.50202356557566,19.70976328343084,0.6286527814637269
75.31759267920026,53.63140250129035,4.311515575893421
56.268644459625826,86.09508006315184,6.439659055867356
180.2026908973194,114.30798023277528,6.513222636133532
279.28428502068556,136.0724990883487,4.619926744718343
341.75661553933935,150.0310915281443,1.038658361056725
362.1671393948811,155.62545688644317,3.807026134026509
340.92315403651605,152.9244876660457,8.991939992026952
283.2630928796402,142.52012643395145,13.518592984269315
198.1861947506558,125.55988554581805,16.9593668640843
97.46939266633831,103.8601218466258,19.34909898894344
5.544201039615095,79.89638043055912,21.021491141389177
97.71773657740967,56.49246410580823,22.413597797972432
168.31706162818665,36.26033901851043,23.25806772069747
211.00169157783014,21.00490721597753,21.98802355931421
224.81797208453594,11.366708016313407,16.94315274618079
213.6903309550093,6.868552831739503,7.934954814827939
184.55401054633433,6.291816886348768,4.084914371292051
144.98343938085821,8.145799587621305,17.603789906314386
101.39298123353439,10.986120944150954,30.68617535290859
58.395430117670614,13.484818631855346,41.50710885955827
19.412089704583614,14.617474127989029,49.07793066859521
12.82977869119598,13.693252601703437,52.9865394997779
36.366017342081136,10.265528654120398,52.81159762446318
50.096825714471585,4.3564833279699515,48.55712809378599
54.15185470912248,3.3471009446207605,40.83233176245436
50.158306313398455,11.524233160740124,30.5011066135287
41.049948104560606,18.553347833956714,18.7649688204405
30.316597507472746,23.033961797411056,7.258921678015669
9.226271846943446,13.754800585682739,4.173864272911185
5.593048196749384,12.503333520970864,5.198403789174917
0.29776095615597653,7.781693592979816,5.439844990220231
7.688486369056416,1.6396117919540096,4.895924580421553
15.820607925042562,16.47627542688926,3.6059907845409986
23.996312915845074,36.32146999424006,1.5747478708690574
31.31870333569099,59.15398781685504,1.1114306865280037
36.34486020955439,81.22711592787388,4.2246749088555875
36.933279825278774,97.61382666538164,7.439655233040766
30.61794135745866,103.33353027173187,10.382056829523409
15.510349122575645,94.7553749952765,12.658525817702378
8.59226151997684,70.85221302767472,13.65000605285411
39.258700662397985,33.7859357479292,12.45835584667291
70.95418092256632,11.669745260484275,8.744550059593006
95.91986153464418,59.509092943287996,3.1806018183646434
106.79128566899185,103.76678407255508,3.306804992287337
99.43597266385406,139.5825505317399,9.71028062347146
74.60759008563467,163.90891513760567,14.736326505000047
37.90486744974196,175.55914037435716,17.42706626352495
2.212086144050291,174.9484070114488,17.48565216433155
37.40033511424362,163.6861171784389,15.046623598918943
62.098378688533366,144.1092831536517,10.48106373649218
74.94918166133687,118.85668919376118,4.293181658603245
78.42868746439528,90.34977528954,2.714244395286823
77.12605670641992,60.32277012281837,9.463024748044015
75.62163029874935,29.554705043876965,14.943524943160627
76.94546254248812,2.0636408234092443,18.410721557913398
82.13706744626518,35.021876671807995,19.419149923155693
90.58284158200777,69.47414877664255,17.76052926893719
100.51921581151161,104.6631949191843,13.445077165679562
109.15251138220897,138.78668200931347,6.9540812852026
112.38594194065325,169.37091027026875,0.6208876391525202
104.8040335477705,193.89391310143597,8.062814620726597
80.6426416429629,210.306066080069,14.40578784177734
35.98843673306217,217.2068713796687,18.68879570624226
28.48270080740255,213.70711136765837,20.152489175600188
105.6476667627575,199.26103104154794,18.888534791786686
182.3158090028913,173.7616568643319,15.68311193695701
242.27734191941383,137.9281990532553,11.251349553233256
271.0991149437926,93.72091985088463,6.127385746268716
260.8331719846547,44.41581869222085,1.1033157419841417
212.71890975364414,5.877095529571616,3.1563503200658722
136.78760427256972,53.08418518959911,6.735544057788699
48.701081866130444,93.95179882130765,9.915113071290044
34.71579945890438,126.32212227625324,12.53675047242636
99.47860816836588,148.83603167437911,14.12474334916061
136.79814811351153,160.42598741858177,14.153110944634154
143.6325597897361,160.14151655094918,12.233044432033012
122.0245438550797,147.64759475486602,8.405487784086297
78.02719193990475,124.2265497859556,3.5341070723501717
20.652948322055035,93.57883771122549,0.9815799248012609
39.277658473017375,61.66687369439125,3.8370188264703797
90.68373278043894,35.332726161799776,4.258603625940884
124.2072243422385,20.12653497565096,3.004661112822789
134.18631903984917,18.33608117013486,2.306089285174361
119.88960576924165,28.198425372874137,3.800843680774941
85.42990502598737,44.68965238561694,7.596546885386078
38.33019172762868,61.465179150720374,13.042588963146088
12.6692373031271,72.97566696089544,18.855177411461447
59.746741004242054,75.82865055853766,23.186798159333083
97.36514860712141,68.9807970746911,24.614168918640303
122.59343366002105,53.04981796024756,22.668334690849722
134.6700062333974,29.464060814456484,17.53404702734437
134.30037770694562,0.06674091600492019,9.611568446750361
123.09170054828404,32.70712986822012,0.69400543380849
103.27725480796539,65.49848047652817,12.902104779479131
77.63215429725389,94.0747427154991,26.54347332202117
49.40618261308734,114.03855069019674,41.00696812264352
22.14472421645302,122.01970864434486,54.860121973869845
0.6337046628383679,116.74976316630678,65.56420680108732
15.853368406523566,99.44749237751603,69.91894397844759
21.323565382036346,73.33405981364643,65.37591001417583
16.134511608680146,42.52585798792189,51.73170638698306
0.9236742780342287,10.879402013965104,31.328080889637107
22.059999548275766,18.692167222232218,7.540906819724986
49.16264404907446,44.26745927578887,16.631596760555496
75.83094485476107,64.51987123716312,38.899773296876816
97.32892883028406,78.2585477787681,57.54797694978867
109.51379335895919,84.21302983846402,71.29828147302307
109.53072739073468,81.15623142426001,79.0556536484287
96.31861759596515,68.28746206370062,79.93272337640305
70.8651117791683,45.690753011718805,73.56900776415662
36.122363883566955,14.673015608090477,60.48215680379014
3.546574379885786,22.118504668358533,42.3193369569533
43.39484705917465,60.84020345544711,21.855698228765824
79.57420098838404,96.91872548011888,2.619668231321086
110.26313941814887,125.82997439280322,12.31142121190991
136.12843788360323,144.05756611482266,21.419188146858627
159.7372042287536,149.96571045769034,25.01687309702606
183.96305622391674,144.20880147014927,25.09236810890879
209.98666910525597,129.4139989089283,24.12641789474735
235.83340673265997,109.17997120258265,23.941555588592454
256.2332947389775,86.74839878616132,25.594096023775844
263.9968479607849,63.88594519625148,29.285212889967163
252.40203047255991,40.456511816552386,34.59286394422496
217.6205408367294,14.862127668596104,40.641896668229656
160.18833960245288,14.882291527864078,45.83530089540678
84.99068892817992,49.950926370578124,48.411951077858554
0.05610491933366374,89.8918423830754,46.977680443244786
85.92223019521747,132.451911897449,40.390905110045864
164.1943457887779,173.9892079574858,28.193593596858328
228.18520378832963,210.21903759124393,11.184091195005918
273.4730604840206,236.98212943945137,8.621043431715417
298.1516762327099,250.8609612548003,28.340786615198223
302.95782427522175,249.65669957136552,44.840910234764294
291.16595539790603,232.78524847454264,55.71951307307726
267.98120210731923,201.58864665634906,59.9793453202604
239.22735688016076,159.40366425920737,57.895180811131496
209.5191474689469,111.1615104332144,50.70275099483105
180.63416947412202,62.426391960346145,40.2211303125897
150.92097923478786,18.03139231357944,28.386053745196484
116.19995361535047,19.248696396930264,17.029093072066445
71.92617080044835,49.45728758868081,7.554699182550276
15.735280932141253,75.2650232171008,0.6334880319573074
50.72697814473079,100.80087329753493,3.7957032125560337
121.51482644616723,129.9225191292584,6.548262387537041
187.79105572297576,164.56350921309212,8.819978536211186
240.35145331893006,203.75676436162257,11.36282826918328
272.2509938257622,243.65312916728539,14.317575120022923
280.59170173186845,278.4598819980888,17.565820337825592
267.00152608280604,301.9412312565344,20.702351894948908
236.87121996209987,308.9642093888792,22.99734267031755
197.79038609837005,296.64521637035773,23.907545875809475
157.69094374607374,264.8922204772287,23.513443661396757
123.13084655365391,216.34767012200567,22.193298181200543
98.06140761021734,155.84958173317398,20.228598591280676
83.20151954303785,89.53542773500935,17.757857120933245
76.07383537074261,23.765554280693745,14.449046093014054
71.72954856295395,35.92335234875647,9.57344414348215
63.9885225260542,85.64600833327414,3.171898472082086
46.92482668923932,123.57910429205702,3.4915562328563166
16.264848067581916,149.86053531881737,9.030055629918447
29.56995823013787,166.05355694780567,12.591636421389932
88.91403496393204,174.40817350671162,13.675155606361272
156.88608367509707,177.20870103010589,12.193608770082356
225.94557897098233,176.3799754978418,8.422823773558628
286.95860275311327,173.3754303407117,2.7827283733592356
330.7109342943399,169.20836335289735,4.136836332608027
349.61048697574864,164.45547578764902,11.50503231462903
339.26253532492257,159.18182829018198,18.31599181055316
299.47690928392217,152.84996407663692,23.5690827191157
234.36347445647678,144.36752832242166,26.457415077696204
151.7413499583648,132.76000338047044,26.363011378834443
61.24745280161614,117.61724058290108,22.883532103741953
27.725670647916363,99.10407116483755,16.057769953483298
107.00295680366337,78.14848077292659,6.552175661576145
170.2491659781939,56.362326822536765,4.077114484239599
213.27251279227661,35.692778489602475,13.571263428590761
234.1627798270339,17.919991373390747,20.205422153711567
233.36793247636203,4.221312837649714,23.586214761342355
17.80536579836033,3.355888474165681,7.107775528139863
6.245646694590214,10.072951565344779,18.30302201378599
13.74193647812282,18.08898979593077,29.34341087659222
40.8030460579263,25.611339855629332,37.69573325407222
71.02166703170002,30.153761965904522,41.41639710378282
98.34257988128833,29.21926220975213,39.189250001485
115.8131631263891,21.223530416850245,30.315064239495666
117.2862143320776,6.2386654579663485,15.248074581157907
99.07605446192888,13.800503550186908,4.19515108815764
61.04232881449074,35.63764319555595,25.43514649900762
6.858260528881415,55.76168270874415,45.402212414162896
56.47354027475743,71.42265411307713,61.02434089400799
119.67556037846505,81.10066935454951,69.92335039763054
172.9131636408986,84.44648144197701,70.48239241689622
207.9424524956557,81.76152504516209,62.3072620365432
219.7029217453258,73.09473736933559,47.07015772526711
206.99892210796602,57.769106533803814,28.131365942833124
172.39394294824447,34.80563330885558,8.872890233960057
121.28982210832685,3.8427243436640843,8.002937429547666
60.585333069297455,33.90451993181261,20.172686680916744
2.691382767686689,75.26559004585155,26.53739315268879
62.45501181936993,115.62464324000906,27.703429166497674
114.04109527561626,149.9928830294236,25.11003192988824
154.2096389946835,174.09791829248704,20.413117691892406
180.9265372119639,184.929916967365,15.29120285408953
193.15760128481807,180.7065631152139,11.454941842260345
190.737269949013,160.6626788801079,10.186615155553401
174.23587321925305,125.11052930621719,11.874801320142938
144.82193334082098,76.02524166314795,16.121966260390433
104.13404565612468,17.80019271377318,21.540773055499372
54.358706784446696,42.56591686080121,26.305507062690985
1.295990744803663,96.42597352302866,29.129672524511435
57.890444209330724,135.59529488930391,29.2704618140166
108.31091658617945,154.84743332819204,26.589563539526903
143.8012328782479,153.65326761728272,21.74262544850021
155.8550398048988,136.28845213439564,15.927717365144414
139.0704648703543,110.16235410123225,10.318253636766007
93.88651439237958,83.14147942555981,5.667527523843016
27.89227017445234,61.11661956539529,2.4619347684257407
45.18668761542294,46.767326337828955,0.8737954935072534
108.767737131867,39.77906231383938,0.5445737828202466
147.8930379575829,38.01390743627416,0.690513472233531
153.2802537540387,38.73612019195704,0.3470498212602376
123.52290649904405,39.27075991361569,1.2257845245833399
64.98501382182204,37.10997764087294,4.414684857336921
10.098923508763999,29.95766007989343,9.4305734605613
86.43850015839462,16.19253323772001,16.154550393845447
148.67268652780936,4.208964174227716,23.835445935174885
184.10466290040327,28.80786533942034,31.069953145612082
185.02408355408207,52.670487583843546,36.06241389740791
150.46967729622125,69.58659831470113,37.091824485729816
86.99479010791681,74.24129162649275,33.3954675896871
7.853602369165228,64.4059212272218,25.739190728910952
69.65956249065687,42.05961045441354,15.597554105832828
128.2946291431177,12.866714257565874,4.338188613103211
155.1349406752125,15.744749625441772,6.6367555597721735
144.70729032261883,36.97668966152335,16.096285528661486
99.99434577477533,46.45085629365076,23.155457962397737
31.160637309790967,42.80179116804683,27.080720034625642
47.35795508600435,27.184945956427057,27.650969653274064
120.36709771616236,2.3334047103741336,25.275536600263347
175.02671522819412,28.17025008762471,20.601357278211484
202.90401323776547,60.157151866390926,14.324229438107645
200.86592701191333,88.89532436668293,7.070031167127555
170.94062761280256,109.35302331016908,0.7003456409497518
119.30618429994303,117.02097070921721,8.771202394080511
54.61405927234778,109.14753435840153,17.051968218853506
14.01318008463236,85.8565369630348,25.302523489823326
78.78905541646921,50.53792200987116,33.01172380707686
134.3810460389481,9.20496602766023,39.26072022287607
178.0770488627437,30.9912568047607,42.73411104392611
209.1168443898475,63.52620741338279,42.23858603561925
227.64561152025558,83.91413993069612,37.340980046381844
233.8711407087818,90.3814904920217,28.436970844016713
227.8070271825282,83.76943281747981,16.710287765340347
209.51317840425764,66.91755940908777,4.034038867192181
179.48611054525955,43.85516183484769,7.876826400843647
138.8934003348443,19.010773085163283,17.887400146287256
89.5434566035818,3.4735119095351084,25.264152813653677
33.77763417126932,20.327247611787055,29.986703976124115
25.48300491033344,29.620153116580983,32.59751611944132
84.52342723480868,31.00725958068059,33.578479415142425
138.6983459885412,25.66794304289196,33.373169470106674
182.74169116655443,15.929439987768921,32.54717750075228
211.67624495193058,4.655055128187245,31.67477459457813
222.08639936847865,5.417932830240251,31.168565830177798
213.20895408309246,12.19217732878535,30.996636864232595
187.2849188797315,14.464006191937667,30.307301379854398
148.9626689451444,11.926391147388337,27.361578550452542
104.03635230110456,5.007475540513369,20.569120932148564
58.13396335215055,5.340537700285907,10.082086598877646
15.901681786598738,17.81483318787228,2.349138676220304
19.13935881005791,30.88713534394546,15.152617859212528
44.332575171492756,42.894684169714054,27.293895211918404
57.7098991863299,52.12572607333377,37.15685133644999
58.225326002482525,56.937233501127544,42.565236489992024
46.36585680952411,55.885924703942074,41.988256964801906
24.745602457349833,47.860778222092335,35.567567737833784
1.8265172020178835,32.23883062829588,25.06537705651361
27.093138908756895,9.066335586333508,12.823529787480707
44.80277799404453,20.718329536532007,0.9265301334907509
50.39385592658291,55.03923522787921,9.162082462277409
42.31062704420731,90.52496694550513,16.564945828749003
22.472016373692757,122.58973474721829,20.75510242757042
4.2952920118193765,145.89132286927224,21.492530887032448
31.65510326144097,155.22783185783445,18.81174717019433
53.536875487455724,146.77988738776466,13.206951875353935
65.7399487097838,119.35673354217194,5.790681373318554
66.88756185350185,75.1875980528829,2.064676206900696
58.51406575406,19.924509674888565,9.42907791780504
44.362597155189576,38.27791224663333,15.953355999686634
29.213939604399147,90.42030506551711,21.06788568567504
17.64911383487707,128.54690792334222,23.73205083516469
13.056635272910384,147.3041472752034,23.464439325829765
17.040706885075554,144.7990695019386,20.882618447651936
29.19914267674878,122.69382782968808,16.841708723451685
47.142940889084976,85.72158108969575,11.71622417317597
66.718112986506,40.87696581755313,5.799065192680939
82.53394142019766,3.566586944002297,0.3830218258029532
88.90452268686516,39.2303354712451,6.3248568101985585
81.19035935523743,59.05266502369377,11.49132823011966
57.30689255470313,58.833747558728675,15.427805136518513
18.869138648108535,38.491680351060374,18.0149988934162
28.589455881543856,2.4975617647118145,19.26163332420208
76.5902509853653,40.89796193797097,19.28088361401995
115.73407671091934,81.647086814321,18.38520225603476
138.1505614936731,110.50307271778753,17.20656963333669
139.5116469804547,121.2856868201875,16.72147719792799
119.92292272331682,112.04644114323918,17.79969143120848
83.42617302448176,84.83495486581955,20.77277367179855
36.44609251039497,44.370841210976714,25.265513844140372
14.09344330960254,3.618172796389296,30.28539984209009
62.25040487540327,53.65656866198639,34.41823483604877
103.6772870729713,101.06326265425861,36.10127068793903
135.37787031208597,141.96619363209592,34.04260349927446
155.05721018239532,173.23158198864212,27.550463736592754
160.6583363673975,192.64964310250556,16.772339808223254
150.42552517040417,199.3693523405225,2.614239119875919
123.47063882691194,194.20219378135312,13.451309227471347
80.57923952387078,179.36640200846244,29.437781923789082
24.82129297281859,157.54738725364197,43.477353298642214
38.39707714664876,130.63983405114422,54.50462950863053
102.71618944950826,100.41620327812815,61.80094924109999
162.54481744882463,68.74552988229178,64.60622661834384
213.54772800154493,36.78810075830563,62.47450320541849
252.5199406795707,5.617892114515247,55.68683715257169
277.13177064883865,23.239568840524427,45.45772995807409
285.82378409388787,47.723036891471956,33.61001412482416
278.0249981021054,65.68220596521637,21.964059230739007
254.61463749816014,75.60338845726824,11.94927568148511
8.256275899310063,50.032991555796414,2.5693482139126806
8.61613320481975,40.69263373087044,3.6334964462420434
31.486041699196097,22.599802540861198,10.93541136676954
55.70419063492171,2.4240353560848735,18.749664053591513
75.419605760158,31.495081972738664,26.089337508422346
85.23435656538801,61.35327834958378,31.22742548929486
81.68414062207799,88.92112742461823,32.267964450758924
64.01733997303113,111.57262540123365,28.13418788816151
34.02137656065969,127.14807732091171,18.69410733290094
4.724836840464914,133.87748906194713,4.797261434848229
47.787840837408226,130.37361624868436,11.607900081144946
90.61749406385621,115.90757658005556,28.068063770409434
128.69744717313029,91.06042268929711,41.88665233916031
157.04934103889244,58.13354394882451,50.56843331854104
170.52377213245433,20.51339247569622,52.49109012893729
165.60088165919007,18.43864790587341,46.613618673682915
141.7354535021312,56.02666268910775,33.0443064869209
101.63470886927226,90.3560001940644,14.151525332813309
50.88367115034621,119.98121395052662,6.335893484810558
3.5060178953729153,143.33077810819967,24.94898174772084
54.81787752222626,158.43972687175534,38.91678391794463
97.91649211560281,163.14913850995438,46.02072839498772
129.87599597859153,155.8084072282435,44.97089022976543
149.67276655964298,136.18797812579726,36.31180424885892
157.46152460432165,106.09000006687369,22.598694904101592
153.8553004718247,69.35822720937965,7.167318683623823
139.59510555457538,31.15867535365021,7.159980629584556
115.75902747013915,3.2556976820706867,18.390282785971397
84.13425581427227,29.85517516159724,25.528583255737217
47.53902133849414,46.77588983591196,28.533307163783178
9.846879731953923,54.55769252285682,27.873184382039117
24.351308279694653,55.639858554850605,24.472946151181088
50.31673795347495,53.31200304489766,19.53050553504254
63.9388394017087,50.49194813234575,14.345078537623719
62.6370178043944,48.747158497065094,10.400931779607477
46.283221634255156,47.84793826307509,8.810982544089883
17.903433507779194,45.9902290366035,9.648758631599295
16.23764547799532,40.57111490383647,11.813812390720624
47.506543721419185,29.255018515724576,13.4791411126374
66.79219333771236,11.03639180128508,12.88729494553895
66.98081092341525,13.04995035349872,8.795803176692626
45.17257152883316,39.76207559216166,0.9630486445549122
3.7688032856478104,64.06461798950511,9.425175902392585
50.04163778047485,80.0834651815618,20.515537625868724
106.19421845768288,82.38662239624038,30.78207110383902
154.32755960760568,67.32394576160371,39.06913098447006
186.09266656908434,34.141730204093584,44.61149863497846
196.47302139678635,14.432084519590209,47.18330814701368
184.03037568541134,72.32079395784312,46.884466876226895
150.47650733314342,131.01918731159768,44.06563943071715
100.05277160533942,181.16720596028867,39.27927225108644
39.003187807759986,214.41238607110452,33.071503241783844
24.97876025399599,225.09738051641474,25.99867240175342
83.65755208443531,211.31473083494794,18.5943503891638
129.6594846349975,175.07012578585972,11.27517298556862
158.11990443584358,121.57233063848707,4.324565620537043
167.93900856857957,57.93039935437361,2.3072050072966195
161.9283017035276,8.295409368339385,8.829597267014538
145.52972027207193,70.3174757423463,15.253486504427892
124.5362772002224,122.88549146230673,21.669981716979088
102.81198646241579,162.5687822901917,28.163679715592128
81.05665327238101,187.71433501512715,34.28793426624446
57.17664844685207,198.21420906967592,39.413045385477155
28.029668503383284,195.19290903228264,43.20833064638956
8.344361247306018,180.65335784074296,45.48904744722828
51.120240901211446,157.071260352629,46.07056856088815
96.42190306002657,127.00346424343962,44.77755307732116
138.3431025385837,92.79723168453432,41.46134975197228
170.63625240123372,56.49883048538434,36.01290436905024
188.2555851638196,19.99429537372117,28.37796698257
188.22254074222045,14.738570375741173,18.67313191282064
169.794313113922,45.46608074076702,7.488079502371481
134.26215458958842,69.80011630978045,3.9543259847051324
84.71517074730974,85.59502367617831,14.122863761283561
25.85283575356415,91.50498562969953,21.765164478381053
36.28520643646977,87.47905452879739,26.524715595715623
94.93846816664556,74.9509766220005,28.71269900499078
143.67859170708107,56.62329844297593,28.383780753495685
177.56955795103084,35.94945007805445,25.49326973476876
194.0099154243488,16.508742442789895,20.319773854770645
192.9367148857654,1.4715722796488304,13.301811603532638
176.34327767094013,6.747025620134162,5.504940325792647
147.40600368517795,6.69012962131566,1.2134748366242065
109.64101420981036,1.9848276948333037,5.2987339102963995
66.43042083420927,18.351365218100785,6.457892034404768
20.934808473984365,40.10777923969985,5.3941858537859275
23.825658066647623,63.63621843845228,2.950301391069148
64.90463873598016,84.35547403239032,0.17238499323181186
99.47882783509452,97.3893367528821,3.1530356510328144
124.98667961536235,98.44757389753609,5.1117262611452485
139.27561383576534,84.75776431372137,5.771022425739096
140.75509619606035,55.83278101210566,5.522846965126891
128.6565503414944,13.887665739739772,4.578122251672716
103.47242799146026,36.198631848039454,2.5719262257727746
67.45111652891246,87.45160162626546,1.2103783795937466
24.87748992808243,131.8889273215852,6.789555803761337
18.20621327599916,161.95499697696022,12.415175692123606
55.02001207227478,172.0263555730065,15.426706555594219
79.52658475938883,159.63392477579526,13.376723536948777
87.81616382765712,126.04182435514038,4.523602118383964
78.90733725855749,76.03067838186283,10.626471294290427
54.75299892885096,16.974213538167497,28.743824050936777
19.609554070305297,42.50357452333943,45.64575414694154
20.82392040862006,93.88508965732579,58.157722550891535
60.13470700245144,129.86906173907303,64.34722246117508
91.76086697532864,145.19001142208552,63.105090471658634
109.65942980803709,137.2452011220075,54.00853753361911
109.32459163121717,106.65648636300406,37.61296519194803
89.07335802755526,57.67449401061239,15.520620327985682
51.1227738977222,1.9171723169100705,10.072767160985594
1.7898359916176159,61.7598391860007,36.62792279112501
49.64005780617353,110.84568495595293,61.12772008386414
93.2026889155612,140.0391281101124,80.12840639441593
120.90748676209044,144.3882133221483,90.35085508166014
128.73019768902893,124.33282721757618,89.89663405503634
117.17854000617751,85.28839637623997,79.15960885484395
90.33473102469397,35.760356381793535,60.362584898479724
54.02721628221507,15.207449617281357,36.73346980037842
14.111821693149448,60.191447167994156,12.069269391770131
24.445177294615252,94.4031306965606,10.364646766545762
57.600635777860006,115.46444240960066,28.778922353220484
81.84917132979567,122.50390511298879,42.26636591768831
94.07347915816923,115.39917602944493,50.144414636899405
92.03010758000133,94.69837400133974,52.068298352018736
75.31983298482596,62.18566221434772,48.1054042495218
46.19992332131688,21.508081380365173,38.89807369600631
9.591429731592067,21.85906536084396,25.833595345536615
27.967734973161125,61.60939225809651,10.710051175092069
60.144356966283794,92.25734312107643,4.7694982648000686
82.64046176210599,110.63308630622384,18.83212165660567
94.21645659976686,116.4133358279276,29.420719782860235
96.52427370965923,111.45827070963311,35.04003328072426
92.94725568298766,98.36603638363621,35.264552599097875
87.06085791382718,79.10580679218084,30.387421393204924
81.35290339719607,54.55593771041771,21.33696998054588
76.60638852786337,25.150679559672362,9.591390225166679
72.01785546614347,7.8870088637694185,3.0656193193029795
65.75726351144515,41.63046756970892,15.02463397336425
55.61544715442955,71.59774631965465,25.208036906496268
39.59771928615437,93.0765803607672,32.68607556562089
16.448984207501194,102.98377983861609,36.79135294876294
13.888359958993204,101.25984501637811,37.70520029599428
50.2778024422801,90.40327054398169,36.12804719950878
90.7250364922543,74.21722570723283,32.74287237945683
132.2985282448316,56.73832507114394,28.126140239643796
170.95742295594755,40.988266058575384,22.69314106453511
201.93514331526214,28.376198705099014,16.80848580266626
220.7046104369898,18.90909923375713,11.039477638563266
224.2026524610005,11.913459773984798,5.986797690084295
211.8127793950939,6.7599027515405785,2.0070831070739485
4.697770640961486,15.693242281626755,4.030984037019869
30.678470029114507,16.028537451318282,1.7261487708891645
59.37719285367941,14.288729395276455,1.5046603769785525
85.0639798286244,9.945536943004,5.286183825359236
102.04017403777641,2.598582105992948,9.323628413767072
105.7286406119029,7.817395969435781,13.565761669722415
93.37041543872564,20.826688742274477,17.651447305435642
64.3296114045086,35.31894273761438,20.4769959559423
20.255576130541364,49.58734634214024,20.727357525946545
34.88363397181002,61.536571008633295,17.36599188605317
94.94417682705203,69.00364598279376,9.884048429701622
151.88385771186418,70.11904622117567,1.1693246882592518
196.3037395204385,63.73342724616175,14.063354175675105
219.24564174876195,49.83175372769641,26.522469931052832
215.03653018737666,29.48904908630851,36.4753389801487
183.04973288444702,4.395048686799903,42.27361535031098
127.86903112878666,23.348022011627982,42.737964400758074
58.17311105676785,51.209764542264814,37.56766689636196
15.616463600876514,76.37681204262167,27.38392185114245
83.72781395690261,96.00174113835905,13.329141185651524
138.68298277802396,107.65177222806719,3.030311437630578
175.97042637623727,109.8394450313161,19.786385791264692
193.7734131728854,102.38741079790505,34.904910062319885
192.44698597272873,86.53319873808779,46.41452683674509
174.10608673132924,64.62944537428451,52.80209898580426
142.44002682793948,39.565374946814,53.47087619088182
102.54855252102202,14.138507079743588,48.755290975047345
60.367883945599885,9.430868889939056,39.45277108623803
21.615934401619153,29.634116506133875,26.660328470244107
9.52688907956279,45.481705405744194,11.921885718020821
31.41290460968182,56.18121490874336,3.16873553765397
45.024412223144246,60.933837383953424,17.24278417372421
53.01309969183768,59.04177011748274,28.898702090523862
58.02505805722777,50.33080561506744,37.02057062180737
61.110086001808845,35.688643304690245,41.265641061340574
61.02349107517583,17.38106538623324,42.055125902669005
54.86211081648308,1.1170578473648543,40.515684978991736
39.79876233150112,15.795617258103412,37.946286681282416
15.052604360179592,23.08188851774526,35.030617057873144
16.887609269267852,20.770855334230873,31.75769671579469
50.39060328629993,8.591818612943035,27.66420957211913
78.10075698763238,11.74818811449238,21.92160207595591
92.99708013196854,36.98265979840294,13.736434070402957
90.2179357404588,62.9414771002723,3.0952204775644323
68.03081984804416,85.25067233678895,9.170346677535381
27.870465183871016,99.97765983150576,22.094452538608618
26.183047297177737,104.19915386181802,34.98444783677311
88.02585445815025,96.53725461450163,47.18715262247371
150.0245210747853,77.60751992204688,57.68434948651307
203.53045863944953,50.17065058076453,65.19811115258388
239.79749539646681,18.78379085592389,68.42586988465497
251.48226199011782,11.13513842006866,65.9729452538228
234.45275690354936,34.68476105152666,56.97712994896812
189.26771371731041,48.89588842894797,41.86231213812614
121.60589864841204,53.670600115046014,22.255897398525825
41.274097295584774,51.82439964172604,0.7055512008319553
39.98586223433647,48.13808769246667,20.02892617000548
111.14870611238992,47.7146608726943,37.98105860948873
164.12209689179434,54.18729622425023,52.39570958306792
194.94077587164233,68.40911219866892,63.297355048058414
203.7900808144977,88.08556893861056,70.58347212269732
194.10635355861663,108.44489203001987,74.0334045388357
171.20494604736416,123.67030436738943,73.69007691718467
140.86569294305272,128.56692667541142,69.37896717673438
108.18830065731831,119.92095542624216,60.84530194669499
76.86809164297689,97.20098129014907,48.3601792958138
48.991224406514206,62.53066337764342,32.58098627198254
25.3089573591666,20.081542376019765,14.554179954478672
5.758146828592544,24.86711963943651,4.168365489287037
10.016995650149058,66.92955046903809,21.84814510721154
22.403273766153834,101.48064624839708,36.79055549803476
31.906318221182776,125.30322837884131,47.531516356769174
39.36550028160153,136.95813074199927,53.38889276914815
45.96520729708334,136.8344380485292,54.6154414444337
52.82158393902326,126.85721590158461,51.919977062175775
60.26189952896412,109.8710850710892,46.37125940699889
67.2155658133322,88.83973752108716,39.466585673578884
71.20256151573464,66.09358350468851,33.02951036159007
69.14909751895088,42.86913153030015,28.71236506217896
58.718768332637424,19.320164014583657,27.00770135746425
39.492196266205234,5.014180555923892,27.36878333044704
13.35457217427165,30.49402705467923,28.75053877181476
16.133335714959845,56.723721599606534,29.47761497732925
44.99146412743221,82.25176911926303,27.980938482933574
69.98053010100514,104.7280760611654,23.262467910899517
89.03755807813134,121.41260092593812,14.444529615277217
100.88769768232014,129.82878148736305,1.261379141745704
104.3367323551938,128.32447145599963,15.322209504870525
97.90917404651859,116.38511634797045,33.272161128709755
80.21262337744157,94.67096659127739,49.916832947586734
50.86631890859327,64.85540283517551,62.55268684376044
11.41290778461458,29.37815839229367,69.1713126331175
34.36124000970463,8.827271003940494,68.98747647689429
80.92009185477164,46.606954717323255,62.28617018688237
122.01573530307832,80.86363138974679,50.189525766025
151.76436673016298,108.83994165182484,34.51732296705387
165.41764395436783,128.35157271613875,17.37849977803949
159.81764216645362,137.92361612877997,1.0668767486647421
133.80538681813198,136.82855509590735,12.2464742131226
88.76413236760739,125.0604899394148,21.079632755399402
29.116344347992225,103.33489024887545,24.75558106486873
37.61084960194941,73.18006458207881,23.348794442554855
101.53630775098313,37.081674328901315,17.54999033161215
152.10291127534904,1.4517885025704174,8.862431675893264
180.28563517970332,38.07427947989016,0.16652387872298724
180.59660306285127,68.14731272305657,6.614662414250636
152.2173639599607,87.6093037905117,8.3798410907278
99.00477808919955,93.95198693797695,5.030712021988473
28.579514288085647,86.96376661809862,2.48074323293522
49.07631294374069,68.92893296539867,12.592181362146627
123.14571529848129,44.13216267338037,23.346409494162668
183.488071576762,17.78948757310701,32.734695131092984
222.09403347997213,5.248689370604544,39.1795922692442
234.37679173573386,21.604410893496894,41.69576165472844
220.06486860812547,29.930468240674976,39.99572631053366
183.30194289873896,30.825966508880214,34.502393597211935
131.68640039635847,26.291314816750454,26.367078993089667
74.4022431989605,18.995615749936807,17.088485293544508
19.99963611152017,11.647621563557944,7.926850108966098
25.434103204344378,6.621340965465142,0.05598914453877223
59.200094078689766,5.732496902571131,6.309363725508873
81.9053923351944,10.014073974717325,11.310016328418923
96.62685362353344,19.42125541111705,15.861829448256026
107.76314111742988,32.52337055932785,20.1562485019209
119.89492191247189,46.426601526428314,23.993388225210055
136.7429900571682,57.1847866925856,27.253628706787183
160.15253533633978,60.75180917933048,29.625333137698334
189.15858070273916,54.22296359284452,30.577559517290364
219.47349439310108,36.87772185924003,29.85560063347328
243.816001957558,10.554971120417967,27.590574684132694
253.38313939749045,20.84688992806853,24.165673372901697
240.29847378163666,52.541090986785086,20.02491928891191
200.29096635264798,80.16758869124595,15.526895722153812
134.60900416537876,100.69243528276395,11.121892791790708
50.32189710578723,112.60574788630954,7.372949546559943
41.22085988132883,115.56459612501014,4.763174101734679
127.20243288224717,109.89880824770253,3.5903226228394733
196.31949874897697,96.39972989737154,3.8668300921930068
240.91708131347553,76.54036933932406,5.151482048313736
257.8155804349091,52.85297157426494,6.149379201740654
247.9307183872884,28.986384287704553,4.91033473968642
215.27603462856305,9.103731644521133,0.17578328475848298
166.15656099348138,3.876989139937729,7.624144083831276
108.85090445744194,8.982193634428077,16.935049759713564
52.78000909866845,6.6614793028268,26.15049355509155
6.746179659879942,1.3400672987385864,33.93198767990414
22.984135939062856,12.491641803309097,39.29352149238842
34.136894195001254,24.169167002902196,41.80495581545764
28.88105393938288,34.25254474020113,41.48771331815503
12.994415896209834,41.402940226387166,38.67818432104246
7.642048506398129,5.056828164793435,6.80147640336781
0.9795593057963417,2.1617922518002457,7.873906969767717
9.86610036370598,1.114860014306229,7.649049750386038
17.453979233407587,5.360373131848008,6.171042476014698
23.055559729736974,11.011854593518766,3.8958857466974135
26.86002944531412,17.927891658737856,1.240256433660808
29.526798966026192,25.303456321004816,2.02291704191009
31.642942990630146,31.88146049517042,6.16438948178022
33.35890706583753,36.44125718966346,10.808758339797205
34.31456978300933,38.144870966495446,15.212408904423395
33.80740350393257,36.67032772944198,18.668264482123924
31.169812115335084,32.363486952345625,20.682397922784165
26.247994620747928,26.323452860082792,21.47351395741325
19.380667316217647,19.500470833232157,21.97931114275593
10.655376986111742,11.737155701092679,22.69847819734298
0.5389053533303749,2.5839828393596114,23.184777047069044
15.092441722011984,7.829111782786543,22.644117699251403
33.31840682184328,18.856402622850343,20.24212947456637
54.11310051525383,29.491048122825845,15.121026631868807
74.73401308609404,39.03732827300729,6.792036352688864
91.45026051096201,47.60640008847216,4.236452249961324
100.71443095703503,55.94371721796577,16.67009412943508
100.34689322810529,64.98428291098998,29.237071630640152
90.15571966374955,75.10654743366167,40.81561982411445
71.79019019521952,85.69675201714176,50.55319796593265
48.03778313130423,95.16855092480243,58.273906635812814
21.94663868329839,101.26866911313762,63.97585736179546
3.806575656741693,101.58790291413912,67.08494905524336
27.155367036922307,93.9356158521817,66.7709700446855
46.581548847873464,76.67622181110939,62.40578637237228
60.972266367058964,49.10418227793809,53.527248716642106
69.61706375569635,11.876600435586212,40.37686486139532
72.35261468454469,32.562575644921516,24.304674265775308
69.70732803071098,79.94565654735548,6.684595077940504
62.9085494242983,124.75415026170576,11.864420253465259
53.68492908769628,161.39374935231783,30.849299303803754
43.91899498068422,185.58598621466103,49.56438514552932
35.320765547788966,195.35941565141107,67.00953882005797
29.269674724375623,191.22287892064912,81.45093791542887
26.837157059235796,175.4763628428283,90.79132236806868
28.86822065363464,151.09965017390863,93.44212373055547
35.94482715608734,120.84468287609961,88.8405233954387
48.13155587874296,86.95741092180967,77.70975239903929
64.54505199006623,51.52823177709927,61.56645803818896
82.89259746650578,17.015446452370284,42.24247237273035
99.20723446050935,13.629926261188587,21.951038919000695
108.02278175492869,37.566708295561604,2.9384809953730433
103.13129995158423,53.19982497611427,12.86512051893244
78.89077330507062,61.20356270061573,24.097361999442608
31.86346839487286,64.79620050221395,30.42345753025559
37.5112361840251,68.93599227760811,32.47552569429436
123.83925223306235,78.63431596869782,31.33444475179295
217.11124338185323,97.09784978224545,28.228736424223193
304.13231736141137,124.4508323759059,24.390811714549827
370.38225042044473,157.50348011673316,20.720614061827767
402.6323954286351,190.5843780006761,17.6808300006357
391.71496709321275,216.9732441516248,15.517605159590087
334.32125763358766,230.35067260439666,14.24372953386599
233.7751615120166,225.88290271862456,13.62946632485544
99.70582415097594,200.84939899169382,13.352814536752094
53.210177054209154,154.9711329758345,13.190511329997415
207.02172856121658,90.62662518926302,13.179357163274272
342.73890327203935,12.964238961326467,13.42739618016393
442.88709124439487,70.26262870599598,13.961666245171827
494.25869411044886,149.40404315314382,14.884797099283812
490.4500804837136,214.33950902378785,16.36267296810595
433.4168159061632,256.4234893238168,18.472850076665207
333.3779837667833,270.41820864016165,21.071201485265753
206.74586106535574,255.8154558899614,23.642424482319857
72.46246056849762,217.04353157003177,25.42266026721001
52.01862190214829,162.4008621228601,25.60819127105525
153.46180559200704,102.05483497086134,23.555899993697047
223.95759027114715,45.73502025652749,19.249255662711562
260.9269627220036,0.7849067203584463,13.228982706682832
265.9299095632697,28.923496769730438,6.01676313209654
243.20388993318394,43.073092963014986,1.8563152150984845
199.0334646960173,44.20255182419541,9.659504717745062
141.5397960821431,36.593348538116544,16.66520418113647
80.33842649111949,25.121305221481407,22.358747537577432
25.483026871290885,14.312906452129669,26.56844607478164
14.471418184407499,7.686443398171135,29.463554585338475
34.49892286983845,7.391066329397323,31.416891894922678
34.31520850379624,14.07536939343749,32.96211474258866
18.03224120440112,26.942376087658896,34.3349818917539
7.637293281698214,43.99910669937513,34.97303028256946
35.68909634874419,62.45893714574292,34.51788048204952
60.58331995558522,79.23520194290829,33.50119644809094
78.73721873492553,91.43797573477548,32.16673065426412
87.97400250152111,96.78670655729316,30.008643707207206
86.73986139285215,93.89932503792035,26.24126023698113
73.87768028300896,82.4623745998709,20.206149978142097
49.23450023090323,63.314260936066304,12.124441637311334
14.608399143334857,38.41639258711379,3.1253702235083045
25.80015895568872,10.650161984815782,5.5716605439201725
66.01679971792021,16.593900206241063,13.20020629023216
99.88207752740064,40.00910796120774,19.413440149179134
122.8469461069443,57.01433867244789,24.140331348551168
133.082786136352,66.2606724692121,27.538223400617802
131.41922525277369,67.82136022754982,29.780566662204556
120.3664100907693,62.97787582847433,31.0387004281656
102.92621978763047,53.72022630725467,31.575124077752502
81.86891777149148,42.186867833618024,31.857991464742213
59.7112247787097,30.253145477813476,32.09344849965471
39.02155547639539,19.36842730785922,31.46899559785761
22.50486352422526,10.584316950952186,29.458570033979832
12.564780757438852,4.634134711890976,26.93413336680485
10.49296799657031,1.9230108747369876,24.806734548205483
15.819442287966838,2.3931358141221972,23.227432412282877
26.251785313739813,5.3924200893043635,21.713011621468787
38.2578303188406,9.730389148595135,19.234351158627753
47.97576830258452,13.996984311144729,14.70411955841078
51.948936562525,17.04681101975253,7.459839258843855
47.43525249367618,18.408563113183853,2.436188828563778
32.446741749662664,18.364875964665142,14.510762525793714
5.880747121368237,17.644518471080154,28.078648217557085
31.995859924421186,16.882565810533826,41.91418624824963
78.83934949015092,16.12818284882138,54.49457304972639
129.77942607600272,14.721831215452587,64.25816008647053
177.73375264338128,11.638104743182959,69.77635520131915
214.65828832998554,6.070058664968,70.18711939099863
233.39871168654687,2.0823730403721847,65.36553638961267
229.4606499198442,12.10382777073755,55.79597052343916
202.0487335172799,22.790054877294168,42.24414995398131
154.11309347592464,32.98241925946352,25.752440382150724
91.56443042571347,41.98545625598773,7.795552196195962
22.082383170558256,49.63530260478156,9.955419798492532
46.06143989223937,56.032845985699204,25.905312912465504
105.04770757102939,61.19419982855883,38.831278928903366
148.47107792138533,64.89745307765843,48.07215942641193
172.2116601978102,66.81946672571515,53.62544517870732
175.13685524939555,66.80514522476089,56.17928565324562
159.38792410776904,64.9850197292276,56.59770776948539
129.9792202952264,61.55713634288855,55.414219369487085
93.70694552659091,56.33390073131739,52.69094254656783
57.66409539318703,48.37617349725129,48.156993842945134
27.822024376975353,36.058319580667614,41.6481294683318
8.056724124019155,17.724100141733487,33.18489915710957
0.23907730403689234,7.308504932760957,22.9214435176206
1.9849229231165715,37.91031053498453,11.34057783728048
11.91749209114183,70.94095459952443,0.704190933174257
25.54960259429512,101.88193901493372,12.060794600290997
38.501741588679714,126.05163929808441,21.504778800370122
47.42499046110054,140.22108809112333,28.19596172197625
50.67510409341968,143.11439111938913,31.89585112987102
48.046820492132376,134.95287776810065,32.807845871526986
40.62887736055168,117.26302664367682,31.374308198444517
30.366879225074285,92.51815750301984,28.179772940836106
19.425567783531022,63.78172585136559,23.817756004604007
9.57022627410621,34.416033329183314,18.830287266392396
1.7933436521315382,7.777687852605405,13.797476952174781
26.382906224550233,22.4933079136943,13.458521941214197
24.70908193778695,16.416132616574856,14.07486937766821
20.44086672776183,4.586693043494145,12.359317926420307
14.096287888421058,11.941531655538366,8.582130640510934
5.675258296203543,30.676226978452494,3.4838470325548525
5.615411497181361,48.18505580831447,2.329276288361838
20.967399826723184,60.98894264728114,8.492476306949056
40.99276688421126,66.52144665354572,14.65596491603709
64.6922383496887,63.77655881456763,20.337274361683573
88.97171019871752,53.384020261226844,24.77086278460433
109.09922443004,37.11818258982722,27.09976121975257
120.05931143118936,17.208560504770666,27.120298213885192
118.26637312842163,4.082619393896727,25.395640944046097
102.66553755309907,24.603305988891435,22.63717053147908
74.76435129191675,42.38909695386505,19.471970955582556
37.94297084315756,55.64470560888264,16.29037291383418
3.657662891824612,62.79160273185712,12.755520218756013
46.05688097329441,62.81784986246951,7.51867842918761
85.6360704294209,55.764146296845425,0.7666261444521474
118.97773804674327,43.08253141419086,11.534767444435918
142.8229330267423,27.57296288743619,22.12723031911473
154.53263308636957,12.72699327941831,29.523118470003467
153.0349851839103,1.7178089072726124,31.800164533588987
139.60054813514577,3.521438241884365,28.800943282178892
117.84252681585485,2.70575429675845,22.561184908407593
92.6874533125548,3.04405364963812,16.91023452989656
68.64213690069955,11.858567595798847,15.241220643732337
48.18090412394995,21.781670112361304,18.39164438082638
31.061913422580528,31.049801048655343,24.83266204770392
14.924466685783866,37.920762490815584,32.01432556694573
3.200618539405746,40.36067238568273,37.76823002700297
25.25613049033215,36.01183829663447,40.76243240057009
51.13020272053836,22.702850891090048,39.65388897672608
