File Name: not saved
Channel 2: 'Channel 2', 11530 values, raw ADC, no filters.
Channel 3: 'Channel 3', 11530 values, raw ADC, no filters.
Channel 4: 'Channel 4', 11530 values, raw ADC, no filters.

645	-148	-36
59	-163	-35
-434	-191	-32
-654	-200	-32
-547	-160	-29
-224	-46	-40
115	112	-38
287	260	-32
230	336	-15
13	307	-21
-221	195	-29
-347	49	-25
-339	-69	-23
-256	-129	-2
-195	-136	-1
-214	-121	-12
-288	-110	-26
-345	-111	-41
-308	-109	-40
-165	-78	-48
32	-13	-53
201	71	-24
277	145	-16
260	182	-21
194	177	-19
135	142	-11
104	102	4
78	64	-16
9	28	-30
-133	-16	-28
-335	-69	-31
-533	-121	-31
-647	-150	-30
-623	-131	-27
-442	-72	-19
-138	-2	-13
223	41	-20
569	32	-7
831	-27	-7
960	-102	-16
916	-141	-19
709	-118	-16
391	-38	-11
40	57	-9
-249	117	-12
-404	110	-34
-411	41	-36
-311	-48	-31
-188	-125	-26
-112	-158	-35
-113	-157	-38
-162	-141	-21
-198	-125	-21
-168	-103	-41
-53	-43	-35
107	76	-15
258	238	-13
335	391	-9
306	455	-11
182	385	-7
-5	183	-20
-205	-70	-58
-375	-277	-53
-473	-353	-28
-477	-286	-30
-378	-133	-28
-191	16	-16
31	89	-8
229	67	-17
339	-3	-18
324	-55	-22
195	-45	-23
5	24	-31
-174	106	-30
-273	150	-5
-256	130	-15
-123	67	-20
85	5	-15
306	-23	-16
476	-11	-13
530	8	-10
439	-6	-9
222	-70	-19
-60	-169	-25
-315	-249	-34
-445	-260	-40
-407	-183	-43
-218	-44	-35
36	106	-36
249	211	-40
343	240	-42
302	198	-38
171	116	-20
23	36	-9
-88	-16	-5
-152	-36	-10
-191	-36	-13
-247	-34	-8
-318	-42	-7
-381	-66	-6
-392	-100	-6
-321	-127	-22
-177	-134	-23
-1	-111	-30
159	-59	-32
271	7	-38
334	61	-44
356	88	-46
346	77	-36
302	42	-24
219	12	-28
104	3	-12
-11	20	-4
-87	39	7
-92	33	-2
-38	-20	-16
24	-103	-24
39	-176	-27
-15	-189	-21
-115	-119	-35
-193	14	-37
-186	157	-34
-82	244	-32
72	248	-30
187	174	-32
188	76	-35
55	2	-26
-153	-22	-6
-345	-6	-11
-436	16	-23
-408	14	-13
-297	-21	0
-185	-70	-24
-149	-104	-38
-208	-108	-32
-324	-90	-17
-408	-77	-15
-365	-81	-21
-137	-100	11
263	-108	8
753	-71	-13
1179	15	-21
1384	134	-34
1272	237	-39
947	272	-37
366	205	-27
-237	54	-32
-681	-138	-41
-853	-304	-26
-757	-378	-8
-500	-333	-16
-237	-189	-26
-79	-2	-33
-48	157	-25
-85	233	-17
-102	215	-23
-44	134	-32
66	47	-26
162	8	-16
169	33	-18
59	97	-18
-118	143	-45
-287	126	-39
-372	38	-19
-352	-87	-23
-255	-182	-23
-141	-200	-22
-55	-130	-18
-1	-15	-20
44	82	-8
113	117	-3
216	84	-8
325	18	-18
398	-30	-24
403	-33	-19
332	2	-30
210	34	-29
69	29	-24
-64	-27	-31
-190	-111	-36
-311	-192	-43
-419	-234	-40
-489	-232	-18
-474	-196	-2
-344	-150	5
-97	-92	-3
214	-14	-33
505	92	-36
689	215	-26
709	328	-26
581	380	-23
358	340	-22
128	215	-18
-51	52	-24
-152	-93	-36
-200	-171	-37
-234	-178	-34
-285	-137	-22
-357	-94	-32
-419	-77	-35
-429	-78	-30
-358	-72	-32
-205	-31	-19
2	51	-7
213	150	6
387	227	1
484	243	-4
486	196	-6
389	106	-21
191	16	-25
-87	-50	-35
-405	-81	-39
-691	-95	-38
-856	-118	-35
-812	-162	-26
-518	-214	-33
-10	-243	-28
596	-222	-6
1117	-133	-8
1378	-3	-22
1259	125	-18
1012	209	-11
523	213	-12
82	152	-12
-162	48	-1
-172	-44	1
-34	-98	-3
81	-102	-21
29	-66	-49
-232	-25	-44
-619	1	-48
-980	-1	-50
-1155	-26	-36
-1086	-59	-19
-794	-84	-11
-378	-89	-22
59	-69	-12
446	-25	-7
750	29	-13
950	79	-19
1017	102	-14
923	82	-28
648	21	-34
242	-67	-25
-201	-147	-39
-556	-190	-35
-740	-177	-35
-736	-115	-26
-611	-29	-21
-470	50	-8
-366	106	5
-308	137	-12
-244	150	-3
-128	153	-7
36	150	-35
200	137	-41
285	116	-40
254	89	-33
125	66	-25
-28	53	-26
-134	45	-21
-157	26	-17
-126	-19	-20
-101	-88	-20
-126	-164	-15
-195	-214	-22
-264	-212	-19
-272	-153	-23
-187	-59	-30
-36	33	-27
122	96	-32
229	120	-38
262	118	-42
237	110	-30
191	113	-17
147	117	-16
101	108	-15
32	70	-13
-71	1	-18
-191	-80	-23
-279	-144	-25
-285	-174	-26
-188	-164	-19
-20	-129	-19
153	-94	-25
258	-72	-26
259	-62	-21
164	-49	-16
31	-12	-21
-76	54	-32
-104	140	-36
-46	215	-18
77	248	-6
216	215	-11
324	127	-9
363	3	-17
314	-122	-22
195	-215	-10
37	-261	-12
-111	-263	-27
-206	-233	-34
-222	-186	-28
-161	-123	-27
-58	-49	-26
36	38	-33
83	134	-38
60	219	-31
-17	276	-32
-112	285	-25
-181	243	-21
-188	158	-10
-125	49	-4
-11	-60	-15
111	-154	-9
191	-223	-5
190	-263	-19
99	-269	-28
-58	-242	-28
-232	-177	-32
-352	-86	-37
-374	17	-40
-279	106	-40
-101	163	-43
107	174	-36
284	143	-20
383	93	-17
387	41	-19
311	6	-19
181	-11	-10
32	-17	-16
-104	-22	-23
-203	-34	-20
-239	-47	-15
-201	-53	-9
-89	-42	-7
69	-12	-13
225	27	-23
328	62	-15
345	84	-23
280	91	-27
164	89	-26
46	85	-32
-38	79	-23
-79	64	-19
-100	28	-16
-130	-31	-19
-187	-104	-23
-263	-171	-32
-331	-204	-38
-357	-192	-42
-321	-138	-51
-231	-64	-44
-106	3	-25
23	51	-28
139	77	-35
231	96	-10
290	116	13
309	145	9
271	169	5
180	164	-9
42	117	-20
-107	28	-14
-229	-80	-20
-291	-178	-16
-291	-235	-13
-241	-240	-20
-173	-196	-24
-115	-127	-27
-70	-52	-24
-33	15	-29
15	70	-33
82	121	-31
161	168	-28
230	205	-24
267	224	-23
259	205	-28
204	144	-25
114	43	-26
-2	-76	-28
-132	-190	-28
-262	-272	-31
-377	-304	-27
-443	-282	-26
-435	-214	-25
-332	-115	-27
-140	1	-20
105	115	-11
346	211	-21
525	273	-29
588	282	-18
528	233	-11
373	134	-19
180	14	-30
12	-92	-26
-85	-149	-13
-94	-141	-6
-38	-93	-4
37	-35	-13
83	-15	-17
72	-50	-23
8	-128	-39
-77	-207	-51
-144	-236	-48
-168	-187	-46
-157	-66	-56
-144	79	-36
-172	193	-18
-256	237	-31
-371	210	-6
-452	140	3
-420	78	-27
-248	51	-8
39	58	-2
355	77	2
583	59	-2
642	-6	-15
525	-114	-3
302	-227	-21
86	-292	-35
-31	-287	-36
-22	-204	-41
68	-71	-32
160	67	-33
182	174	-41
115	227	-24
1	228	-16
-106	188	-32
-164	127	-34
-177	56	-24
-188	-17	-7
-240	-87	8
-344	-145	-15
-459	-184	-24
-535	-192	-12
-523	-160	-27
-426	-93	-37
-290	-3	-37
-168	94	-32
-85	182	-40
-18	251	-33
81	284	-22
245	274	-27
462	202	-24
642	71	-16
688	-106	3
535	-291	-10
222	-432	-17
-126	-475	4
-342	-395	9
-312	-223	-3
-39	-5	-13
351	178	-28
671	267	-36
769	252	-33
599	160	-40
254	60	-43
-101	5	-34
-318	14	-18
-342	66	-23
-226	116	-30
-93	119	-13
-51	65	-15
-139	-23	-21
-308	-109	-12
-459	-157	-23
-529	-159	-31
-488	-125	-36
-383	-83	-40
-272	-44	-35
-191	-5	-33
-129	47	-32
-54	126	-23
58	215	-16
199	295	-31
323	319	-26
383	262	-6
363	138	-10
285	-28	-18
196	-185	-9
127	-299	-19
80	-346	-25
24	-337	-32
-63	-292	-32
-179	-234	-19
-277	-171	-10
-300	-104	-4
-221	-29	-25
-65	57	-30
86	145	-35
141	221	-42
59	270	-35
-134	284	-35
-344	265	-28
-459	211	-17
-419	134	-9
-247	43	-12
-43	-52	-12
77	-134	-12
59	-189	-32
-52	-201	-35
-133	-173	-17
-41	-110	5
280	-41	4
762	11	-15
1216	27	-13
1307	3	-17
1195	-45	-26
831	-98	-30
197	-130	-33
-373	-133	-38
-686	-111	-40
-702	-81	-27
-518	-62	-24
-319	-61	-23
-247	-75	-20
-325	-81	-32
-469	-61	-40
-539	-3	-32
-465	84	-20
-281	178	-18
-96	248	-9
-23	261	-21
-87	209	-28
-208	104	-23
-243	-19	-20
-93	-120	-24
230	-160	-30
599	-123	-28
831	-27	-32
800	89	-9
508	171	11
78	178	-9
-318	102	-27
-530	-22	-27
-516	-135	-38
-333	-179	-27
-95	-119	-29
96	16	-24
197	169	-18
222	269	-30
212	278	-28
194	195	-21
164	65	-18
96	-53	-36
-23	-119	-19
-181	-126	3
-330	-103	-19
-417	-84	-33
-404	-87	-30
-288	-112	-18
-107	-135	-12
88	-131	-13
241	-94	-21
320	-31	-20
314	36	-12
250	88	-26
157	112	-24
77	117	-13
32	103	-15
25	78	-12
33	35	-14
23	-26	-18
-29	-102	-27
-124	-178	-36
-229	-229	-35
-302	-240	-36
-307	-203	-30
-247	-129	-30
-151	-35	-35
-62	55	-30
-8	131	-22
23	185	-8
65	214	-13
151	215	-12
269	179	-9
371	108	-18
380	10	-21
245	-90	-26
-20	-158	-30
-325	-175	-35
-550	-137	-26
-589	-70	-8
-411	-8	-8
-81	17	-32
283	1	-39
561	-38	-30
681	-70	-33
639	-72	-32
484	-41	-50
269	5	-51
25	45	-31
-239	66	-33
-505	71	-22
-727	70	4
-830	72	10
-726	72	6
-389	56	-2
110	13	-12
624	-49	0
967	-109	-7
1015	-141	-29
759	-129	-34
318	-86	-32
-122	-37	-18
-385	-12	-30
-394	-15	-43
-208	-29	-38
46	-23	-48
224	21	-30
239	97	-17
99	169	-14
-126	197	-25
-352	161	-39
-529	69	-27
-639	-33	-33
-681	-97	-32
-632	-93	-29
-448	-23	-13
-97	80	-7
401	166	-15
930	197	-21
1330	161	-32
1272	68	-20
1165	-48	-19
716	-149	-26
91	-210	-20
-436	-218	-9
-720	-182	-14
-731	-124	-25
-569	-71	-27
-386	-48	-18
-296	-57	-10
-321	-86	-10
-392	-107	-7
-410	-98	-19
-321	-53	-23
-148	19	-27
35	97	-31
147	160	-24
159	192	-24
104	199	-22
43	188	-23
25	163	-16
42	126	-22
49	66	-26
-14	-17	-10
-168	-114	-28
-382	-199	-41
-577	-243	-36
-676	-228	-41
-619	-150	-30
-394	-28	-26
-47	103	-24
363	207	-13
740	260	-12
995	251	-21
1060	187	-27
930	87	-20
624	-22	-16
229	-114	-18
-139	-176	-20
-387	-200	-15
-473	-196	-14
-433	-181	-21
-346	-162	-22
-296	-145	-15
-314	-127	-14
-375	-99	-24
-402	-52	-24
-332	6	-42
-144	66	-49
121	119	-40
380	153	-44
544	174	-23
561	183	-6
425	181	0
175	164	-15
-126	127	-38
-431	70	-41
-681	-5	-23
-829	-81	0
-827	-145	-15
-635	-184	-26
-250	-192	-12
273	-167	-19
825	-114	-18
1255	-41	-9
1402	41	-26
1275	112	-40
1023	149	-39
541	130	-27
57	63	-20
-310	-34	-19
-509	-130	-30
-572	-190	-24
-573	-198	-15
-574	-164	-15
-589	-113	-9
-589	-66	-25
-515	-33	-39
-350	-4	-43
-122	41	-37
96	106	-25
229	183	-29
248	241	-37
183	254	-21
107	219	-4
90	150	-14
141	78	-18
216	26	-18
231	0	-15
131	-22	-19
-72	-60	-25
-302	-125	-30
-451	-199	-28
-443	-250	-24
-287	-246	-21
-54	-173	-23
148	-57	-31
242	58	-18
216	135	-8
127	155	-23
48	133	-20
25	98	-8
57	80	-18
102	80	-14
107	85	-8
54	66	-9
-40	8	-4
-135	-81	-19
-191	-169	-41
-203	-222	-37
-190	-217	-14
-181	-165	-15
-194	-90	-36
-222	-22	-53
-235	19	-40
-204	35	-18
-114	47	-29
23	71	-30
175	121	-21
291	187	-14
329	256	-15
268	301	-10
127	298	1
-36	225	-8
-136	77	-11
-105	-125	-11
81	-337	-16
368	-488	-45
636	-525	-52
763	-424	-24
671	-225	-16
392	-3	-36
39	154	-41
-232	199	-31
-321	147	-30
-232	63	-24
-71	24	-32
5	58	-36
-101	124	-40
-380	138	-30
-704	34	-17
-898	-181	-19
-819	-416	-17
-436	-527	14
151	-416	23
769	-94	5
1212	315	-4
1315	631	-21
1186	706	-16
782	522	-24
283	181	-36
-147	-141	-28
-403	-292	-23
-459	-226	-21
-378	-24	-36
-269	165	-42
-239	224	-52
-325	122	-48
-497	-67	-21
-654	-233	-31
-698	-283	-24
-581	-215	-4
-338	-86	-1
-59	26	-9
152	76	-35
242	72	-25
216	61	-13
133	85	-19
61	138	-22
33	186	-25
40	174	-17
46	86	-19
21	-52	-30
-40	-187	-36
-115	-263	-42
-167	-270	-40
-182	-224	-38
-166	-166	-35
-132	-119	-25
-98	-85	-17
-56	-41	-11
1	27	-3
86	117	4
178	197	-1
245	237	-10
251	213	-19
182	135	-19
60	32	-19
-62	-62	-27
-136	-129	-30
-136	-161	-27
-70	-162	-28
16	-139	-28
79	-100	-26
84	-47	-31
27	5	-36
-63	45	-29
-151	62	-35
-185	65	-27
-136	70	-15
5	97	-24
208	155	-24
418	224	-19
554	262	-19
549	241	-24
371	142	-35
57	0	-36
-303	-141	-20
-588	-233	-5
-695	-254	-26
-589	-225	-35
-312	-177	-15
40	-145	4
351	-137	14
537	-131	-8
566	-106	-22
466	-45	-22
292	35	-28
115	103	-33
-21	122	-18
-95	87	-29
-112	12	-45
-96	-60	-23
-74	-102	-6
-69	-102	-17
-96	-74	-43
-150	-47	-30
-206	-34	-19
-240	-40	-23
-221	-43	-15
-145	-25	-19
-30	18	-27
91	75	-33
178	125	-26
206	158	-25
170	169	-23
80	170	-27
-43	174	-25
-183	174	-24
-325	168	-31
-448	132	-24
-522	76	-27
-502	6	-37
-361	-51	-35
-100	-85	-25
242	-92	-17
569	-93	-13
800	-104	-24
864	-131	-24
750	-167	-7
506	-178	0
244	-154	-17
29	-95	-27
-90	-27	-24
-130	19	-28
-144	25	-23
-178	-6	-26
-252	-51	-22
-344	-85	-31
-416	-88	-32
-425	-63	-17
-365	-27	-10
-255	9	-15
-129	34	-31
-23	57	-15
50	85	-6
89	118	-18
99	153	-36
74	171	-38
10	170	-25
-96	142	-20
-218	100	-31
-312	56	-23
-320	20	-6
-209	-8	-10
6	-41	1
267	-82	2
483	-136	-18
579	-194	-24
527	-237	-24
365	-240	-38
171	-192	-44
25	-101	-38
-29	14	-41
-8	115	-40
32	171	-28
26	169	-24
-57	115	-17
-206	43	-10
-356	-7	-10
-448	-11	-8
-432	27	-7
-307	81	-8
-107	104	-22
109	71	-24
283	-17	-26
373	-122	-40
363	-196	-48
250	-202	-49
63	-134	-48
-144	-24	-50
-317	88	-47
-386	166	-31
-317	202	-5
-113	204	22
171	187	20
450	150	16
626	78	1
633	-32	-2
469	-178	6
188	-316	-14
-107	-401	-9
-317	-403	-24
-377	-319	-38
-291	-186	-44
-125	-46	-60
29	65	-37
83	150	-36
4	222	-39
-185	284	-38
-412	329	-26
-595	321	-15
-659	241	-21
-584	103	-23
-378	-46	-21
-85	-144	-21
226	-166	-30
493	-121	-32
655	-69	-21
689	-63	-16
606	-120	-17
456	-198	-10
301	-226	-18
195	-154	-27
156	4	-24
154	179	-23
136	283	-17
58	265	-27
-84	138	-21
-256	-21	-19
-392	-135	-31
-452	-160	-24
-419	-113	-30
-331	-47	-27
-241	-18	-18
-179	-29	-22
-144	-46	-27
-111	-23	-37
-50	62	-40
40	182	-30
132	273	-13
189	279	-12
186	194	-15
132	52	-18
58	-72	-19
-4	-134	-19
-43	-127	-21
-71	-88	-10
-108	-67	-21
-161	-95	-30
-207	-159	-17
-223	-213	-9
-176	-214	2
-77	-148	-11
44	-32	-25
145	84	-30
196	162	-25
200	183	-28
175	162	-36
150	126	-38
116	94	-40
48	68	-43
-88	38	-48
-300	-13	-32
-540	-89	-24
-713	-173	-19
-711	-237	-2
-470	-251	0
-9	-194	10
560	-72	3
1057	84	-2
1319	222	-14
1272	298	-40
938	279	-31
468	171	-30
20	19	-31
-270	-115	-40
-360	-175	-40
-314	-142	-28
-245	-44	-31
-258	60	-29
-379	110	-28
-556	80	-15
-683	-15	-18
-665	-113	-27
-472	-158	-14
-149	-118	-1
208	-21	7
498	80	5
653	127	-12
662	100	-18
547	16	-24
363	-76	-28
149	-129	-28
-59	-133	-34
-241	-100	-36
-383	-64	-37
-473	-54	-31
-511	-69	-26
-497	-95	-17
-436	-108	-9
-325	-102	-33
-170	-79	-32
15	-49	-19
203	-19	-26
354	23	-36
433	86	-19
423	171	-12
342	259	-14
230	313	-23
128	305	-36
58	229	-22
13	108	-36
-37	-16	-33
-118	-110	-24
-228	-161	-27
-330	-175	-20
-380	-173	-21
-344	-160	-25
-224	-131	-30
-58	-79	-23
97	4	-20
202	98	-20
239	174	-21
229	202	-16
194	174	-17
154	110	-14
107	35	-7
47	-23	-11
-35	-61	-16
-129	-88	-16
-215	-121	-16
-267	-161	-23
-271	-192	-30
-232	-195	-37
-159	-151	-35
-72	-66	-32
21	32	-34
117	113	-33
208	158	-40
276	166	-39
302	152	-38
272	131	-32
175	105	-22
34	65	-13
-120	4	-4
-253	-78	-7
-342	-159	-7
-374	-207	-2
-354	-196	-5
-295	-130	-13
-205	-31	-23
-99	53	-38
15	85	-43
120	53	-21
210	-17	-11
280	-71	-34
346	-61	-36
413	31	-35
482	174	-30
531	299	-19
523	330	-6
423	222	-3
229	-3	-9
-20	-270	-5
-252	-471	-3
-383	-531	-8
-377	-427	-21
-259	-221	-30
-109	0	-27
-20	152	-32
-42	201	-52
-157	174	-42
-285	135	-15
-338	131	-26
-270	174	-35
-112	229	-26
48	244	-13
111	193	-16
36	85	-18
-139	-28	-16
-307	-96	-30
-360	-98	-30
-248	-55	-28
1	-17	-19
287	-25	-4
506	-83	-17
595	-157	-25
553	-198	-19
438	-178	-24
317	-106	-35
222	-17	-34
148	40	-32
65	45	-24
-47	6	-27
-180	-48	-26
-297	-85	-21
-360	-96	-22
-357	-88	-2
-307	-82	-15
-246	-81	-20
-206	-77	-16
-186	-44	-20
-166	23	-14
-115	122	-21
-23	224	-15
94	287	-18
194	300	-11
240	257	-15
216	181	-25
140	95	-24
44	16	-32
-44	-49	-27
-111	-105	-32
-159	-149	-34
-199	-179	-36
-236	-188	-36
-256	-174	-37
-245	-138	-38
-189	-90	-34
-89	-35	-28
34	23	-13
163	83	-7
270	139	-7
346	183	-16
373	197	-24
352	171	-24
275	104	-15
155	15	-11
7	-74	-23
-132	-140	-32
-237	-176	-34
-290	-181	-27
-296	-167	-20
-272	-140	-24
-236	-102	-24
-195	-46	-36
-141	27	-36
-62	106	-25
36	178	-23
136	215	-19
201	215	-18
211	177	-17
169	116	-18
107	47	-9
67	-22	9
68	-93	-1
90	-171	-11
93	-253	-18
41	-319	-32
-53	-345	-34
-133	-308	-30
-125	-204	-30
11	-52	-39
244	103	-42
475	215	-46
588	257	-37
508	221	-32
269	135	-20
-40	40	-17
-305	-21	-21
-451	-27	1
-481	17	-1
-470	80	-11
-481	115	-9
-533	89	3
-574	-8	-4
-526	-148	-16
-329	-273	-14
-4	-317	-21
363	-241	-35
664	-55	-43
811	181	-31
807	372	-25
688	438	-31
523	350	-32
355	145	-26
191	-82	-26
14	-235	-32
-182	-259	-34
-380	-175	-43
-545	-55	-49
-643	15	-44
-675	2	-34
-654	-68	-31
-607	-127	-36
-518	-101	-32
-361	30	-18
-100	215	-9
265	372	10
665	421	22
987	329	0
1105	131	6
971	-90	2
614	-264	-15
161	-354	-6
-247	-368	-12
-489	-339	-26
-545	-299	-30
-454	-254	-24
-314	-195	-36
-204	-112	-40
-151	-5	-45
-130	100	-44
-100	179	-31
-34	211	-39
61	205	-33
147	181	-20
184	162	-14
151	154	-21
63	150	-28
-45	129	-27
-143	77	-25
-209	0	-13
-243	-87	-1
-248	-157	-6
-229	-191	-19
-182	-192	-13
-107	-169	-10
-5	-127	-13
105	-78	-24
196	-17	-32
250	51	-37
256	127	-39
229	190	-35
183	218	-32
139	200	-18
99	135	-17
54	39	-15
-11	-61	-12
-105	-142	-27
-224	-186	-32
-347	-192	-28
-448	-167	-32
-496	-119	-35
-470	-56	-33
-366	17	-27
-199	91	-24
0	151	-30
190	182	-28
336	166	-14
423	108	-3
463	24	-9
484	-53	-17
508	-96	-19
541	-97	-9
541	-70	-7
462	-56	-16
266	-77	-18
-36	-127	-35
-380	-177	-47
-667	-174	-47
-804	-87	-48
-743	72	-30
-512	244	-19
-182	358	-13
156	356	-7
428	233	1
597	48	8
649	-118	1
606	-205	-8
468	-202	-28
253	-150	-42
-15	-105	-56
-304	-109	-53
-565	-160	-40
-744	-217	-21
-798	-230	-18
-700	-173	-11
-439	-51	-13
-40	101	-21
439	244	-12
902	345	-6
1216	393	-12
1253	372	-26
1080	284	-16
634	131	-12
97	-67	-14
-357	-264	-20
-600	-406	-22
-603	-444	-27
-455	-372	-30
-299	-233	-21
-245	-92	-28
-310	-2	-27
-417	21	-27
-455	10	-21
-360	15	-30
-159	75	-28
52	179	-32
167	283	-46
144	332	-34
26	298	-32
-95	194	-23
-144	69	-28
-110	-25	-35
-49	-72	-30
-38	-85	-22
-115	-97	-6
-249	-126	-3
-357	-168	-8
-366	-191	-12
-251	-167	-17
-61	-90	-13
123	19	-13
234	117	-27
254	174	-27
216	182	-25
180	155	-27
162	117	-24
156	84	-20
128	48	-17
53	0	-18
-60	-66	-21
-176	-142	-23
-248	-200	-19
-255	-218	-25
-211	-188	-25
-152	-117	-32
-109	-32	-38
-91	45	-34
-82	104	-38
-52	148	-36
7	182	-26
92	202	-24
180	201	-11
252	161	-6
301	82	-9
326	-31	-13
332	-150	-18
306	-250	-10
239	-314	-26
121	-334	-35
-32	-317	-37
-186	-268	-35
-298	-195	-32
-340	-99	-36
-314	13	-24
-252	127	-5
-191	225	-16
-153	287	-27
-121	305	-19
-57	279	-27
69	228	-4
269	163	6
493	94	-1
656	24	-13
692	-50	-26
558	-130	-23
288	-207	-32
-34	-263	-38
-297	-280	-48
-421	-248	-48
-389	-168	-32
-258	-60	-9
-120	49	-14
-57	135	-29
-92	183	-35
-176	190	-34
-222	166	-15
-156	128	-7
16	92	-9
215	63	-21
326	36	-18
260	1	-8
23	-53	3
-274	-124	-11
-481	-191	-44
-484	-227	-48
-271	-207	-55
39	-127	-41
284	-8	-17
338	110	-33
192	190	-25
-41	214	-2
-191	186	0
-147	135	-8
91	90	-8
396	61	-4
592	36	-24
554	-4	-28
283	-77	-26
-99	-174	-24
-426	-260	-21
-567	-297	-28
-491	-260	-39
-274	-156	-38
-34	-17	-32
129	110	-31
186	190	-29
163	215	-33
121	202	-20
94	169	-14
86	132	-16
65	95	-13
11	43	-11
-82	-23	-8
-183	-100	-9
-258	-168	-9
-278	-202	-11
-245	-196	-12
-176	-151	-27
-93	-82	-33
-11	-13	-29
66	45	-35
141	95	-36
208	134	-37
253	168	-29
254	185	-28
208	179	-34
118	138	-28
13	71	-25
-83	-13	-26
-147	-93	-12
-174	-155	-9
-173	-190	-9
-159	-201	-10
-148	-192	-26
-147	-165	-27
-159	-117	-23
-178	-44	-23
-191	48	-27
-182	147	-32
-127	227	-27
-16	265	-14
149	248	-6
341	178	-19
517	75	-22
624	-41	-16
626	-148	-20
519	-235	-17
321	-298	-27
79	-330	-26
-150	-329	-20
-316	-278	-28
-389	-171	-24
-362	-16	-22
-264	157	-25
-145	305	-34
-62	397	-34
-58	406	-36
-141	350	-43
-262	256	-32
-335	154	-24
-271	58	-21
-37	-27	1
314	-114	7
656	-208	2
837	-296	-10
762	-353	-16
438	-358	-17
-8	-307	-35
-401	-212	-45
-589	-102	-48
-533	1	-35
-296	86	-37
-16	151	-23
175	205	-9
231	243	-14
175	256	-7
81	230	-21
8	164	-15
-30	67	-14
-70	-37	-20
-149	-127	-15
-267	-185	-21
-382	-203	-24
-425	-186	-36
-361	-140	-28
-201	-70	-20
-8	13	-30
147	98	-37
219	168	-34
219	208	-4
184	209	7
162	174	-19
154	121	-18
140	60	-9
90	3	-14
-14	-50	-22
-147	-101	-32
-260	-150	-33
-308	-188	-33
-274	-201	-30
-182	-183	-33
-71	-129	-35
17	-55	-28
78	23	-24
122	90	-28
167	136	-26
216	163	-13
251	169	-16
242	158	-26
172	127	-30
46	76	-26
-96	5	-18
-217	-68	-19
-285	-131	-20
-281	-169	-17
-222	-174	-20
-126	-155	-22
-23	-122	-27
67	-97	-29
129	-81	-34
159	-74	-30
158	-62	-31
135	-33	-27
106	26	-20
86	112	-16
81	208	-19
77	283	-36
58	313	-30
8	275	-18
-71	171	-18
-158	31	-13
-207	-103	-10
-189	-195	-20
-95	-219	-9
52	-183	25
208	-123	3
321	-76	-21
363	-66	-24
330	-98	-42
242	-143	-36
128	-171	-30
4	-159	-28
-128	-111	-25
-273	-46	-39
-431	10	-36
-572	45	-33
-654	61	-26
-615	81	-21
-416	115	-18
-67	165	-20
366	210	-22
768	224	-24
1015	186	-31
1029	97	-19
811	-13	-10
446	-112	-10
76	-161	-19
-176	-151	-17
-245	-93	-10
-166	-20	-25
-42	33	-25
16	47	-27
-55	16	-30
-236	-41	-27
-438	-98	-35
-565	-129	-37
-561	-126	-22
-436	-95	-22
-262	-48	-31
-113	-3	-23
-23	34	-25
14	63	-21
42	95	-15
90	132	-6
154	174	-7
196	209	-11
180	211	-10
89	166	-9
-47	64	0
-174	-77	-23
-248	-218	-33
-253	-322	-25
-210	-346	-31
-152	-286	-34
-103	-160	-40
-60	-13	-49
-8	105	-50
71	169	-38
169	174	-21
253	150	-6
292	123	-8
269	118	-23
192	131	-21
90	135	-17
-6	109	-20
-88	38	-19
-156	-61	-15
-218	-160	-12
-267	-225	-13
-279	-238	-17
-228	-202	-20
-100	-135	-20
75	-62	-25
245	2	-31
355	53	-32
366	97	-34
283	128	-28
140	143	-30
-13	138	-31
-147	109	-27
-247	63	-21
-325	12	-20
-387	-31	-13
-415	-61	-11
-375	-82	-22
-237	-94	-30
4	-100	-17
308	-87	-3
597	-47	-13
774	16	-14
778	86	-19
618	129	-22
346	117	-19
77	41	-35
-103	-66	-30
-148	-165	-30
-87	-196	-29
-2	-148	-25
20	-33	-23
-60	88	-25
-225	154	-48
-393	137	-41
-491	48	-23
-465	-62	-13
-325	-138	0
-137	-140	2
31	-69	-4
136	34	-32
172	126	-45
161	168	-40
115	154	-46
24	99	-34
-126	36	-36
-328	-6	-42
-518	-17	-36
-584	4	-24
-415	43	-8
18	81	-7
626	94	16
1190	67	21
1337	-3	-6
1224	-109	8
987	-227	-4
329	-320	-24
-277	-358	-26
-611	-332	-18
-589	-245	-5
-313	-123	-11
-3	-1	-18
143	91	-42
41	132	-55
-237	121	-35
-532	64	-25
-691	-13	-32
-659	-84	-40
-489	-116	-40
-291	-88	-36
-152	-2	-43
-91	119	-38
-69	229	-30
-31	294	-20
46	291	-15
143	237	-20
204	164	-13
196	109	-7
122	88	-10
25	88	0
-52	76	5
-91	22	-8
-107	-69	-22
-128	-175	-26
-170	-254	-33
-218	-270	-45
-234	-222	-41
-189	-133	-35
-83	-38	-32
52	37	-26
170	85	-26
237	112	-23
249	133	-21
231	150	-8
202	150	-18
175	122	-21
140	65	-20
81	-13	-25
-11	-92	-19
-115	-149	-22
-200	-179	-23
-240	-183	-33
-223	-171	-40
-167	-145	-34
-108	-105	-23
-76	-39	-24
-84	48	-30
-122	148	-26
-159	233	-19
-151	272	-16
-63	256	-23
110	183	-22
346	81	-19
575	-27	-9
706	-125	-18
656	-199	-35
400	-254	-36
-5	-294	-32
-426	-320	-32
-697	-326	-27
-699	-301	-23
-418	-235	-20
37	-119	-13
484	34	-12
750	204	-3
747	350	12
522	435	2
199	432	-19
-66	338	-25
-194	181	-36
-195	12	-27
-160	-118	-28
-189	-182	-35
-333	-181	-21
-561	-142	-27
-773	-105	-36
-853	-84	-38
-720	-74	-30
-375	-51	-18
115	3	-11
626	88	-18
1023	174	-22
1208	225	-13
1142	211	-21
869	136	-32
495	28	-28
131	-79	-26
-128	-158	-25
-253	-209	-10
-279	-245	-8
-277	-270	-20
-302	-282	-22
-366	-261	-21
-426	-195	-17
-428	-85	-15
-337	42	-23
-172	150	-32
3	213	-30
116	229	-35
136	214	-35
78	195	-23
-7	181	-9
-65	163	-7
-83	122	-22
-82	49	-18
-103	-49	-11
-162	-141	-12
-245	-196	-23
-306	-200	-28
-300	-159	-34
-217	-97	-34
-85	-39	-27
50	6	-30
149	43	-41
196	85	-32
208	137	-13
210	183	-20
211	207	-16
202	189	-17
163	121	-19
83	26	-7
-30	-75	-13
-144	-154	-19
-228	-202	-26
-261	-218	-27
-246	-209	-28
-195	-182	-32
-129	-135	-37
-54	-71	-31
28	3	-16
115	77	-24
201	139	-32
262	178	-30
284	185	-23
258	168	-15
187	130	-15
93	82	-14
-3	25	-12
-85	-39	-9
-150	-105	-19
-195	-165	-33
-226	-203	-32
-236	-210	-33
-228	-181	-25
-195	-116	-15
-161	-29	-18
-127	61	-39
-106	139	-39
-84	196	-26
-40	219	-28
44	209	-12
175	166	1
328	99	-15
462	19	-8
532	-60	-5
508	-122	-14
409	-161	-16
258	-175	-30
96	-175	-26
-42	-177	-40
-143	-188	-42
-211	-206	-38
-255	-208	-41
-281	-166	-44
-289	-57	-44
-281	116	-37
-257	318	-24
-217	483	7
-158	551	9
-68	477	-13
55	274	-15
214	1	-14
375	-263	-11
495	-437	-18
506	-485	-23
396	-419	-8
171	-291	-12
-86	-162	-27
-288	-66	-21
-366	-9	-19
-308	35	-37
-165	96	-48
-18	177	-38
63	259	-37
62	305	-30
13	290	-23
-28	209	-21
-25	88	-18
14	-33	-24
37	-119	-5
-3	-162	-1
-119	-170	-18
-270	-163	-18
-375	-156	-23
-370	-142	-34
-236	-110	-28
-26	-47	-24
175	40	-19
291	130	-25
299	193	-29
225	205	-28
125	171	-30
52	106	-30
15	38	-25
-10	-17	-9
-55	-57	-14
-133	-90	-19
-222	-124	-23
-277	-157	-30
-264	-174	-26
-187	-159	-31
-64	-105	-38
52	-25	-40
132	64	-38
169	137	-25
172	183	-5
167	197	-5
163	188	-5
157	163	2
130	121	-2
81	62	4
6	-21	-10
-70	-114	-26
-130	-202	-24
-167	-259	-31
-182	-263	-25
-185	-218	-29
-187	-137	-33
-188	-47	-33
-169	31	-38
-116	85	-33
-14	123	-25
130	155	-16
291	185	-25
428	205	-28
491	196	-21
446	143	-23
284	35	-35
42	-109	-45
-218	-257	-34
-415	-362	-18
-496	-393	-32
-445	-344	-41
-310	-226	-32
-152	-75	-21
-28	74	2
58	195	6
148	278	16
287	323	16
493	328	-2
709	294	1
837	215	-6
782	104	-17
503	-23	-34
72	-137	-43
-363	-213	-35
-654	-240	-38
-720	-222	-36
-580	-183	-37
-352	-148	-42
-158	-118	-40
-77	-87	-36
-95	-35	-32
-136	42	-28
-124	138	-22
-34	225	-16
90	272	-17
172	267	-21
162	211	-16
59	129	-11
-78	39	-13
-176	-40	-13
-195	-113	-6
-147	-176	-16
-77	-230	-33
-39	-257	-24
-47	-243	-25
-77	-183	-33
-87	-89	-31
-52	12	-32
16	92	-30
86	133	-22
125	142	-24
123	135	-19
101	126	-10
86	121	-21
94	106	-11
114	76	-11
116	18	-16
78	-51	-15
-6	-118	-24
-102	-163	-25
-176	-176	-25
-191	-166	-17
-151	-134	-29
-65	-90	-34
31	-29	-33
121	45	-42
194	128	-32
245	195	-22
269	224	-14
250	202	-18
179	132	-28
59	43	-16
-77	-37	-15
-195	-92	-19
-267	-121	-21
-288	-141	-31
-288	-169	-35
-296	-205	-34
-325	-232	-26
-354	-221	-19
-335	-148	-23
-229	-20	-23
-35	138	-16
199	287	-16
404	385	-17
520	410	-17
536	357	-22
494	241	-22
451	84	-11
432	-94	-6
422	-260	-20
358	-388	-21
191	-447	-20
-77	-426	-24
-372	-322	-29
-589	-167	-37
-644	-1	-41
-529	133	-36
-308	210	-38
-89	229	-42
46	208	-22
90	174	2
94	149	9
124	131	-11
196	113	-19
252	85	-34
199	45	-48
-23	1	-33
-371	-35	-30
-695	-56	-10
-797	-58	-13
-546	-50	-8
37	-40	9
768	-37	-7
1360	-45	-30
1287	-64	-33
1190	-90	-31
846	-117	-31
130	-138	-12
-480	-145	-9
-783	-131	-15
-756	-104	-28
-526	-68	-30
-307	-46	-23
-239	-45	-28
-339	-57	-31
-500	-71	-35
-589	-63	-33
-515	-25	-35
-300	40	-39
-45	115	-39
138	174	-23
201	208	-10
164	211	-12
104	201	-20
83	183	-26
107	164	-16
139	131	-8
121	81	-12
30	8	-15
-109	-79	-20
-234	-153	-21
-287	-198	-22
-251	-201	-31
-152	-167	-25
-42	-111	-24
42	-47	-23
95	11	-30
132	65	-36
179	112	-30
236	150	-26
280	166	-18
284	161	-17
231	125	-20
128	65	-12
13	-6	-7
-87	-79	-15
-150	-137	-16
-180	-180	-18
-191	-201	-23
-191	-198	-30
-178	-173	-31
-139	-118	-27
-62	-44	-32
42	39	-27
152	112	-26
237	158	-30
268	168	-30
239	136	-32
159	76	-32
51	0	-34
-56	-70	-28
-143	-121	-21
-195	-135	-14
-211	-111	-16
-193	-52	-22
-156	20	-10
-107	79	-4
-56	101	-14
2	76	-17
75	17	-25
171	-49	-30
280	-87	-31
381	-72	-39
436	-11	-32
419	78	-28
324	154	-26
171	188	-3
3	162	-11
-145	85	-37
-252	-21	-28
-320	-124	-24
-357	-196	-12
-372	-224	-9
-354	-202	-14
-287	-143	-3
-161	-63	-17
12	17	-19
191	79	-16
328	114	-22
381	119	-27
336	100	-38
204	66	-47
21	26	-49
-169	-15	-50
-321	-54	-49
-392	-87	-25
-352	-105	7
-186	-103	14
72	-84	-5
346	-53	-5
547	-29	0
580	-26	-6
431	-42	-19
159	-64	-32
-117	-70	-36
-277	-39	-36
-259	31	-31
-103	120	-28
83	194	-23
179	215	-27
121	174	-32
-65	83	-31
-285	-29	-21
-426	-121	-13
-443	-170	-22
-347	-167	-40
-212	-127	-34
-107	-72	-17
-55	-15	-2
-35	35	-7
0	85	-25
79	130	-16
183	170	-13
266	191	-17
283	183	-27
222	142	-31
107	74	-27
-10	-5	-13
-94	-81	-12
-139	-138	-31
-159	-173	-20
-175	-182	-24
-191	-171	-28
-194	-141	-28
-158	-96	-26
-76	-37	-22
37	26	-24
147	90	-21
216	142	-26
241	175	-18
228	185	-14
201	168	-20
172	120	-28
133	51	-30
71	-33	-23
-31	-123	-24
-164	-199	-32
-297	-248	-30
-392	-256	-32
-421	-218	-40
-377	-141	-34
-268	-37	-19
-118	70	-13
52	165	-21
224	221	-17
366	233	-12
455	203	-2
468	143	-2
399	77	-10
283	18	-8
166	-19	-19
91	-46	-38
72	-75	-38
75	-124	-27
40	-196	-20
-75	-281	-21
-263	-342	-35
-474	-346	-47
-610	-275	-40
-595	-130	-42
-419	53	-47
-132	229	-23
171	353	-13
410	404	-13
539	382	-2
568	305	-2
524	197	-10
433	74	-12
300	-52	-11
116	-176	-7
-117	-275	-20
-366	-331	-32
-576	-326	-30
-684	-258	-35
-654	-147	-35
-494	-23	-23
-234	82	-31
63	156	-33
343	203	-26
555	233	-33
656	247	-23
631	235	-11
468	177	-8
204	68	-5
-94	-71	-14
-340	-207	-30
-473	-288	-42
-470	-288	-31
-369	-221	-28
-237	-118	-30
-137	-26	-27
-93	29	-23
-76	52	-20
-47	66	-24
28	92	-25
136	131	-35
231	169	-34
262	177	-21
207	147	-4
86	84	-2
-46	14	-16
-142	-41	-16
-182	-78	-1
-177	-102	-2
-156	-132	-11
-137	-167	-17
-125	-192	-28
-97	-187	-31
-37	-130	-25
52	-33	-24
149	76	-23
216	161	-17
245	199	-23
234	191	-37
196	157	-23
150	115	-24
102	76	-36
44	32	-37
-32	-23	-34
-124	-91	-16
-212	-162	-6
-272	-206	-17
-296	-208	-27
-288	-164	-23
-282	-89	-40
-295	-18	-39
-320	30	-35
-312	50	-32
-213	63	-18
11	98	-14
343	169	-1
696	265	-8
950	341	-19
995	349	-13
818	249	-6
454	46	-9
39	-210	-25
-303	-437	-38
-486	-565	-37
-509	-551	-35
-442	-417	-27
-372	-227	-25
-351	-50	-32
-369	62	-35
-363	116	-41
-271	150	-35
-71	203	-21
188	296	-14
417	393	-29
528	437	-23
478	381	-11
301	215	-4
80	-13	7
-98	-232	-4
-185	-362	-9
-199	-378	-19
-185	-294	-31
-194	-170	-26
-231	-59	-35
-250	8	-38
-191	46	-37
-14	83	-28
260	134	-17
549	195	-20
740	229	-19
753	199	-14
562	90	-33
234	-78	-33
-129	-248	-20
-418	-362	-12
-569	-384	-14
-577	-313	-16
-485	-189	-6
-352	-68	-28
-224	3	-38
-116	20	-32
-29	6	-40
46	10	-31
111	62	-27
155	170	-30
166	299	-34
138	395	-26
78	406	-8
2	317	2
-79	153	-2
-147	-33	-3
-195	-176	-7
-225	-241	-17
-227	-226	-30
-200	-160	-42
-142	-90	-38
-63	-37	-43
27	-10	-37
113	14	-28
180	51	-28
218	106	-20
229	157	-10
212	179	-10
175	153	-10
123	77	-8
56	-22	-14
-18	-112	-19
-92	-171	-25
-156	-192	-31
-198	-186	-33
-215	-168	-35
-203	-147	-40
-162	-118	-42
-94	-76	-34
-5	-13	-23
101	64	-15
204	137	-21
288	188	-23
326	202	-11
302	179	-10
210	130	-24
60	71	-27
-118	13	-15
-291	-43	-14
-425	-94	-26
-496	-143	-23
-491	-182	-24
-412	-198	-43
-263	-183	-39
-66	-126	-28
151	-38	-22
352	61	-16
498	143	-21
565	181	-13
546	162	-6
470	96	2
373	10	4
300	-64	-4
245	-107	-1
202	-118	-13
123	-117	-25
-12	-133	-27
-202	-173	-36
-405	-222	-44
-558	-240	-52
-610	-190	-48
-535	-57	-36
-361	132	-32
-144	319	-32
54	434	-24
200	435	-29
279	330	-32
299	168	-7
276	14	1
229	-77	-8
162	-96	-15
83	-74	-10
5	-58	-10
-66	-86	-25
-124	-152	-24
-167	-225	-23
-198	-254	-27
-215	-212	-19
-209	-106	-6
-168	26	-23
-89	132	-33
12	183	-27
101	174	-34
144	133	-32
125	93	-27
59	72	-23
-10	68	-20
-45	57	-19
-30	18	-25
9	-53	-30
31	-135	-33
-3	-199	-11
-91	-216	-5
-191	-184	-18
-243	-112	-38
-199	-26	-35
-67	51	-26
103	114	-35
234	159	-27
275	188	-20
216	201	-11
109	190	-14
6	150	-20
-46	81	-20
-45	-4	-13
-21	-90	-8
-16	-155	-20
-50	-190	-20
-112	-192	-11
-167	-175	-16
-178	-143	-25
-133	-102	-18
-48	-52	-22
44	5	-20
114	71	-10
148	138	-20
149	195	-27
132	225	-26
110	215	-19
85	160	-27
52	67	-25
10	-46	-21
-40	-157	-28
-92	-237	-36
-137	-274	-31
-165	-259	-15
-170	-206	-13
-148	-127	-21
-89	-46	-43
1	26	-39
113	85	-25
216	129	-14
285	162	-16
283	180	-19
206	180	-7
67	152	-5
-89	96	-5
-217	18	-15
-280	-67	-28
-264	-145	-25
-195	-202	-21
-106	-225	-39
-43	-208	-54
-26	-154	-52
-42	-71	-40
-53	23	-27
-6	115	-7
125	181	0
326	213	-21
526	207	-18
633	174	-13
579	127	-3
355	76	-3
30	24	-19
-281	-30	-27
-484	-92	-31
-531	-164	-27
-466	-228	-41
-380	-263	-52
-336	-246	-44
-343	-164	-30
-328	-29	-17
-205	126	-23
63	257	-17
417	319	-16
715	295	-13
811	196	-4
642	58	-26
270	-71	-30
-139	-155	-29
-412	-175	-28
-459	-144	-22
-310	-94	-22
-94	-56	-22
46	-53	-27
45	-86	-21
-63	-127	-12
-181	-157	-13
-210	-145	-19
-121	-89	-24
33	1	-30
170	100	-28
222	179	-25
184	221	-21
99	218	-23
28	180	-27
-7	118	-25
-30	52	-28
-83	-4	-24
-191	-46	-23
-335	-76	-27
-452	-95	-28
-469	-104	-36
-350	-106	-24
-115	-95	-18
164	-67	-19
401	-24	-19
529	28	-19
528	81	-20
423	116	-13
265	120	-19
107	95	-19
-14	41	-4
-88	-21	-14
-123	-78	-13
-141	-115	-16
-158	-130	-28
-187	-129	-33
-222	-116	-30
-245	-95	-25
-232	-64	-31
-170	-21	-34
-61	32	-34
69	91	-30
195	138	-8
278	165	2
300	161	-5
266	131	-19
191	85	-25
91	31	-32
-27	-24	-46
-162	-86	-51
-331	-149	-43
-516	-206	-23
-686	-238	-28
-770	-226	-38
-692	-149	-15
-402	-15	-7
85	155	-5
671	313	2
1195	414	-8
1414	416	-1
1284	313	21
1094	127	8
519	-88	-24
-82	-268	-28
-511	-364	-36
-681	-368	-39
-618	-296	-40
-459	-202	-52
-373	-144	-49
-442	-143	-36
-635	-184	-28
-811	-214	-24
-805	-174	-19
-518	-30	-17
27	198	-6
671	438	-15
1216	605	-17
1382	619	-23
1272	465	-23
978	188	-17
400	-110	-21
-169	-338	-4
-569	-432	-26
-736	-391	-32
-686	-272	-33
-522	-142	-51
-352	-56	-35
-252	-28	-32
-237	-36	-22
-259	-41	-16
-258	-13	-10
-189	49	-4
-60	129	-11
79	194	-21
175	221	-15
188	201	-15
124	153	-25
28	94	-24
-59	39	-24
-112	-6	-29
-133	-53	-28
-150	-104	-28
-175	-160	-38
-205	-204	-33
-214	-219	-27
-172	-192	-27
-75	-118	-32
57	-13	-32
182	97	-24
262	183	-21
285	230	-10
261	224	-7
215	177	-6
169	106	-19
122	27	-26
67	-43	-21
-6	-102	-22
-94	-143	-17
-172	-170	-18
-218	-178	-20
-213	-166	-24
-160	-133	-24
-78	-81	-24
8	-16	-23
77	51	-13
131	108	-11
175	148	-13
215	162	-24
242	151	-24
245	121	-15
202	74	-21
116	18	-22
-1	-42	-18
-125	-97	-17
-230	-139	-28
-302	-167	-28
-339	-176	-37
-351	-170	-48
-340	-145	-36
-299	-103	-28
-207	-38	-18
-52	50	-23
155	153	-15
380	250	-8
555	305	-18
620	296	-29
537	202	-33
326	45	-27
48	-131	-27
-203	-274	-23
-354	-337	-24
-370	-304	-25
-271	-192	-30
-119	-49	-24
19	85	-15
99	179	-13
119	224	-11
102	230	-17
87	206	-3
98	158	10
137	83	-6
196	-15	-20
249	-120	-11
275	-207	-23
252	-248	-32
172	-234	-34
36	-179	-37
-136	-116	-28
-307	-75	-33
-421	-64	-38
-445	-72	-37
-366	-69	-32
-222	-30	-26
-72	46	-31
13	132	-29
-3	192	-28
-100	197	-38
-218	150	-37
-275	89	-23
-215	52	-1
-34	68	5
212	125	-4
436	182	-21
551	185	-24
498	107	-16
306	-38	-19
34	-209	-24
-212	-334	-24
-355	-373	-23
-352	-305	-32
-224	-167	-27
-35	-13	-27
133	109	-23
225	170	-22
225	180	-23
155	158	-24
64	129	-30
-13	100	-25
-62	63	-24
-99	7	-18
-141	-67	-20
-198	-141	-19
-253	-194	-18
-278	-201	-22
-252	-163	-22
-169	-93	-33
-51	-16	-38
66	45	-41
154	91	-38
196	125	-32
192	157	-32
157	187	-31
104	204	-29
44	192	-13
-6	137	8
-37	51	15
-40	-45	3
-19	-131	-4
16	-187	1
36	-209	-9
26	-203	-30
-18	-180	-24
-74	-144	-27
-107	-99	-40
-94	-42	-43
-36	17	-44
29	72	-38
63	109	-31
42	116	-17
-16	103	-11
-64	74	-8
-51	47	-7
40	22	-9
170	-1	-12
268	-36	-26
263	-84	-32
140	-134	-34
-58	-171	-30
-245	-170	-24
-344	-122	-39
-330	-42	-43
-248	44	-36
-175	106	-42
-159	131	-48
-194	119	-33
-205	101	-16
-103	100	-6
145	130	1
489	174	1
793	201	-8
912	169	-13
768	66	-6
400	-88	-4
-46	-250	-12
-392	-358	-26
-522	-372	-28
-424	-280	-19
-201	-117	-24
1	64	-34
81	210	-40
34	282	-42
-65	283	-40
-117	230	-26
-60	155	-24
77	81	-20
203	13	-16
222	-47	-15
96	-112	-2
-137	-181	-5
-371	-245	-8
-497	-280	-16
-473	-272	-26
-316	-212	-27
-108	-110	-42
68	10	-40
163	121	-35
183	197	-44
166	233	-38
147	230	-20
137	195	-20
123	143	-25
79	80	-22
-6	8	-20
-115	-74	-19
-217	-151	-19
-273	-209	-16
-270	-234	-23
-214	-213	-21
-128	-152	-14
-31	-64	-16
59	23	-19
135	96	-16
198	142	-16
237	166	-21
251	174	-26
234	166	-23
190	140	-23
129	93	-30
63	23	-24
-5	-60	-25
-74	-138	-17
-141	-191	-15
-202	-210	-24
-237	-190	-30
-229	-143	-31
-169	-84	-29
-65	-21	-30
46	39	-26
129	101	-25
147	155	-23
81	200	-23
-59	221	-35
-236	206	-30
-392	154	-12
-459	71	-12
-399	-19	-15
-181	-96	-10
158	-137	-5
534	-139	-5
830	-113	6
943	-83	6
830	-70	-14
529	-87	-26
158	-125	-28
-150	-157	-28
-288	-153	-39
-241	-95	-43
-79	10	-43
84	129	-40
140	215	-30
55	231	-28
-132	161	-23
-333	28	-24
-469	-114	-23
-491	-215	-28
-415	-237	-26
-282	-180	-23
-148	-75	-22
-39	33	-22
26	106	-39
47	134	-31
29	128	-20
-19	118	-29
-67	123	-25
-77	150	-9
-8	177	1
142	183	-7
323	156	-11
438	89	-15
399	-1	-17
174	-92	-20
-173	-163	-32
-497	-203	-40
-647	-209	-36
-535	-181	-19
-187	-126	-22
253	-53	-23
604	19	-21
728	75	-15
608	97	-7
339	80	-19
61	33	-20
-109	-28	-17
-138	-76	-17
-87	-102	-16
-43	-106	-29
-80	-100	-28
-190	-100	-25
-321	-110	-30
-392	-125	-33
-366	-129	-35
-256	-113	-24
-113	-70	-29
3	-7	-23
72	64	-22
105	136	-27
132	201	-20
172	252	-24
222	279	-16
240	270	-12
199	218	-19
99	122	-19
-38	4	-20
-164	-111	-14
-243	-189	-20
-262	-218	-28
-234	-200	-20
-183	-153	-32
-126	-102	-31
-65	-54	-16
7	-12	-16
91	38	-17
178	96	-18
245	154	-18
268	192	-21
238	189	-16
166	142	-26
69	61	-28
-22	-28	-25
-102	-102	-27
-169	-145	-24
-223	-160	-18
-263	-159	-24
-285	-151	-46
-275	-138	-47
-223	-115	-31
-128	-75	-25
-5	-14	-21
125	57	-18
251	126	-22
346	174	-12
409	200	-16
411	198	-33
334	170	-30
169	116	-19
-74	33	-28
-344	-76	-28
-572	-196	-15
-682	-306	-19
-618	-361	-11
-387	-338	2
-40	-230	-18
324	-60	-22
611	124	-22
755	272	-27
746	341	-20
614	324	-25
425	231	-28
228	104	-23
48	-22	-19
-113	-110	-28
-276	-147	-32
-443	-134	-33
-599	-89	-30
-684	-36	-22
-654	2	-25
-471	9	-32
-151	-14	-24
228	-52	-19
558	-83	-25
732	-84	-15
701	-49	-7
493	11	-21
203	65	-18
-45	93	-16
-172	80	-19
-169	35	-10
-98	-11	-17
-50	-41	-18
-93	-42	-21
-213	-29	-23
-353	-23	-22
-423	-41	-27
-377	-80	-32
-231	-113	-33
-61	-117	-25
54	-72	-16
80	8	-18
40	101	-24
3	174	-22
24	203	-28
118	191	-28
237	151	-27
302	101	-26
268	48	-18
128	-5	-19
-63	-65	-21
-229	-130	-23
-314	-189	-11
-305	-224	-8
-232	-214	-30
-140	-167	-42
-60	-91	-34
0	-6	-24
57	68	-20
123	122	-22
191	158	-19
242	179	-20
252	183	-15
211	168	-12
128	125	-17
30	56	-19
-59	-31	-34
-128	-118	-28
-174	-179	-21
-201	-205	-31
-212	-190	-36
-199	-148	-34
-161	-91	-27
-98	-33	-28
-23	20	-30
44	70	-27
98	118	-21
130	160	-22
154	185	-19
175	185	-5
189	150	-16
170	79	-13
92	-15	-19
-59	-113	-26
-262	-194	-13
-455	-240	-15
-561	-238	-10
-513	-192	-17
-311	-115	-27
-8	-20	-35
296	76	-44
506	152	-36
575	193	-17
532	194	-12
446	161	-9
389	105	4
394	43	-12
422	-11	-23
392	-56	-26
230	-104	-24
-75	-158	-35
-458	-218	-43
-794	-265	-34
-962	-276	-41
-894	-222	-32
-603	-95	-18
-180	70	-12
254	230	-18
592	331	-21
767	345	-19
769	279	-25
631	171	-30
406	66	-33
156	-9	-25
-61	-51	-16
-210	-82	-13
-280	-120	-20
-295	-176	-23
-288	-236	-20
-297	-269	-16
-329	-254	-15
-360	-184	-19
-347	-82	-23
-261	27	-35
-107	115	-38
69	174	-33
205	208	-25
245	224	-5
189	228	-16
68	213	-27
-56	174	-28
-134	106	-26
-148	19	-13
-110	-59	-16
-56	-117	-21
-15	-141	-30
5	-139	-30
10	-125	-27
12	-114	-18
17	-105	-5
30	-89	-10
49	-55	-21
81	4	-38
122	80	-37
167	150	-15
203	191	-19
207	183	-26
162	126	-10
68	33	-13
-50	-65	-13
-163	-148	-11
-239	-196	-17
-262	-208	-23
-249	-190	-34
-208	-151	-32
-158	-102	-33
-97	-48	-34
-24	6	-32
60	61	-31
144	112	-23
203	156	-18
214	183	-17
169	188	-17
82	163	-32
-18	106	-34
-96	32	-23
-138	-51	-25
-148	-127	-17
-143	-178	-17
-139	-196	-32
-140	-180	-19
-136	-140	-3
-103	-84	-7
-28	-22	-19
91	38	-31
232	95	-40
363	143	-34
436	177	-26
429	183	-23
326	150	-11
151	71	-15
-50	-36	-25
-222	-150	-18
-307	-237	-16
-290	-265	-26
-194	-233	-30
-78	-150	-24
-2	-47	-26
1	39	-25
-50	88	-23
-100	95	-32
-86	87	-27
19	89	-20
179	127	-21
318	195	-23
350	264	-24
245	290	-11
42	236	3
-163	101	-6
-281	-84	-35
-267	-256	-37
-152	-364	-26
-22	-378	-21
41	-312	-20
2	-209	-31
-100	-114	-28
-185	-49	-16
-178	-5	-10
-63	42	-20
114	116	-15
269	202	-13
331	268	-30
273	279	-19
130	221	-12
-27	116	-21
-139	12	-19
-178	-49	-14
-157	-62	-27
-112	-54	-35
-83	-68	-30
-85	-131	-25
-108	-222	-22
-129	-291	-27
-125	-282	-34
-82	-179	-35
0	-8	-32
104	162	-28
200	261	-21
263	268	-12
269	198	-20
214	106	-25
103	32	-17
-30	-2	-15
-156	-16	-18
-239	-41	-21
-279	-90	-24
-281	-149	-24
-271	-183	-25
-262	-164	-25
-255	-88	-32
-228	21	-40
-156	117	-33
-33	168	-19
127	159	-19
288	110	-28
406	47	-20
450	-7	-13
415	-41	-18
326	-60	-21
221	-69	-24
121	-74	-12
38	-72	2
-36	-66	-7
-118	-52	-21
-204	-29	-35
-281	3	-42
-321	53	-41
-312	114	-40
-251	175	-33
-159	211	-20
-62	201	-19
26	137	-19
105	36	-15
184	-61	-14
268	-123	-5
336	-134	-2
346	-115	-11
280	-106	-32
117	-140	-43
-109	-216	-33
-339	-297	-31
-506	-330	-31
-556	-281	-39
-477	-156	-35
-285	5	-31
-20	141	-23
275	221	-7
545	248	-4
740	253	-5
811	265	-11
724	275	-12
493	255	-19
159	162	-20
-180	-2	-18
-433	-196	-26
-545	-352	-37
-512	-393	-38
-392	-314	-33
-267	-148	-27
-182	23	-26
-143	132	-34
-114	158	-37
-53	131	-27
48	107	-18
170	121	-17
255	168	-11
258	204	-11
171	186	-4
31	100	-10
-109	-30	-19
-206	-153	-16
-241	-222	-16
-236	-225	-22
-213	-180	-21
-191	-124	-21
-166	-82	-28
-121	-54	-30
-42	-21	-28
63	32	-27
169	105	-31
244	171	-20
268	204	-18
242	187	-19
182	125	-22
111	47	-27
37	-25	-23
-31	-76	-25
-100	-112	-24
-165	-144	-22
-213	-179	-20
-232	-207	-30
-209	-206	-29
-145	-163	-22
-56	-77	-26
38	34	-26
123	136	-25
184	206	-21
219	233	-25
225	219	-30
189	182	-38
107	136	-38
-22	89	-32
-191	40	-35
-380	-14	-37
-545	-71	-30
-644	-129	-12
-635	-182	1
-489	-213	10
-208	-214	14
171	-173	1
579	-90	-3
923	21	-1
1119	134	-23
1124	210	-32
934	221	-24
623	153	-41
268	36	-40
-39	-89	-29
-255	-171	-31
-377	-191	-36
-439	-161	-40
-481	-116	-35
-513	-99	-34
-515	-120	-35
-455	-159	-32
-312	-170	-18
-109	-118	-11
91	-5	-13
216	138	-7
210	256	-25
65	308	-36
-166	287	-27
-399	218	-6
-538	141	-1
-518	83	-22
-325	45	-13
4	14	-13
374	-29	-7
689	-90	5
837	-154	-18
775	-203	-25
516	-227	-20
154	-222	-29
-180	-196	-37
-364	-155	-42
-354	-96	-53
-185	-19	-51
33	67	-36
180	136	-33
184	161	-19
58	123	-15
-117	48	-21
-247	-23	-20
-277	-37	-16
-226	22	-20
-153	129	-22
-123	215	-16
-154	221	-14
-208	128	-9
-223	-20	-15
-152	-138	-9
-5	-161	-8
160	-66	-19
274	90	-28
299	224	-24
239	262	-18
144	190	-24
63	50	-11
14	-87	-2
-17	-165	-11
-59	-174	-22
-126	-149	-27
-206	-135	-32
-260	-156	-35
-255	-191	-32
-181	-201	-37
-63	-153	-36
52	-47	-39
136	77	-36
175	177	-34
184	215	-39
183	198	-31
178	143	-12
165	85	5
131	38	-6
66	-6	-18
-19	-57	-14
-110	-122	-14
-189	-181	-21
-256	-209	-30
-318	-182	-37
-377	-106	-38
-426	-6	-31
-428	88	-26
-344	147	-20
-148	170	-8
147	168	-15
478	157	-18
769	138	-11
925	104	-17
902	41	-25
707	-57	-19
389	-177	-11
22	-292	-27
-308	-370	-30
-535	-387	-38
-621	-341	-35
-564	-245	-19
-397	-115	-18
-174	25	-28
42	160	-41
196	265	-39
262	325	-30
253	326	-11
199	270	-2
147	174	-19
117	80	-18
101	10	-18
72	-20	-19
-6	-21	-20
-138	-20	-32
-304	-43	-23
-452	-97	-25
-540	-162	-34
-561	-207	-30
-523	-201	-30
-458	-137	-16
-377	-33	-17
-260	83	-32
-67	187	-20
225	261	-10
591	299	-21
935	294	-24
1143	236	-22
1106	120	-28
818	-43	-19
350	-223	-7
-143	-372	-26
-509	-444	-30
-654	-418	-21
-589	-306	-32
-402	-150	-39
-210	2	-31
-91	114	-25
-51	177	-33
-43	204	-28
-12	213	-31
66	213	-32
157	205	-18
200	181	-2
151	134	13
18	76	-8
-145	19	-11
-257	-28	-12
-269	-63	-23
-183	-94	-18
-54	-121	-21
42	-145	-26
66	-154	-30
22	-135	-28
-43	-85	-39
-71	-16	-30
-32	56	-28
61	106	-30
159	128	-15
202	123	-16
166	96	-13
58	57	-20
-72	9	-25
-176	-44	-24
-217	-99	-25
-197	-140	-28
-143	-158	-27
-96	-141	-24
-84	-96	-22
-109	-36	-22
-145	21	-33
-158	64	-31
-105	96	-25
20	122	-19
205	143	-16
405	158	-17
551	144	-31
583	92	-28
475	0	-27
226	-113	-32
-103	-208	-27
-417	-254	-26
-617	-236	-13
-627	-166	-8
-436	-68	5
-107	12	10
252	58	3
520	62	-7
614	38	-22
528	12	-17
327	2	-21
110	19	-23
-34	56	-28
-83	93	-38
-64	105	-49
-48	77	-52
-84	14	-28
-180	-68	-26
-292	-142	-35
-358	-186	-36
-336	-191	-27
-236	-163	-28
-112	-118	-32
-30	-61	-32
-27	5	-34
-82	88	-20
-133	182	-20
-112	274	-19
7	333	-12
196	331	-12
380	261	-13
469	138	-20
418	6	-9
238	-101	-15
-5	-161	-30
-234	-181	-30
-377	-182	-25
-415	-185	-13
-361	-192	-16
-263	-189	-27
-163	-157	-31
-70	-87	-36
14	10	-24
103	106	-10
202	181	-4
302	221	-9
373	226	-25
390	201	-18
328	154	-15
187	80	-30
-6	-16	-30
-213	-118	-32
-383	-201	-37
-474	-234	-25
-459	-205	-14
-342	-122	-8
-145	-27	-11
79	44	-22
276	68	-38
400	51	-46
428	23	-31
371	12	-7
257	30	-7
130	63	-30
19	79	-21
-58	54	-26
-108	-8	-25
-143	-82	-13
-187	-137	-18
-248	-154	-5
-325	-142	-18
-399	-120	-22
-438	-105	-15
-413	-95	-25
-303	-66	-25
-110	4	-28
126	117	-30
354	244	-28
508	339	-22
566	353	-15
520	275	-12
409	137	-21
284	-17	-23
184	-138	-18
109	-213	-20
39	-249	-20
-50	-272	-23
-158	-286	-29
-262	-282	-32
-324	-242	-28
-312	-144	-26
-234	-7	-32
-117	136	-27
-6	243	-15
75	282	-16
124	259	-33
157	194	-44
183	125	-30
194	63	-5
165	10	3
76	-46	-9
-68	-105	-25
-232	-157	-19
-352	-183	-27
-387	-173	-35
-324	-129	-23
-194	-70	-24
-50	-15	-25
65	32	-34
131	75	-35
160	120	-36
167	171	-30
162	209	-24
139	210	-22
87	159	-13
7	64	-16
-84	-42	-17
-153	-127	-23
-177	-159	-19
-149	-144	-18
-93	-107	-23
-43	-79	-23
-22	-72	-16
-27	-81	-19
-37	-78	-30
-27	-40	-34
8	33	-30
56	120	-26
93	182	-36
104	197	-32
94	158	-28
86	85	-31
99	9	-21
128	-49	-21
143	-85	-25
107	-106	-22
4	-127	-2
-152	-152	6
-311	-173	-10
-404	-174	-1
-388	-142	8
-252	-72	0
-29	25	-13
221	132	-31
439	221	-30
575	265	-25
600	247	-21
508	161	-19
326	28	-34
82	-119	-33
-162	-237	-31
-342	-289	-31
-418	-263	-24
-389	-182	-25
-287	-86	-33
-170	-13	-36
-85	14	-32
-48	8	-33
-41	2	-37
-27	27	-32
13	93	-25
71	169	-24
117	218	-23
122	206	-11
82	131	-2
20	23	-16
-22	-72	-20
-30	-126	-27
-10	-133	-28
3	-110	-21
-24	-90	-24
-102	-86	-27
-197	-93	-36
-263	-92	-36
-267	-68	-20
-203	-22	0
-97	35	-3
20	83	-14
120	112	-25
206	128	-28
280	138	-16
335	145	-23
341	135	-32
267	96	-25
101	20	-11
-116	-76	-4
-304	-155	-11
-379	-183	-23
-302	-152	-22
-102	-76	-14
129	11	-26
295	69	-33
339	95	-31
273	101	-27
169	113	-26
91	142	-30
74	170	-28
85	168	-26
65	106	-20
-25	-6	-22
-183	-138	-24
-344	-237	-20
-439	-265	-22
-421	-228	-19
-300	-152	-12
-124	-82	-18
44	-41	-30
164	-32	-33
237	-28	-30
276	-5	-24
300	41	-18
302	93	-18
268	123	-20
184	115	-20
66	70	-20
-57	11	-19
-150	-41	-19
-197	-76	-28
-213	-98	-38
-225	-119	-40
-253	-141	-47
-296	-158	-52
-330	-143	-32
-325	-92	-14
-267	0	-22
-165	113	-27
-39	214	-26
87	279	-19
206	295	-7
317	261	4
409	187	0
462	93	-10
439	-12	-4
331	-109	-15
140	-184	-20
-76	-230	-15
-248	-237	-25
-317	-215	-26
-269	-174	-25
-147	-123	-36
-11	-66	-43
77	-2	-36
83	70	-23
13	148	-28
-106	208	-40
-236	231	-13
-343	202	2
-388	134	-15
-329	61	-19
-143	20	-13
157	28	-19
496	63	-28
753	79	-40
809	26	-31
613	-110	-23
224	-289	-28
-202	-433	-28
-484	-460	-21
-509	-348	-17
-300	-131	-25
10	93	-15
242	233	-17
280	247	-17
141	163	-19
-63	59	-25
-194	10	-13
-185	41	-23
-79	111	-19
6	150	-12
-39	103	-13
-225	-32	-15
-452	-190	-16
-565	-288	-16
-458	-264	-23
-132	-130	-21
279	53	-33
598	205	-30
688	261	-26
506	229	-30
157	140	-34
-232	57	-44
-515	7	-35
-621	-10	-24
-537	-15	-27
-305	-29	-19
3	-48	-7
320	-59	-33
563	-46	-35
671	-18	-16
614	4	-19
407	-6	-28
132	-53	-32
-96	-109	-14
-185	-127	-6
-115	-79	-10
50	30	-17
196	149	-3
219	218	-18
95	197	-32
-117	91	-9
-316	-53	-8
-415	-174	-12
-390	-230	-24
-292	-216	-20
-197	-160	-32
-151	-102	-35
-143	-61	-31
-130	-32	-47
-62	7	-42
63	63	-46
199	135	-40
276	194	-23
254	215	-4
138	190	-3
-11	131	-8
-127	64	-4
-170	4	-2
-141	-41	-11
-83	-85	-20
-38	-127	-21
-30	-167	-19
-47	-190	-16
-62	-175	-26
-48	-121	-40
2	-42	-38
76	31	-34
150	79	-38
203	92	-31
222	85	-25
198	83	-27
128	97	-26
9	123	-24
-145	132	-19
-307	103	-8
-425	18	-10
-452	-101	-15
-360	-213	-7
-160	-277	-22
94	-261	-38
323	-175	-35
459	-53	-28
472	60	-29
381	127	-31
245	141	-24
127	119	-25
69	89	-22
71	70	-21
93	66	-25
86	61	-20
18	35	-15
-109	-20	-13
-267	-94	-16
-411	-154	-25
-503	-181	-37
-526	-157	-27
-480	-96	-21
-371	-16	-26
-205	54	-23
4	109	-13
237	147	-20
451	174	-23
598	202	-14
634	215	-19
552	207	-21
381	158	-34
180	67	-34
13	-49	-11
-84	-171	1
-118	-265	-9
-125	-321	-24
-143	-322	-22
-188	-279	-25
-237	-205	-30
-253	-110	-32
-206	-11	-32
-95	81	-30
42	153	-27
156	197	-30
200	210	-30
167	193	-25
78	155	-23
-27	101	-26
-120	38	-26
-188	-29	-18
-237	-93	-9
-281	-140	-11
-315	-158	-19
-318	-134	-20
-264	-72	-6
-148	6	-16
28	80	-36
222	123	-25
387	131	-30
484	106	-32
491	66	-28
417	27	-30
285	4	-23
133	-10	-24
-11	-22	-21
-126	-43	-11
-209	-81	-10
-256	-127	-19
-277	-173	-11
-278	-198	-21
-263	-194	-28
-240	-155	-24
-201	-86	-25
-150	-1	-18
-88	82	-24
-22	145	-20
41	188	-21
102	210	-19
159	221	-17
216	224	-26
269	212	-33
302	170	-34
297	83	-31
223	-45	-33
80	-192	-26
-102	-312	-28
-263	-368	-25
-345	-338	-15
-307	-231	-1
-153	-86	-2
59	53	-27
252	150	-20
354	195	-10
341	198	-15
237	182	-23
94	162	-45
-31	142	-40
-111	118	-33
-151	78	-28
-175	17	-19
-207	-59	-18
-245	-139	-18
-267	-208	-17
-245	-249	-21
-169	-246	-28
-53	-198	-27
66	-110	-27
156	-3	-20
195	97	-23
191	168	-24
163	192	-22
125	178	-28
84	138	-31
21	93	-39
-68	56	-32
-184	25	-21
-291	-8	-19
-350	-53	-11
-325	-106	-12
-221	-154	-10
-64	-181	-18
95	-174	-21
216	-133	-11
284	-72	-24
314	-6	-28
323	59	-32
320	120	-33
288	171	-25
206	205	-22
56	204	-17
-136	150	-13
-315	47	-11
-402	-83	-8
-362	-196	-7
-210	-256	-15
-19	-238	-24
126	-159	-30
164	-51	-21
99	37	-25
1	85	-34
-54	88	-32
-12	76	-35
111	75	-25
244	101	-23
299	145	-28
224	180	-30
34	174	-39
-191	116	-34
-358	11	-21
-400	-108	-5
-300	-202	-5
-105	-248	-20
109	-233	-22
266	-171	-30
328	-94	-25
294	-30	-10
198	0	-11
93	-1	-17
18	-20	-19
-1	-24	-16
28	3	-22
78	63	-31
109	137	-25
94	185	-27
19	178	-32
-97	106	-37
-221	-5	-38
-317	-113	-40
-360	-174	-30
-350	-166	-15
-298	-101	-20
-225	-21	-8
-142	33	-7
-59	41	-17
27	15	-17
113	-15	-20
186	-11	-19
230	38	-20
234	118	-27
201	181	-32
133	189	-20
54	127	-13
-25	13	-18
-94	-106	-13
-150	-190	-13
-190	-215	-32
-208	-188	-30
-199	-133	-24
-156	-81	-36
-81	-37	-33
12	1	-40
105	45	-36
175	105	-26
216	168	-20
225	210	-22
196	206	-28
147	153	-25
76	63	-27
-4	-33	-26
-83	-103	-19
-145	-137	-12
-180	-135	-18
-183	-118	-8
-161	-98	-11
-126	-86	-16
-91	-74	-11
-52	-50	-13
-7	-13	-17
56	38	-27
133	87	-30
208	121	-30
244	126	-29
212	106	-32
115	67	-30
-18	22	-30
-137	-21	-27
-195	-57	-21
-173	-87	-18
-95	-111	-20
-5	-127	-24
44	-129	-6
42	-116	-11
8	-81	-7
-14	-31	-9
10	28	-34
81	80	-36
164	112	-34
213	121	-23
203	110	-30
138	94	-27
58	78	-28
4	67	-31
-15	53	-13
-22	23	-10
-56	-29	-3
-145	-101	-10
-267	-171	-20
-360	-214	-13
-357	-216	-27
-226	-182	-42
2	-129	-42
236	-87	-30
372	-64	-28
351	-52	-46
193	-25	-29
-18	41	-8
-172	148	-13
-198	261	-16
-98	333	-21
59	316	-25
182	207	-9
202	43	-1
117	-111	-11
-24	-200	-23
-141	-200	-23
-184	-135	-22
-141	-51	-30
-45	9	-37
56	30	-34
135	33	-32
175	45	-35
190	82	-21
180	124	-9
141	139	-13
66	98	-3
-46	0	15
-178	-116	-4
-295	-202	-29
-353	-226	-33
-343	-185	-34
-272	-114	-28
-176	-50	-34
-87	-17	-40
-22	-4	-40
29	14	-36
82	60	-30
143	131	-25
204	197	-15
234	229	-16
206	198	-24
117	122	-24
-14	29	-16
-152	-48	-17
-260	-101	-12
-317	-130	-15
-316	-151	-17
-263	-169	-20
-176	-171	-35
-61	-142	-24
64	-74	-28
186	16	-31
283	96	-24
340	135	-21
355	121	-19
343	75	-26
318	28	-25
280	12	-24
228	26	-23
140	40	-26
13	22	-36
-150	-44	-33
-310	-138	-24
-425	-218	-25
-468	-237	-28
-426	-179	-23
-321	-69	-12
-177	48	-3
-23	135	-5
117	174	-16
222	177	-21
266	164	-32
230	148	-27
111	119	-22
-57	61	-24
-212	-32	-28
-281	-140	-20
-226	-226	-15
-58	-245	-26
147	-187	-22
302	-78	-14
359	33	-11
322	96	-25
242	96	-21
194	51	-16
202	4	-21
244	-9	-26
257	23	-25
192	81	-27
46	127	-41
-139	132	-37
-302	93	-32
-407	25	-28
-459	-48	-30
-488	-104	-27
-509	-135	-15
-497	-142	-8
-392	-127	-10
-158	-94	-21
176	-41	-21
508	16	-14
709	62	-13
689	82	-21
462	66	-27
142	28	-31
-110	-5	-39
-191	-8	-42
-101	25	-30
55	77	-18
144	110	-14
85	91	-10
-102	13	-11
-318	-101	-8
-445	-204	-6
-428	-253	-15
-291	-224	-23
-125	-133	-21
-8	-20	-22
33	78	-24
34	137	-24
51	165	-24
116	175	-16
210	190	-28
273	196	-48
258	179	-40
149	114	-39
-10	0	-32
-152	-135	-15
-230	-250	-11
-233	-301	-19
-193	-274	-11
-148	-189	-11
-116	-86	-17
-87	-6	-16
-37	39	-21
44	56	-20
147	80	-20
231	123	-32
263	183	-38
234	229	-31
155	228	-31
62	162	-32
-22	47	-33
-89	-74	-27
-153	-167	-19
-225	-204	-9
-307	-192	-19
-375	-154	-24
-399	-111	-5
-355	-78	-8
-244	-47	-12
-83	-8	-18
99	49	-19
269	120	-22
415	188	-20
521	236	-24
578	244	-38
578	215	-32
512	143	-28
387	40	-12
222	-82	-4
50	-202	-14
-88	-297	-20
-172	-346	-20
-201	-340	-33
-193	-281	-45
-170	-184	-43
-143	-78	-41
-110	21	-39
-59	100	-37
7	160	-29
78	201	-28
121	227	-19
109	228	-10
31	195	-13
-96	129	-4
-232	37	-8
-342	-61	-27
-392	-143	-28
-389	-190	-20
-339	-192	-20
-259	-158	-23
-164	-101	-22
-53	-40	-9
64	5	-11
175	27	-25
260	28	-23
297	21	-24
275	20	-22
209	41	-19
114	84	-23
14	130	-32
-83	162	-32
-170	151	-20
-247	92	-15
-298	-5	-11
-296	-106	-20
-223	-177	-31
-86	-190	-30
79	-140	-27
216	-51	-26
285	45	-30
270	116	-32
205	147	-27
140	141	-16
128	116	-8
167	91	-19
226	67	-20
240	41	-11
171	2	-8
21	-64	-14
-157	-149	-24
-299	-235	-24
-352	-292	-26
-315	-303	-30
-226	-248	-27
-141	-138	-17
-99	4	-21
-98	149	-22
-102	262	-26
-63	331	-39
33	341	-36
178	301	-28
322	227	-16
404	127	-7
387	21	-21
269	-74	-26
93	-153	-12
-91	-209	-16
-222	-235	-15
-273	-240	-19
-246	-223	-19
-166	-191	-21
-67	-147	-16
17	-90	-19
71	-24	-30
98	48	-24
102	117	-31
93	166	-35
79	181	-32
62	157	-21
46	96	-15
28	13	-16
2	-65	-24
-51	-124	-28
-142	-144	-40
-281	-127	-47
-445	-82	-50
-598	-22	-33
-668	31	-24
-595	65	-21
-352	80	-11
40	76	-10
498	72	-7
912	81	-7
1151	106	6
1165	138	-8
934	154	-3
541	121	-13
93	31	-27
-279	-108	-21
-501	-257	-46
-550	-362	-35
-473	-383	-40
-350	-303	-46
-243	-156	-38
-188	3	-28
-166	120	-13
-139	168	-12
-75	158	-23
29	130	-38
139	127	-23
214	160	-29
216	209	-32
145	229	-21
28	187	-22
-94	78	-13
-194	-62	-16
-260	-185	-16
-296	-246	-7
-306	-229	-6
-289	-163	-6
-231	-87	-18
-119	-39	-33
31	-20	-27
192	-11	-20
314	20	-14
358	85	-18
313	165	-33
196	224	-40
44	224	-51
-99	160	-45
-208	55	-40
-270	-47	-40
-281	-111	-24
-241	-125	-12
-144	-109	5
-6	-94	19
144	-104	21
265	-134	8
312	-163	-15
270	-157	-32
167	-105	-40
57	-19	-36
-1	75	-33
23	143	-20
107	171	-25
196	157	-37
223	111	-32
154	50	-28
-1	-16	-28
-189	-89	-30
-348	-162	-26
-433	-225	-27
-433	-260	-26
-366	-249	-33
-252	-181	-38
-121	-57	-32
12	98	-32
127	252	-47
196	368	-49
203	416	-19
144	393	11
58	305	5
2	183	-2
32	57	14
158	-45	6
334	-119	7
470	-169	9
478	-209	-11
324	-254	-23
54	-297	-43
-221	-322	-38
-386	-308	-13
-375	-240	-28
-212	-119	-42
14	28	-40
195	164	-40
259	257	-37
203	290	-30
78	265	-23
-50	198	-23
-143	108	-23
-209	15	-15
-277	-70	-17
-375	-141	-26
-491	-192	-23
-577	-212	-17
-568	-192	-23
-419	-131	-23
-140	-35	-13
210	76	-15
537	171	-27
754	228	-33
800	226	-37
688	171	-38
454	88	-33
179	5	-24
-61	-52	-3
-229	-78	-3
-311	-85	-18
-325	-92	-32
-317	-117	-50
-311	-158	-63
-330	-191	-61
-366	-192	-44
-405	-144	-43
-407	-53	-38
-343	56	-35
-191	154	-6
52	214	17
352	235	22
648	223	22
858	195	3
902	151	-1
749	89	-7
431	-3	-9
36	-116	-11
-312	-229	-17
-518	-305	-15
-540	-319	-11
-411	-261	-13
-217	-151	-12
-50	-26	-16
37	80	-38
54	148	-44
40	178	-47
42	182	-45
78	169	-53
127	142	-49
150	99	-43
117	38	-48
26	-28	-48
-92	-85	-44
-200	-120	-30
-277	-133	-23
-325	-134	-2
-355	-139	9
-375	-147	3
-372	-147	-5
-310	-116	-8
-159	-35	-4
78	89	-3
358	230	2
605	339	-13
732	372	-24
705	316	-23
523	181	-26
245	15	-33
-35	-132	-40
-249	-222	-28
-354	-246	-35
-355	-219	-43
-290	-173	-33
-199	-126	-27
-116	-89	-12
-48	-56	-4
0	-14	-20
32	40	-22
40	101	-33
17	153	-46
-47	183	-28
-130	183	-24
-202	159	-17
-214	114	-17
-136	59	-25
20	3	-13
206	-54	-10
346	-108	-25
373	-151	-34
273	-182	-24
85	-196	-13
-107	-199	-11
-210	-192	-6
-177	-178	-7
-26	-149	-19
169	-99	-24
316	-20	-27
352	78	-22
269	170	-25
116	225	-25
-40	218	-32
-145	150	-36
-191	41	-25
-201	-63	-17
-210	-126	-10
-241	-133	-12
-279	-92	-17
-291	-31	-30
-250	20	-31
-148	48	-33
-14	56	-40
109	61	-36
182	74	-37
190	99	-32
147	126	-27
86	142	-25
36	137	-9
10	104	-1
5	49	-2
2	-21	-8
-12	-100	-15
-42	-176	-4
-79	-235	-5
-108	-259	-27
-115	-233	-37
-92	-159	-35
-40	-51	-40
31	59	-36
109	145	-32
175	191	-34
216	197	-33
216	177	-34
172	149	-28
95	118	-22
-3	81	-26
-98	28	-28
-174	-41	-19
-217	-118	-11
-226	-175	-12
-208	-201	-17
-166	-187	-6
-113	-142	0
-49	-87	-11
19	-34	-21
91	7	-32
159	43	-31
211	81	-31
237	120	-23
221	153	-17
154	161	-20
42	131	-30
-94	67	-32
-225	-13	-24
-318	-89	-30
-350	-140	-28
-312	-157	-21
-222	-143	-22
-101	-108	-24
21	-61	-11
125	-13	3
203	32	-17
248	74	-35
263	104	-25
253	115	-14
225	109	-15
188	81	-9
162	44	-3
152	6	-13
154	-30	-36
147	-64	-47
103	-103	-27
14	-142	-18
-111	-185	-28
-239	-207	-36
-324	-195	-41
-339	-138	-40
-287	-39	-38
-197	78	-30
-113	183	-28
-64	250	-31
-49	261	-21
-40	221	-16
-1	149	3
82	68	16
196	1	-4
297	-51	-15
331	-91	-30
268	-127	-34
118	-162	-28
-69	-189	-30
-231	-198	-19
-306	-179	-22
-274	-126	-32
-156	-51	-36
1	33	-33
135	113	-18
207	174	-20
208	210	-28
156	215	-16
82	194	-19
14	142	-21
-38	66	-23
-83	-23	-27
-135	-107	-28
-195	-167	-30
-258	-191	-24
-297	-177	-30
-291	-133	-30
-238	-76	-18
-147	-19	-13
-42	30	-3
51	68	-1
121	99	-20
172	118	-20
214	121	-9
254	108	-14
288	79	-12
295	40	-12
253	4	-21
150	-22	-25
-1	-39	-26
-172	-52	-32
-316	-70	-44
-392	-95	-52
-375	-111	-43
-264	-108	-43
-88	-72	-28
121	-8	-10
302	63	-8
423	120	-8
451	136	-9
390	110	-9
261	49	-18
103	-17	-13
-54	-69	-3
-188	-98	-2
-295	-101	-17
-377	-96	-35
-433	-91	-44
-456	-90	-25
-426	-89	-26
-337	-72	-38
-182	-35	-35
12	25	-33
216	97	-20
394	161	-16
523	192	-8
592	182	-11
588	131	-39
506	51	-42
360	-33	-21
154	-107	-23
-83	-154	-36
-296	-176	-36
-436	-174	-22
-473	-159	-24
-418	-137	-27
-308	-111	-17
-191	-75	-18
-107	-24	-18
-51	39	-14
-3	115	2
67	188	-1
166	237	-21
266	250	-25
325	211	-28
306	131	-21
198	22	-22
36	-86	-27
-127	-169	-19
-248	-206	-20
-300	-199	-36
-291	-163	-40
-247	-115	-36
-195	-72	-28
-145	-39	-26
-94	-7	-32
-31	35	-30
42	93	-27
121	156	-19
186	207	2
221	225	13
221	203	10
188	139	2
132	52	-25
63	-40	-29
-13	-127	-24
-89	-194	-42
-159	-238	-49
-213	-249	-42
-247	-223	-21
-253	-157	-21
-232	-61	-30
-176	45	-34
-84	142	-25
50	207	0
216	230	-4
381	211	-21
498	166	-23
523	104	-22
423	34	-28
216	-36	-30
-35	-106	-19
-262	-170	-20
-400	-216	-37
-419	-237	-36
-342	-225	-46
-217	-182	-48
-95	-117	-19
0	-43	-1
65	34	-11
117	106	-20
164	168	-12
208	211	2
228	233	4
205	224	-21
133	181	-38
27	110	-35
-88	21	-29
-188	-74	-24
-248	-169	-31
-262	-248	-25
-231	-299	-21
-163	-309	-20
-72	-265	-26
21	-173	-38
98	-38	-41
132	106	-41
107	228	-30
15	298	-38
-126	305	-18
-280	261	0
-390	190	-7
-392	120	6
-256	70	2
22	47	0
374	37	-14
695	22	-34
853	-17	-22
783	-96	-15
486	-203	-25
77	-322	-32
-286	-404	-28
-465	-416	-27
-402	-326	-42
-162	-157	-48
107	52	-35
257	235	-30
211	330	-47
8	321	-41
-229	230	-21
-366	109	-15
-339	12	6
-176	-35	16
14	-41	5
119	-39	3
90	-57	-7
-39	-104	-22
-172	-154	-23
-221	-169	-30
-144	-123	-39
13	-20	-42
175	110	-45
267	225	-47
261	283	-36
182	275	-24
78	209	-28
-7	102	-21
-63	-17	-10
-105	-131	-13
-155	-218	-11
-214	-268	-17
-267	-264	-16
-283	-215	-6
-241	-129	-16
-149	-32	-23
-28	49	-32
81	103	-45
155	125	-48
190	132	-33
194	138	-32
176	143	-33
151	141	-25
110	113	-24
52	52	-20
-18	-33	-18
-94	-120	-17
-154	-179	-8
-184	-192	2
-176	-162	-7
-137	-108	-16
-80	-49	-13
-19	-4	-10
33	27	-29
68	53	-37
83	83	-27
80	117	-24
63	143	-25
46	156	-27
40	139	-16
58	99	-6
98	43	0
151	-19	2
194	-81	-8
203	-142	-30
162	-202	-36
69	-256	-31
-48	-286	-28
-160	-274	-34
-230	-207	-56
-234	-82	-60
-173	77	-55
-63	237	-37
68	354	-18
190	401	-13
273	366	-19
297	261	-13
251	119	15
142	-29	0
-14	-150	-37
-185	-232	-43
-341	-264	-41
-450	-261	-36
-497	-227	-32
-485	-169	-23
-415	-98	-16
-285	-22	-23
-105	48	-15
121	110	5
366	149	8
569	164	-7
688	152	-19
655	115	-20
483	54	-26
219	-24	-26
-49	-108	-33
-241	-184	-30
-319	-233	-27
-299	-236	-34
-237	-191	-37
-194	-106	-39
-195	-6	-29
-215	85	-32
-210	148	-31
-141	177	-23
-10	183	-17
140	179	-15
257	171	-21
295	159	-11
253	131	-7
162	77	-4
65	-4	0
-15	-101	-12
-76	-191	-20
-132	-249	-21
-195	-263	-27
-249	-227	-25
-269	-155	-13
-227	-67	-11
-121	20	-12
21	93	-19
154	149	-23
236	183	-32
251	197	-38
211	182	-42
147	137	-45
77	70	-40
13	-7	-23
-49	-72	-8
-111	-114	-20
-170	-121	-25
-208	-108	-23
-207	-88	-24
-166	-74	-25
-96	-68	-31
-23	-61	-15
33	-41	-31
63	4	-45
79	63	-25
88	124	-32
98	164	-37
102	170	-25
92	147	-4
62	103	-5
22	55	-8
-10	6	6
-24	-43	-10
-19	-99	-13
-12	-157	-19
-18	-203	-31
-42	-222	-26
-71	-192	-15
-80	-126	-16
-47	-32	-31
23	58	-32
98	125	-43
136	160	-37
111	162	-25
34	143	-9
-52	111	13
-99	70	9
-77	20	-12
-2	-35	-43
69	-92	-48
80	-140	-42
11	-175	-39
-108	-192	-32
-201	-184	-35
-203	-153	-35
-83	-93	-36
121	-11	-27
314	78	-26
404	154	-27
333	191	-23
122	182	-20
-150	134	-23
-378	76	-24
-481	33	-19
-431	23	-8
-256	41	6
-24	58	-4
184	41	-14
311	-27	-27
333	-137	-32
262	-256	-20
140	-330	-12
16	-322	-20
-60	-222	-33
-71	-49	-26
-16	144	-23
68	301	-17
144	370	-14
179	335	-19
156	218	-20
86	63	-16
-5	-72	-15
-99	-159	-31
-181	-183	-39
-243	-166	-30
-281	-135	-17
-285	-112	-27
-245	-98	-38
-163	-70	-30
-58	-18	-33
33	62	-29
82	153	-16
79	224	-15
44	254	-3
16	238	-1
29	189	-8
85	118	-12
154	37	-23
186	-55	-23
147	-161	-24
41	-263	-28
-92	-341	-33
-191	-355	-32
-217	-298	-26
-160	-176	-23
-49	-30	-33
63	92	-28
141	160	-23
172	170	-31
170	153	-12
151	131	-4
129	128	-13
95	133	-16
41	126	-21
-40	88	-20
-130	14	-22
-211	-71	-20
-256	-147	-25
-261	-181	-27
-239	-174	-25
-205	-132	-35
-172	-81	-30
-129	-30	-30
-66	15	-36
25	57	-33
130	104	-41
216	150	-43
251	193	-53
216	215	-43
132	211	-16
41	179	2
-7	117	9
8	29	-3
71	-81	25
140	-199	44
175	-309	0
155	-379	-30
93	-387	-23
28	-319	-31
-5	-186	-31
4	-23	-36
44	123	-51
86	215	-40
105	236	-34
91	197	-25
49	128	-23
-11	64	-23
-93	19	-24
-208	-8	-33
-363	-38	-48
-550	-87	-46
-719	-155	-33
-798	-222	-47
-714	-246	-37
-436	-199	-7
10	-70	12
527	111	1
967	298	-15
1208	424	-9
1183	444	-15
917	350	-16
506	173	-20
107	-22	-20
-181	-178	-19
-308	-254	-33
-303	-246	-25
-250	-196	-19
-226	-147	-15
-260	-129	-22
-325	-137	-32
-366	-142	-31
-328	-102	-40
-214	-3	-36
-60	132	-39
69	261	-40
135	325	-26
132	305	-27
93	209	-25
52	84	-18
23	-25	-16
-8	-88	-1
-74	-104	6
-183	-99	2
-315	-95	3
-410	-109	-11
-418	-131	-28
-312	-151	-18
-121	-148	-13
94	-121	-19
266	-78	-25
350	-26	-26
350	17	-21
296	51	-29
229	72	-34
172	80	-30
129	72	-31
82	48	-30
12	9	-35
-82	-38	-41
-189	-79	-34
-280	-106	-30
-332	-111	-25
-321	-96	-20
-253	-66	-10
-133	-28	-3
12	10	-4
150	48	-11
256	85	-17
312	123	-8
318	163	-17
284	195	-23
234	210	-33
172	190	-55
102	129	-35
6	31	-17
-124	-82	-18
-285	-181	-21
-438	-238	-33
-529	-238	-35
-507	-190	-32
-352	-116	-25
-97	-40	-9
187	21	-13
410	68	-12
502	108	-3
451	148	-16
300	179	-17
127	190	-14
5	158	-18
-33	80	-19
-8	-31	-23
31	-140	-22
34	-218	-20
-12	-241	-30
-85	-214	-27
-135	-159	-27
-130	-101	-34
-67	-56	-30
22	-25	-39
94	6	-42
121	48	-35
104	105	-22
76	166	-10
63	208	-21
79	213	-33
97	174	-25
82	99	-21
11	4	-16
-105	-86	-20
-229	-151	-26
-318	-178	-23
-340	-169	-31
-304	-135	-30
-243	-88	-27
-197	-40	-25
-184	2	-33
-191	35	-30
-184	66	-20
-124	96	-25
1	125	-11
179	145	-13
358	148	-16
490	126	-19
525	78	-16
446	8	-11
268	-70	-31
39	-145	-33
-175	-205	-30
-312	-243	-24
-333	-245	-26
-240	-210	-16
-71	-138	-4
100	-41	-8
211	62	-20
229	150	-30
162	204	-22
65	215	-18
-3	195	11
-3	149	4
60	90	-23
141	22	-18
176	-53	-17
126	-135	-31
-12	-208	-35
-189	-254	-31
-333	-251	-25
-387	-195	-20
-329	-102	-20
-189	1	-18
-25	84	-33
107	130	-36
175	149	-29
186	154	-20
167	161	-27
143	174	-37
124	183	-23
98	168	-25
36	116	-28
-64	33	-37
-199	-56	-40
-325	-130	-39
-407	-169	-35
-410	-171	-22
-331	-145	-23
-188	-109	-17
-10	-75	-14
162	-41	-16
300	-7	-9
383	36	-3
407	85	-3
371	130	-8
284	153	-14
170	135	-21
46	77	-21
-60	-11	-23
-143	-101	-25
-194	-171	-30
-223	-199	-41
-231	-183	-36
-223	-137	-20
-193	-81	-12
-141	-25	-24
-68	22	-37
13	63	-34
89	103	-32
144	140	-25
169	169	-19
162	181	-16
122	169	-19
53	135	-33
-43	86	-35
-156	31	-37
-267	-26	-32
-345	-88	-25
-358	-147	-28
-290	-196	-33
-142	-219	-34
60	-198	-19
276	-127	-13
462	-22	-12
583	87	-3
624	164	9
579	186	0
466	150	1
302	71	0
127	-19	-10
-33	-103	-11
-155	-163	-26
-231	-196	-37
-269	-207	-35
-290	-192	-28
-312	-157	-22
-335	-99	-18
-342	-32	-19
-308	22	-17
-225	51	-15
-97	51	-20
40	33	-34
144	23	-40
184	43	-43
165	100	-40
103	180	-28
30	249	-25
-31	275	-31
-81	241	-41
-124	148	-30
-172	22	-12
-210	-103	4
-222	-190	-7
-181	-222	-21
-87	-192	-16
39	-117	-28
159	-18	-37
244	79	-48
276	149	-48
267	181	-46
237	171	-34
200	130	-30
153	68	-32
85	2	-5
-10	-59	11
-126	-114	6
-235	-160	-1
-304	-199	6
-311	-230	-6
-259	-241	-12
-172	-227	-13
-79	-178	-27
-4	-99	-28
42	4	-43
59	112	-47
50	206	-39
15	274	-23
-38	305	-19
-85	300	-27
-93	261	-21
-28	198	-15
115	105	-8
300	-12	-12
451	-140	-8
491	-263	-14
375	-355	-26
143	-393	-30
-123	-371	-35
-312	-287	-37
-350	-173	-35
-236	-56	-25
-48	39	-26
110	103	-34
163	137	-34
102	157	-27
-14	170	-24
-99	178	-27
-99	171	-17
-19	142	-6
82	86	-15
129	12	-14
81	-58	-13
-44	-110	-16
-186	-127	-16
-267	-112	-21
-248	-72	-25
-135	-21	-26
18	32	-30
150	83	-36
214	124	-28
208	155	-19
154	166	-15
78	149	-18
1	106	-22
-75	39	-30
-153	-32	-30
-237	-98	-30
-308	-140	-35
-342	-161	-21
-312	-157	-12
-210	-129	-9
-55	-86	-5
115	-24	-16
258	40	-33
339	100	-27
346	130	-16
300	115	-13
216	56	-20
124	-29	-32
44	-109	-28
-26	-151	-32
-97	-134	-27
-180	-77	-23
-279	-14	-20
-378	17	-13
-442	-9	-12
-425	-76	-18
-299	-140	-23
-62	-155	-17
238	-90	-27
526	38	-43
707	182	-39
732	274	-33
592	275	-30
346	189	-13
90	58	-13
-100	-54	-18
-189	-109	-20
-198	-100	-24
-181	-60	-16
-195	-33	-34
-258	-51	-44
-341	-105	-28
-389	-163	-32
-358	-181	-41
-244	-139	-46
-79	-43	-35
83	81	-23
196	191	-23
245	265	-20
249	287	-17
222	266	-24
175	209	-36
103	120	-26
1	11	-8
-119	-105	9
-221	-202	29
-256	-262	37
-205	-272	20
-79	-233	0
65	-170	-11
162	-101	-22
172	-43	-34
109	8	-34
26	55	-27
-12	106	-28
24	156	-38
111	183	-43
192	171	-34
204	113	-32
125	23	-29
-20	-75	-25
-170	-145	-26
-271	-174	-29
-297	-162	-41
-267	-127	-44
-229	-90	-29
-217	-58	-26
-247	-33	-33
-300	0	-38
-343	45	-50
-336	101	-49
-257	162	-28
-95	210	-8
142	240	-20
418	244	-41
679	230	-21
846	181	5
862	93	8
696	-40	0
389	-203	-9
30	-362	-2
-259	-474	22
-392	-492	7
-353	-408	-25
-193	-241	-15
-13	-41	-20
105	131	-40
124	244	-37
78	287	-42
22	279	-46
-2	250	-42
9	214	-43
20	170	-28
-14	108	-15
-108	24	-5
-239	-77	-1
-355	-167	-2
-415	-224	-2
-393	-231	-6
-319	-191	-19
-216	-125	-31
-110	-52	-34
-6	14	-36
99	71	-37
208	120	-35
299	161	-33
341	183	-31
311	174	-20
215	129	-12
80	55	-9
-47	-25	-16
-134	-92	-23
-176	-124	-19
-187	-126	-30
-195	-117	-37
-209	-111	-20
-221	-115	-34
-206	-114	-48
-148	-89	-26
-46	-22	-31
74	79	-22
189	182	-7
275	250	-1
322	252	-4
334	183	-22
311	64	-25
251	-66	-27
148	-177	-11
10	-245	-20
-139	-268	-28
-262	-251	-31
-328	-201	-36
-319	-126	-22
-247	-34	-30
-150	62	-26
-58	142	-26
9	195	-28
63	210	-26
120	197	-40
190	168	-28
260	137	-15
299	110	-17
262	81	-11
140	35	-20
-53	-27	-30
-267	-101	-28
-428	-170	-24
-480	-211	-19
-392	-215	-16
-188	-180	-17
72	-119	-7
311	-48	-5
458	20	-22
478	70	-26
383	104	-26
229	115	-35
81	109	-26
-3	88	-19
-10	58	-28
34	24	-27
62	-16	-23
28	-64	-23
-91	-121	-18
-259	-178	-19
-410	-216	-19
-480	-216	-18
-431	-162	-10
-280	-57	-10
-78	72	-16
116	192	-7
257	265	-13
331	282	-30
341	243	-39
306	174	-36
241	100	-30
151	34	-30
38	-21	-27
-87	-67	-17
-216	-107	-25
-339	-130	-34
-452	-126	-33
-540	-97	-42
-577	-50	-43
-529	-12	-43
-344	-2	-37
-18	-23	-34
403	-54	-21
809	-61	-6
1060	-29	0
1060	40	9
800	107	-6
371	131	-9
-71	83	-8
-378	-24	-23
-474	-145	-28
-399	-232	-23
-259	-243	-20
-166	-187	-19
-167	-94	-8
-227	-8	-6
-260	42	-21
-199	62	-26
-38	72	-32
155	98	-38
290	140	-31
302	186	-25
203	207	-12
52	189	-8
-70	134	-12
-124	60	-9
-121	-9	-16
-115	-69	-22
-152	-118	-33
-236	-162	-35
-327	-196	-36
-366	-212	-40
-319	-190	-43
-191	-119	-51
-30	-14	-52
109	106	-50
197	205	-39
238	261	-18
258	272	0
279	243	-4
302	183	-11
306	104	-21
261	7	-22
154	-106	-2
6	-219	-18
-145	-309	-30
-256	-351	-19
-300	-322	-23
-278	-238	-23
-213	-124	-21
-136	-19	-8
-68	56	-19
-24	98	-21
4	121	-13
24	153	-12
53	197	-2
101	244	1
159	262	-10
209	228	-12
222	126	-4
178	-19	-18
71	-169	-23
-68	-278	-19
-195	-322	-27
-258	-299	-31
-231	-227	-35
-127	-134	-42
-1	-40	-46
86	53	-48
99	153	-45
44	257	-39
-24	337	-51
-51	358	-44
3	289	-24
118	132	-11
241	-74	6
292	-259	4
234	-353	-7
72	-326	-13
-129	-213	-24
-285	-84	-22
-329	-15	-18
-249	-35	-33
-87	-119	-34
86	-186	-33
204	-167	-34
240	-41	-26
206	150	-27
143	319	-25
90	388	-21
59	329	-18
42	185	-19
9	25	-25
-56	-82	-20
-156	-113	-19
-261	-95	-19
-340	-77	-22
-366	-93	-27
-328	-133	-24
-234	-166	-31
-104	-144	-24
36	-60	-17
160	59	-21
239	168	-21
253	221	-17
196	205	-14
82	142	-17
-58	74	-18
-181	23	-16
-246	4	-22
-236	-1	-33
-154	-8	-40
-29	-31	-30
107	-63	-16
228	-93	-8
318	-112	-18
371	-118	-31
380	-118	-25
346	-115	-16
280	-102	-7
195	-68	-1
110	-6	-37
48	74	-42
16	150	-24
2	185	-30
-20	165	-23
-78	88	-21
-176	-17	-19
-296	-113	-25
-399	-171	-22
-452	-179	-16
-426	-150	-26
-340	-102	-20
-213	-51	-25
-83	-3	-28
32	45	-24
124	96	-28
192	145	-14
239	174	4
256	169	-11
236	123	-32
170	45	-31
70	-39	-24
-38	-106	-13
-126	-131	-9
-176	-118	0
-182	-78	10
-163	-35	-12
-150	-14	-43
-161	-22	-48
-202	-56	-50
-253	-93	-49
-273	-107	-44
-227	-77	-40
-96	0	-35
111	100	-37
355	189	-30
575	227	-13
706	192	-9
705	90	-20
568	-42	-11
328	-162	-7
51	-227	-12
-191	-225	-2
-342	-171	0
-380	-100	-4
-320	-37	-12
-204	2	-17
-86	33	-32
1	70	-40
41	123	-35
46	181	-26
42	221	-31
44	215	-40
54	168	-15
56	80	-3
36	-11	-3
-20	-82	-14
-107	-123	-35
-202	-142	-27
-269	-160	-22
-287	-181	-19
-241	-196	-23
-142	-189	-35
-20	-131	-42
93	-26	-41
163	110	-36
172	237	-44
119	317	-45
14	327	-35
-114	265	-32
-223	150	-19
-269	18	-5
-225	-100	-6
-86	-186	-1
107	-229	5
294	-235	-5
397	-212	-11
374	-175	-6
242	-133	-11
57	-92	-23
-90	-49	-31
-130	-2	-32
-52	51	-35
94	109	-37
226	160	-29
266	188	-30
194	185	-28
39	144	-15
-125	79	-14
-239	1	-21
-272	-70	-18
-248	-119	-21
-206	-143	-15
-178	-142	-4
-167	-127	-13
-149	-103	-22
-97	-74	-35
-2	-36	-42
107	10	-37
194	65	-42
222	122	-45
184	165	-52
97	182	-50
-12	159	-28
-115	102	-9
-201	20	-16
-259	-60	-12
-281	-121	-25
-255	-151	-17
-168	-144	1
-29	-117	-4
128	-78	-6
261	-39	-20
328	-5	-13
320	25	-15
262	49	-14
200	72	-21
167	87	-32
164	89	-19
162	77	-21
117	45	-28
6	2	-30
-161	-52	-13
-332	-109	-8
-443	-161	-18
-453	-192	-18
-350	-190	-16
-165	-145	-30
47	-62	-27
229	39	-31
341	131	-37
371	191	-39
329	201	-30
242	169	-19
131	115	-27
18	66	-32
-91	36	-24
-190	24	-14
-275	12	-23
-325	-18	-19
-325	-70	-25
-253	-135	-25
-113	-187	-18
56	-208	-18
210	-186	-14
299	-132	-20
300	-64	-17
228	0	-11
133	52	-5
69	96	-14
64	132	-19
99	164	-16
130	178	-31
110	168	-35
19	122	-32
-121	48	-35
-262	-37	-26
-353	-112	-22
-374	-154	-30
-329	-160	-35
-253	-131	-32
-169	-83	-30
-81	-24	-9
10	32	4
110	83	-23
205	123	-24
269	150	-17
280	157	-24
234	130	-9
148	74	-16
56	-10	-30
-12	-100	-35
-54	-173	-36
-92	-206	-27
-148	-191	-28
-227	-138	-32
-303	-66	-38
-332	-4	-31
-279	31	-18
-134	39	-21
62	32	-34
251	32	-38
373	50	-27
401	88	-21
343	127	-20
236	148	-15
118	130	-12
15	77	-16
-67	2	-20
-140	-70	-11
-206	-125	-6
-264	-156	-15
-305	-167	-24
-312	-168	-34
-273	-163	-36
-191	-139	-38
-72	-87	-34
67	2	-20
211	120	-5
334	239	-5
409	316	-9
417	313	-5
346	222	-22
214	63	-23
50	-106	-10
-108	-232	-34
-229	-270	-45
-304	-222	-44
-341	-122	-49
-357	-27	-39
-357	16	-30
-337	0	-22
-270	-56	-26
-139	-99	-26
50	-94	-11
273	-30	11
474	67	11
598	156	4
608	198	10
506	178	-1
322	113	-10
105	29	-18
-98	-45	-24
-258	-101	-40
-354	-139	-56
-394	-163	-43
-386	-174	-40
-333	-160	-34
-241	-117	-35
-122	-44	-47
9	43	-34
133	126	-17
238	183	-7
311	210	-17
346	207	-20
343	181	-23
297	138	-33
202	84	-34
54	11	-39
-126	-68	-38
-314	-148	-24
-459	-200	-32
-526	-213	-31
-487	-182	-16
-350	-113	9
-150	-27	20
62	57	-11
240	122	-21
351	163	-20
386	177	-30
354	165	-24
275	127	-22
172	67	-26
71	-5	-11
-22	-77	-12
-97	-133	-17
-162	-164	-11
-215	-171	-9
-262	-166	-6
-294	-156	-8
-299	-144	-12
-259	-127	-23
-173	-92	-27
-51	-31	-35
85	49	-41
203	132	-38
276	194	-30
295	218	-27
262	200	-32
196	150	-28
115	84	-28
29	17	-31
-60	-43	-25
-153	-93	-24
-245	-130	-37
-320	-147	-41
-361	-134	-26
-350	-90	-22
-277	-22	-47
-150	49	-48
13	102	-20
175	122	-10
317	110	-10
411	81	-12
458	48	-7
446	24	-2
388	3	4
279	-25	5
128	-69	-9
-50	-126	-20
-231	-174	-31
-375	-195	-32
-445	-176	-23
-417	-127	-24
-298	-65	-16
-117	-16	-5
69	9	-15
211	21	-37
276	36	-32
269	72	-22
216	125	-25
155	179	-27
104	202	-32
62	174	-35
17	101	-43
-55	0	-41
-157	-89	-41
-272	-143	-44
-375	-157	-29
-435	-141	-22
-447	-119	-36
-417	-96	-25
-357	-70	-23
-262	-22	-26
-119	65	-30
99	187	-23
386	310	-1
695	380	-10
935	353	1
1019	215	8
885	6	-2
549	-222	-16
110	-389	-30
-295	-453	-36
-547	-413	-35
-595	-305	-24
-475	-180	-22
-281	-77	-24
-113	-7	-24
-24	45	-17
-8	100	-22
-18	166	-12
-6	228	-14
39	259	-13
93	244	2
116	190	-6
80	115	-4
-7	44	-12
-115	-5	-8
-198	-39	-15
-237	-74	-36
-240	-119	-36
-222	-170	-41
-200	-204	-37
-175	-201	-36
-133	-150	-19
-57	-61	-31
44	32	-38
145	110	-33
211	160	-44
215	187	-39
159	202	-38
69	211	-32
-14	207	-27
-63	168	-20
-70	88	-11
-53	-29	-27
-32	-153	-27
-27	-249	-13
-36	-292	-6
-44	-281	-8
-29	-234	-23
21	-174	-39
99	-119	-46
184	-64	-43
248	0	-39
261	80	-32
211	165	-21
111	221	-4
-10	223	19
-118	157	17
-181	43	1
-189	-76	-9
-152	-152	-19
-104	-167	-15
-80	-134	-17
-98	-90	-23
-150	-64	-19
-195	-69	-15
-189	-83	-21
-101	-65	-30
59	3	-35
252	110	-41
411	214	-35
478	261	-33
438	228	-35
306	119	-34
132	-15	-41
-29	-120	-42
-154	-158	-24
-233	-127	-25
-277	-64	-18
-297	-11	-8
-285	5	-10
-232	-17	-5
-126	-52	-21
14	-66	-38
154	-38	-39
244	28	-33
254	111	-31
188	177	-27
77	204	-15
-30	185	-20
-102	131	-19
-130	59	-6
-135	-17	3
-141	-87	-6
-158	-152	-14
-176	-202	-23
-170	-233	-23
-124	-227	-19
-41	-178	-37
52	-94	-19
129	7	-12
169	96	-8
169	150	-7
147	166	-40
122	155	-41
97	132	-37
64	110	-40
14	84	-34
-59	34	-24
-147	-49	-8
-229	-156	1
-281	-254	-22
-298	-311	-25
-264	-297	-20
-193	-214	-33
-83	-93	-23
62	31	-22
224	125	-15
373	182	-4
482	211	-21
506	229	-27
446	236	-30
310	219	-28
133	171	-36
-36	86	-35
-175	-17	-21
-278	-110	-36
-352	-166	-35
-405	-171	-26
-424	-140	-23
-386	-94	-7
-269	-60	5
-83	-45	-2
135	-44	-17
320	-40	-32
411	-19	-30
397	15	-25
297	57	-34
167	89	-32
57	100	-17
-7	84	-14
-45	48	-18
-89	2	-14
-159	-51	-26
-247	-95	-32
-319	-127	-32
-333	-139	-32
-271	-130	-12
-149	-100	-10
-7	-53	-25
111	-1	-27
179	55	-25
202	106	-26
200	148	-25
192	171	-28
176	179	-39
147	159	-43
80	109	-36
-27	33	-18
-158	-56	-21
-272	-141	-45
-336	-203	-28
-325	-219	-11
-239	-186	-16
-99	-108	2
54	-8	4
175	81	-10
232	131	-18
197	134	-20
86	99	-2
-68	51	-8
-195	23	-24
-234	31	-28
-142	67	-31
58	106	-33
300	114	-40
478	66	-36
506	-36	-25
363	-161	-16
96	-263	-6
-181	-306	7
-352	-265	-5
-344	-161	-30
-176	-24	-35
60	98	-33
253	171	-30
320	186	-22
258	149	-18
128	86	-26
16	24	-25
-29	-16	-26
-14	-36	-26
-3	-45	-31
-56	-62	-33
-195	-99	-43
-372	-145	-49
-497	-191	-30
-497	-205	-14
-344	-171	4
-93	-85	-2
158	35	-23
322	161	-20
358	260	-24
297	316	-22
200	321	-19
129	286	-25
102	224	-21
93	143	-18
59	51	-17
-23	-45	-21
-148	-140	-23
-268	-218	-18
-339	-260	-16
-332	-257	-28
-259	-210	-35
-152	-134	-27
-46	-45	-30
33	35	-42
86	104	-40
123	153	-21
156	186	-15
183	202	-30
200	193	-24
195	153	-6
167	80	9
114	-18	12
42	-126	-15
-41	-221	-13
-132	-282	-25
-215	-301	-26
-277	-280	-15
-303	-225	-32
-282	-138	-31
-225	-33	-38
-141	81	-42
-49	189	-43
36	268	-32
117	299	-23
194	261	-21
262	174	-17
314	56	-17
331	-48	-13
301	-116	-13
227	-133	-13
127	-118	-6
30	-101	-10
-44	-108	-24
-87	-145	-21
-105	-188	-21
-109	-204	-30
-100	-164	-36
-71	-59	-50
-18	83	-52
62	226	-49
148	324	-42
208	350	-26
214	301	-23
154	200	-27
36	65	-7
-109	-70	0
-248	-185	-13
-352	-263	-1
-407	-300	-4
-402	-286	-21
-341	-234	-22
-226	-148	-28
-74	-46	-43
93	57	-34
231	150	-24
302	219	-18
294	257	-12
214	255	-20
102	213	-5
10	134	-7
-24	39	-16
-6	-58	-13
35	-134	-24
45	-180	-31
-17	-192	-32
-164	-182	-36
-361	-159	-40
-547	-122	-31
-635	-75	-27
-566	-11	-17
-325	66	-1
60	150	11
504	218	3
886	251	-21
1096	237	-27
1059	166	-33
778	60	-39
350	-63	-44
-101	-175	-42
-438	-251	-31
-577	-273	-35
-529	-242	-34
-371	-173	-19
-207	-90	-18
-112	-17	-17
-95	37	-16
-104	68	-21
-87	91	-18
-7	115	-8
110	142	-15
202	165	-18
216	165	-7
139	136	-7
8	79	-19
-120	1	-23
-191	-70	-20
-205	-125	-39
-187	-152	-40
-176	-157	-39
-191	-143	-40
-213	-117	-27
-206	-78	-28
-139	-21	-41
-20	41	-32
115	105	-28
223	149	-29
271	166	-10
266	154	-6
231	121	4
194	81	-5
159	34	-7
115	-12	-5
36	-64	-19
-84	-123	-26
-229	-182	-25
-354	-222	-30
-421	-225	-42
-403	-182	-43
-300	-97	-42
-139	10	-34
50	112	-25
238	185	-21
397	215	-21
501	202	-23
532	157	-17
476	96	-11
342	33	-15
155	-23	-13
-41	-70	-8
-200	-111	-16
-299	-145	-27
-338	-174	-30
-350	-188	-23
-366	-179	-30
-400	-139	-27
-426	-70	-28
-392	21	-25
-251	116	-13
14	195	-2
358	244	3
688	258	1
886	230	1
885	166	-25
671	71	-39
318	-40	-27
-55	-149	-31
-336	-235	-25
-465	-286	-27
-455	-296	-32
-360	-270	-24
-258	-224	-31
-188	-166	-35
-151	-101	-33
-108	-19	-32
-39	82	-35
60	195	-36
154	294	-32
202	345	-30
176	325	-31
88	238	-30
-26	110	-24
-128	-13	-18
-188	-90	-11
-205	-112	-22
-195	-97	-30
-176	-79	-25
-153	-79	-26
-120	-96	-8
-75	-108	-3
-20	-86	4
32	-21	10
71	70	-2
97	150	-4
121	188	-20
158	169	-31
204	106	-33
241	34	-28
233	-26	-20
156	-63	-30
20	-89	-36
-137	-112	-43
-259	-141	-42
-298	-167	-23
-242	-174	-10
-118	-155	-15
16	-113	-17
111	-63	-24
142	-16	-40
115	24	-36
65	65	-30
27	114	-28
16	164	-27
24	197	-27
30	190	-19
1	129	-13
-76	26	-20
-195	-86	-30
-321	-166	-40
-401	-192	-35
-380	-167	-18
-226	-120	-11
46	-83	-20
373	-72	-19
659	-80	-18
794	-77	-21
740	-41	-12
506	33	-4
201	125	-2
-76	195	-5
-228	210	-5
-240	158	-10
-169	55	-11
-111	-58	-16
-134	-142	-37
-245	-175	-37
-385	-154	-32
-459	-101	-38
-425	-38	-52
-272	15	-42
-63	56	-26
121	93	-25
228	134	-26
253	181	-39
229	215	-36
200	228	-42
179	202	-40
154	132	-18
96	41	-11
-10	-56	-19
-139	-135	-27
-252	-187	-12
-300	-210	-8
-271	-211	-6
-177	-198	4
-60	-168	-11
43	-122	-18
117	-58	-12
162	10	-4
192	76	-6
211	123	-25
221	149	-35
204	154	-37
160	138	-37
90	108	-34
12	53	-23
-66	-23	-14
-141	-117	-14
-215	-207	-17
-286	-259	-24
-338	-252	-24
-352	-178	-32
-307	-62	-40
-204	54	-36
-67	139	-34
57	182	-32
136	189	-35
162	180	-38
150	170	-35
144	153	-24
172	110	-9
239	27	4
306	-85	-22
325	-192	-27
262	-259	-19
121	-256	-24
-55	-196	-7
-204	-117	-6
-271	-58	-3
-241	-39	0
-133	-40	-4
0	-29	-20
107	27	-33
164	125	-28
166	229	-30
132	286	-27
83	265	-31
26	171	-34
-42	41	-30
-121	-68	-24
-212	-129	-31
-297	-135	-36
-357	-115	-33
-378	-95	-36
-351	-91	-33
-278	-92	-32
-166	-78	-16
-18	-34	-3
163	39	-15
358	116	-20
534	171	-23
634	183	-22
618	153	-10
466	89	-17
212	10	-18
-74	-64	-13
-306	-126	-30
-424	-167	-32
-418	-182	-25
-325	-173	-17
-222	-139	-21
-155	-93	-34
-145	-38	-20
-169	15	-14
-178	66	-17
-135	119	-21
-29	168	-38
115	204	-37
258	211	-24
354	179	-22
383	105	-17
333	9	-15
223	-87	-27
74	-155	-32
-82	-190	-23
-221	-199	-23
-317	-192	-30
-366	-187	-36
-373	-174	-38
-344	-141	-28
-280	-76	-5
-166	25	24
17	142	9
270	248	-13
558	305	-11
793	300	-36
884	229	-26
763	110	-10
439	-26	-9
8	-156	-9
-392	-251	-20
-639	-300	-23
-669	-298	-29
-526	-256	-31
-306	-183	-36
-117	-95	-32
-16	-7	-27
13	76	-14
18	147	-11
50	205	-33
115	244	-31
178	253	-21
192	227	-28
138	160	-22
35	65	-18
-67	-35	-22
-129	-118	-16
-143	-171	-15
-134	-190	-26
-139	-182	-35
-172	-157	-38
-211	-119	-39
-215	-72	-36
-152	-13	-43
-24	59	-49
124	134	-44
236	196	-38
273	231	-26
234	229	-13
151	189	-3
66	125	-10
2	48	-1
-42	-31	3
-80	-103	-7
-122	-160	-21
-162	-196	-40
-177	-205	-41
-151	-182	-32
-91	-131	-13
-22	-59	-6
23	15	-16
30	82	-19
15	126	-15
15	140	-24
59	126	-26
150	89	-26
248	39	-32
302	-14	-43
269	-59	-43
155	-98	-30
-4	-127	-16
-143	-147	-22
-217	-158	-24
-212	-157	-15
-159	-142	-23
-104	-107	-8
-75	-50	-16
-71	18	-20
-61	90	-10
-10	153	-6
101	194	-7
241	207	-16
351	189	-18
371	141	-26
266	71	-25
58	-10	-28
-189	-88	-33
-387	-143	-36
-463	-170	-36
-405	-160	-41
-238	-128	-26
-33	-90	-3
135	-58	-13
225	-37	-21
234	-14	-29
191	19	-22
142	69	-19
116	124	-19
110	164	-8
103	166	-18
64	121	-19
-16	44	-19
-130	-37	-18
-249	-95	-21
-337	-117	-34
-369	-111	-32
-333	-95	-23
-237	-88	-25
-97	-84	-27
62	-74	-26
208	-36	-31
314	32	-26
360	119	-14
345	192	-13
283	219	-35
206	191	-33
137	117	-36
82	28	-50
26	-49	-44
-55	-98	-33
-170	-118	-24
-296	-127	-24
-386	-133	-1
-392	-140	19
-305	-136	17
-138	-113	-11
45	-66	-17
183	-8	-15
238	46	-33
214	86	-27
156	105	-23
110	110	-23
97	112	-23
105	110	-15
100	98	-28
50	64	-40
-44	4	-30
-161	-74	-31
-257	-148	-34
-304	-190	-32
-290	-185	-29
-231	-132	-30
-147	-53	-21
-56	30	-15
32	91	-15
121	123	-17
201	128	-18
258	124	-11
271	119	-19
228	116	-26
127	105	-31
1	76	-28
-117	19	-23
-191	-59	-25
-205	-138	-26
-170	-198	-32
-109	-217	-25
-52	-192	-25
-22	-134	-24
-27	-57	-25
-62	14	-33
-113	70	-21
-162	106	-15
-186	136	-14
-165	162	-4
-72	181	7
86	180	9
291	140	-7
484	56	-9
596	-69	-10
569	-203	-8
398	-306	-7
127	-345	-25
-149	-308	-36
-339	-211	-51
-392	-95	-57
-319	5	-59
-184	70	-58
-56	106	-49
23	132	-47
68	171	-36
123	215	-22
221	255	-12
343	251	-6
428	185	2
397	65	-7
214	-72	1
-84	-188	11
-392	-250	-8
-595	-249	-17
-615	-206	-15
-456	-147	-14
-201	-92	-32
37	-47	-37
184	-2	-18
212	51	-23
155	110	-50
66	162	-44
-5	185	-29
-42	165	-28
-46	110	-11
-30	45	-13
2	-4	-15
38	-23	-10
64	-22	-16
59	-21	-16
7	-44	-24
-85	-94	-36
-179	-150	-33
-224	-178	-39
-181	-149	-34
-52	-57	-30
116	68	-28
253	185	-25
302	248	-32
253	239	-20
139	169	-18
17	74	-22
-69	-13	-17
-113	-69	-9
-135	-100	-8
-164	-121	-20
-208	-149	-11
-248	-181	-12
-248	-199	-26
-185	-185	-26
-70	-124	-33
63	-26	-32
171	81	-25
229	166	-29
234	205	-30
214	198	-21
189	157	-18
160	106	-22
113	59	-27
19	24	-30
-122	-7	-27
-291	-40	-35
-433	-72	-37
-493	-101	-27
-431	-109	-8
-248	-98	11
8	-70	7
272	-40	-4
472	-21	-15
558	-13	-30
517	-19	-37
383	-21	-28
208	-15	-10
49	3	-11
-60	24	-15
-124	35	-20
-169	24	-35
-226	-13	-33
-302	-67	-26
-372	-127	-31
-385	-174	-30
-303	-190	-20
-120	-166	-11
113	-97	-7
314	0	-25
405	106	-27
354	190	-28
205	228	-35
40	213	-24
-51	158	-23
-34	88	-23
63	31	-25
155	0	-19
157	-12	-22
31	-25	-39
-184	-58	-36
-394	-111	-38
-509	-162	-40
-459	-178	-22
-255	-133	-27
33	-30	-29
314	106	-16
505	228	-6
569	292	1
522	279	-4
387	198	-11
209	79	-6
23	-43	3
-148	-136	-18
-281	-189	-24
-366	-199	-22
-392	-183	-35
-371	-154	-26
-308	-124	-32
-227	-102	-32
-144	-88	-17
-70	-71	-32
-8	-43	-51
43	5	-44
79	67	-21
96	135	-19
94	181	-20
90	191	-24
96	162	-23
125	104	-3
172	38	-12
211	-19	-12
206	-58	-15
129	-89	-24
-10	-113	-31
-174	-138	-33
-307	-151	-20
-366	-138	-45
-341	-90	-50
-253	-8	-51
-144	89	-39
-50	177	-5
28	235	-16
111	251	-23
228	228	-7
369	170	4
496	87	0
547	-20	-2
462	-135	-7
245	-248	-21
-49	-326	-18
-328	-351	-4
-493	-311	-4
-502	-218	-20
-375	-102	-31
-186	6	-28
-15	82	-38
89	128	-43
126	154	-37
129	174	-35
132	196	-38
144	203	-27
148	183	-19
107	125	-18
13	36	-24
-124	-64	-24
-262	-150	-17
-352	-198	-19
-366	-211	-30
-304	-194	-34
-192	-164	-28
-62	-127	-13
63	-85	-15
176	-26	-33
273	51	-26
341	139	-30
365	221	-25
325	268	-26
216	268	-35
52	210	-34
-126	110	-35
-277	-8	-25
-358	-117	-19
-347	-190	0
-249	-215	13
-94	-187	-6
66	-120	-24
191	-32	-37
242	45	-19
226	95	-15
169	106	-42
122	85	-39
130	53	-33
195	32	-32
283	33	-26
328	51	-21
269	65	0
91	53	26
-160	1	30
-401	-81	1
-546	-167	-17
-547	-218	-22
-428	-218	-30
-251	-167	-30
-92	-92	-40
8	-25	-26
48	13	-12
68	28	-31
107	42	-37
172	77	-25
245	132	-21
288	188	-38
270	203	-44
188	155	-30
61	45	-26
-70	-87	-25
-179	-194	-29
-255	-237	-32
-296	-205	-32
-308	-127	-33
-291	-46	-26
-241	8	-39
-142	34	-36
-1	48	-12
167	79	-10
328	131	-31
444	189	-32
476	224	-34
407	203	-35
241	127	-19
10	12	-21
-232	-104	-17
-424	-194	-17
-518	-242	-10
-489	-243	-3
-355	-207	-7
-154	-141	-10
64	-53	-22
256	44	-24
393	132	-17
462	186	-13
466	191	-17
407	152	-14
302	95	-17
167	48	-32
20	35	-33
-118	46	-17
-229	49	-20
-301	15	-14
-333	-72	-15
-324	-188	-18
-273	-283	-11
-188	-314	-26
-80	-258	-32
32	-134	-37
117	10	-21
151	122	-30
132	178	-33
81	179	-19
27	157	-34
5	139	-30
23	144	-21
61	157	-17
83	150	-16
52	106	-19
-35	21	-21
-161	-86	-29
-281	-183	-35
-360	-242	-33
-375	-249	-24
-321	-218	-18
-217	-167	-16
-75	-110	-24
94	-47	-32
275	24	-32
439	110	-33
560	204	-25
592	272	-25
518	284	-28
346	218	-18
123	89	-16
-92	-72	0
-250	-205	9
-325	-265	-3
-337	-250	-11
-307	-173	-19
-267	-80	-33
-232	-5	-31
-190	39	-25
-134	61	-31
-56	84	-30
31	115	-30
111	149	-23
162	160	-18
175	134	-18
163	70	-26
135	-6	-24
102	-68	-18
61	-95	-17
7	-87	-18
-68	-70	-24
-161	-74	-40
-251	-108	-50
-307	-157	-33
-303	-179	-32
-222	-144	-32
-71	-42	-29
121	98	-26
317	227	-24
462	289	-15
516	266	-4
455	168	7
292	41	8
65	-64	-10
-162	-120	-22
-325	-126	-28
-385	-112	-19
-336	-105	-13
-218	-125	-14
-89	-158	-24
6	-178	-35
49	-161	-36
50	-92	-43
45	11	-39
60	115	-30
98	190	-21
141	217	-21
162	203	-18
140	160	-25
75	108	-34
-21	50	-29
-129	-9	-23
-226	-76	-23
-299	-139	-30
-332	-186	-22
-312	-194	-12
-226	-156	-9
-78	-82	-17
105	10	-20
274	86	-8
374	136	-13
391	158	-23
320	161	-27
209	153	-19
107	131	-21
49	91	-26
26	25	-17
2	-55	-23
-54	-127	-32
-161	-171	-31
-290	-169	-34
-399	-136	-31
-439	-93	-18
-392	-64	-12
-270	-51	-15
-98	-40	-18
83	-6	-17
242	61	-31
359	149	-40
415	219	-20
397	236	-14
301	180	-27
140	62	-34
-42	-78	-33
-195	-195	-28
-274	-256	-24
-262	-253	-23
-185	-204	-20
-86	-136	-18
-18	-78	-16
-5	-36	-9
-41	-16	-16
-87	-9	-25
-102	-4	-21
-62	7	-24
30	35	-20
154	75	-18
273	119	-13
355	154	-13
383	166	-20
339	143	-18
231	88	-20
78	12	-28
-87	-63	-30
-229	-117	-35
-308	-137	-34
-314	-125	-28
-250	-90	-25
-145	-43	-27
-39	8	-41
41	59	-42
81	110	-38
87	160	-22
69	195	0
44	205	-14
18	179	-12
-6	115	1
-27	24	-6
-46	-65	-6
-62	-133	-14
-81	-163	-20
-103	-153	-20
-132	-125	-24
-158	-99	-24
-164	-90	-25
-133	-94	-41
-52	-96	-36
59	-74	-23
180	-13	-44
267	78	-34
299	171	-18
261	233	-15
175	233	-5
70	158	-7
-38	34	-24
-142	-100	-36
-244	-203	-37
-336	-248	-38
-405	-230	-28
-415	-168	-14
-339	-92	-11
-170	-22	-14
63	28	-19
302	62	-30
478	88	-33
534	108	-24
462	121	-27
297	119	-27
103	95	-32
-53	51	-22
-134	3	6
-135	-37	11
-88	-63	-6
-39	-80	-19
-26	-102	-19
-68	-134	-14
-152	-173	-19
-240	-192	-34
-287	-166	-33
-260	-82	-23
-148	45	-31
33	174	-40
238	256	-24
405	260	-26
486	185	-35
459	67	-30
328	-49	-26
132	-126	-18
-70	-157	-19
-239	-157	-23
-338	-151	-26
-366	-157	-24
-341	-166	-22
-280	-160	-11
-200	-117	-14
-107	-35	-26
-4	68	-25
99	169	-42
190	244	-27
251	283	-9
262	291	-32
229	278	-28
160	241	-25
76	179	-31
-5	89	-26
-78	-21	-24
-139	-129	-19
-195	-210	-13
-241	-242	-15
-267	-225	-19
-259	-174	-24
-216	-115	-20
-140	-68	-24
-44	-30	-20
52	10	-15
143	64	-27
221	130	-31
280	190	-33
309	210	-19
292	170	-12
215	69	-23
82	-60	-17
-84	-179	-15
-236	-249	-19
-331	-254	-23
-344	-208	-30
-274	-134	-27
-161	-60	-17
-37	2	-14
63	55	-25
131	106	-21
171	150	-17
194	187	-30
195	199	-19
167	182	-21
98	135	-32
-11	71	-33
-136	3	-36
-242	-65	-26
-285	-131	-7
-247	-192	-3
-133	-238	-16
22	-256	-22
171	-230	-27
269	-162	-29
296	-65	-26
253	28	-20
160	96	-23
52	128	-28
-44	128	-20
-111	121	-26
-143	114	-21
-141	109	-18
-114	91	-15
-69	49	-14
-15	-14	-22
36	-84	-16
72	-130	-9
81	-143	-13
60	-120	-31
18	-90	-34
-22	-66	-28
-37	-55	-30
-15	-41	-27
41	0	-39
101	76	-46
124	174	-28
82	251	-25
-31	269	-28
-180	215	-24
-300	103	-11
-333	-20	-4
-243	-113	-11
-49	-157	-1
172	-164	-5
335	-157	-2
371	-157	-4
273	-157	-25
103	-135	-33
-45	-78	-38
-93	22	-31
-16	129	-33
132	203	-33
261	208	-21
288	143	-26
184	38	-23
-4	-59	-16
-197	-119	-24
-321	-135	-26
-352	-126	-11
-321	-117	-20
-281	-121	-26
-272	-126	-25
-281	-110	-33
-262	-53	-27
-172	36	-30
3	135	-34
209	210	-30
370	237	-23
418	221	-19
342	178	-23
189	132	-32
28	93	-23
-79	50	-13
-118	-8	-25
-118	-84	-28
-121	-163	-21
-156	-223	-17
-206	-236	-12
-239	-196	-21
-214	-123	-25
-126	-42	-27
-5	24	-26
111	70	-36
182	102	-38
202	134	-22
186	165	-21
158	181	-27
128	162	-30
98	96	-10
52	-9	0
-13	-121	-10
-86	-203	-15
-142	-233	-17
-156	-207	-19
-122	-152	-42
-55	-94	-40
11	-52	-27
50	-28	-28
56	-9	-19
42	21	-13
35	72	0
49	132	-1
86	184	-21
114	208	-35
109	194	-22
46	144	-20
-61	65	-20
-189	-27	-22
-287	-122	-34
-321	-201	-27
-276	-246	-19
-168	-243	-15
-37	-187	-10
80	-92	-19
152	16	-21
179	104	-25
181	150	-38
191	147	-44
233	113	-35
306	68	-23
388	35	-32
425	16	-28
373	-3	-21
223	-34	-12
-8	-92	-4
-259	-160	-17
-450	-218	-27
-522	-240	-24
-459	-199	-20
-307	-108	-30
-120	12	-28
25	121	-24
93	187	-34
89	197	-30
44	165	-30
8	121	-17
3	102	-2
27	120	-14
50	164	-24
40	200	-23
-15	191	-25
-101	119	-25
-174	0	-16
-193	-129	-6
-129	-223	1
1	-253	1
156	-219	-20
275	-147	-37
313	-66	-29
257	-1	-19
140	43	-32
28	77	-35
-22	101	-27
14	116	-19
109	112	-7
200	77	-18
214	8	-25
115	-84	-21
-79	-174	-19
-296	-243	-22
-448	-270	-33
-480	-254	-40
-382	-198	-37
-210	-118	-31
-37	-28	-23
79	60	-24
126	137	-38
128	198	-27
123	240	-11
136	256	-11
151	243	-14
139	193	-3
72	106	-5
-44	-9	-17
-179	-128	-21
-279	-224	-22
-312	-263	-25
-272	-237	-26
-183	-159	-22
-84	-57	-23
6	27	-34
79	76	-35
147	87	-21
212	83	-30
270	89	-27
302	110	-18
286	139	-23
216	148	-24
107	113	-23
-18	30	-21
-137	-74	-27
-237	-168	-22
-314	-219	-32
-360	-216	-30
-371	-175	-27
-325	-111	-36
-218	-48	-28
-54	7	-37
139	59	-36
318	117	-18
438	182	-17
470	239	-23
414	268	-16
291	257	-20
138	201	-22
-9	114	-11
-122	18	-18
-191	-68	-16
-213	-142	-13
-198	-200	-22
-158	-243	-17
-102	-265	-15
-37	-261	-24
31	-219	-21
98	-139	-21
154	-39	-28
182	60	-21
170	131	-12
112	159	-19
20	143	-30
-77	100	-20
-143	43	-19
-154	-16	-30
-106	-66	-20
-25	-110	-19
44	-137	-11
65	-141	-12
29	-113	-35
-45	-56	-30
-115	11	-32
-137	68	-32
-95	98	-26
-3	98	-38
106	85	-42
188	89	-20
216	123	-23
194	181	-34
129	233	-14
40	233	-15
-62	159	-8
-175	14	-4
-295	-159	-13
-406	-301	-25
-481	-368	-33
-487	-338	-20
-403	-236	-23
-232	-103	-32
-10	15	-37
211	92	-35
373	126	-24
451	137	-13
430	149	-14
333	168	-31
198	190	-35
60	193	-27
-49	157	-24
-120	68	-11
-150	-60	7
-144	-202	-14
-125	-319	-32
-99	-373	-32
-79	-351	-38
-57	-259	-30
-24	-127	-19
36	-1	-2
135	92	2
256	137	-7
363	150	-12
414	157	-16
373	174	-24
244	200	-33
62	210	-33
-112	174	-30
-224	86	-31
-247	-34	-24
-200	-148	-14
-129	-204	-18
-84	-192	-28
-81	-127	-34
-113	-53	-32
-139	-13	-32
-129	-13	-33
-68	-38	-36
23	-46	-40
109	-12	-36
149	62	-19
127	147	-8
54	193	-16
-42	182	-16
-129	117	-12
-184	30	-14
-195	-47	-18
-176	-93	-10
-135	-113	7
-94	-122	-5
-61	-129	-32
-45	-131	-27
-37	-110	-15
-25	-57	-23
3	25	-27
58	114	-32
131	171	-36
205	188	-46
249	154	-37
245	98	-13
183	41	-16
81	5	-28
-34	-20	-30
-129	-44	-23
-181	-81	-18
-184	-131	-12
-150	-179	-10
-95	-204	-18
-34	-190	-25
22	-137	-29
71	-58	-31
115	30	-29
150	109	-28
172	171	-27
178	207	-25
163	213	-35
120	183	-32
55	115	-17
-30	20	-12
-127	-86	-22
-227	-169	-32
-313	-210	-29
-374	-200	-32
-392	-152	-23
-366	-86	-18
-288	-26	-12
-163	17	-11
-10	43	-22
150	65	-18
292	85	-17
396	101	-7
445	100	-23
432	76	-25
372	28	-13
271	-22	-9
151	-61	-13
24	-79	-30
-99	-80	-23
-208	-84	-34
-285	-106	-26
-319	-149	-11
-295	-191	-24
-212	-202	-21
-86	-152	-29
57	-40	-36
179	109	-33
253	251	-31
263	342	-24
216	362	-34
124	312	-46
13	211	-40
-100	94	-36
-203	-16	-45
-280	-99	-44
-325	-151	-30
-324	-167	-3
-273	-157	12
-176	-129	44
-41	-98	64
113	-70	24
263	-54	-1
389	-42	-27
466	-24	-37
478	5	-41
422	40	-55
300	66	-50
136	70	-38
-35	43	-30
-177	-3	-25
-268	-55	-26
-308	-97	-38
-315	-116	-43
-318	-118	-37
-328	-109	-40
-337	-92	-42
-311	-59	-43
-223	1	-40
-60	88	-31
143	185	-28
333	256	-12
439	266	-1
436	201	0
324	81	9
149	-44	17
-20	-128	5
-141	-137	-4
-198	-86	-8
-210	-13	-15
-209	30	-20
-213	15	-31
-214	-48	-37
-190	-124	-36
-119	-164	-35
-4	-141	-34
121	-60	-30
216	44	-24
242	132	-21
200	174	-16
119	166	-8
42	121	-11
4	64	-20
3	18	-30
16	-14	-35
2	-33	-21
-56	-49	-25
-157	-76	-26
-253	-113	-32
-308	-159	-35
-289	-192	-19
-204	-197	-10
-82	-155	-22
46	-62	-41
156	58	-31
242	177	-18
309	253	-17
351	267	-11
354	215	-16
300	119	-30
179	14	-36
18	-80	-34
-137	-149	-24
-239	-200	-24
-253	-233	-27
-195	-246	-34
-115	-227	-28
-68	-163	-19
-84	-63	-18
-141	53	-28
-181	155	-38
-141	213	-35
2	221	-34
214	191	-27
399	151	-25
462	117	-3
351	89	-3
92	55	-27
-212	5	-14
-426	-65	-9
-459	-134	-12
-299	-183	-8
-29	-196	-12
221	-173	-16
342	-133	-16
300	-90	-22
151	-50	-29
3	-5	-26
-43	56	-30
36	135	-29
193	211	-35
319	250	-36
322	228	-16
172	138	-1
-80	10	7
-333	-118	2
-500	-202	-17
-536	-225	-40
-472	-192	-51
-369	-127	-36
-280	-53	-30
-221	14	-39
-151	75	-36
-30	127	-24
162	171	-18
388	189	-26
569	171	-37
626	110	-37
523	17	-39
284	-87	-32
-6	-171	-11
-259	-214	-12
-409	-214	-14
-439	-179	-2
-381	-129	5
-277	-79	14
-166	-34	12
-56	6	-3
47	49	-9
151	93	-17
244	136	-36
300	165	-32
301	168	-33
245	139	-32
151	90	-22
41	31	-29
-63	-21	-32
-162	-57	-27
-259	-80	-27
-357	-95	-33
-432	-111	-34
-448	-125	-28
-363	-133	-23
-166	-122	-28
113	-85	-34
397	-28	-32
595	35	-36
639	86	-39
515	114	-36
270	114	-29
-4	99	-20
-223	80	-23
-321	63	-29
-295	53	-15
-180	41	-9
-39	20	-8
72	-13	-4
121	-48	-8
111	-74	-9
63	-77	-6
8	-55	-22
-24	-18	-39
-23	19	-23
11	38	-25
60	34	-27
103	11	-30
121	-14	-28
104	-24	-27
50	-17	-38
-32	0	-25
-129	6	-29
-223	-21	-33
-294	-84	-19
-337	-168	-11
-345	-237	-23
-321	-258	-34
-262	-203	-30
-161	-82	-21
-22	74	-11
154	213	0
335	294	0
484	298	-19
561	235	-21
528	138	0
383	43	-4
169	-23	-21
-58	-62	-19
-234	-88	-25
-330	-112	-39
-354	-143	-32
-352	-167	-28
-370	-173	-31
-415	-144	-25
-453	-85	-23
-416	-10	-21
-247	61	-15
59	113	-19
439	143	-24
775	156	-25
935	161	-25
864	158	-32
580	135	-29
184	85	-26
-182	8	-23
-415	-78	-21
-469	-150	-22
-388	-180	-34
-257	-162	-45
-154	-110	-39
-113	-53	-40
-116	-20	-34
-116	-13	-25
-70	-20	-18
29	-13	-10
151	28	-18
244	98	-17
262	169	-11
187	209	-16
40	196	-12
-137	130	-9
-296	35	-16
-390	-58	-22
-402	-129	-32
-331	-173	-32
-200	-192	-19
-46	-204	-24
97	-206	-32
204	-190	-18
271	-144	-13
310	-64	-19
334	44	-16
350	162	-14
343	259	-17
284	305	-9
149	283	-18
-61	187	-16
-300	35	-12
-491	-136	-25
-562	-282	-24
-470	-354	-22
-243	-330	-21
46	-215	-27
296	-52	-39
429	97	-38
421	183	-33
310	183	-32
169	125	-37
66	53	-24
34	21	-2
54	44	2
83	108	-8
75	168	-25
7	180	-20
-102	130	-21
-214	30	-31
-290	-79	-34
-317	-163	-31
-303	-202	-31
-289	-203	-35
-299	-179	-32
-342	-142	-32
-380	-92	-35
-366	-18	-30
-253	79	-11
-32	179	-17
254	244	-24
529	244	-7
701	168	-7
715	40	-17
562	-82	-6
302	-153	-11
15	-157	-18
-214	-115	-20
-333	-80	-24
-332	-89	-11
-237	-148	-14
-95	-213	-23
44	-224	-33
141	-140	-35
176	26	-34
149	214	-42
77	345	-42
-8	362	-41
-57	262	-24
-43	106	-10
34	-32	3
140	-105	-11
216	-107	-25
211	-80	-11
101	-78	-25
-79	-121	-41
-262	-196	-43
-371	-249	-36
-369	-238	-30
-262	-147	-33
-110	-7	-28
26	123	-15
107	204	-12
127	219	-24
115	191	-26
99	153	-13
91	124	-15
78	104	-4
38	70	15
-39	9	7
-139	-76	-18
-231	-154	-35
-274	-196	-27
-259	-183	-36
-195	-129	-38
-112	-61	-38
-36	-9	-35
20	18	-32
66	35	-41
114	68	-29
171	123	-17
230	187	-11
270	228	-4
273	210	-3
230	126	-8
143	0	-17
33	-127	-28
-83	-214	-25
-186	-242	-9
-270	-215	-12
-329	-159	-30
-353	-100	-24
-335	-44	-25
-260	12	-42
-124	76	-20
66	148	1
284	211	-24
484	244	-44
611	229	-30
614	162	-16
484	56	-23
251	-61	-42
-29	-171	-40
-277	-254	-31
-431	-301	-30
-475	-305	-29
-432	-262	-27
-347	-178	-17
-253	-69	-15
-161	35	-10
-47	109	-8
103	132	-20
280	110	-21
439	70	-30
524	40	-19
478	36	-10
314	51	-32
88	60	-35
-117	41	-33
-234	-8	-32
-255	-66	-15
-224	-99	-8
-203	-79	-19
-231	-12	-22
-287	70	-20
-314	127	-24
-247	131	-28
-65	99	-34
180	55	-35
404	41	-27
512	66	-21
472	115	-13
302	150	-19
75	137	-24
-138	77	-19
-294	-13	-19
-390	-95	-15
-444	-149	-14
-463	-167	-21
-436	-163	-32
-333	-148	-18
-147	-124	-13
98	-91	-13
332	-41	-26
484	12	-42
516	51	-25
431	54	-17
291	21	-11
163	-29	-26
86	-67	-48
53	-69	-28
27	-39	-21
-37	-4	-25
-150	0	-11
-281	-40	-9
-380	-112	-13
-400	-169	-21
-325	-171	-22
-191	-104	-11
-40	10	-14
85	122	-15
164	193	-24
204	205	-26
216	174	-20
216	136	-19
201	113	-25
159	109	-51
86	101	-40
-5	64	-24
-98	-8	-21
-174	-98	-20
-217	-173	-14
-232	-207	-3
-217	-187	-7
-184	-131	-2
-131	-63	-9
-61	-6	-26
22	33	-39
107	66	-29
176	103	-26
216	141	-37
216	169	-36
180	169	-37
107	131	-28
14	60	-23
-100	-21	-25
-218	-99	-39
-321	-156	-37
-379	-192	-32
-363	-210	-39
-263	-210	-35
-94	-182	-24
113	-113	-1
308	-5	-3
455	127	-9
534	243	-2
541	301	1
493	282	-18
397	187	-21
262	55	-11
97	-62	-22
-84	-130	-25
-248	-141	-18
-363	-115	-24
-404	-89	-30
-369	-88	-26
-281	-113	-35
-189	-139	-35
-120	-129	-27
-93	-69	-32
-102	31	-37
-128	126	-28
-152	174	-24
-156	155	-27
-129	82	-11
-59	4	-19
63	-33	-22
230	-4	-11
406	66	-19
527	127	-26
524	121	-25
365	24	-22
82	-130	-23
-234	-280	-7
-459	-346	-4
-497	-301	-24
-339	-161	-27
-59	11	-21
214	139	-32
373	190	-14
368	164	-4
241	105	-9
79	53	-3
-39	35	-18
-92	38	-28
-115	33	-53
-173	0	-53
-298	-63	-46
-466	-134	-52
-601	-179	-42
-605	-173	-31
-433	-114	-18
-115	-18	-23
258	90	-24
565	186	-21
719	249	-9
689	267	-4
523	239	-6
296	169	-7
94	74	-14
-41	-21	-16
-109	-92	-27
-139	-125	-27
-169	-127	-16
-214	-121	-16
-263	-124	-25
-296	-141	-18
-281	-160	-25
-213	-154	-29
-104	-104	-21
18	-14	-32
121	91	-25
186	174	-25
208	210	-30
201	197	-30
172	145	-24
132	82	-9
79	19	-5
9	-33	-20
-71	-86	-24
-156	-138	-19
-223	-185	-27
-257	-211	-31
-251	-204	-26
-209	-162	-18
-141	-97	-34
-64	-27	-36
11	35	-30
80	88	-22
132	132	-14
166	185	-11
166	238	-19
127	279	-32
58	291	-35
-20	254	-35
-79	162	-25
-90	24	-14
-44	-127	-16
36	-272	-16
119	-371	2
162	-412	4
154	-389	-7
104	-312	-15
52	-200	-27
38	-76	-27
77	40	-25
149	131	-37
211	183	-49
216	194	-45
140	166	-42
-15	106	-36
-222	38	-32
-422	-28	-35
-569	-70	-26
-616	-81	-8
-540	-55	-5
-344	-4	2
-58	57	7
248	114	-4
496	149	-20
613	155	-18
568	132	-11
392	95	-23
170	48	-30
-4	14	-45
-61	-2	-34
-11	-1	-8
85	8	-10
136	6	-20
84	-23	-19
-66	-87	-25
-253	-169	-23
-390	-246	-30
-428	-282	-37
-375	-258	-44
-288	-171	-46
-231	-43	-40
-223	85	-42
-231	182	-35
-184	229	-19
-24	226	-10
244	196	-11
544	158	-15
756	123	-17
782	85	-1
588	32	-10
234	-46	-22
-153	-144	2
-442	-236	10
-549	-291	15
-474	-282	-4
-287	-213	-24
-85	-95	-25
62	32	-38
127	132	-38
132	191	-42
120	205	-44
121	194	-38
130	171	-39
128	148	-37
85	115	-38
-7	65	-23
-134	-3	-7
-259	-84	-15
-350	-157	-24
-377	-201	-20
-339	-203	-35
-243	-171	-54
-103	-119	-47
57	-64	-33
214	-18	-28
338	23	-26
405	65	-4
399	115	17
331	166	19
223	201	-2
110	197	-17
16	143	-24
-54	46	-35
-111	-67	-31
-172	-164	-26
-240	-215	-23
-312	-212	-27
-371	-166	-44
-407	-98	-40
-417	-24	-14
-405	45	-31
-366	111	-40
-278	169	-33
-111	207	-23
150	206	-3
476	151	3
786	48	-6
979	-72	-31
967	-170	-30
732	-209	-23
346	-186	-16
-58	-131	-12
-360	-91	-12
-481	-99	-16
-435	-156	-20
-295	-223	-15
-157	-249	-17
-80	-192	-15
-62	-58	-24
-64	115	-27
-41	271	-27
20	362	-36
95	365	-37
139	300	-24
125	202	-23
48	103	-33
-68	25	-14
-202	-23	-9
-338	-49	-24
-473	-55	-23
-595	-45	-30
-654	-22	-41
-589	14	-44
-339	47	-36
98	75	-37
642	86	-40
1131	79	-30
1388	51	-11
1280	9	14
987	-51	21
451	-127	17
-84	-214	-3
-452	-299	-11
-582	-361	-10
-522	-386	-17
-378	-354	-19
-270	-274	-27
-248	-159	-41
-287	-33	-46
-318	77	-49
-280	161	-42
-162	210	-32
-8	236	-32
115	244	-32
162	241	-27
127	229	-19
48	203	-12
-31	161	-11
-82	99	-16
-106	26	-21
-122	-50	-32
-148	-117	-39
-181	-160	-31
-203	-176	-20
-193	-162	-15
-142	-127	-9
-59	-77	-3
33	-20	3
117	41	5
181	106	-10
216	169	-20
231	227	-37
211	261	-53
158	257	-40
74	201	-30
-22	96	-23
-107	-43	-26
-155	-179	-32
-159	-274	-21
-137	-309	-35
-113	-278	-37
-110	-215	-17
-128	-144	-29
-157	-91	-45
-168	-56	-40
-149	-24	-29
-100	24	-20
-34	98	-17
39	182	-17
124	250	-18
230	270	4
354	233	15
467	138	2
506	15	4
428	-109	-17
198	-215	-19
-134	-286	-13
-459	-309	-27
-654	-275	-37
-623	-181	-39
-352	-36	-35
68	131	-49
483	274	-48
740	350	-37
763	335	-26
558	241	-12
229	105	7
-100	-25	13
-329	-114	-15
-425	-155	-15
-420	-159	-19
-372	-153	-33
-329	-145	-40
-294	-136	-16
-232	-121	5
-107	-91	-20
84	-57	-27
299	-35	-20
462	-29	-12
506	-34	-17
421	-29	-32
238	1	-34
38	64	-31
-107	136	-48
-162	186	-55
-153	178	-23
-133	110	-15
-150	3	-18
-214	-103	-24
-295	-168	-15
-339	-175	-6
-312	-131	-18
-213	-65	-29
-76	3	-44
52	56	-44
138	96	-28
175	130	-24
176	158	-29
167	174	-25
145	169	-19
107	126	-10
44	48	-15
-38	-50	-12
-122	-145	-21
-173	-211	-19
-172	-227	-16
-121	-192	-45
-49	-122	-40
10	-40	-35
40	33	-19
44	84	-9
52	106	-6
81	113	-7
137	118	-24
202	128	-20
241	140	-19
226	142	-13
154	120	-18
44	64	-19
-71	-18	-15
-164	-109	-4
-222	-179	4
-247	-213	-10
-259	-205	-24
-269	-166	-40
-285	-116	-31
-291	-64	-34
-278	-20	-48
-216	27	-50
-88	82	-36
110	145	-33
351	201	-40
581	230	-30
719	215	-32
700	157	-31
496	58	-25
151	-55	-6
-232	-164	3
-525	-254	8
-630	-314	3
-518	-334	-4
-257	-312	-4
48	-238	-7
287	-122	-16
400	17	-55
396	149	-51
330	235	-36
263	257	-32
226	221	-12
206	153	-18
165	80	-25
80	31	-28
-52	1	-28
-197	-27	-18
-318	-71	-16
-388	-135	-24
-407	-192	-26
-402	-208	-43
-394	-161	-53
-409	-54	-52
-428	71	-48
-434	181	-20
-392	241	11
-273	254	4
-65	240	-15
222	222	-4
545	202	13
831	161	11
995	77	-9
967	-56	-19
731	-210	-21
330	-337	-33
-126	-388	-38
-503	-346	-40
-691	-238	-32
-652	-109	-16
-431	-3	-9
-134	65	-14
123	102	-32
266	131	-45
276	164	-60
195	188	-39
85	182	-10
-7	129	-1
-63	41	-26
-97	-53	-40
-129	-120	-3
-174	-144	-7
-226	-132	-16
-262	-112	-13
-267	-105	-12
-228	-110	-13
-153	-109	-23
-56	-76	-22
40	-2	-24
126	93	-16
192	179	-23
231	222	-30
242	214	-36
215	166	-39
155	105	-26
64	49	-32
-35	3	-30
-125	-43	-33
-185	-100	-36
-207	-157	-33
-188	-198	-32
-140	-200	-30
-78	-155	-24
-8	-74	-9
56	14	-20
115	80	-32
166	112	-22
205	115	-28
226	110	-32
216	109	-26
171	114	-25
82	106	-21
-44	68	-15
-191	-8	-15
-329	-112	-20
-423	-214	-20
-442	-276	-2
-375	-273	-6
-235	-201	-21
-60	-82	-17
95	51	-19
192	158	-19
212	210	-25
184	202	-24
151	150	-16
172	89	0
270	49	8
422	48	-9
558	72	-18
595	90	-19
481	59	-23
224	-35	-34
-103	-178	-37
-392	-312	-37
-556	-376	-44
-551	-332	-45
-409	-192	-36
-205	-17	-40
-26	124	-36
86	187	-27
126	169	-26
130	120	-18
129	93	-15
129	120	-13
109	179	-14
43	215	-13
-76	178	-18
-217	53	-25
-331	-113	-24
-371	-250	-28
-317	-296	-20
-197	-237	-20
-60	-113	-20
44	6	-8
104	71	-17
126	71	-31
144	41	-41
180	30	-36
227	58	-19
258	116	-21
242	161	-18
166	152	-19
41	80	-32
-96	-32	-28
-206	-134	-17
-263	-191	-23
-271	-189	-29
-244	-148	-25
-199	-93	-24
-157	-42	-20
-110	1	-28
-57	51	-38
9	106	-14
86	164	5
164	193	-9
226	180	-23
259	123	-18
253	45	-13
201	-22	-5
110	-64	-8
-7	-83	-25
-124	-101	-27
-216	-136	-31
-253	-190	-40
-229	-236	-43
-156	-238	-42
-66	-179	-41
-1	-65	-30
16	63	-22
-8	164	-23
-39	208	-19
-33	197	-30
41	157	-13
172	114	-9
306	86	-8
373	63	30
318	33	19
141	-15	-4
-87	-72	-9
-264	-120	-21
-310	-140	-25
-191	-130	-35
30	-109	-41
250	-92	-37
363	-90	-41
328	-94	-52
181	-85	-52
11	-44	-46
-94	30	-37
-105	116	-21
-60	183	-10
-41	210	-16
-108	189	-15
-257	130	-12
-409	54	-9
-465	-16	-14
-366	-70	-19
-123	-104	-21
165	-112	-33
380	-100	-35
436	-72	-24
341	-41	-10
165	-15	-20
13	-2	-19
-43	4	-19
0	11	-20
87	30	-23
144	60	-30
122	88	-27
20	95	-30
-113	65	-26
-232	3	-22
-296	-71	-25
-310	-133	-27
-295	-158	-18
-270	-136	-26
-241	-80	-26
-191	-6	-28
-108	62	-28
18	113	-18
166	138	-7
300	136	-6
374	110	-12
375	68	-15
300	16	-30
170	-33	-24
20	-74	-24
-113	-102	-27
-209	-117	-32
-256	-128	-21
-258	-137	-6
-224	-142	-12
-164	-131	-21
-90	-99	-42
-8	-37	-40
74	43	-24
147	129	-21
202	198	-20
231	233	-19
229	223	-16
191	174	-17
126	103	-22
44	25	-30
-42	-44	-31
-123	-97	-21
-189	-134	-20
-230	-158	-20
-243	-173	-13
-224	-175	-15
-167	-157	-24
-82	-110	-28
21	-37	-25
124	52	-25
206	141	-28
251	200	-32
252	213	-27
214	174	-22
147	102	-28
61	20	-32
-32	-46	-36
-126	-81	-35
-210	-89	-11
-272	-83	-7
-300	-82	-24
-288	-92	-24
-247	-108	-16
-186	-112	-21
-126	-86	-33
-67	-26	-19
-3	58	4
84	142	-2
201	193	-11
338	194	0
458	143	-4
506	63	-14
466	-18	-12
321	-76	-19
114	-98	-26
-99	-96	-20
-258	-90	-26
-333	-95	-46
-321	-117	-36
-250	-145	-24
-147	-159	-24
-35	-137	-20
67	-72	-16
160	28	-27
234	141	-28
276	237	-20
273	281	-36
216	258	-43
114	160	-40
-23	5	-30
-168	-176	-23
-289	-336	-20
-363	-429	-15
-375	-426	-15
-317	-320	-11
-208	-140	-17
-76	58	-31
40	219	-28
114	305	-27
133	305	-30
116	244	-19
91	177	-27
86	131	-22
105	126	-23
130	139	-34
131	135	-21
82	89	-28
-15	-5	-18
-133	-117	-18
-231	-207	-23
-274	-242	-17
-258	-213	-23
-195	-138	-27
-121	-54	-29
-51	12	-19
8	48	-27
65	64	-23
132	76	-17
206	89	-23
267	106	-27
291	112	-24
258	93	1
166	43	1
34	-29	-13
-111	-105	-15
-235	-168	-16
-315	-200	-21
-336	-202	-35
-300	-170	-33
-214	-114	-28
-97	-46	-38
30	26	-33
137	90	-35
208	139	-33
234	168	-27
216	174	-32
181	160	-24
139	126	-32
104	81	-36
67	27	-21
27	-27	-11
-26	-74	-7
-82	-105	-17
-126	-119	-19
-145	-122	1
-130	-114	-4
-96	-103	-21
-56	-81	-26
-31	-47	-30
-23	5	-15
-21	71	-20
-12	133	-25
19	174	-13
65	174	-21
111	132	-30
136	61	-28
131	-20	-21
99	-87	-37
57	-131	-35
24	-153	-20
13	-159	-19
17	-159	0
24	-159	3
25	-155	-4
18	-141	-25
10	-112	-35
7	-59	-40
12	8	-51
9	81	-33
-20	131	-31
-88	142	-26
-184	101	-28
-271	24	-33
-304	-53	-22
-247	-95	-22
-102	-70	-26
85	9	-23
242	110	-24
302	177	-30
252	174	-23
113	108	-2
-35	16	10
-121	-47	-8
-102	-41	-14
3	34	-24
133	135	-28
221	203	-23
214	197	-27
121	116	-7
-15	-5	-11
-141	-117	-36
-223	-180	-42
-252	-187	-38
-248	-157	-30
-236	-116	-18
-222	-86	-19
-191	-64	-22
-133	-49	-36
-35	-25	-50
85	11	-32
193	57	-23
261	103	-9
268	135	2
222	147	-10
141	130	-19
55	84	-18
-25	12	-16
-93	-72	-20
-154	-144	-19
-206	-187	-27
-242	-184	-26
-251	-145	-23
-221	-86	-30
-148	-31	-35
-42	11	-30
82	40	-30
204	65	-17
302	98	-13
358	131	-24
352	154	-26
273	141	-22
128	89	-13
-63	1	-20
-263	-97	-30
-438	-176	-34
-542	-213	-25
-556	-199	-22
-484	-151	-21
-331	-80	-15
-120	-8	-8
122	51	-11
365	90	-13
575	106	-4
716	113	-4
756	105	4
695	100	-5
541	96	-27
341	96	-30
140	92	-35
-18	67	-36
-126	14	-44
-191	-68	-42
-244	-165	-42
-291	-250	-43
-338	-292	-36
-360	-276	-36
-340	-202	-37
-263	-84	-22
-153	41	6
-35	147	12
54	208	-5
98	219	-7
96	192	-13
60	140	-24
17	85	-25
-25	28	-32
-64	-22	-23
-106	-70	-20
-148	-113	-18
-184	-144	-21
-202	-159	-33
-191	-150	-25
-149	-117	-39
-79	-68	-46
3	-10	-46
82	50	-38
148	109	-19
195	161	-3
215	197	8
209	205	-5
175	181	-3
121	118	-2
49	30	-16
-26	-61	-17
-95	-137	-24
-152	-179	-31
-187	-181	-26
-202	-157	-28
-193	-119	-40
-156	-81	-25
-90	-46	-19
0	-8	-28
97	41	-34
184	98	-43
242	153	-31
258	187	-21
234	189	-15
179	150	-22
107	84	-22
29	5	-17
-46	-69	-20
-117	-125	-13
-176	-163	-17
-219	-175	-32
-232	-170	-28
-212	-144	-33
-153	-103	-36
-67	-49	-40
25	10	-40
106	62	-36
155	105	-35
160	131	-27
122	148	-24
49	152	-18
-39	142	-10
-122	119	3
-178	75	-3
-188	13	-11
-145	-64	-13
-63	-140	-19
38	-205	-23
129	-246	-30
187	-249	-27
204	-206	-24
193	-115	-24
180	11	-30
188	145	-35
222	252	-40
259	284	-39
268	230	-30
211	103	-28
79	-45	-21
-111	-158	-3
-312	-194	4
-474	-165	7
-550	-113	12
-530	-89	0
-423	-119	-9
-258	-174	-20
-69	-200	-26
113	-145	-40
262	-2	-42
363	180	-27
410	324	-30
404	362	-18
357	291	-25
285	161	-25
198	45	-19
93	-3	-33
-37	12	-26
-197	40	-6
-363	20	-1
-489	-64	-13
-518	-181	-21
-417	-257	-18
-195	-237	-22
82	-118	-30
313	41	-34
425	162	-45
396	184	-44
269	109	-46
131	-6	-51
52	-89	-39
50	-92	-24
90	-24	-38
101	53	-38
36	86	-9
-99	40	-3
-256	-57	-6
-363	-157	-16
-385	-200	-12
-321	-170	1
-221	-87	-8
-128	5	-19
-69	64	-15
-30	83	-17
21	71	-32
96	66	-32
184	84	-22
245	120	-13
249	153	-12
179	149	-27
62	102	-26
-57	18	-22
-140	-72	-31
-178	-141	-21
-182	-174	-21
-173	-171	-20
-162	-149	-17
-140	-119	-28
-94	-91	-28
-12	-53	-25
95	0	-26
196	67	-23
261	139	-28
275	193	-21
239	204	-16
175	168	-20
104	96	-20
34	8	-24
-33	-72	-20
-101	-128	-28
-166	-158	-37
-214	-164	-36
-228	-154	-38
-195	-127	-34
-123	-86	-22
-32	-21	-21
48	57	-34
101	138	-15
119	202	-1
115	233	-23
105	215	-16
101	157	-14
101	63	-24
93	-45	-7
66	-145	-8
10	-216	-4
-65	-248	-3
-141	-238	-26
-191	-201	-35
-200	-152	-25
-163	-103	-30
-103	-58	-27
-50	-8	-41
-36	51	-42
-67	122	-39
-115	193	-39
-135	241	-24
-75	249	-21
81	210	-3
300	142	11
496	64	14
569	-5	-2
455	-66	-19
156	-131	-30
-237	-213	-42
-579	-308	-34
-726	-384	-27
-603	-401	-13
-243	-322	-30
233	-151	-42
648	83	-20
872	313	-25
846	469	-36
608	516	-21
269	438	-5
-39	294	-3
-239	117	4
-310	-38	-7
-291	-153	-21
-247	-226	-24
-231	-263	-30
-253	-278	-34
-291	-265	-39
-312	-224	-42
-279	-149	-42
-194	-53	-46
-79	41	-47
33	122	-32
115	177	-30
152	206	-26
153	214	-5
131	204	4
104	171	-5
75	114	-15
34	32	-18
-23	-63	-34
-99	-147	-24
-182	-199	-17
-252	-206	-21
-280	-174	-32
-255	-123	-30
-172	-67	-11
-50	-19	-26
77	30	-23
184	83	-26
245	138	-21
262	180	-8
239	186	-5
189	145	-25
123	62	-37
49	-29	-10
-28	-101	-17
-108	-130	-24
-180	-124	-27
-231	-108	-27
-246	-106	-21
-221	-126	-31
-156	-148	-30
-65	-136	-32
32	-70	-30
120	42	-37
188	169	-32
226	260	-26
231	279	-23
204	229	-6
147	128	-4
62	19	-2
-47	-71	-15
-168	-134	-27
-288	-176	-19
-392	-204	-8
-458	-215	-8
-463	-196	-14
-386	-136	-23
-213	-47	-40
41	43	-45
340	104	-37
614	112	-22
794	79	-13
824	35	-31
681	24	-37
409	61	-20
74	131	-32
-237	182	-16
-443	169	4
-509	66	-24
-432	-97	-34
-257	-263	-30
-44	-371	-37
136	-372	-43
237	-278	-34
236	-126	-23
150	26	-22
28	136	-15
-71	193	-14
-98	207	-3
-40	206	-2
74	202	-16
180	193	-25
214	163	-33
141	100	-36
-27	11	-30
-241	-86	-13
-431	-157	-10
-532	-186	-25
-523	-170	-17
-407	-122	-7
-223	-64	-17
-12	-14	-20
181	31	-27
326	74	-27
397	116	-25
385	154	-35
299	174	-44
169	164	-46
41	123	-36
-46	59	-33
-77	-5	-31
-69	-60	-13
-56	-101	-7
-78	-129	-2
-140	-157	-11
-221	-180	-19
-269	-196	-6
-249	-188	-7
-152	-153	-21
-4	-87	-36
139	-4	-33
234	83	-30
260	158	-27
231	206	-27
172	224	-19
111	199	-15
58	135	-19
1	35	-23
-67	-77	-31
-148	-174	-24
-217	-230	-30
-255	-229	-31
-242	-180	-20
-182	-107	-12
-92	-37	-11
3	14	-11
84	46	-5
147	74	-15
189	109	-22
216	150	-28
222	179	-33
201	180	-31
147	138	-25
66	62	-22
-28	-28	-17
-118	-103	-10
-190	-149	-10
-245	-157	-15
-285	-142	-26
-312	-114	-40
-321	-83	-51
-299	-49	-56
-231	-14	-53
-107	16	-51
50	39	-45
216	49	-37
351	51	-17
425	58	-6
417	82	6
334	120	18
194	157	12
30	158	6
-123	95	-22
-228	-29	-38
-253	-181	-34
-190	-301	-39
-48	-332	-32
129	-253	-21
285	-88	-15
365	92	-11
343	215	-20
234	241	-19
89	166	-15
-32	45	-22
-85	-54	-16
-67	-93	-15
-15	-66	-19
28	-15	-20
29	15	-26
-11	-4	-18
-65	-58	-13
-104	-114	-38
-112	-128	-42
-100	-89	-23
-91	-11	-22
-98	65	-27
-110	109	-42
-102	106	-36
-49	76	-28
46	49	-31
149	48	-19
202	76	-4
171	106	10
52	114	-3
-114	79	-21
-263	5	-27
-353	-85	-29
-361	-165	-21
-316	-211	-18
-250	-219	-31
-188	-188	-21
-133	-125	-19
-64	-42	-35
27	51	-25
141	139	-23
248	202	-21
311	225	-16
302	203	-17
234	147	-25
126	74	-25
22	1	-21
-58	-57	-32
-111	-103	-32
-150	-140	-29
-180	-170	-31
-199	-184	-11
-195	-173	7
-151	-123	-13
-61	-46	-33
51	43	-30
159	120	-35
234	163	-31
262	169	-27
249	145	-22
208	110	-15
155	75	-17
92	42	-19
16	5	-23
-67	-41	-23
-157	-98	-20
-228	-153	-19
-259	-186	-26
-242	-189	-28
-177	-153	-25
-83	-92	-25
17	-14	-31
97	64	-45
145	136	-40
160	194	-25
144	233	-11
106	238	-19
54	201	-22
0	121	-4
-49	5	-5
-86	-117	-19
-110	-217	-34
-122	-269	-23
-126	-262	-19
-119	-210	-30
-97	-135	-21
-46	-68	-27
28	-22	-29
102	-2	-23
141	1	-34
111	1	-30
10	5	-24
-126	21	-19
-222	45	-16
-193	76	-16
-11	105	-18
283	123	-18
569	122	-20
716	89	-25
632	22	-16
326	-71	-13
-84	-171	-22
-431	-245	-42
-577	-264	-51
-489	-218	-42
-239	-110	-35
35	36	-11
211	185	0
244	301	1
172	362	-9
87	356	-21
54	296	-21
77	188	-14
102	58	-2
68	-72	-3
-45	-184	5
-203	-254	-12
-331	-278	-18
-366	-251	-24
-298	-191	-32
-170	-113	-13
-52	-36	-31
14	34	-32
31	95	-40
38	144	-34
68	183	-16
130	198	-23
188	183	-30
191	126	-40
116	39	-25
-18	-56	-22
-160	-136	-19
-256	-181	-16
-277	-184	-37
-236	-157	-36
-166	-118	-37
-99	-79	-42
-44	-46	-42
11	-12	-43
81	31	-34
162	80	-14
234	128	-12
263	163	-18
234	168	-16
153	134	-13
51	68	3
-38	-14	-2
-98	-97	-12
-130	-161	-19
-150	-195	-17
-173	-195	-20
-187	-167	-39
-181	-117	-32
-133	-57	-26
-48	1	-21
59	53	-19
159	98	-22
216	132	-19
237	158	-22
215	170	-24
171	166	-24
113	138	-25
45	94	-24
-36	31	-25
-129	-37	-24
-221	-105	-40
-281	-158	-51
