File Name: not saved
Channel 2: 'Channel 2', 30510 values, raw ADC, no filters.
Channel 3: 'Channel 3', 30510 values, raw ADC, no filters.
Channel 4: 'Channel 4', 30510 values, raw ADC, no filters.

-43	25	-9
-20	71	57
4	121	85
25	155	44
43	157	1
62	109	6
78	19	94
85	-79	139
75	-142	191
42	-135	103
-6	-64	-41
-56	26	-107
-89	72	-257
-94	30	-270
-68	-93	-106
-28	-238	19
8	-322	52
26	-288	13
26	-139	-67
19	57	-61
17	208	-37
29	253	-9
49	190	68
66	71	119
62	-25	138
35	-50	104
-8	-12	46
-51	41	-45
-76	60	-109
-79	20	-74
-62	-50	-67
-45	-103	-131
-31	-99	-184
-24	-40	-149
-20	38	-48
-8	93	-35
11	95	-23
36	63	-45
57	27	-42
65	21	40
55	49	78
32	85	71
6	98	45
-18	64	12
-36	-2	-11
-45	-76	-9
-47	-121	-57
-46	-129	-62
-40	-110	13
-32	-82	137
-20	-60	115
-5	-42	-51
11	-18	-88
26	22	-51
40	67	-80
51	103	-141
56	106	-109
52	77	-132
35	28	-194
8	-21	-174
-24	-51	-81
-53	-61	52
-71	-64	62
-78	-70	113
-68	-85	130
-52	-92	35
-32	-81	-55
-11	-40	-149
10	18	-89
31	74	6
49	108	31
60	114	66
63	103	-14
53	85	-111
35	71	-38
14	56	-32
-6	23	-61
-24	-28	-50
-41	-85	-5
-56	-118	110
-71	-105	119
-83	-43	51
-81	32	-1
-59	74	-80
-19	49	-192
32	-41	-158
80	-147	-6
107	-204	68
106	-169	143
81	-45	117
44	103	63
10	202	36
-11	197	-62
-18	92	-154
-20	-56	-133
-25	-174	13
-37	-210	-13
-54	-162	15
-66	-72	-17
-63	3	-131
-46	35	-105
-15	30	-132
17	22	-60
44	38	-42
59	82	-24
63	130	-35
58	150	-6
46	122	101
31	60	52
7	-7	-7
-21	-51	-38
-49	-61	-67
-68	-53	-97
-79	-48	-68
-72	-55	-52
-59	-72	-100
-40	-77	-10
-21	-47	53
-3	11	45
16	84	37
33	138	-34
52	153	57
66	121	99
71	59	-22
65	-6	16
44	-55	22
17	-81	-63
-14	-84	-81
-43	-78	-143
-65	-72	-116
-76	-74	-21
-75	-78	-2
-61	-77	-4
-41	-64	-125
-16	-38	-188
8	2	-97
28	50	-11
41	98	19
48	131	103
48	137	109
44	114	65
36	62	12
24	-2	-91
5	-68	-40
-15	-115	-6
-37	-133	-36
-54	-125	-12
-64	-97	16
-63	-62	52
-52	-29	21
-34	-4	-63
-10	14	-78
18	34	-9
40	55	53
55	82	69
61	103	108
56	114	106
42	104	-65
25	74	-268
6	24	-334
-11	-34	-172
-27	-87	8
-41	-126	117
-52	-142	186
-59	-136	46
-59	-107	-64
-49	-61	-154
-30	-9	-186
-8	50	-39
14	109	32
29	165	7
36	208	-29
37	224	-84
36	194	-68
38	105	-107
40	-29	-116
39	-180	113
28	-296	140
4	-337	87
-31	-288	30
-64	-173	-32
-82	-40	-75
-78	54	-54
-48	86	77
-12	68	-76
21	41	-145
39	46	-29
41	88	-19
38	137	-171
36	150	-176
43	96	-14
51	-11	-1
50	-123	-36
30	-182	-29
-8	-159	59
-54	-74	90
-92	20	36
-104	67	-7
-89	48	-32
-54	-15	-30
-16	-69	-28
16	-77	-21
36	-29	37
48	43	53
55	100	19
60	115	54
60	90	13
50	52	-82
31	25	-91
2	15	-60
-28	8	-12
-51	-16	-19
-64	-58	-50
-68	-104	-12
-65	-123	8
-56	-98	-4
-44	-38	12
-24	29	22
0	74	22
26	84	9
49	68	-130
61	56	-117
60	64	95
49	88	50
32	105	9
13	88	-36
-3	28	-90
-18	-58	-92
-32	-134	-172
-45	-166	-89
-57	-143	-56
-62	-76	-6
-60	3	49
-47	65	3
-26	92	-55
3	84	-85
33	49	9
60	6	82
80	-35	132
88	-64	125
81	-71	125
59	-58	127
26	-27	60
-12	4	-121
-43	14	-215
-63	-5	-186
-71	-50	-272
-67	-100	-263
-56	-126	-205
-43	-107	-80
-29	-47	-8
-14	32	9
0	105	46
16	149	8
30	162	-69
39	147	-54
44	114	56
43	69	61
39	10	59
30	-58	-19
15	-124	-50
-8	-163	-57
-36	-160	-33
-61	-116	36
-77	-51	-1
-76	1	-28
-55	25	-10
-24	17	17
7	1	26
33	-3	34
49	19	24
56	55	14
56	79	-9
54	77	13
46	48	39
31	14	11
5	-5	31
-26	-2	47
-57	10	-31
-76	2	-122
-80	-37	-128
-67	-101	-99
-46	-154	-69
-23	-162	-15
-3	-107	11
12	-6	-7
28	97	27
41	163	36
54	171	84
60	134	107
57	78	14
44	29	-114
25	-3	-229
2	-27	-180
-20	-55	-113
-39	-89	-43
-56	-114	20
-67	-113	-3
-70	-76	-38
-63	-17	-61
-42	33	-30
-10	54	20
25	34	57
52	-2	49
67	-29	24
67	-20	-71
56	25	-71
40	76	48
21	103	-12
5	81	-41
-13	17	0
-31	-61	-39
-51	-120	-137
-65	-133	-96
-71	-108	-9
-63	-63	7
-47	-23	-22
-22	2	-158
4	13	-129
25	28	-127
40	51	-55
50	82	30
53	103	-76
49	99	-105
40	69	-59
23	19	60
1	-31	31
-24	-66	36
-47	-85	94
-63	-85	36
-70	-79	-6
-67	-65	5
-58	-45	59
-41	-12	47
-20	34	37
2	80	45
27	110	41
49	111	21
67	85	34
81	41	13
81	1	-28
67	-21	-84
42	-22	-117
8	-9	-57
-31	1	-43
-66	4	-16
-90	-4	4
-96	-20	16
-83	-41	13
-53	-68	1
-17	-97	-6
17	-121	-48
42	-129	-69
57	-110	0
64	-56	20
63	16	-18
61	81	-121
56	112	-302
42	95	-234
22	38	-129
-10	-27	-97
-46	-74	-11
-77	-86	26
-93	-69	37
-91	-42	91
-70	-26	131
-41	-25	121
-10	-30	101
18	-23	50
38	7	15
51	57	-34
58	106	-131
59	135	-149
54	131	-50
42	97	-52
24	47	-138
2	2	-90
-20	-32	39
-40	-51	129
-55	-60	174
-64	-66	232
-66	-69	239
-58	-64	104
-42	-48	-221
-18	-23	-488
9	10	-363
33	37	-241
48	58	-215
54	64	-23
52	63	46
42	54	24
29	39	-35
13	19	-87
-5	-9	20
-26	-41	75
-47	-72	74
-63	-95	61
-68	-102	107
-62	-91	169
-43	-63	150
-17	-28	118
12	11	49
35	45	-81
50	77	-195
58	96	-164
59	105	-127
54	100	-161
41	79	-103
23	49	-38
-1	12	-27
-27	-23	-4
-47	-53	-8
-60	-77	24
-63	-91	56
-56	-94	49
-48	-84	75
-35	-60	57
-24	-26	3
-7	8	-80
14	29	-106
39	34	-22
63	26	5
76	20	-21
71	32	-51
44	71	-53
8	121	-92
-29	149	-118
-53	118	-27
-58	14	76
-45	-138	87
-26	-283	46
-12	-354	39
-10	-309	56
-18	-157	45
-25	40	25
-20	200	-28
1	261	-84
35	210	-22
69	94	-17
89	-23	-89
84	-83	-214
57	-68	-276
17	-13	-70
-21	33	-11
-50	29	-35
-65	-23	89
-71	-92	68
-72	-131	-69
-68	-111	-238
-62	-39	-256
-48	49	-122
-24	112	-82
9	123	25
42	86	131
69	27	126
84	-19	155
81	-36	97
65	-16	25
41	17	15
15	47	-3
-14	55	10
-39	36	41
-60	-1	54
-75	-46	-13
-80	-82	-101
-72	-103	-207
-52	-102	-176
-24	-84	-60
6	-52	-94
32	-13	9
50	26	94
57	62	119
56	88	111
50	100	39
39	96	-17
26	74	-115
6	40	-87
-18	3	-38
-47	-27	-70
-75	-41	-87
-92	-39	-27
-93	-31	56
-74	-30	16
-41	-40	-125
2	-62	-59
41	-81	-56
69	-81	-116
82	-51	-26
78	3	-54
64	61	-13
44	100	38
27	99	62
11	60	59
-4	0	22
-23	-53	1
-42	-80	30
-62	-69	114
-79	-31	108
-84	13	134
-75	45	80
-48	52	-23
-14	35	-103
28	5	-198
66	-23	-256
90	-32	-436
97	-23	-391
86	5	-132
59	34	4
25	49	78
-9	37	27
-36	-5	60
-55	-62	78
-65	-115	62
-68	-136	123
-65	-120	108
-57	-70	116
-41	-8	33
-22	40	-75
4	65	-15
29	67	-45
47	65	-181
57	71	-129
54	93	-7
44	120	-10
26	135	-39
6	121	41
-16	70	32
-32	-8	-21
-44	-98	15
-48	-175	-11
-47	-218	14
-40	-219	60
-31	-174	83
-22	-96	59
-10	-5	-95
3	76	-202
19	129	-218
36	150	-144
50	141	-34
56	122	39
49	104	107
30	89	119
5	65	30
-18	24	-50
-32	-44	-56
-38	-130	-143
-37	-204	-161
-36	-241	-75
-38	-223	-33
-39	-157	-7
-38	-62	20
-27	33	48
-7	114	82
16	181	112
35	233	47
46	262	-35
46	255	-88
44	186	-122
44	51	-103
45	-125	4
42	-286	100
27	-371	77
-3	-345	-49
-44	-226	-125
-79	-72	-88
-94	40	-149
-80	68	-85
-41	24	46
5	-41	34
42	-62	-4
58	-10	-61
55	99	4
41	207	147
29	252	169
23	211	94
20	106	-17
14	-7	-151
-5	-92	-230
-31	-121	-268
-58	-113	-128
-76	-97	100
-76	-85	0
-58	-79	-106
-35	-58	-46
-11	-17	-66
11	41	-183
27	95	-167
40	116	41
50	103	71
57	61	63
53	23	40
39	0	49
16	-3	106
-12	-4	58
-36	-19	65
-55	-48	2
-66	-85	-96
-69	-103	-125
-65	-94	-85
-57	-55	-43
-42	-7	42
-20	34	123
5	64	136
32	81	120
54	93	-5
69	100	-123
72	96	-227
64	70	-133
46	20	-30
19	-40	-66
-10	-93	-6
-38	-116	-29
-60	-109	-15
-69	-80	20
-67	-49	-48
-54	-34	-31
-36	-29	-45
-15	-22	-63
3	3	-47
20	45	31
37	93	167
52	122	129
65	115	13
65	78	-164
53	23	-256
28	-22	-246
0	-51	-185
-28	-64	40
-46	-75	116
-55	-87	87
-56	-92	98
-56	-80	91
-55	-43	104
-52	12	47
-40	58	-63
-15	76	-55
20	56	-33
56	19	-202
78	-7	-302
84	-4	-187
70	20	-101
46	39	-80
23	17	74
4	-52	97
-13	-141	-20
-30	-205	3
-50	-204	43
-70	-137	19
-81	-39	-2
-71	40	43
-44	67	77
-3	46	48
36	16	60
62	15	95
69	60	39
61	131	-76
48	179	-100
35	170	-80
25	102	-118
12	8	-194
-8	-64	-167
-35	-90	4
-61	-66	-1
-82	-30	32
-86	-14	87
-74	-29	33
-51	-62	39
-23	-82	-12
2	-66	-13
25	-15	-55
43	49	-84
58	97	21
67	110	101
65	89	65
50	53	64
25	18	19
-2	-4	-115
-29	-19	-179
-46	-33	-218
-56	-46	-97
-61	-54	25
-65	-46	70
-65	-25	-8
-59	1	-80
-40	13	36
-8	0	12
33	-29	40
71	-59	42
96	-62	-36
99	-28	-66
80	36	-69
47	98	-40
11	119	-116
-20	88	-186
-39	11	-160
-49	-78	-50
-54	-140	22
-57	-153	113
-61	-118	63
-60	-61	-113
-50	-9	-151
-32	24	17
-6	45	26
22	67	-68
45	100	32
58	137	-40
63	153	-22
56	126	-21
44	48	-42
25	-57	-39
4	-154	-36
-20	-199	63
-40	-177	130
-56	-106	150
-65	-20	24
-63	43	-28
-53	74	-82
-35	80	-116
-16	85	-115
5	109	-25
23	141	68
40	158	9
56	127	11
69	39	-9
74	-89	-34
66	-210	11
48	-281	77
19	-272	15
-19	-195	-71
-52	-90	-23
-75	-5	12
-79	28	4
-65	13	15
-40	-24	-25
-12	-48	-67
13	-33	-77
28	16	-211
36	80	-251
40	127	-136
43	142	-6
45	121	59
44	81	127
32	41	141
10	12	39
-22	-5	-50
-53	-20	-130
-75	-35	-119
-81	-49	-60
-72	-53	-81
-54	-36	-2
-33	-3	61
-15	40	35
3	71	55
21	80	-115
39	63	-230
55	28	-138
66	-6	-114
65	-33	-6
51	-44	151
25	-47	127
-7	-48	57
-35	-52	-72
-57	-61	-117
-67	-69	-14
-67	-72	9
-58	-64	-25
-44	-46	3
-23	-17	34
0	19	40
25	56	13
50	90	-2
67	112	24
76	116	-63
72	100	-133
57	71	-78
32	32	33
4	-6	86
-25	-40	29
-50	-68	-28
-66	-87	-62
-77	-102	-128
-75	-106	-119
-66	-100	20
-49	-79	65
-27	-43	-34
-1	3	-114
25	51	-111
46	94	-16
60	124	43
64	135	53
60	122	48
49	86	17
33	32	68
11	-29	87
-14	-81	109
-39	-108	155
-62	-106	124
-77	-84	0
-79	-56	-251
-63	-44	-284
-35	-48	-234
-2	-63	-256
27	-64	-135
44	-36	-49
48	22	49
44	93	13
36	143	-24
30	151	-5
23	116	-16
13	61	40
-7	16	-50
-34	-6	-88
-61	-10	-64
-77	-22	-27
-76	-62	-67
-53	-135	-62
-24	-205	62
4	-233	69
24	-188	45
32	-77	-67
36	57	-105
44	161	13
56	194	87
64	158	-24
62	85	-105
44	13	-124
13	-29	-143
-20	-48	-44
-44	-62	51
-54	-87	87
-55	-111	78
-54	-109	76
-56	-62	65
-59	23	37
-52	112	-29
-29	157	-1
14	130	59
63	50	39
101	-36	39
111	-78	26
94	-50	1
54	16	-44
13	74	-90
-18	68	-106
-35	-3	-78
-43	-105	-77
-50	-181	-118
-61	-184	-62
-70	-120	-111
-70	-25	-125
-53	43	-52
-24	64	-49
13	43	54
42	17	110
57	24	112
58	68	38
48	126	29
37	155	1
28	132	-84
16	64	-95
-3	-18	-60
-28	-75	-89
-55	-92	-194
-77	-76	-70
-84	-56	-6
-75	-49	-101
-50	-57	-129
-24	-63	-70
3	-45	12
24	3	21
39	65	31
50	110	131
57	121	112
57	97	-1
46	53	40
27	18	64
-2	-1	8
-31	-4	-142
-56	-11	-226
-72	-27	-43
-80	-50	78
-77	-67	61
-66	-59	35
-48	-30	82
-16	4	-37
20	16	-186
57	-4	-143
87	-42	-160
101	-70	-48
94	-61	37
72	-11	-6
42	51	-27
17	85	-11
0	59	110
-13	-18	141
-26	-111	71
-42	-169	-59
-61	-163	-209
-75	-101	-148
-75	-25	-23
-54	15	14
-16	2	17
27	-43	45
59	-70	60
75	-45	-66
67	40	-95
49	143	-19
30	209	-32
15	194	-15
7	106	95
-5	-12	95
-23	-100	-16
-48	-120	-4
-72	-79	72
-86	-15	44
-80	25	-205
-55	21	-294
-24	-12	-223
5	-41	-159
22	-34	-7
31	10	75
34	68	70
39	105	65
44	101	35
44	61	-90
35	11	-61
11	-24	-44
-18	-37	-84
-45	-38	-40
-63	-42	-12
-69	-62	13
-61	-90	49
-49	-103	129
-35	-87	138
-19	-39	120
1	26	63
25	85	49
50	114	-18
72	119	-224
85	102	-205
78	81	-147
57	58	-112
26	33	-62
-5	1	-21
-33	-40	43
-51	-82	-36
-61	-110	-143
-64	-114	-26
-58	-96	91
-48	-64	-26
-30	-33	-72
-10	-11	-34
12	6	-39
31	23	-102
47	45	-99
57	69	16
57	85	38
48	84	64
30	63	81
5	35	64
-24	10	49
-49	-3	1
-67	-14	-11
-75	-27	14
-68	-50	31
-55	-81	22
-37	-96	-24
-18	-84	-112
1	-36	-172
20	22	-174
41	61	-39
64	52	119
84	-7	75
94	-92	-37
89	-155	-57
64	-162	-151
22	-104	-166
-25	-13	-110
-68	64	-121
-93	88	-30
-93	47	-52
-75	-30	-7
-44	-102	39
-16	-130	43
5	-101	14
17	-33	-47
24	41	136
33	97	107
42	121	-2
52	121	-4
56	106	24
49	88	40
30	64	1
1	30	54
-30	-11	74
-55	-51	0
-71	-78	-118
-77	-85	-117
-71	-69	-40
-59	-41	-96
-41	-15	-84
-17	8	-71
10	26	-151
35	48	-90
56	74	-26
68	100	74
68	114	141
57	106	43
39	79	-42
16	31	-79
-8	-19	-112
-32	-59	-85
-50	-85	-56
-64	-95	-152
-69	-96	-27
-64	-87	85
-51	-69	23
-31	-36	-6
-10	13	-83
10	74	-10
24	129	56
36	158	22
42	149	-45
51	93	-48
56	12	41
52	-71	47
39	-127	32
13	-139	-10
-19	-114	3
-50	-72	4
-69	-44	-24
-69	-47	-13
-54	-77	-50
-29	-109	-102
-4	-116	-226
12	-81	-150
22	-11	-69
28	63	-21
34	112	-36
43	115	-135
50	81	-46
50	37	-37
36	7	47
10	2	170
-23	9	192
-54	11	158
-77	-7	46
-86	-34	-88
-84	-49	-153
-71	-36	-106
-52	7	-40
-26	55	13
5	80	40
42	62	17
75	13	7
95	-36	-59
97	-53	-147
82	-28	-165
52	20	-89
18	54	69
-15	43	91
-40	-15	87
-58	-93	90
-71	-152	48
-78	-158	22
-75	-114	-28
-61	-43	-22
-35	17	-41
-2	49	-145
29	53	-241
51	49	-249
63	59	-99
63	84	-17
54	106	-44
40	108	64
24	79	106
2	26	-1
-24	-24	-38
-53	-45	0
-84	-27	23
-104	20	-111
-111	74	-195
-98	106	-109
-67	96	-18
-21	41	64
31	-40	139
80	-131	243
116	-201	238
131	-229	150
125	-199	63
97	-120	-55
57	-20	-244
17	65	-363
-17	97	-269
-40	64	-147
-54	-19	-90
-62	-107	-27
-68	-157	60
-70	-143	105
-66	-76	84
-52	11	-56
-26	79	-51
4	100	56
34	89	49
51	70	-19
57	68	-32
52	93	-40
41	121	-19
29	128	94
15	94	122
-1	28	109
-22	-42	34
-43	-90	-141
-61	-98	-197
-70	-78	-93
-64	-49	-98
-47	-35	-93
-23	-33	3
2	-32	-15
23	-13	-19
40	29	12
54	79	68
60	114	122
62	115	137
52	81	91
32	28	-1
4	-22	-77
-25	-52	-128
-49	-67	-168
-64	-75	-170
-69	-88	-89
-68	-105	-115
-61	-109	-128
-50	-87	-21
-36	-29	11
-17	50	-81
5	128	-228
30	169	-181
52	160	-61
71	103	37
79	22	285
77	-47	333
59	-84	102
31	-80	-52
-4	-53	-159
-39	-33	-246
-63	-38	-349
-69	-75	-328
-59	-125	34
-38	-162	124
-17	-156	56
0	-99	75
12	-6	95
20	90	127
31	160	16
42	187	-42
50	174	-3
48	143	61
32	101	10
7	51	-6
-20	-8	-30
-38	-90	-97
-45	-173	-48
-46	-233	13
-47	-237	8
-51	-170	14
-58	-46	74
-56	88	89
-41	183	59
-7	210	-5
35	166	-66
75	86	-62
100	7	-46
104	-39	-48
89	-49	-9
59	-41	-3
26	-32	-14
-7	-37	-89
-37	-53	-155
-62	-69	-116
-79	-78	-94
-83	-76	8
-75	-64	50
-54	-46	-23
-30	-22	-10
-5	13	44
15	54	64
33	92	62
47	115	56
56	118	33
57	110	-94
44	106	-193
17	119	-120
-18	137	-66
-49	136	-50
-65	85	-70
-61	-32	-106
-40	-188	-14
-15	-326	71
4	-380	183
7	-312	155
0	-139	94
-10	68	8
-7	223	-90
12	259	-94
43	174	-249
74	28	-264
86	-102	-169
75	-151	-105
39	-109	-93
-7	-22	-18
-49	44	72
-75	47	-48
-81	-13	-186
-72	-96	-95
-56	-143	135
-43	-127	98
-29	-54	-11
-14	35	5
4	98	-45
26	113	-79
45	93	-84
58	66	-30
57	57	29
42	67	91
22	81	107
-1	67	102
-23	23	97
-38	-41	45
-51	-97	2
-60	-119	-48
-65	-103	-15
-62	-59	15
-46	-15	-46
-20	14	-90
13	23	-109
42	27	-99
62	38	-16
69	57	16
62	81	8
49	90	49
32	77	0
15	37	-128
-3	-14	-111
-23	-58	-19
-43	-89	32
-60	-99	63
-69	-98	18
-68	-88	-35
-54	-71	-14
-31	-46	25
-5	-9	36
19	34	-69
36	83	-149
46	120	-124
50	141	-98
48	140	-19
41	117	-66
30	76	-85
14	18	-2
-3	-48	20
-21	-118	34
-39	-170	25
-52	-195	87
-63	-178	176
-65	-124	216
-57	-52	166
-37	14	89
-7	53	-19
25	64	-231
54	60	-345
68	60	-373
68	80	-254
56	106	-91
40	121	-128
25	91	-97
16	14	5
5	-88	28
-13	-167	51
-39	-185	55
-72	-134	3
-95	-43	19
-96	31	24
-70	46	-8
-26	-3	-20
24	-77	-24
59	-112	-32
69	-68	-70
58	47	-24
38	175	20
25	250	1
23	218	75
29	97	142
32	-53	83
22	-166	108
-1	-192	113
-31	-144	24
-53	-68	-55
-64	-21	-195
-60	-22	-228
-49	-54	-252
-34	-78	-151
-19	-56	79
-2	6	121
21	84	156
44	134	24
64	142	-114
69	110	-234
56	64	-324
24	31	-102
-12	11	51
-44	-6	119
-64	-39	87
-68	-87	-43
-65	-131	-74
-57	-150	-150
-48	-121	-128
-33	-55	21
-12	23	130
16	82	100
44	106	34
66	100	104
75	81	75
68	70	-19
51	68	-53
29	65	-109
8	45	-86
-13	3	3
-32	-50	26
-50	-98	-23
-65	-119	-60
-72	-108	-57
-71	-71	-7
-56	-28	49
-34	15	120
-7	53	137
19	85	68
39	112	-40
54	124	-193
61	116	-203
65	78	-62
60	16	56
47	-51	175
29	-106	103
3	-134	-32
-24	-137	-26
-48	-124	-149
-64	-107	-215
-69	-93	-151
-63	-78	-69
-47	-56	-101
-22	-21	-248
4	21	-154
28	64	-100
42	97	-138
48	115	21
42	123	-4
29	120	-23
13	103	80
1	67	41
-11	10	87
-21	-62	112
-37	-122	154
-55	-143	196
-71	-109	87
-78	-33	78
-63	43	87
-25	78	-56
29	41	-215
82	-45	-205
114	-134	-172
115	-170	-156
86	-122	-136
42	-13	-23
4	102	45
-18	155	-4
-22	119	18
-18	15	4
-22	-99	76
-38	-160	67
-64	-142	1
-85	-67	-88
-86	15	-99
-64	61	-51
-26	61	-77
13	36	-9
42	27	45
55	51	109
56	101	109
52	139	35
49	138	-41
44	89	-95
33	14	-130
10	-48	-55
-22	-75	138
-55	-60	110
-81	-33	-4
-89	-17	12
-81	-25	-76
-59	-51	-194
-33	-74	-182
-6	-75	-122
20	-49	-69
42	-11	-61
62	27	-82
69	55	-136
67	70	-128
53	78	10
31	74	71
9	56	162
-12	19	234
-28	-33	138
-42	-87	107
-55	-123	9
-64	-126	-160
-66	-98	-323
-55	-52	-300
-34	-11	-143
-4	17	-133
22	28	-19
40	34	28
49	46	-4
49	66	20
46	88	51
42	96	116
35	83	126
20	50	72
-2	9	36
-30	-29	8
-56	-57	-79
-72	-76	-175
-72	-90	-159
-56	-102	-68
-31	-110	-9
-3	-106	89
23	-83	108
44	-40	59
58	14	74
69	67	49
70	106	26
61	121	-19
41	110	-90
13	86	-113
-20	57	-145
-51	40	-92
-80	38	44
-101	45	71
-110	43	82
-99	13	76
-68	-52	-25
-18	-145	-129
39	-229	-132
89	-263	-48
113	-216	-3
107	-95	-20
77	62	-92
36	197	-56
8	256	48
-4	222	75
-1	114	34
4	-12	-27
-2	-110	-89
-24	-158	-135
-53	-160	-172
-77	-145	-198
-83	-133	-75
-64	-126	26
-33	-106	32
-1	-56	64
23	19	69
34	103	14
38	158	-95
40	168	-61
44	130	-17
44	76	-31
36	30	10
15	9	12
-13	9	-24
-43	7	12
-65	-11	56
-74	-41	12
-71	-63	74
-60	-57	233
-47	-14	308
-30	51	343
-10	104	241
18	118	-151
51	85	-454
79	25	-680
93	-29	-658
86	-54	-397
59	-45	-355
20	-21	-107
-19	-8	13
-48	-23	72
-63	-64	155
-68	-111	57
-65	-141	96
-60	-138	119
-52	-104	171
-39	-53	176
-20	-4	151
6	32	83
34	58	-27
54	76	-67
66	94	3
64	106	48
54	111	-4
38	97	-24
20	61	-87
-2	16	-70
-24	-32	8
-46	-68	42
-64	-89	34
-72	-92	-24
-69	-82	-96
-52	-61	-81
-25	-34	7
6	0	6
33	39	50
52	77	102
64	106	81
66	121	-20
63	121	-165
50	109	-270
29	85	-180
0	52	0
-32	7	-26
-60	-51	-81
-79	-120	-100
-81	-185	-66
-69	-228	-1
-48	-230	-2
-25	-185	17
-4	-104	64
15	-8	110
33	72	119
48	119	10
60	131	-65
66	116	-35
61	97	-56
44	85	-85
19	84	-31
-7	79	14
-31	51	2
-44	-1	-4
-50	-76	38
-50	-143	-5
-45	-182	-52
-41	-171	-14
-32	-116	-35
-16	-40	-47
5	26	-38
30	61	-48
52	63	-14
65	49	-11
63	45	20
48	64	8
22	99	-138
-7	123	-200
-31	106	-228
-47	38	-105
-53	-75	-83
-52	-187	3
-47	-259	122
-40	-254	81
-33	-174	193
-24	-48	84
-10	76	-50
10	158	-121
35	178	-182
61	145	-181
79	91	-176
81	43	-54
64	18	57
34	12	61
-2	4	68
-33	-21	176
-51	-66	160
-57	-117	105
-54	-144	5
-51	-132	-53
-49	-81	-65
-47	-13	-40
-36	47	87
-14	77	137
18	79	152
52	68	1
77	65	-202
81	79	-279
64	99	-207
36	104	-149
6	79	-135
-19	23	-91
-36	-41	-86
-50	-93	-42
-62	-108	-66
-76	-89	-99
-83	-50	-101
-76	-18	-18
-52	-6	99
-15	-12	93
24	-20	102
57	-11	28
74	20	-11
72	66	-8
60	103	18
44	110	120
31	80	87
20	17	1
8	-54	-39
-9	-114	5
-30	-142	-25
-54	-137	-122
-71	-107	-47
-77	-65	26
-65	-28	-52
-44	3	-95
-16	24	-79
14	42	-58
37	58	-36
51	72	-61
56	81	-30
52	82	48
40	76	87
21	67	46
0	58	-37
-23	48	-114
-42	27	-67
-54	-13	-3
-57	-70	-5
-53	-126	11
-43	-162	-32
-30	-155	-50
-15	-108	-83
4	-38	-8
25	22	32
46	51	-22
64	47	-32
72	24	-108
68	11	-119
48	20	-142
20	47	-98
-12	70	-2
-39	63	-28
-60	21	29
-71	-43	9
-75	-99	-14
-69	-123	-7
-55	-111	0
-33	-80	108
-4	-52	45
26	-35	-33
53	-23	-137
69	4	-97
72	52	82
65	112	91
51	157	116
36	155	64
20	105	40
4	23	4
-15	-51	-126
-37	-92	-95
-59	-91	-8
-77	-65	-25
-82	-42	-41
-72	-33	-54
-53	-32	6
-29	-13	12
-5	33	-124
15	102	-137
31	160	-99
46	170	-63
59	120	-50
70	21	-86
71	-83	-129
60	-152	-111
33	-165	8
-4	-134	57
-44	-96	16
-74	-74	116
-86	-81	176
-78	-94	120
-51	-91	122
-18	-52	20
13	14	-119
34	85	-215
46	130	-167
49	135	-47
48	112	22
42	80	87
33	56	-24
17	48	-23
-3	44	-2
-26	32	-101
-51	1	-139
-66	-45	-120
-74	-94	-51
-68	-127	15
-52	-137	6
-32	-121	-63
-8	-80	-40
15	-23	-66
35	47	-21
49	115	70
57	162	60
57	171	69
50	131	-26
39	49	-61
22	-53	25
4	-137	47
-18	-179	-68
-39	-165	-117
-60	-112	40
-76	-44	64
-79	13	-9
-70	47	-40
-48	64	-88
-18	68	-58
20	63	-36
54	51	-30
85	24	-122
98	-10	-118
95	-40	-45
76	-48	9
41	-29	30
3	10	8
-34	47	65
-60	56	45
-75	33	36
-77	-13	-11
-70	-56	-15
-61	-80	-48
-48	-74	-48
-30	-50	-6
-4	-25	25
24	-5	51
52	11	-50
71	32	-88
77	59	-156
69	85	-142
50	86	-53
30	47	7
7	-19	40
-17	-88	40
-43	-121	24
-68	-102	22
-87	-38	29
-93	31	-37
-80	63	-19
-50	38	4
-10	-28	-16
29	-94	-46
56	-111	-9
65	-54	98
62	57	94
47	177	155
32	251	112
21	240	-114
12	143	-233
5	-1	-320
-5	-144	-257
-21	-237	-137
-39	-260	-108
-57	-218	-130
-69	-140	-151
-69	-59	-22
-53	-3	111
-25	24	187
9	33	85
41	38	-25
62	57	6
68	86	-47
61	115	-97
44	122	-6
24	100	37
4	48	44
-17	-16	16
-35	-68	-46
-53	-94	-19
-67	-87	55
-71	-63	87
-65	-37	57
-46	-23	84
-20	-20	-45
10	-14	-185
34	1	-200
49	32	-276
57	68	-209
55	96	-21
49	101	-36
37	77	24
21	36	133
3	-8	94
-18	-43	25
-38	-64	-47
-54	-76	-20
-63	-79	18
-67	-80	94
-60	-71	29
-46	-52	-38
-23	-17	21
5	31	-57
33	84	-92
54	132	12
61	166	64
57	175	-11
44	150	24
32	83	-37
24	-22	-144
21	-139	-69
13	-232	-21
-4	-263	-19
-34	-216	-38
-68	-110	-43
-93	13	4
-91	95	33
-60	101	28
-13	43	70
36	-36	68
69	-82	87
79	-63	82
72	5	-2
58	80	-119
49	111	-237
42	81	-236
34	7	-70
12	-66	45
-24	-105	30
-63	-98	10
-91	-65	-60
-96	-41	-25
-78	-35	-31
-43	-46	-51
-11	-43	-27
9	-13	-54
18	44	-10
21	100	-156
26	128	-155
35	119	-97
44	84	-105
42	52	91
27	41	68
0	50	4
-28	52	4
-49	28	3
-59	-27	20
-58	-93	98
-54	-130	181
-46	-119	63
-35	-64	-54
-14	0	-103
17	38	-175
49	32	-184
79	-4	-40
89	-33	78
80	-27	92
50	28	0
14	104	-104
-18	164	-79
-40	169	-44
-53	110	-26
-59	7	-74
-59	-114	-86
-55	-214	28
-45	-272	87
-27	-273	112
-4	-218	108
19	-118	-13
33	5	-219
41	116	-115
45	182	-22
49	183	-137
50	126	-125
49	41	-118
38	-29	-1
15	-54	126
-16	-36	54
-49	5	-67
-74	35	-133
-86	37	-81
-84	15	63
-71	-12	155
-51	-25	173
-25	-24	54
6	-19	-117
40	-25	-162
69	-37	-129
85	-41	-72
81	-16	28
59	38	22
30	97	17
5	123	35
-11	92	19
-20	10	71
-28	-85	-45
-44	-145	-81
-64	-140	-109
-83	-83	-205
-84	-9	-177
-64	35	-144
-28	35	30
16	11	149
49	-3	218
68	23	186
69	85	55
62	145	-18
53	161	-149
45	114	-119
33	22	-34
9	-72	3
-27	-123	24
-65	-119	-36
-95	-82	-121
-100	-52	-179
-79	-61	-33
-40	-106	30
1	-152	-50
32	-158	-83
46	-103	18
46	2	66
39	114	0
33	192	22
28	215	-25
23	194	30
13	149	87
-1	96	83
-16	40	34
-23	-30	12
-22	-121	8
-16	-213	-151
-12	-272	-232
-13	-259	-224
-23	-173	-144
-30	-38	-141
-28	85	-179
-8	152	-112
21	144	32
51	89	62
67	37	58
61	23	126
37	50	83
6	86	55
-20	92	54
-36	49	22
-43	-24	12
-48	-88	26
-54	-111	47
-60	-84	102
-58	-36	4
-43	-7	-122
-16	-15	-91
17	-47	-46
46	-64	-19
62	-37	20
64	37	8
56	125	-47
44	182	-160
31	177	-252
18	109	-162
0	13	-64
-21	-74	-47
-45	-124	-22
-65	-140	48
-74	-138	15
-68	-131	38
-51	-119	87
-30	-87	29
-8	-24	59
11	58	-46
24	138	-109
36	183	-96
47	178	-153
54	127	-113
54	59	-72
46	-3	37
29	-44	155
8	-72	215
-16	-96	205
-37	-119	124
-55	-135	17
-66	-128	-177
-65	-94	-261
-55	-36	-127
-35	20	-63
-12	57	-119
12	71	-78
31	68	-104
42	67	-151
49	70	-58
50	71	-40
50	56	-14
44	15	16
30	-43	22
4	-97	54
-26	-120	72
-55	-109	81
-72	-70	57
-74	-37	54
-60	-22	99
-37	-28	75
-13	-36	-15
8	-18	-17
23	33	-117
34	106	-178
42	177	-71
41	211	-6
34	200	45
20	147	-22
4	63	-81
-7	-30	-53
-8	-116	-63
-6	-183	15
-7	-215	17
-21	-201	-38
-46	-143	-7
-69	-59	79
-75	13	95
-50	43	-22
2	21	-76
60	-30	-100
99	-65	-120
104	-46	-193
74	32	-151
28	131	-136
-10	191	-111
-28	166	79
-24	56	176
-20	-85	155
-25	-190	130
-46	-206	126
-71	-135	-18
-82	-24	-166
-67	61	-249
-29	85	-194
16	51	-112
51	3	-96
65	-11	-39
59	24	-33
46	85	-19
38	123	-9
36	106	15
33	36	42
19	-54	77
-10	-116	54
-46	-123	20
-78	-81	46
-91	-22	99
-81	18	64
-56	27	17
-26	11	44
-1	-1	-74
16	2	-67
29	20	21
46	35	-21
62	36	-77
74	22	17
70	7	-5
49	7	-192
18	21	-89
-18	38	116
-44	38	87
-59	11	-50
-66	-32	-130
-66	-69	-215
-65	-81	-210
-55	-67	-162
-38	-44	-94
-10	-31	34
24	-34	177
52	-41	233
68	-29	86
67	17	-86
52	85	-159
32	149	-134
13	169	-107
-3	128	-23
-19	40	-40
-34	-64	-97
-48	-149	32
-56	-192	6
-55	-191	-14
-41	-161	119
-21	-112	162
-1	-52	45
13	13	-71
21	79	-84
27	129	-133
36	155	-155
46	149	-72
50	119	96
42	85	187
21	59	206
-11	41	133
-42	15	-74
-61	-35	-233
-65	-107	-333
-58	-176	-250
-48	-203	-103
-42	-172	-128
-37	-89	-67
-28	6	4
-6	66	63
25	68	104
62	29	71
87	-12	63
91	-12	-12
75	40	-3
43	110	-38
12	147	-109
-11	110	-4
-27	13	82
-41	-99	86
-59	-164	78
-79	-147	100
-92	-64	77
-87	28	-43
-59	74	-102
-15	51	-114
33	-10	-9
66	-55	55
82	-40	40
77	33	32
64	123	-105
52	170	-235
42	137	-381
34	40	-275
13	-74	-3
-18	-151	111
-55	-171	119
-83	-145	51
-93	-113	60
-77	-101	40
-47	-102	-21
-16	-91	-79
7	-42	-96
20	43	-12
24	135	16
28	191	76
36	188	124
41	138	91
40	75	75
28	34	-20
6	24	-72
-16	22	-21
-35	-1	62
-45	-56	34
-50	-121	-116
-53	-158	-121
-55	-131	-60
-51	-52	-136
-32	39	-241
0	94	-131
41	85	-10
79	32	-104
96	-20	-89
87	-22	-8
57	28	-48
21	97	57
-10	125	326
-26	75	225
-31	-37	57
-32	-163	37
-38	-230	-98
-49	-207	-340
-59	-113	-521
-59	-4	-378
-45	60	-275
-20	58	-88
10	10	39
34	-34	55
50	-32	164
55	20	70
55	89	69
50	130	71
40	117	92
20	56	109
-6	-13	85
-38	-54	57
-65	-52	30
-80	-22	26
-78	0	-5
-59	-8	-4
-33	-51	-67
-7	-96	-59
16	-111	47
33	-72	103
46	8	60
54	95	11
57	150	-46
54	153	-18
43	106	13
26	39	30
4	-21	33
-18	-54	-34
-40	-63	-86
-58	-60	-187
-72	-59	-207
-81	-57	-138
-82	-51	-134
-68	-31	-75
-42	0	41
-6	28	28
34	39	26
69	22	1
91	-8	16
93	-33	28
77	-29	-34
49	7	-49
16	55	-57
-12	83	2
-32	62	-6
-44	-3	-55
-48	-92	-47
-48	-162	-48
-44	-178	-13
-38	-134	41
-28	-52	97
-15	31	112
2	89	30
20	112	-63
36	110	-172
47	99	-351
52	90	-279
52	80	132
44	51	192
30	5	46
10	-55	119
-16	-104	89
-43	-121	-6
-67	-95	-35
-84	-39	24
-87	20	-47
-76	62	-230
-50	77	-214
-20	70	-159
14	56	-71
42	45	24
65	36	-9
79	22	-55
82	-3	-74
69	-34	4
46	-56	84
12	-61	37
-26	-48	93
-56	-35	140
-71	-46	4
-68	-87	-149
-51	-147	-138
-28	-190	-82
-12	-184	-52
0	-116	-14
5	-6	80
13	102	176
25	169	62
43	171	-54
59	129	-92
62	70	-140
49	32	-164
20	26	-116
-16	36	-1
-50	38	26
-70	11	1
-78	-39	95
-76	-92	74
-64	-118	-29
-51	-108	-34
-32	-66	-15
-10	-17	20
19	22	-9
44	43	11
65	52	58
74	63	118
67	80	103
51	95	-5
29	100	22
6	85	-47
-19	51	-173
-42	7	-151
-62	-33	-113
-76	-70	-125
-75	-106	-203
-61	-138	-215
-35	-161	-162
-5	-159	-20
21	-117	-22
37	-36	-42
44	61	82
46	140	-22
48	177	-11
51	157	63
50	99	86
40	35	45
18	-11	48
-12	-34	11
-42	-49	-120
-61	-71	-106
-63	-110	-241
-54	-142	-230
-38	-145	8
-23	-103	216
-11	-24	280
1	59	183
16	115	8
36	122	-74
57	93	2
69	54	-25
65	36	-40
44	47	35
14	71	60
-18	80	5
-44	55	-57
-60	2	-80
-68	-60	-98
-72	-103	-113
-69	-114	-144
-61	-101	-192
-46	-76	-116
-22	-51	37
6	-27	20
31	7	26
46	59	77
52	120	24
49	163	-19
44	158	-65
41	89	-64
40	-31	-27
35	-162	-12
22	-251	-11
-1	-263	-13
-32	-204	2
-57	-102	21
-71	-6	26
-65	45	30
-40	44	34
-4	18	55
30	2	62
52	18	64
61	72	40
57	133	19
44	168	-46
29	150	-153
15	88	-227
-1	3	-290
-17	-68	-168
-37	-102	-70
-56	-102	-5
-71	-81	93
-78	-59	74
-70	-47	58
-50	-40	64
-22	-27	99
9	2	0
36	42	-82
55	82	-34
65	103	-28
66	101	-64
58	80	-66
44	50	69
23	28	60
-1	14	-46
-30	12	7
-57	10	-20
-79	0	-176
-86	-24	-349
-77	-57	-381
-53	-94	-211
-22	-121	-108
11	-126	154
35	-104	216
50	-54	2
54	7	-107
52	60	-180
49	85	-57
46	72	8
39	29	173
25	-24	233
2	-66	128
-29	-84	72
-58	-78	-11
-79	-61	-60
-83	-52	-178
-74	-52	-117
-53	-53	-52
-32	-42	32
-10	-9	94
12	40	57
32	92	70
52	126	46
67	134	29
72	121	14
60	101	45
33	87	2
-1	78	-96
-35	63	-106
-54	23	-40
-59	-43	4
-49	-127	-21
-36	-200	-39
-24	-228	-72
-19	-191	-95
-16	-97	-72
-12	23	-42
-2	131	38
14	195	36
33	198	-107
49	150	-133
57	71	-39
56	-8	-13
46	-72	6
27	-112	24
5	-126	35
-21	-121	53
-44	-103	24
-64	-83	9
-72	-62	24
-67	-49	22
-48	-37	-48
-22	-25	-74
7	-3	-51
31	32	-82
47	74	-84
56	114	-18
57	131	-34
51	120	-30
39	81	-5
18	26	-80
-9	-23	-98
-37	-58	-87
-58	-70	131
-69	-69	274
-66	-60	158
-52	-51	46
-34	-39	-157
-15	-16	-268
0	13	-290
13	50	-376
25	80	-371
36	95	-259
43	90	-40
42	75	162
30	60	126
8	49	171
-17	41	278
-36	20	249
-44	-26	232
-41	-99	138
-33	-179	-86
-24	-236	-379
-18	-245	-378
-15	-195	-190
-10	-106	-85
4	-8	38
24	65	152
47	98	160
65	98	-62
72	82	-202
62	70	-121
42	66	-16
18	61	94
-5	39	111
-27	-5	86
-45	-57	83
-60	-95	61
-71	-98	41
-72	-64	-5
-63	-8	-12
-43	43	-17
-17	74	-59
11	82	-76
33	80	-25
49	85	-11
57	106	-59
57	131	-43
52	136	-24
42	103	-27
27	26	-100
8	-77	-84
-14	-170	4
-37	-229	12
-55	-233	41
-67	-189	20
-69	-116	8
-63	-36	-47
-46	35	-81
-25	96	-28
0	143	-28
20	180	51
38	193	184
52	166	216
63	93	205
69	-14	143
68	-120	49
54	-190	-26
25	-191	-204
-14	-127	-422
-53	-34	-468
-83	34	-350
-88	38	-237
-72	-22	-236
-43	-113	-85
-15	-174	26
6	-162	-48
16	-75	-42
22	50	-70
31	153	-20
44	190	76
59	154	140
62	83	100
46	13	108
11	-19	147
-30	-18	92
-63	-5	91
-80	-8	126
-76	-35	81
-58	-65	-35
-40	-78	-196
-25	-54	-238
-13	-4	-114
1	43	-71
18	68	-33
38	59	19
54	35	108
61	18	100
52	23	75
33	41	-1
7	51	-62
-17	32	-119
-35	-19	-208
-48	-82	-182
-54	-124	-129
-58	-125	-11
-54	-82	46
-45	-14	65
-32	54	94
-17	110	94
-3	144	29
10	160	52
25	150	44
45	109	-4
68	29	19
89	-75	-103
91	-176	-171
72	-230	-163
28	-213	-105
-25	-138	-19
-68	-44	74
-90	14	95
-81	11	35
-53	-44	-11
-21	-102	-112
3	-111	-101
14	-49	-23
16	60	-26
22	166	-5
34	218	101
47	202	138
54	143	133
41	85	164
12	60	118
-26	64	-58
-55	61	-255
-64	15	-201
-53	-86	-160
-28	-210	-198
-6	-305	-151
7	-316	-259
7	-230	-34
3	-82	93
2	67	6
12	159	16
28	173	-65
41	124	72
48	58	74
41	17	42
24	12	32
3	31	-132
-16	44	-233
-32	30	-268
-45	-19	-86
-58	-80	28
-70	-122	46
-76	-127	124
-70	-93	93
-50	-35	91
-18	21	24
23	58	-6
59	71	-22
81	70	38
86	66	123
72	67	58
51	72	43
25	72	29
2	57	9
-17	21	-58
-32	-27	-32
-45	-77	-26
-58	-112	-124
-65	-123	-99
-65	-106	-76
-53	-69	-118
-32	-23	-94
-2	22	-21
28	56	-43
51	79	-54
64	87	-71
64	87	-70
54	80	-8
37	67	117
18	53	196
-4	35	45
-26	12	-14
-45	-20	-18
-60	-58	-31
-68	-102	-132
-67	-142	-123
-57	-167	-101
-38	-164	-270
-12	-126	-257
14	-58	-165
35	21	65
53	92	132
61	131	112
61	135	123
52	106	4
38	67	-26
16	28	-34
-8	6	52
-31	-8	140
-51	-22	152
-61	-44	80
-62	-79	-49
-54	-105	-113
-41	-107	-101
-26	-70	-126
-13	-3	-236
-1	71	-162
13	120	-19
31	115	12
51	60	21
68	-22	-15
76	-89	-30
65	-110	-32
36	-77	-90
-1	-13	-62
-41	40	60
-71	56	38
-86	28	10
-85	-17	-9
-75	-46	-52
-55	-39	-51
-30	-1	-56
0	37	-10
35	48	12
69	27	10
93	-4	20
97	-12	40
79	24	39
43	92	49
9	145	74
-14	134	82
-21	41	77
-19	-103	51
-16	-238	26
-25	-297	28
-44	-249	43
-62	-123	-57
-68	18	-198
-53	108	-306
-18	119	-263
23	68	-186
57	9	-74
71	-13	54
63	17	5
42	80	12
17	128	40
-4	126	28
-20	65	-5
-31	-32	14
-44	-122	123
-53	-173	129
-60	-166	16
-58	-116	-97
-45	-45	-261
-25	17	-304
0	56	-225
23	71	-209
42	67	-103
52	60	-7
56	56	95
52	59	147
44	64	52
29	62	28
9	44	57
-14	9	8
-39	-37	-88
-60	-87	-9
-77	-118	12
-82	-125	-6
-72	-101	39
-52	-55	44
-23	-4	108
6	39	77
32	66	-140
48	80	-116
57	81	78
59	77	12
56	70	1
48	54	-5
32	31	-99
11	-3	-221
-17	-38	-252
-44	-69	-110
-66	-91	6
-77	-96	89
-71	-90	24
-57	-70	-53
-36	-40	10
-16	0	82
3	49	59
18	97	-2
34	130	-35
50	130	0
63	94	34
70	28	65
64	-38	97
42	-79	78
9	-76	45
-31	-29	-3
-65	29	76
-86	67	68
-84	58	-111
-64	1	-176
-33	-80	-134
0	-151	-125
29	-181	-142
50	-163	-28
64	-107	44
71	-42	-46
71	15	-105
65	51	-176
48	67	-155
24	67	-50
-3	53	-55
-30	28	-24
-52	-6	-19
-65	-37	-82
-76	-53	-44
-79	-45	-6
-75	-15	15
-64	20	28
-41	41	29
-8	36	45
29	11	43
61	-13	38
80	-13	67
82	19	111
66	71	87
42	120	38
16	128	91
-7	94	84
-26	25	-70
-43	-48	-252
-56	-106	-328
-64	-133	-173
-65	-131	-89
-58	-114	-59
-41	-83	-48
-20	-39	-46
4	18	-20
26	79	-32
45	125	35
62	138	-5
72	106	46
74	44	96
61	-21	60
35	-60	46
1	-60	-47
-33	-37	-87
-59	-18	-120
-72	-25	-43
-71	-60	89
-63	-102	86
-50	-118	75
-32	-87	42
-11	-18	17
15	59	37
43	113	16
67	124	-46
78	102	-78
71	67	-135
48	43	-186
17	38	-203
-13	38	-198
-35	21	-52
-48	-17	58
-54	-72	74
-56	-121	97
-57	-140	70
-53	-125	-69
-41	-81	-72
-20	-32	85
4	8	14
26	34	-65
40	56	-44
44	83	-175
42	108	-311
39	123	-218
34	109	-14
30	56	28
19	-22	60
-2	-100	20
-31	-143	3
-61	-138	27
-81	-89	-26
-81	-26	41
-62	15	83
-28	13	98
10	-26	79
41	-74	17
60	-96	0
64	-69	-30
57	1	-28
44	85	-92
32	145	-74
18	155	53
5	114	96
-12	43	117
-31	-25	96
-50	-77	99
-64	-102	61
-68	-113	-7
-60	-115	-93
-43	-106	-160
-20	-77	-147
4	-15	-176
24	68	-133
39	150	-40
52	195	-21
59	181	-72
64	114	-100
58	25	-81
42	-46	-91
17	-75	-117
-14	-60	-26
-42	-33	71
-62	-25	-40
-70	-48	-153
-68	-94	-152
-59	-124	10
-47	-113	121
-33	-48	107
-16	39	91
6	113	11
33	138	0
59	106	2
81	43	98
85	-19	162
71	-46	24
42	-35	-156
8	-6	-267
-25	14	-154
-50	3	-33
-63	-33	79
-69	-78	181
-67	-101	178
-58	-97	112
-42	-66	-33
-18	-29	-72
10	4	-101
38	27	-272
58	43	-369
64	65	-256
56	89	-32
40	103	85
20	93	41
2	56	-12
-14	5	-53
-28	-43	-12
-44	-69	-7
-60	-74	-36
-70	-69	-59
-70	-72	0
-55	-91	141
-28	-110	102
3	-106	6
30	-61	-87
48	18	-64
58	107	-24
59	170	74
58	177	178
50	133	111
36	66	24
12	15	-55
-20	-4	-107
-53	1	-196
-79	2	-133
-85	-29	-71
-74	-98	-81
-46	-175	-38
-18	-214	-25
7	-187	48
24	-90	74
33	39	77
41	148	76
50	195	32
60	170	-25
64	100	0
58	28	25
38	-17	-17
9	-27	-20
-22	-21	-81
-48	-23	-72
-61	-49	5
-65	-87	39
-61	-117	29
-56	-114	-22
-48	-69	-107
-37	4	-248
-20	83	-257
5	141	-60
32	166	72
55	156	68
69	118	68
74	61	-1
64	-4	-114
46	-66	-221
22	-116	-235
-6	-136	-163
-36	-127	-86
-63	-97	113
-83	-61	238
-88	-44	155
-74	-53	80
-44	-80	15
-8	-97	-145
26	-84	-241
48	-28	-20
57	56	120
54	133	42
44	171	-20
33	155	-116
20	93	-101
4	15	-77
-17	-45	-17
-39	-72	9
-59	-70	-81
-71	-56	74
-69	-53	182
-53	-58	181
-27	-66	164
1	-57	40
27	-17	-72
42	47	-70
50	117	18
52	161	-124
52	159	-217
49	106	-206
42	21	-217
29	-64	-114
8	-123	-31
-18	-138	-4
-45	-117	-15
-66	-74	-45
-77	-39	-15
-72	-25	75
-54	-29	171
-30	-39	159
-5	-31	127
16	-1	70
32	51	-39
42	109	-115
49	151	-168
49	168	-34
41	153	121
26	116	15
5	65	-96
-13	3	-99
-28	-66	-75
-34	-137	-45
-36	-192	-68
-37	-209	-60
-41	-174	20
-45	-93	20
-46	6	-103
-35	81	-160
-10	101	-148
27	64	-30
65	-2	116
91	-53	196
94	-56	199
78	-7	81
42	59	-38
6	102	-76
-27	88	-62
-48	17	-130
-59	-72	-157
-63	-139	-173
-64	-149	-203
-63	-100	-173
-54	-23	-173
-38	48	-67
-13	87	42
16	92	47
42	71	65
59	49	60
68	35	31
63	31	68
48	35	98
27	39	102
0	41	75
-28	33	10
-51	10	-35
-64	-35	-128
-66	-97	-156
-55	-158	-112
-36	-192	-85
-14	-173	8
4	-98	94
19	11	179
33	113	123
46	170	26
58	168	45
66	116	19
62	49	-57
45	2	-174
17	-17	-246
-13	-16	-215
-38	-15	-87
-52	-31	16
-58	-63	38
-60	-93	26
-59	-101	32
-56	-77	69
-46	-31	95
-26	16	119
5	45	111
40	53	-37
68	49	-245
78	42	-406
67	42	-351
43	43	-77
15	36	-36
-8	12	49
-25	-26	133
-37	-62	112
-47	-86	119
-58	-87	-34
-65	-71	-81
-64	-50	-81
-50	-33	-81
-26	-20	-91
2	-1	-11
24	26	115
40	64	137
48	98	26
53	110	-121
59	93	-68
60	49	-16
52	-4	67
31	-45	34
-5	-56	-20
-49	-42	-5
-85	-13	-104
-101	9	-122
-93	10	-86
-65	-9	-16
-31	-39	-25
2	-60	4
24	-57	42
36	-27	16
40	27	54
37	88	44
34	134	23
31	142	4
31	102	8
32	14	45
32	-98	135
27	-200	43
12	-257	-127
-12	-246	-46
-40	-176	-147
-61	-76	-359
-68	15	-349
-55	65	-230
-27	72	-52
7	53	4
33	43	39
44	60	110
42	103	79
35	143	108
29	147	90
25	99	64
21	9	87
9	-81	105
-15	-137	101
-44	-134	55
-69	-85	-21
-79	-24	-265
-68	14	-353
-44	17	-154
-18	-2	68
5	-21	163
20	-11	-3
29	31	-81
39	84	-34
49	118	-61
59	115	-1
60	76	1
46	17	-26
18	-32	-74
-16	-57	-90
-46	-62	-100
-67	-59	-116
-72	-62	-18
-66	-74	9
-53	-84	1
-36	-78	-55
-18	-46	22
4	0	77
26	49	48
45	81	79
56	90	-5
56	75	-19
45	48	-20
28	24	-12
8	5	-30
-10	-12	-10
-26	-32	68
-39	-55	-10
-51	-80	-123
-60	-96	-227
-59	-97	-161
-48	-78	-19
-27	-40	-28
1	8	-97
26	59	-26
46	108	68
55	145	123
57	159	225
52	142	247
44	90	211
35	8	105
21	-78	-4
2	-143	-221
-24	-165	-409
-49	-131	-447
-75	-66	-294
-89	2	-152
-87	40	-109
-68	34	84
-37	-4	60
-2	-44	21
32	-58	10
57	-34	31
74	17	107
80	61	86
77	72	104
66	38	78
48	-16	43
23	-62	-25
-12	-72	-67
-46	-45	-74
-76	-5	5
-89	23	37
-86	19	69
-65	-10	147
-38	-37	124
-8	-41	32
17	-16	-66
36	20	-202
52	43	-410
65	35	-412
72	6	-215
67	-21	-10
49	-24	10
19	3	5
-16	35	82
-46	43	129
-64	11	152
-68	-51	139
-63	-111	139
-53	-127	109
-42	-88	8
-31	-9	-170
-14	71	-192
6	119	-111
29	125	-54
47	104	-91
53	81	-91
46	75	19
30	74	-64
13	58	-79
0	9	-129
-7	-67	-81
-16	-144	-11
-29	-187	-85
-47	-176	-2
-63	-120	49
-67	-51	90
-55	-1	86
-26	20	130
8	23	135
38	30	65
54	60	-14
58	106	-27
54	143	61
48	145	-145
41	105	-262
30	41	-171
10	-18	-111
-21	-51	104
-51	-59	152
-71	-63	-12
-74	-85	-136
-55	-124	-176
-28	-161	-85
-4	-162	-51
10	-108	-105
12	-9	-35
12	96	28
17	161	113
33	165	161
52	113	78
65	45	111
60	0	81
38	-9	-26
4	5	-111
-28	12	-169
-52	-11	-148
-62	-61	-158
-63	-119	-141
-59	-144	0
-52	-124	64
-41	-61	80
-20	15	51
7	76	-34
34	105	-72
54	115	-72
57	124	13
41	141	57
14	160	59
-10	150	-2
-23	93	-88
-21	-21	-138
-12	-159	-92
-4	-271	34
-9	-312	9
-24	-260	13
-45	-140	57
-57	-7	40
-52	85	-2
-27	102	-49
13	54	-56
53	-14	-74
81	-54	-74
87	-37	-48
72	28	-95
48	103	-61
20	139	87
-2	118	89
-20	43	116
-32	-40	38
-44	-96	19
-58	-97	163
-69	-52	96
-72	7	-32
-63	51	-65
-40	58	-152
-6	34	-290
33	-1	-331
64	-24	-276
82	-26	-179
82	-11	-222
64	7	-62
36	14	100
6	6	48
-21	-15	69
-38	-37	103
-49	-56	142
-53	-65	101
-52	-66	106
-50	-61	50
-44	-45	21
-35	-19	15
-20	19	-64
-3	62	-4
17	106	3
34	138	-32
47	149	-187
55	132	-282
54	86	-194
44	17	-24
28	-57	77
5	-118	-3
-23	-145	28
-49	-133	24
-70	-90	42
-80	-40	41
-70	-8	10
-49	-10	55
-17	-37	21
15	-63	-130
40	-60	-177
56	-14	-71
60	61	-32
57	130	-12
49	157	13
41	122	-11
28	45	-47
10	-38	-6
-14	-90	25
-41	-93	87
-65	-50	42
-87	4	-2
-93	43	0
-87	51	-2
-65	28	26
-32	-9	-45
8	-48	-35
48	-76	-8
81	-83	-7
99	-65	-22
95	-20	-31
72	41	-28
39	103	-72
5	127	-126
-22	96	-102
-38	8	33
-46	-102	66
-53	-188	-9
-61	-206	-118
-71	-151	-77
-71	-52	-35
-55	38	-113
-23	84	-34
19	77	102
58	53	168
81	52	240
78	99	233
58	168	71
34	211	-162
19	181	-311
14	66	-282
16	-90	-226
10	-224	55
-12	-276	196
-46	-236	54
-81	-135	-112
-98	-35	-362
-91	20	-335
-58	25	-301
-15	9	-160
22	12	48
46	47	152
54	103	234
56	137	152
56	120	59
59	56	14
56	-24	-2
39	-77	-16
7	-79	-59
-35	-40	-103
-70	4	-3
-91	19	49
-87	-3	85
-65	-47	164
-36	-77	145
-8	-71	31
14	-30	-23
31	19	-108
46	51	-228
58	57	-138
64	43	-131
56	32	-122
36	33	-100
9	41	-75
-20	37	6
-41	9	53
-51	-43	96
-55	-98	95
-53	-127	100
-52	-118	150
-49	-76	199
-39	-22	97
-18	21	-58
13	45	-149
44	59	-163
69	75	-259
79	95	-248
72	112	-150
53	110	-62
30	77	74
5	18	-26
-20	-41	-22
-42	-76	24
-63	-71	-68
-83	-36	-28
-92	8	11
-89	27	-19
-69	11	1
-34	-39	43
9	-97	65
49	-133	32
80	-124	-21
92	-70	-66
89	8	-40
71	85	14
48	127	-4
26	122	9
3	74	5
-16	5	14
-35	-57	102
-53	-93	112
-66	-94	60
-68	-77	-2
-59	-51	-106
-38	-38	-200
-11	-35	-260
14	-31	-294
35	-15	-256
44	22	-136
49	66	78
44	101	134
39	105	70
28	78	-6
14	32	-38
-4	-9	-24
-29	-27	-71
-52	-13	-112
-75	22	-66
-86	57	130
-86	71	205
-71	50	175
-43	-4	64
-5	-75	-23
39	-141	-109
78	-175	-210
101	-162	-169
102	-99	-58
83	-9	28
51	74	46
18	117	36
-7	100	41
-24	33	120
-33	-52	91
-43	-116	-56
-54	-129	-110
-65	-92	-116
-68	-27	-142
-59	33	-108
-37	66	-44
-6	70	6
23	63	37
45	58	76
58	64	107
61	72	-4
61	68	-32
53	46	102
40	12	134
15	-21	-77
-15	-41	-192
-48	-46	-168
-75	-48	-153
-85	-60	-157
-79	-81	-143
-59	-99	-16
-37	-96	97
-16	-60	145
2	0	91
18	65	13
33	112	21
46	130	-8
55	123	-104
54	106	-120
44	91	3
26	69	57
8	37	12
-9	-17	-19
-22	-85	-33
-34	-147	-40
-46	-175	-134
-57	-157	-126
-61	-100	-126
-53	-29	-99
-30	23	-9
2	47	60
36	43	63
59	39	-98
65	45	-55
57	66	76
41	83	34
24	74	-70
10	31	-119
-4	-34	-150
-22	-90	-130
-44	-112	55
-65	-91	168
-78	-40	145
-74	7	23
-50	32	-79
-18	22	-51
17	-5	-226
42	-28	-309
54	-30	-145
55	-10	14
50	17	138
44	40	91
34	48	90
20	48	41
0	43	17
-23	28	13
-43	-2	41
-51	-56	130
-46	-124	15
-33	-184	12
-19	-200	97
-12	-153	46
-12	-48	-46
-15	81	-51
-12	183	-101
1	227	-283
23	198	-310
46	130	-107
60	51	26
59	-10	29
42	-48	105
14	-76	114
-15	-102	78
-40	-128	25
-57	-140	-52
-65	-124	-139
-61	-80	-189
-51	-21	-59
-31	26	-8
-8	47	-39
18	45	-6
38	39	29
52	49	41
59	80	13
56	114	27
46	126	56
32	102	39
12	41	15
-12	-27	-19
-35	-79	-80
-56	-97	-113
-68	-88	-62
-68	-67	31
-60	-52	133
-42	-47	183
-22	-42	104
0	-22	26
20	19	-9
39	70	-177
54	115	-422
61	131	-419
61	113	-261
48	70	-120
28	22	-1
0	-18	70
-27	-43	60
-50	-57	54
-68	-64	120
-78	-69	205
-79	-69	242
-70	-62	110
-53	-50	-39
-26	-37	-172
8	-26	-302
42	-21	-248
71	-17	-11
89	-7	32
90	12	-44
81	34	-116
58	49	-122
29	43	-118
-1	15	-144
-30	-33	4
-55	-81	87
-75	-111	159
-86	-112	119
-87	-80	55
-77	-29	28
-54	25	77
-24	63	113
12	81	26
46	76	8
74	56	-42
89	38	-89
83	30	-186
63	38	-99
35	51	125
5	53	132
-20	28	77
-34	-29	-85
-40	-103	-243
-42	-167	-288
-46	-189	-218
-48	-159	-33
-48	-84	51
-38	6	68
-17	71	40
13	100	13
42	94	54
64	78	55
68	74	2
56	96	16
30	132	74
1	161	10
-28	157	-66
-50	112	-72
-63	35	-70
-68	-56	-60
-63	-137	-82
-52	-190	-74
-33	-204	-6
-13	-181	109
7	-130	125
28	-68	61
46	-18	51
68	11	34
84	15	75
94	7	31
89	6	-135
66	23	-280
29	56	-368
-13	81	-227
-49	75	-25
-75	24	52
-86	-56	97
-87	-129	32
-82	-159	-85
-72	-126	-166
-56	-47	-100
-32	39	-16
2	97	32
37	109	156
63	90	119
72	65	60
64	61	-2
44	74	-161
23	84	-260
4	68	-164
-10	17	-30
-24	-52	59
-42	-111	135
-62	-129	107
-78	-106	84
-78	-56	85
-58	-11	-2
-27	15	-128
7	18	-205
34	12	-192
45	20	-15
46	43	49
42	74	33
38	92	44
36	81	-13
31	46	9
16	3	1
-9	-29	-38
-38	-40	-13
-66	-35	-53
-83	-28	-87
-83	-33	-52
-67	-49	-84
-44	-68	-11
-16	-74	81
15	-59	102
43	-24	77
71	17	-66
89	48	-61
96	64	-55
85	61	-68
59	52	-33
25	40	-13
-11	26	-19
-39	6	-26
-56	-24	60
-64	-59	64
-67	-87	90
-63	-88	91
-59	-55	-50
-48	4	-49
-30	70	-58
-5	109	-104
25	102	-86
54	45	-101
78	-33	-92
89	-102	-115
85	-127	-157
65	-104	-140
37	-49	-32
7	3	22
-20	23	13
-41	2	166
-53	-47	201
-58	-92	141
-57	-102	144
-52	-66	9
-40	1	-125
-24	76	-325
-3	130	-422
17	148	-241
35	127	-210
46	84	-59
46	34	100
39	-4	61
23	-28	107
2	-33	87
-21	-31	8
-41	-29	63
-56	-41	230
-63	-70	206
-60	-109	58
-47	-137	-86
-28	-135	-200
-9	-94	-205
8	-17	-171
22	68	-118
33	130	-34
44	149	106
52	123	204
55	77	195
50	35	119
33	16	-50
6	15	-171
-24	12	-340
-52	-9	-424
-68	-54	-261
-75	-106	-115
-67	-138	63
-52	-129	108
-33	-79	108
-12	-12	152
11	51	169
34	86	185
52	97	68
64	93	-36
66	90	-52
54	90	-104
36	84	-105
12	57	-3
-10	2	-16
-29	-66	-36
-42	-133	-36
-50	-165	-6
-55	-156	5
-54	-111	-40
-48	-49	22
-34	9	19
-15	56	2
6	94	79
26	130	137
40	162	103
48	180	10
50	168	-135
50	112	-180
46	26	-140
38	-70	-206
20	-145	-159
-5	-178	11
-35	-171	22
-60	-140	-76
-74	-113	-156
-71	-99	-278
-52	-97	-170
-24	-88	40
4	-57	111
26	-9	242
42	46	263
56	87	213
65	98	108
71	83	-43
67	56	-238
50	31	-441
17	13	-210
-23	-3	138
-62	-30	216
-88	-68	138
-92	-108	-90
-80	-123	-255
-56	-104	-320
-32	-49	-238
-10	23	-93
7	85	48
21	118	125
33	120	91
42	106	97
45	94	46
40	87	25
27	81	104
10	58	272
-6	11	338
-20	-54	313
-32	-114	232
-42	-139	46
-51	-122	-352
-54	-66	-825
-50	-4	-805
-37	38	-412
-14	44	-17
12	20	33
34	-7	84
50	-20	112
60	-3	83
63	31	172
62	62	150
50	70	130
30	48	100
-1	4	55
-37	-43	-54
-69	-71	-90
-89	-78	-51
-87	-61	-2
-68	-40	21
-39	-22	-53
-10	-14	-83
17	-14	-71
38	-11	-57
54	0	-52
66	28	-19
69	61	6
64	89	39
44	94	53
17	70	81
-13	21	127
-36	-40	133
-51	-93	123
-56	-118	57
-56	-110	-31
-56	-75	-131
-52	-26	-283
-43	23	-311
-26	63	-193
-4	96	-148
18	122	-78
37	138	-60
46	136	-32
49	104	85
50	43	137
50	-35	147
45	-104	98
30	-139	31
-1	-127	-27
-43	-81	-134
-86	-30	-208
-108	-11	-56
-97	-40	-30
-55	-105	-107
1	-169	-60
50	-188	-29
78	-139	-26
77	-35	-72
56	85	28
36	169	28
28	186	-15
31	133	21
35	47	26
26	-31	65
0	-71	21
-39	-66	34
-74	-41	-17
-91	-19	-143
-86	-21	-141
-66	-35	-75
-43	-40	56
-26	-17	69
-17	42	47
-8	113	-4
9	162	-168
36	158	-181
65	100	-84
85	9	7
83	-77	84
56	-119	163
14	-111	192
-29	-66	189
-59	-19	151
-71	4	43
-66	-9	-294
-54	-47	-407
-40	-79	-194
-27	-84	-180
-14	-51	-173
3	3	-263
21	57	-97
40	93	74
54	103	67
57	97	147
49	87	51
33	82	74
12	77	47
-9	59	51
-28	20	78
-43	-44	167
-53	-116	298
-56	-171	185
-51	-186	-17
-39	-153	-177
-21	-83	-193
2	1	-224
22	68	-244
40	108	-231
49	110	-156
54	91	-150
51	59	-117
42	32	65
27	11	42
7	-8	96
-15	-27	110
-37	-52	69
-53	-76	90
-62	-95	49
-65	-98	57
-59	-84	9
-44	-56	-122
-23	-20	-241
3	18	-190
33	51	-8
61	76	60
81	90	-20
84	93	-94
72	83	-46
47	60	94
16	31	111
-14	-1	130
-38	-33	104
-52	-57	29
-57	-75	-117
-58	-83	-237
-57	-80	-43
-52	-65	26
-40	-39	-89
-20	-6	-27
6	28	53
32	59	-22
52	81	-88
59	98	-169
51	115	-68
29	139	10
0	171	-30
-28	194	82
-51	183	87
-60	114	37
-57	-22	-57
-42	-202	-102
-18	-378	-33
10	-487	61
32	-482	126
42	-361	106
42	-162	69
37	44	-101
31	189	-224
30	229	-117
36	174	-103
40	77	-80
39	-8	21
24	-40	1
-1	-17	6
-30	23	-81
-56	47	-248
-72	28	-267
-78	-23	-150
-71	-76	-9
-62	-94	79
-50	-65	120
-32	-3	164
-8	67	49
19	112	-99
48	126	-71
67	115	-50
77	96	52
69	83	104
50	74	-1
24	59	8
-2	30	35
-26	-13	4
-47	-57	-45
-62	-89	-53
-70	-95	81
-69	-84	88
-57	-57	24
-37	-33	-23
-13	-11	-96
14	11	-66
37	34	-232
54	60	-327
63	77	-193
64	80	-133
57	61	-36
39	26	44
16	-11	77
-11	-37	98
-36	-49	102
-58	-49	100
-70	-43	109
-77	-40	87
-74	-37	42
-61	-32	-27
-43	-23	-97
-15	-8	-51
17	6	-39
51	14	61
78	14	121
92	12	52
89	14	29
69	20	-38
40	26	-82
8	22	-208
-20	5	-74
-43	-25	11
-60	-51	-71
-75	-53	96
-87	-23	57
-93	33	-45
-88	89	-166
-61	110	-249
-18	77	-91
40	-8	-61
97	-110	-139
133	-183	0
139	-190	-17
111	-125	-60
60	-19	-10
5	71	-125
-36	103	-109
-56	59	-54
-56	-30	24
-51	-114	56
-51	-147	45
-58	-111	64
-70	-29	30
-68	53	-74
-50	99	-18
-13	93	182
29	55	210
63	19	219
80	12	171
75	31	62
56	59	-105
34	70	-295
16	48	-339
-3	5	-276
-22	-39	-112
-47	-64	-4
-69	-66	43
-84	-54	61
-84	-42	19
-63	-35	-20
-33	-23	-61
2	3	108
29	49	199
46	104	85
56	142	-61
58	143	-158
57	101	-70
50	33	-51
36	-36	-83
11	-76	-130
-19	-83	-101
-48	-69	-65
-68	-61	-68
-74	-79	-80
-66	-110	-92
-50	-139	-59
-32	-134	-50
-17	-81	-11
0	8	32
18	98	83
40	153	104
63	153	127
81	104	155
86	40	112
76	-6	40
50	-17	-37
18	-1	-49
-15	16	-35
-40	11	-133
-57	-30	-200
-66	-87	-52
-70	-131	-57
-67	-140	-158
-56	-105	-124
-39	-44	-49
-13	18	109
15	57	125
40	70	163
56	66	221
58	62	155
50	66	96
35	72	-94
18	72	-338
0	47	-348
-19	3	-339
-37	-52	-266
-56	-95	-109
-68	-112	-108
-72	-101	-42
-65	-67	-68
-46	-25	19
-22	15	125
4	48	87
25	74	78
42	88	35
55	85	57
65	59	16
68	15	30
64	-38	60
46	-81	8
16	-97	3
-20	-86	60
-53	-59	72
-75	-34	-57
-77	-28	-100
-62	-41	-32
-39	-58	-31
-14	-60	-66
5	-34	-113
19	15	-68
32	70	3
42	110	8
52	122	35
54	106	38
44	80	68
22	55	114
-7	33	99
-36	11	80
-58	-24	40
-64	-64	-16
-60	-99	-117
-51	-98	-198
-46	-47	-160
-43	44	-108
-39	139	-92
-26	183	-94
6	143	-76
51	23	-27
101	-125	4
132	-236	7
136	-252	-51
104	-166	-68
45	-29	-74
-15	86	-27
-61	115	40
-83	49	52
-80	-67	108
-62	-163	97
-46	-181	91
-36	-112	109
-31	2	16
-22	97	-84
-3	130	-185
24	103	-210
49	50	-243
64	25	-210
60	47	-17
41	103	116
13	150	265
-14	154	209
-35	103	-8
-47	17	-72
-56	-62	-189
-60	-116	-257
-59	-136	-38
-49	-136	62
-31	-127	138
-6	-109	128
19	-70	-60
37	-5	-178
49	71	-339
54	137	-264
53	158	19
51	121	100
42	47	-26
27	-30	-67
1	-74	-77
-31	-76	-43
-60	-51	53
-80	-40	95
-81	-60	112
-67	-109	9
-45	-154	0
-21	-157	51
0	-103	8
16	-3	-28
29	98	-104
42	162	-137
54	168	24
57	124	87
53	65	-20
36	17	27
11	0	1
-18	1	-119
-42	3	-173
-57	-14	-176
-62	-47	-84
-57	-86	21
-47	-113	57
-33	-110	42
-16	-82	45
1	-35	-12
21	14	-1
39	55	50
55	84	13
63	98	-8
62	99	26
51	86	57
30	69	-4
3	51	-69
-28	41	16
-55	41	102
-77	41	100
-84	30	186
-81	-8	60
-63	-70	-105
-38	-138	-184
-11	-181	-309
16	-167	-180
41	-98	-114
59	5	-119
74	93	-105
83	125	15
85	88	196
79	0	155
60	-90	57
29	-136	-131
-7	-117	-282
-44	-53	-187
-75	16	-107
-91	45	-95
-90	19	30
-75	-44	72
-52	-102	116
-27	-111	135
-4	-60	109
17	34	90
35	129	12
52	182	-46
64	174	-125
67	116	-98
59	41	-89
38	-19	-54
7	-43	61
-28	-36	85
-55	-19	65
-74	-9	-15
-78	-19	-135
-68	-41	-247
-53	-64	-205
-33	-69	-91
-11	-52	-46
11	-21	37
33	16	72
50	43	34
58	59	22
54	62	-9
39	61	-28
16	56	-65
-8	43	31
-29	16	189
-41	-31	178
-45	-89	130
-43	-141	-17
-38	-166	-122
-34	-148	-239
-27	-88	-307
-19	-1	-189
-4	79	-27
10	127	74
28	130	-47
44	93	-118
57	36	-192
63	-16	-120
59	-47	108
45	-54	61
20	-44	11
-12	-34	-71
-44	-31	-70
-66	-37	41
-78	-50	124
-74	-57	216
-56	-53	184
-35	-32	66
-12	0	-189
9	36	-306
27	70	-182
43	90	-58
57	98	89
63	90	144
58	75	49
42	53	-1
17	36	-6
-11	22	4
-36	7	-70
-52	-13	-177
-59	-42	-99
-57	-77	-25
-50	-109	-30
-40	-122	43
-26	-105	89
-12	-51	132
4	33	149
17	123	66
28	190	-95
38	206	-252
44	162	-215
51	69	-104
52	-43	13
46	-137	65
26	-187	76
-2	-182	45
-35	-142	-24
-61	-92	-16
-70	-57	-6
-58	-52	-33
-32	-63	-271
-1	-71	-298
23	-59	-34
34	-23	-49
35	27	2
33	71	43
33	94	33
35	93	4
35	77	-35
23	65	25
-1	62	-24
-36	68	76
-70	66	112
-91	45	13
-90	4	-35
-72	-48	-118
-44	-89	-103
-16	-103	-51
4	-81	9
17	-36	78
31	9	91
49	36	39
68	35	26
84	17	57
89	-4	-11
76	-12	-96
46	-2	-121
8	12	-140
-32	15	-163
-62	-11	-74
-80	-56	-42
-86	-108	-20
-83	-135	21
-71	-121	2
-52	-66	15
-27	9	-48
5	76	-83
35	113	-52
57	110	34
65	89	52
58	64	16
44	50	24
25	51	-18
10	50	-51
-4	33	-6
-18	-8	57
-35	-62	121
-54	-111	164
-68	-132	65
-72	-118	57
-59	-76	-40
-32	-21	-171
-1	26	-116
29	57	-200
47	77	-207
53	85	-116
52	92	-82
44	96	-23
36	93	81
25	77	52
9	41	-135
-10	-9	-254
-28	-68	-96
-44	-122	38
-49	-157	112
-48	-160	164
-40	-130	8
-30	-72	-76
-19	-1	-165
-4	62	-165
16	103	-51
40	111	21
65	93	3
83	57	7
83	24	-35
61	0	-98
22	-13	39
-25	-17	58
-65	-21	41
-92	-29	37
-96	-47	17
-81	-71	-11
-54	-100	-115
-26	-123	-65
-3	-124	20
12	-95	7
20	-27	6
26	63	7
31	149	39
41	193	9
53	169	-28
64	85	-52
64	-28	-57
49	-118	-31
19	-150	-62
-20	-113	-36
-55	-40	18
-80	20	39
-85	35	38
-70	1	-5
-47	-49	-32
-21	-78	-42
1	-53	-108
20	16	-104
34	92	-51
46	131	-2
55	118	28
57	66	37
46	11	32
27	-15	37
0	-1	52
-30	28	65
-52	40	49
-64	13	-9
-64	-49	-40
-57	-120	-53
-42	-160	-84
-23	-149	-117
-3	-88	-153
16	-7	-246
30	62	-159
40	102	36
44	106	84
46	92	83
44	70	16
38	47	-19
27	24	43
6	-4	90
-20	-38	45
-48	-74	-55
-68	-98	-158
-78	-102	-202
-69	-90	-77
-50	-61	14
-27	-30	29
-4	2	66
11	29	30
24	53	-43
35	76	-63
45	92	-62
52	99	-67
52	89	-63
41	66	-44
20	29	-18
-6	-11	33
-34	-47	133
-52	-74	199
-62	-91	130
-62	-99	-121
-51	-99	-287
-35	-93	-280
-14	-75	-252
9	-46	-84
30	-8	48
48	35	54
57	71	105
59	95	46
54	99	-94
46	86	-63
29	65	64
8	45	72
-21	34	0
-53	25	-91
-83	15	-44
-99	-12	39
-95	-55	-56
-69	-111	-178
-30	-157	-204
12	-173	-110
46	-147	11
65	-81	66
71	4	85
66	81	54
55	126	44
44	135	62
29	120	7
10	92	-101
-14	63	-98
-38	29	-30
-56	-15	-15
-63	-79	-10
-57	-150	37
-42	-201	94
-27	-205	110
-18	-141	49
-11	-26	-31
-4	100	-86
11	186	-34
34	195	62
65	129	47
91	23	68
99	-66	127
84	-106	42
44	-81	-112
-5	-23	-235
-51	24	-248
-83	28	-198
-92	-15	-190
-84	-76	-57
-64	-118	80
-45	-110	39
-27	-56	-30
-11	19	2
8	86	55
29	118	24
49	117	38
64	98	20
65	84	-58
51	80	-118
26	75	-85
-1	57	31
-28	14	7
-45	-46	-62
-55	-105	2
-60	-137	75
-59	-132	63
-55	-97	-30
-47	-47	-145
-29	-2	-144
-4	30	-40
24	51	-42
49	71	-87
66	96	57
68	114	31
58	121	-24
37	103	-11
12	62	-60
-14	4	-11
-35	-58	-85
-48	-115	-127
-53	-159	-107
-50	-186	-1
-42	-192	6
-29	-174	-68
-18	-127	44
-6	-56	28
8	24	-81
24	93	-35
42	130	107
56	129	99
62	101	56
56	60	35
38	31	-4
13	18	-23
-12	12	-68
-32	5	-75
-44	-14	-103
-49	-38	-54
-51	-58	-12
-53	-60	-4
-50	-43	87
-40	-18	139
-20	4	130
11	11	107
42	10	-11
67	14	-136
76	35	-79
63	72	-123
37	113	-145
3	136	-230
-28	122	-315
-51	71	-61
-62	-5	79
-66	-86	46
-64	-151	-25
-55	-189	-135
-40	-198	-160
-22	-182	-132
-1	-137	-35
17	-67	59
31	19	57
39	109	74
42	177	77
46	198	112
52	158	104
60	68	78
62	-43	32
54	-137	-35
30	-182	-43
-6	-169	-158
-49	-111	-252
-83	-43	-132
-96	9	18
-86	29	52
-58	27	97
-23	24	122
9	35	81
33	67	81
51	100	75
62	113	42
69	91	-26
69	41	-128
57	-14	-114
27	-48	-96
-13	-52	-206
-54	-36	-135
-85	-24	-7
-97	-37	-8
-91	-76	75
-71	-116	85
-47	-129	79
-24	-93	56
-4	-13	-47
18	79	-85
39	145	-26
58	164	113
70	135	16
69	88	-133
56	47	-145
31	26	-244
6	18	-237
-18	3	-156
-39	-33	-139
-54	-87	7
-67	-135	156
-76	-152	236
-72	-126	218
-55	-64	86
-26	5	30
13	59	-92
48	87	-252
69	89	-254
76	79	-138
65	67	-10
46	57	5
25	39	-84
7	10	-45
-11	-31	-63
-27	-77	-87
-44	-108	63
-60	-119	57
-68	-109	-38
-68	-83	-33
-58	-45	164
-38	-4	204
-12	38	131
14	79	80
39	106	13
62	112	11
80	85	-77
88	39	-116
82	-13	-117
60	-46	-70
26	-40	-89
-15	1	-52
-56	63	-14
-91	117	-201
-110	140	-162
-113	118	-7
-96	45	6
-59	-56	14
-11	-169	-57
40	-255	-52
82	-286	13
104	-242	37
102	-130	77
82	6	107
55	115	63
33	148	-18
18	96	-66
9	-15	-64
-3	-117	-54
-25	-160	-67
-54	-126	-54
-80	-42	-6
-91	35	46
-82	63	35
-54	35	52
-19	-11	75
11	-24	40
30	20	-42
38	109	-95
42	192	-106
46	219	-150
48	174	-62
45	81	14
31	-10	24
7	-59	59
-22	-58	9
-46	-36	-44
-59	-26	15
-61	-46	164
-55	-84	182
-45	-107	129
-34	-91	29
-21	-30	-105
-2	44	-217
19	101	-302
41	111	-185
54	83	-137
53	40	-161
39	7	-153
18	-6	-213
-5	-11	-243
-23	-21	-139
-36	-50	5
-46	-86	37
-55	-108	144
-63	-99	216
-64	-58	298
-53	-5	234
-30	36	26
7	43	-65
42	23	-189
72	-5	-219
85	-22	-173
82	-9	-135
64	23	-40
40	54	108
15	63	143
-11	38	170
-31	-11	40
-50	-61	-83
-64	-90	-78
-71	-88	-140
-68	-59	-169
-55	-24	-128
-33	3	-87
-7	15	-110
18	17	32
39	20	22
52	30	22
56	49	112
54	68	138
46	83	81
34	85	-5
15	72	-48
-5	48	-183
-28	6	-109
-45	-52	20
-52	-128	71
-47	-202	41
-32	-251	4
-15	-246	20
0	-176	46
9	-56	59
16	72	42
24	162	24
39	188	-13
56	152	-11
67	88	-62
65	43	-88
43	41	-79
9	77	-53
-31	114	-23
-61	115	-55
-77	56	-55
-76	-48	-49
-61	-159	-37
-43	-230	-14
-27	-232	-27
-15	-166	-35
-2	-60	3
11	43	68
27	114	61
42	140	40
53	127	9
56	93	-38
49	54	-132
34	25	-282
12	4	-275
-14	-12	-99
-38	-29	14
-60	-50	32
-74	-70	145
-77	-86	179
-66	-86	86
-46	-65	105
-18	-31	130
10	13	-70
34	54	-230
49	88	-101
55	106	-19
52	112	-30
44	106	3
33	90	-3
16	60	-120
-4	14	-209
-26	-44	-243
-47	-110	-256
-61	-160	-227
-65	-181	-101
-58	-166	82
-45	-117	96
-24	-56	155
-2	0	150
18	38	43
38	57	84
56	67	43
68	76	-97
70	88	-300
60	94	-69
36	85	186
4	49	98
-31	0	62
-59	-54	-135
-75	-93	-208
-78	-109	-151
-67	-105	9
-52	-89	95
-37	-66	52
-26	-33	83
-16	19	64
-6	90	26
9	168	-48
31	215	1
56	205	34
84	121	-14
99	-11	-76
96	-141	-19
68	-213	91
26	-196	38
-24	-111	3
-66	-5	-66
-89	62	-79
-89	58	-65
-71	-7	-96
-44	-90	-65
-16	-137	-42
8	-122	-39
30	-49	-32
49	41	-8
68	110	-8
79	131	9
76	101	46
57	45	103
27	-12	126
-10	-46	116
-44	-55	116
-67	-41	-8
-81	-21	-144
-85	-5	-167
-79	-4	-236
-65	-22	-359
-44	-46	-341
-17	-66	-77
14	-62	135
42	-28	94
62	28	48
70	92	49
65	134	19
52	142	-68
33	112	2
13	62	152
-10	10	134
-29	-33	87
-46	-62	5
-59	-83	-118
-61	-95	-226
-55	-98	-292
-40	-87	-298
-22	-52	-226
-3	-6	-62
15	38	15
31	63	-18
43	63	39
49	44	100
49	26	115
39	20	145
22	27	77
0	33	105
-25	22	143
-46	-13	116
-61	-63	138
-68	-106	36
-69	-119	-123
-60	-96	-275
-44	-45	-206
-20	8	-116
8	45	-151
34	58	-25
54	56	-56
63	51	-157
64	51	-17
55	57	207
42	55	208
25	39	104
7	6	32
-14	-34	-65
-37	-70	-141
-55	-91	-211
-67	-92	-179
-65	-81	-43
-53	-59	22
-32	-32	21
-10	8	26
9	64	47
21	127	83
28	183	94
34	202	28
42	166	-60
54	74	-27
61	-44	-25
54	-142	-107
29	-179	-67
-14	-134	-4
-61	-36	-3
-101	59	-28
-111	91	5
-90	30	43
-43	-104	-75
12	-248	-253
55	-322	-283
72	-286	-108
65	-145	-15
46	33	12
29	171	0
24	213	-60
29	159	-1
33	60	18
25	-18	31
-6	-29	63
-47	18	39
-87	84	26
-107	114	-91
-100	80	-46
-67	-5	118
-23	-99	149
17	-154	137
44	-150	72
54	-92	34
53	-8	-90
46	66	-172
40	115	-26
33	131	-4
29	119	-150
22	81	-198
12	23	-194
-4	-42	-174
-25	-105	-101
-47	-138	15
-67	-136	16
-79	-97	51
-74	-44	103
-52	2	90
-18	27	167
20	35	63
52	42	-63
69	64	-84
72	103	-151
60	139	-184
43	154	-38
24	125	85
4	54	87
-13	-33	125
-30	-111	90
-42	-154	106
-51	-157	43
-53	-122	-60
-48	-72	-118
-35	-26	-238
-18	12	-294
2	36	-172
21	50	-40
36	55	-19
48	59	141
50	67	159
41	79	64
27	92	-20
8	89	-198
-8	59	-194
-20	-9	-38
-26	-103	97
-32	-192	122
-39	-241	119
-50	-217	84
-59	-133	32
-62	-15	6
-50	92	31
-23	149	-7
13	144	-135
49	96	-113
75	37	-69
82	-3	-100
70	-14	-167
45	-6	-246
16	10	-205
-15	19	-96
-41	17	-40
-62	10	36
-74	-6	59
-74	-33	97
-58	-76	81
-32	-121	-9
-1	-154	-106
28	-148	-156
46	-89	-34
52	8	-17
49	112	1
41	180	12
33	188	11
27	142	16
20	67	6
9	2	94
-5	-39	-15
-22	-57	-37
-38	-70	78
-50	-92	59
-56	-114	112
-56	-117	74
-52	-84	22
-39	-10	26
-19	79	-27
7	142	-54
34	154	-96
58	110	-51
68	37	7
65	-25	-52
51	-53	-77
30	-45	-100
10	-25	-155
-11	-13	-97
-32	-27	-76
-53	-56	36
-75	-80	87
-87	-83	40
-84	-62	-100
-60	-35	-289
-26	-16	-124
15	-12	-57
48	-13	-42
67	1	-14
70	35	-19
59	83	32
45	117	37
31	118	65
16	78	30
-3	17	46
-28	-31	87
-54	-47	115
-78	-30	134
-85	-7	80
-76	-6	15
-45	-46	-3
-10	-109	-60
24	-155	-211
48	-149	-280
59	-75	-196
62	39	-38
60	144	-17
60	193	16
57	166	155
48	85	216
28	-8	155
-4	-69	59
-40	-85	-60
-71	-64	-239
-89	-40	-313
-89	-33	-142
-72	-47	28
-48	-69	-55
-23	-71	-226
-1	-47	-137
15	2	-3
29	51	-116
41	88	-65
51	101	16
54	95	84
49	82	137
32	66	93
8	48	47
-19	18	-119
-43	-27	-192
-56	-81	-145
-61	-128	-48
-56	-153	68
-46	-144	101
-34	-104	77
-21	-41	34
-4	26	39
13	82	22
34	110	48
57	104	131
77	68	40
88	16	14
84	-29	74
60	-51	-11
22	-36	-110
-23	2	-179
-63	37	-44
-91	43	22
-94	7	-63
-80	-57	-106
-51	-121	-202
-23	-143	-164
1	-112	-122
16	-33	-37
27	59	40
32	132	86
36	166	108
38	156	38
39	116	5
36	62	-98
29	1	-181
14	-63	-141
-4	-123	-28
-28	-170	-12
-50	-187	-30
-70	-161	45
-77	-100	98
-68	-24	142
-45	40	167
-13	80	130
19	95	43
41	108	-59
49	137	-105
44	181	-107
34	219	-222
24	211	-194
20	138	-59
20	3	-27
18	-160	26
8	-291	74
-10	-351	145
-33	-319	107
-53	-215	-59
-66	-84	-185
-63	30	-111
-43	96	-24
-13	111	-105
22	90	-108
50	61	-86
69	39	-71
72	33	-57
63	37	-14
44	40	11
21	34	22
-5	14	61
-31	-17	12
-53	-51	4
-70	-80	-35
-80	-94	-106
-77	-91	-63
-60	-66	13
-36	-30	26
-8	13	16
17	53	-19
37	83	-95
49	100	-67
54	102	-105
56	95	-18
52	80	139
42	60	119
27	35	67
4	9	-41
-21	-22	-13
-48	-51	-25
-64	-72	-102
-72	-82	-85
-69	-72	-66
-57	-50	-41
-39	-15	-15
-18	20	-12
6	44	-102
31	54	-90
54	48	-57
71	31	-16
77	10	90
67	-2	130
43	-7	152
14	-8	76
-17	-13	-48
-43	-29	-89
-58	-55	-108
-67	-81	-111
-69	-86	-67
-66	-61	-18
-57	-11	45
-39	51	55
-10	97	50
28	108	51
67	77	-106
97	23	-189
107	-27	-63
95	-53	-32
63	-46	15
22	-23	-2
-17	-5	42
-44	-12	128
-60	-40	-7
-68	-78	4
-72	-98	-37
-75	-86	-178
-70	-43	-197
-58	18	-109
-36	71	-8
-5	101	-24
32	100	-94
62	70	-155
82	25	-92
88	-21	-4
78	-53	-9
54	-61	24
23	-37	84
-13	8	49
-46	52	30
-70	68	13
-79	31	-85
-72	-52	-170
-54	-156	-161
-30	-227	-20
-8	-230	127
8	-154	170
20	-32	170
33	86	155
47	155	53
61	158	-92
66	115	-107
60	64	-109
41	34	-167
11	33	-235
-20	35	-363
-47	23	-218
-63	-19	-41
-70	-71	70
-68	-109	139
-62	-102	128
-48	-49	122
-30	26	54
-5	96	95
22	130	96
46	129	-1
61	103	-70
65	65	-45
60	32	-5
50	0	23
33	-32	24
14	-63	9
-10	-86	-43
-35	-92	-100
-59	-81	-82
-76	-61	-75
-76	-50	-30
-62	-49	24
-38	-54	59
-8	-48	62
18	-16	56
37	35	46
49	93	-11
54	128	-102
54	125	-176
50	88	-203
39	35	-179
22	-8	-76
0	-33	30
-27	-39	134
-51	-44	180
-69	-53	128
-82	-65	74
-87	-60	-13
-84	-23	-158
-71	41	-282
-50	114	-195
-20	158	-58
20	144	-84
59	71	-9
94	-31	96
113	-126	116
111	-181	9
93	-177	-149
59	-134	-136
21	-80	-3
-17	-44	55
-46	-39	78
-68	-57	91
-78	-82	26
-75	-90	18
-61	-75	-51
-38	-35	-96
-11	16	-109
18	71	-108
39	119	-135
49	158	-134
48	183	-78
37	187	-38
20	165	63
2	108	27
-13	23	26
-23	-77	61
-29	-166	93
-37	-216	65
-44	-216	-17
-51	-165	-90
-55	-84	-124
-48	-1	-28
-30	54	-26
-1	74	-58
31	64	-150
57	46	-131
72	41	-2
68	49	84
56	68	137
35	79	75
15	63	5
-4	24	-145
-22	-27	-143
-42	-71	10
-58	-95	55
-68	-92	124
-69	-68	72
-56	-38	-62
-31	-11	-69
-2	12	-164
26	34	-230
44	55	-108
53	77	-51
52	91	-15
48	93	48
36	83	21
22	60	18
2	32	18
-20	1	17
-40	-32	14
-55	-69	70
-60	-108	60
-57	-135	-20
-46	-144	-17
-30	-124	-90
-13	-78	-139
4	-16	-89
19	43	-13
35	83	36
46	100	94
52	101	115
52	89	61
42	75	-2
26	54	-102
7	23	-133
-14	-23	-97
-32	-71	-25
-47	-108	54
-60	-113	54
-65	-87	-15
-61	-37	-161
-46	9	-251
-18	32	-185
17	29	-60
50	15	4
71	8	89
80	17	93
72	36	5
58	44	-17
39	23	-42
20	-26	-51
1	-86	-15
-20	-123	69
-41	-122	100
-61	-86	67
-75	-38	11
-74	-7	-27
-58	-2	-76
-35	-13	-62
-10	-11	-2
13	22	-52
26	88	-70
32	160	-153
34	201	-136
34	190	-60
32	122	-64
28	26	8
18	-68	-47
2	-133	9
-19	-161	91
-39	-157	107
-56	-132	104
-64	-102	6
-60	-66	-87
-45	-33	-138
-22	2	-34
3	33	84
24	64	115
39	100	101
44	132	35
44	159	-95
40	161	-105
36	122	-159
29	43	-209
20	-62	-159
5	-160	-162
-19	-214	41
-44	-202	103
-63	-139	-6
-71	-56	-40
-63	5	-68
-42	24	43
-14	10	104
14	-9	86
33	0	-20
46	49	-131
52	122	-209
53	181	-363
51	190	-184
41	140	123
24	49	151
0	-49	113
-28	-125	29
-48	-160	4
-58	-163	-7
-57	-147	-21
-49	-121	46
-36	-94	100
-23	-55	122
-10	-9	98
6	43	6
23	88	-67
41	112	10
51	116	20
52	102	0
38	85	-21
15	68	-128
-13	55	-215
-38	38	-245
-56	13	-151
-66	-16	-32
-67	-45	65
-62	-64	42
-47	-75	-77
-25	-80	-82
5	-87	44
36	-97	22
60	-101	-79
71	-88	-64
71	-44	-52
61	19	-88
48	82	-68
34	116	43
22	104	121
6	53	151
-14	-17	137
-38	-69	133
-62	-88	37
-80	-68	-87
-82	-33	-135
-69	-2	-184
-45	12	-187
-18	13	-215
7	19	-153
25	41	-31
36	81	7
44	116	99
50	122	130
52	88	193
49	15	224
36	-61	122
13	-115	21
-17	-121	-88
-47	-86	-142
-70	-34	-157
-82	1	-249
-75	0	-218
-53	-30	22
-21	-68	118
11	-81	21
38	-53	-187
54	10	-202
60	81	-60
58	126	-40
51	127	-43
42	88	61
29	30	119
11	-13	15
-14	-25	-22
-42	-3	-15
-66	26	57
-79	35	43
-74	-1	-45
-51	-74	-15
-16	-158	-59
16	-210	-108
39	-201	-11
48	-125	130
48	-5	95
41	115	-33
38	192	-18
35	203	24
31	153	20
20	68	-16
1	-17	-92
-23	-79	-138
-45	-113	-134
-59	-120	-99
-62	-114	-30
-56	-99	-2
-45	-72	-23
-32	-36	-172
-18	9	-192
0	53	-44
21	85	-67
43	96	-3
61	90	74
69	74	83
59	57	117
39	45	63
11	33	12
-16	16	-27
-39	-12	-17
-56	-43	-22
-68	-68	-29
-76	-79	4
-76	-65	-11
-65	-36	13
-44	1	85
-14	39	122
20	70	117
45	98	142
60	117	106
65	119	-65
63	92	-209
60	30	-282
57	-54	-234
49	-142	-223
33	-195	-120
5	-200	23
-31	-154	30
-65	-86	90
-85	-28	36
-85	-2	54
-60	-9	43
-29	-19	-31
4	-6	-9
25	47	25
33	124	89
32	194	67
29	215	-14
30	171	-111
31	72	-90
30	-45	-138
21	-140	-409
1	-187	-476
-25	-183	-252
-53	-148	-64
-72	-111	66
-82	-86	143
-75	-77	103
-55	-67	126
-28	-46	13
1	-1	0
29	58	115
49	115	102
61	153	19
65	157	-128
59	130	-181
46	84	-121
26	35	65
4	-1	242
-21	-24	235
-43	-37	164
-59	-49	64
-65	-63	-117
-60	-82	-320
-41	-91	-341
-18	-83	-123
7	-52	53
27	1	17
38	63	-102
41	126	-50
38	174	20
32	196	-33
25	187	34
16	136	65
8	47	96
-3	-72	99
-13	-194	30
-24	-286	52
-37	-314	15
-47	-265	-26
-55	-162	-65
-55	-39	-93
-44	53	-81
-18	92	-84
16	80	-49
48	49	-9
67	39	-3
69	64	-29
52	117	-28
31	159	56
8	159	131
-9	106	145
-18	25	190
-25	-50	138
-32	-93	13
-40	-94	-144
-47	-74	-262
-47	-52	-318
-42	-45	-309
-28	-43	-117
-11	-28	-31
8	10	-42
27	62	-16
44	101	32
58	104	4
65	56	-25
59	-23	63
40	-102	30
13	-152	-70
-18	-157	-43
-44	-127	-20
-59	-87	-90
-62	-55	-159
-57	-37	-162
-48	-29	-76
-35	-20	5
-19	0	52
2	27	130
26	58	94
46	88	-26
61	106	-70
62	117	-40
49	113	1
26	96	54
-1	63	122
-28	22	82
-50	-20	-19
-63	-52	-64
-68	-72	-71
-63	-81	-16
-50	-83	106
-31	-82	-17
-10	-71	-89
13	-45	21
32	2	-95
44	64	-266
52	121	-291
56	153	-219
56	137	-111
48	82	-19
33	5	2
12	-62	35
-15	-101	111
-38	-109	187
-58	-99	192
-68	-90	173
-68	-89	166
-56	-93	82
-38	-81	-33
-13	-43	-135
14	16	-183
40	82	-160
59	127	-169
70	139	-194
71	116	-63
60	76	93
41	33	216
18	3	215
-11	-17	168
-36	-37	133
-60	-62	42
-77	-88	-72
-82	-102	-211
-72	-92	-290
-53	-61	-364
-27	-18	-180
0	18	-32
22	38	-139
38	39	-117
46	34	-27
52	31	96
52	38	164
48	48	150
37	49	49
19	34	-68
-5	3	-101
-35	-25	-113
-61	-35	-44
-83	-15	124
-92	33	164
-91	91	82
-76	136	19
-46	147	-67
-10	109	-107
36	27	-176
81	-80	-139
115	-182	-12
129	-251	-35
117	-260	-26
82	-207	-15
35	-112	-13
-10	-14	108
-44	43	138
-60	41	40
-64	-13	-68
-62	-83	-118
-63	-122	-71
-65	-103	-56
-60	-32	-95
-43	54	-53
-10	110	-42
32	113	-56
69	74	-53
89	25	-34
83	9	20
54	37	-31
18	88	20
-14	121	145
-33	103	74
-40	35	-88
-44	-55	-229
-48	-119	-151
-55	-129	21
-60	-89	9
-56	-25	-48
-41	21	-1
-15	37	106
15	28	78
40	22	92
54	41	123
59	84	66
56	130	-58
49	148	-12
37	121	133
20	53	-77
-3	-24	-209
-31	-83	-205
-57	-107	-232
-76	-101	-184
-78	-82	-67
-65	-64	38
-46	-55	82
-19	-45	80
5	-25	98
25	6	112
41	40	38
52	63	-27
58	68	-201
58	51	-308
51	28	-284
35	3	-192
13	-16	-53
-14	-32	87
-38	-56	138
-57	-85	51
-70	-114	53
-70	-126	13
-62	-112	-95
-42	-71	-39
-18	-8	12
10	56	25
32	115	93
45	153	131
49	171	64
47	168	-30
42	132	39
36	68	-20
31	-22	-47
21	-121	19
6	-196	-14
-18	-225	-74
-45	-194	-215
-67	-121	-162
-80	-33	-38
-72	34	-20
-52	69	-31
-24	76	-7
6	68	61
31	66	20
53	71	-70
69	81	0
78	84	51
70	81	-28
48	80	-67
11	84	-120
-29	84	-70
-57	50	8
-62	-32	24
-43	-165	67
-11	-303	57
15	-387	29
21	-363	-31
9	-229	-117
-10	-33	-136
-15	140	9
0	225	108
30	202	110
57	110	130
66	27	63
48	5	-34
11	49	-179
-28	119	-83
-55	150	59
-67	104	-129
-68	-5	-134
-70	-123	-90
-74	-191	-198
-74	-180	-128
-61	-103	-81
-33	-8	-76
7	64	45
44	94	59
69	92	16
77	82	208
68	80	318
54	85	182
41	82	85
28	60	-91
9	19	-332
-19	-25	-419
-52	-60	-323
-78	-85	-142
-87	-97	-52
-75	-109	37
-44	-118	79
-11	-112	-54
12	-80	-101
22	-17	-37
24	63	44
27	130	94
39	155	104
56	132	155
68	74	107
66	6	-27
44	-45	-100
10	-71	-173
-29	-76	-135
-60	-78	-41
-77	-84	46
-80	-96	109
-71	-97	13
-57	-80	-52
-36	-41	22
-10	8	69
19	50	-33
44	77	-13
63	85	21
69	85	-23
62	84	-93
48	81	-142
28	74	32
10	51	52
-10	17	14
-30	-25	-49
-50	-56	-35
-70	-60	-56
-85	-27	-174
-90	37	-43
-83	106	-4
-59	149	44
-23	132	-1
24	53	-107
74	-71	-61
118	-198	23
142	-273	-63
136	-261	-188
99	-164	-61
42	-27	-11
-18	88	-60
-62	119	-43
-82	55	3
-78	-67	38
-61	-184	24
-48	-228	33
-43	-175	31
-44	-53	-14
-40	78	52
-22	158	79
6	170	38
37	136	25
56	98	-14
59	85	-23
46	103	-48
27	114	-101
9	88	-154
-3	14	-96
-14	-87	80
-28	-166	133
-46	-186	65
-64	-138	60
-71	-54	-37
-60	21	-117
-31	59	-106
6	53	-158
39	33	-93
59	27	8
64	49	42
58	90	71
46	120	80
37	115	31
27	72	-40
13	11	-75
-6	-47	-156
-31	-81	-165
-53	-90	-53
-68	-83	-46
-71	-72	26
-64	-61	163
-50	-38	169
-33	3	87
-14	60	-2
9	112	-114
36	131	-248
63	105	-185
85	38	-78
91	-39	-27
79	-97	9
44	-112	34
1	-91	-18
-45	-60	-118
-80	-45	-100
-96	-60	-30
-93	-93	90
-75	-118	137
-46	-110	-8
-19	-63	-156
8	7	-54
32	75	45
48	116	-119
62	123	-297
68	105	-100
63	78	149
51	56	100
31	39	108
8	24	55
-15	2	-60
-34	-25	4
-48	-54	31
-56	-77	-24
-62	-85	-55
-61	-81	-90
-54	-70	-100
-37	-56	-5
-12	-34	38
18	-4	-4
46	36	-81
65	77	-72
71	101	-113
61	102	-195
41	72	-77
16	29	-56
-8	-15	23
-29	-40	152
-46	-47	37
-59	-41	-12
-69	-39	-5
-69	-51	-27
-60	-74	-31
-41	-93	56
-12	-84	138
14	-30	94
34	59	62
40	160	8
38	227	-27
33	229	-60
35	156	-48
40	38	7
42	-76	111
33	-136	131
8	-122	1
-27	-59	-52
-59	0	-160
-72	2	-126
-60	-72	-48
-28	-194	-170
9	-292	-225
34	-303	-273
42	-201	-167
36	-24	-54
28	150	-54
30	244	4
39	227	-7
49	123	42
46	4	59
24	-69	103
-15	-70	207
-55	-25	140
-85	17	24
-91	22	-51
-77	-15	-70
-52	-58	40
-28	-69	152
-12	-30	152
3	41	126
19	109	44
39	138	-65
60	123	-240
74	85	-445
71	50	-359
52	41	-235
20	48	-284
-16	49	-96
-47	27	129
-69	-24	186
-79	-85	87
-79	-131	-54
-69	-148	-55
-53	-134	-170
-32	-100	-183
-7	-56	42
16	-11	181
35	41	188
46	93	133
51	138	77
50	154	-36
45	130	-157
39	70	-100
26	-4	-102
9	-64	-72
-13	-99	-5
-34	-108	44
-51	-109	86
-58	-119	-15
-54	-137	-50
-44	-148	22
-28	-120	92
-8	-49	106
11	47	113
31	137	61
50	183	35
62	174	90
65	131	64
54	86	3
31	63	-30
2	63	-120
-27	59	-229
-48	24	-198
-62	-53	-266
-67	-153	-244
-65	-226	-50
-61	-238	-43
-49	-174	28
-28	-63	69
2	45	111
36	112	123
69	119	53
91	84	66
96	40	63
83	19	9
52	30	-135
17	61	-234
-20	88	-210
-46	89	-224
-65	59	-175
-72	4	39
-71	-60	155
-63	-117	202
-49	-151	177
-32	-152	78
-13	-118	-65
5	-52	-140
23	25	-179
36	99	-182
46	143	-20
51	150	121
51	117	236
48	54	152
41	-19	11
29	-92	-115
13	-151	-368
-7	-191	-422
-32	-201	-294
-59	-178	-129
-79	-124	126
-86	-52	155
-72	17	163
-46	61	207
-10	77	164
27	74	135
52	72	-7
61	88	-44
54	125	-38
40	158	-145
23	155	-280
8	98	-333
-5	-2	-235
-18	-109	-13
-32	-182	130
-47	-187	184
-56	-131	149
-59	-44	81
-49	28	12
-29	64	-19
-1	60	37
24	40	16
45	33	10
58	46	51
62	72	-54
57	88	-233
44	76	-223
28	35	-147
2	-17	-64
-26	-55	52
-54	-68	96
-77	-56	69
-88	-35	114
-87	-21	63
-72	-20	45
-49	-30	35
-22	-38	-84
8	-35	-64
35	-19	-135
59	4	-71
76	28	-31
83	50	-160
75	67	-94
54	79	-104
25	74	-83
-6	46	-28
-35	-6	-51
-53	-76	-5
-59	-143	55
-55	-185	63
-44	-182	75
-31	-134	126
-17	-58	172
-3	17	94
16	71	12
33	97	-69
50	99	-169
61	93	-183
63	87	-243
52	85	-150
32	76	-60
7	50	-50
-19	5	9
-42	-49	16
-58	-95	-9
-70	-115	-17
-76	-98	22
-77	-51	51
-68	16	127
-55	84	155
-32	137	133
0	168	28
33	168	-41
65	131	-45
91	60	-139
103	-32	-122
97	-125	-40
75	-188	-23
37	-194	1
-8	-144	-50
-49	-61	-58
-81	7	11
-93	23	0
-85	-29	-17
-56	-123	-32
-24	-201	97
9	-209	87
32	-124	-83
46	23	-174
53	169	-80
56	251	10
59	230	-139
57	130	-139
49	6	-153
28	-76	-107
-4	-90	-125
-40	-45	-108
-78	13	74
-103	43	104
-114	28	174
-108	-22	60
-87	-68	15
-52	-91	53
-11	-77	-19
27	-43	-75
54	-7	-173
64	19	-77
56	37	-70
34	57	-46
13	78	137
3	91	135
8	81	100
25	40	8
38	-16	-31
34	-69	-76
9	-93	-215
-27	-84	-201
-60	-52	-129
-72	-19	-23
-57	-3	12
-22	1	2
18	3	94
44	23	62
54	61	15
46	101	-12
33	119	-81
22	97	-115
16	43	-109
10	-19	-15
-1	-63	43
-22	-79	-43
-47	-65	-103
-68	-42	72
-81	-28	159
-72	-26	129
-50	-36	82
-21	-39	-93
11	-31	-182
36	-13	-200
56	10	-160
65	29	-162
65	45	-77
54	59	26
36	70	6
14	66	112
-10	42	152
-29	-9	132
-46	-76	112
-58	-131	26
-66	-159	-8
-65	-135	-45
-56	-76	-72
-37	1	-112
-11	68	-26
17	114	87
36	140	44
44	162	16
42	183	-71
37	194	-190
37	165	-244
42	82	-225
49	-56	-120
49	-208	-15
33	-322	104
-3	-351	141
-49	-282	152
-87	-150	58
-100	-12	-72
-83	74	-72
-41	84	-25
7	38	-23
46	-13	-28
64	-29	-55
63	9	-36
52	76	67
44	128	49
41	135	71
36	85	80
27	3	42
4	-70	-59
-29	-106	-176
-63	-101	-170
-85	-69	-170
-88	-39	-84
-72	-23	-16
-45	-13	10
-19	4	0
4	45	-27
18	104	-88
29	155	-120
41	174	-32
51	139	-93
58	68	14
52	-18	164
36	-81	50
8	-105	94
-24	-90	139
-52	-56	-67
-70	-31	-223
-77	-26	-130
-70	-41	-67
-57	-58	9
-36	-63	89
-12	-49	22
12	-16	-17
34	21	-70
49	53	-90
56	77	-122
52	92	-167
38	97	-129
17	88	-42
-7	61	23
-28	8	-5
-43	-64	21
-50	-138	50
-51	-186	41
-47	-189	76
-40	-144	45
-31	-66	48
-19	13	-1
-2	68	-35
18	88	-4
40	80	-102
61	64	-64
72	57	-20
69	65	45
55	77	63
29	77	2
3	48	31
-21	1	-96
-36	-54	-135
-46	-97	-147
-51	-114	-167
-53	-109	-1
-52	-88	-35
-46	-63	-89
-34	-36	-38
-10	-8	16
14	29	44
37	72	58
54	110	109
61	127	37
62	114	-92
55	77	-17
43	27	190
27	-17	132
4	-44	22
-23	-58	-109
-50	-65	-206
-69	-78	-215
-77	-92	-251
-66	-101	-131
-44	-93	-15
-16	-53	61
9	10	104
24	90	152
29	168	170
25	229	42
19	256	-51
16	238	-59
15	168	-89
16	47	-131
14	-99	-125
5	-233	-70
-15	-305	-25
-40	-296	17
-63	-213	6
-70	-103	-48
-56	-29	-68
-21	-24	-67
21	-79	-5
57	-137	-5
74	-137	22
65	-48	135
44	102	205
25	233	326
17	275	339
18	197	160
19	43	-67
5	-104	-227
-22	-174	-315
-57	-142	-359
-84	-54	-407
-86	19	-462
-63	27	-282
-25	-23	-169
9	-82	-97
24	-87	-19
24	-18	-56
16	94	22
13	187	83
22	206	110
36	148	83
44	50	99
36	-30	127
10	-59	127
-24	-45	102
-50	-23	54
-63	-31	65
-59	-66	61
-48	-105	53
-38	-107	13
-30	-55	-49
-20	28	-93
-3	105	-39
21	134	-4
50	113	-23
72	64	-33
81	26	31
67	23	112
41	45	-67
10	62	-97
-15	40	-173
-33	-27	-213
-45	-114	-51
-55	-182	-43
-60	-195	50
-62	-151	24
-54	-70	22
-35	4	65
-4	49	9
28	62	-45
52	55	-26
64	49	44
63	57	-2
52	68	-69
38	67	-92
22	45	-78
4	3	-66
-17	-38	-51
-40	-61	-60
-62	-62	-53
-80	-44	-42
-80	-31	-55
-65	-36	-27
-38	-58	-46
-5	-84	-84
24	-86	-64
44	-52	-11
56	13	56
60	86	140
59	136	152
54	143	133
44	104	31
28	38	-109
6	-29	-104
-21	-72	-36
-47	-89	29
-65	-78	49
-72	-57	95
-68	-37	18
-54	-17	-74
-35	2	58
-14	28	152
11	54	66
33	76	-209
52	80	-398
65	65	-359
66	40	-218
54	14	7
29	-2	24
-3	-9	-45
-38	-9	-100
-62	-20	-155
-75	-49	-119
-72	-94	-67
-62	-138	-3
-42	-167	1
-23	-162	13
-5	-119	-17
11	-50	10
23	25	95
34	92	22
41	134	70
46	155	194
44	154	196
38	137	187
27	106	-11
10	59	-189
-6	0	-129
-23	-64	-66
-35	-117	-74
-46	-143	-30
-51	-137	59
-51	-108	32
-41	-77	-99
-20	-57	-155
10	-56	-65
41	-55	41
64	-32	101
71	29	53
60	119	-91
39	198	-226
16	225	-306
-1	166	-159
-5	36	94
-5	-118	131
-9	-232	132
-23	-261	69
-47	-196	-7
-69	-77	19
-78	38	35
-62	103	28
-32	102	-42
10	62	-89
44	27	-71
61	24	-37
63	58	-40
52	97	29
38	114	22
25	91	-36
12	38	-63
-3	-21	-88
-24	-60	-51
-48	-70	-27
-68	-64	46
-79	-54	79
-72	-55	115
-53	-56	134
-27	-45	119
0	-11	45
21	41	-64
35	89	-106
43	110	-229
46	96	-319
44	51	-232
38	2	-119
29	-32	-27
13	-43	4
-5	-42	13
-26	-42	49
-44	-56	-12
-60	-78	-98
-66	-94	-91
-61	-92	-38
-46	-66	-3
-19	-29	41
12	8	27
40	33	25
57	51	112
64	67	53
59	85	-121
50	100	-128
42	96	-25
34	65	12
24	10	85
6	-51	93
-22	-97	69
-52	-111	67
-79	-96	15
-89	-68	54
-80	-48	-34
-52	-42	-92
-17	-42	8
15	-28	-143
36	13	-157
46	78	-105
46	138	-238
42	174	-166
37	160	-63
28	104	-4
13	25	16
-8	-50	-15
-32	-104	-63
-53	-136	-142
-64	-154	-133
-63	-166	-53
-53	-167	68
-38	-145	74
-24	-89	128
-11	-2	188
4	98	104
22	174	87
46	194	9
70	153	-119
89	65	-157
89	-27	-32
69	-88	42
33	-97	1
-12	-60	8
-53	-11	-36
-82	21	-63
-91	22	6
-88	2	7
-77	-14	-63
-61	-8	-63
-42	21	-44
-18	51	-20
16	55	40
58	18	119
96	-45	130
118	-99	64
111	-104	-11
80	-48	-125
29	40	-232
-20	115	-320
-55	127	-248
-70	62	-112
-69	-51	-34
-61	-163	23
-52	-216	-14
-44	-192	64
-34	-110	172
-20	-7	199
6	71	163
33	109	91
56	111	11
67	104	-80
64	101	-117
54	106	-114
38	106	-1
21	83	24
2	36	-69
-21	-26	-162
-47	-81	-149
-75	-114	-64
-92	-114	-68
-93	-89	-26
-76	-53	-8
-44	-16	-61
-5	10	-40
30	30	-13
56	41	-50
71	49	-91
72	52	-31
64	53	56
48	56	2
25	57	-24
-3	60	14
-30	55	74
-53	38	39
-68	4	19
-71	-45	87
-64	-97	65
-46	-138	120
-23	-154	121
2	-138	-19
25	-99	-109
42	-42	-27
53	13	-80
54	54	-163
51	74	-98
42	70	-117
32	47	-124
17	17	-192
0	-13	-185
-22	-37	-65
-48	-54	-54
-69	-63	-53
-84	-64	53
-84	-60	44
-70	-42	24
-47	-8	110
-20	38	108
6	91	33
30	131	-22
50	149	15
69	129	54
83	80	56
89	15	53
78	-42	-30
50	-71	-88
11	-70	-117
-33	-48	-108
-66	-30	-59
-83	-32	-48
-80	-63	-21
-63	-108	-99
-43	-140	-166
-24	-135	-140
-8	-86	-100
7	-5	-78
24	75	-92
43	123	-20
60	125	90
66	91	213
57	45	245
34	18	151
3	20	82
-27	46	42
-50	72	-26
-63	72	-101
-67	39	22
-65	-21	7
-57	-82	-145
-43	-120	-182
-22	-117	-341
4	-78	-323
27	-19	-44
49	35	31
61	59	58
67	50	61
64	11	-82
57	-34	-120
44	-65	19
23	-72	172
-4	-56	184
-34	-32	182
-61	-19	87
-76	-28	-46
-72	-50	-119
-56	-70	-59
-31	-65	-18
-6	-25	-16
14	41	-22
27	110	-80
38	154	-18
49	160	-19
57	130	-42
59	83	-101
48	41	-97
23	13	-61
-10	2	-30
-45	-4	32
-72	-9	-8
-86	-23	-40
-84	-45	-41
-70	-71	4
-48	-100	-2
-22	-121	-49
4	-131	-86
31	-118	-143
52	-76	-89
66	-8	-27
68	66	-30
60	118	7
44	129	7
25	92	8
6	25	15
-12	-44	40
-29	-90	69
-47	-100	70
-60	-84	120
-67	-57	129
-63	-39	134
-49	-24	97
-28	-2	-70
-7	44	-155
8	118	-157
15	200	-147
20	259	-119
26	261	-108
39	193	44
58	62	14
75	-94	-75
75	-233	-8
56	-313	-62
16	-317	-108
-30	-253	-194
-72	-153	-197
-93	-55	-141
-87	6	-36
-59	22	61
-20	5	97
14	-14	102
35	-13	-24
42	23	-9
42	76	0
38	120	37
35	130	76
31	99	51
19	43	69
0	-13	15
-26	-43	-21
-51	-44	-104
-69	-29	-96
-76	-18	-35
-67	-23	-38
-50	-35	-63
-28	-43	-119
-6	-24	-59
16	21	47
36	77	91
54	120	108
66	130	116
70	106	58
64	63	-48
44	22	-178
16	-6	-163
-15	-23	-46
-43	-38	-70
-64	-63	-77
-75	-93	17
-76	-119	35
-67	-122	-79
-51	-95	-84
-28	-45	12
-3	10	-40
21	51	-140
42	74	-176
55	75	-21
59	67	84
56	59	1
44	50	36
28	35	-31
6	6	-59
-16	-33	61
-38	-81	43
-56	-116	76
-65	-129	80
-67	-118	27
-57	-84	48
-37	-40	-7
-12	7	-31
14	47	-72
36	84	-260
49	110	-364
54	125	-205
53	123	-136
47	99	-162
40	53	-18
29	-6	76
15	-61	142
-4	-102	194
-28	-119	213
-52	-110	130
-69	-85	-7
-77	-50	-84
-68	-16	-124
-49	18	-70
-23	49	58
2	79	130
24	99	74
44	104	4
60	89	-86
72	53	-132
77	10	-59
66	-37	42
42	-76	9
5	-101	-30
-36	-114	41
-72	-110	21
-95	-88	-82
-99	-40	-119
-91	29	-91
-69	101	-111
-40	147	-58
-4	129	43
41	45	94
90	-82	125
128	-194	43
140	-238	-4
120	-183	-23
68	-50	-214
4	92	-270
-51	174	-118
-83	159	2
-85	58	108
-71	-67	138
-56	-154	108
-51	-163	-40
-50	-109	-182
-47	-34	-142
-30	15	-72
2	25	-89
39	17	-88
67	24	-5
77	66	-23
67	126	-27
46	166	21
24	150	50
5	79	60
-13	-20	-15
-33	-97	-60
-57	-119	-31
-78	-91	-41
-87	-41	-24
-77	-8	-37
-52	-7	43
-19	-24	194
10	-29	233
28	0	231
37	57	69
42	118	-201
50	145	-463
57	129	-479
59	76	-341
48	13	-168
23	-30	-78
-11	-50	-30
-44	-55	97
-65	-64	120
-74	-85	163
-66	-106	130
-52	-113	102
-36	-85	6
-23	-27	-86
-10	45	-25
8	106	-1
25	137	54
46	129	56
61	90	36
71	38	-3
69	-16	-118
55	-57	-90
30	-83	-66
-1	-90	-142
-32	-83	-83
-61	-66	40
-76	-53	149
-77	-51	176
-62	-57	215
-40	-67	201
-13	-63	150
13	-37	-10
32	11	-161
48	67	-163
57	109	-339
58	121	-349
50	99	-255
34	52	-211
10	2	-107
-17	-37	22
-39	-60	69
-54	-71	97
-58	-75	64
-57	-77	54
-52	-75	109
-44	-63	69
-34	-41	67
-18	-6	-30
4	29	-99
31	60	-80
54	81	-70
69	87	-34
69	85	18
55	77	51
31	64	12
4	45	-84
-22	23	7
-41	-5	53
-55	-36	8
-66	-67	16
-68	-96	-19
-64	-113	22
-48	-120	-104
-22	-107	-180
10	-74	-266
41	-22	-245
62	36	-37
72	89	22
69	120	130
59	125	155
43	108	121
24	76	26
5	39	-13
-19	6	90
-40	-29	-10
-59	-69	-192
-66	-114	-98
-62	-149	-54
-50	-157	-134
-32	-117	-120
-15	-33	-92
-1	70	14
12	161	24
28	199	-3
46	174	30
63	100	-40
71	16	-26
63	-38	-1
34	-44	-36
-7	-14	20
-48	16	104
-75	9	150
-80	-52	84
-64	-148	76
-38	-234	76
-14	-263	10
5	-215	-117
16	-102	-179
24	36	-95
34	144	-132
44	189	-115
54	164	26
56	97	64
45	27	-86
25	-18	-177
-4	-28	-114
-32	-19	-67
-56	-6	-38
-71	-9	-7
-79	-24	107
-75	-44	182
-57	-56	134
-32	-51	31
-2	-34	-111
27	-11	-262
48	14	-275
58	39	-147
56	68	0
46	100	127
33	128	209
20	134	125
6	113	-70
-9	56	-124
-26	-22	-80
-46	-97	19
-63	-149	17
-74	-160	24
-74	-140	35
-60	-102	-12
-36	-63	-54
-8	-39	-179
24	-22	-221
49	-4	-253
67	24	-143
76	62	-27
74	100	23
62	114	13
42	98	-15
21	49	-2
-4	-12	78
-27	-60	140
-49	-84	42
-64	-69	26
-72	-34	-70
-70	9	-120
-58	43	-33
-39	60	24
-15	60	32
10	43	39
33	18	109
53	-15	123
69	-43	108
75	-56	75
68	-48	123
48	-18	150
14	18	40
-22	41	-2
-53	32	-62
-70	-12	-176
-72	-69	-188
-64	-112	-103
-50	-114	-188
-37	-71	-203
-25	-3	-105
-10	61	-183
9	96	-169
29	94	-89
49	70	-56
60	49	-62
59	40	-4
44	43	79
23	42	52
0	19	79
-21	-25	69
-37	-78	29
-48	-114	36
-56	-120	-16
-59	-96	-27
-55	-56	40
-40	-20	65
-17	5	42
10	20	-19
34	41	-88
49	74	-114
52	120	-151
44	168	-196
31	195	-78
15	187	38
2	128	93
-8	27	137
-15	-104	91
-21	-233	83
-26	-326	-58
-28	-351	-188
-30	-294	-214
-26	-174	-111
-18	-29	85
-2	89	84
17	142	105
36	129	65
51	79	-45
56	34	-135
50	26	-201
36	56	-135
17	94	-105
-3	102	-11
-22	59	112
-39	-18	168
-56	-91	130
-69	-124	40
-72	-103	-26
-63	-51	-132
-43	-3	-181
-14	14	-241
15	3	-132
37	-11	-115
50	1	-81
54	48	-11
52	108	-48
44	145	149
36	131	179
23	66	90
2	-21	-80
-24	-94	-173
-47	-122	-87
-64	-108	-38
-70	-74	136
-63	-47	216
-46	-36	254
-24	-31	215
-3	-11	112
17	37	-64
33	104	-403
44	164	-326
52	182	-54
54	147	-5
48	68	68
33	-24	22
13	-99	-86
-10	-139	-81
-31	-142	-147
-49	-127	-208
-64	-109	-136
-72	-97	-88
-72	-87	-97
-62	-69	-98
-44	-37	-16
-16	9	91
13	57	118
40	93	89
63	103	57
77	83	53
80	45	57
74	4	52
57	-23	43
31	-29	18
1	-19	-4
-30	-5	-41
-56	-7	-45
-69	-28	-33
-69	-62	-46
-58	-88	-5
-39	-87	49
-20	-49	40
-1	18	13
13	101	7
22	174	9
28	224	7
30	237	-97
29	206	-138
25	135	-77
23	25	-77
20	-108	-79
18	-228	-96
8	-301	-4
-10	-303	-19
-35	-230	-111
-58	-114	-122
-69	-8	-142
-59	41	-40
-30	31	32
8	-17	109
40	-51	168
54	-34	176
50	35	144
34	123	6
20	171	-196
16	155	-339
16	72	-360
15	-26	-269
-1	-94	96
-31	-101	276
-64	-63	245
-86	-23	222
-86	-4	49
-60	-15	-117
-24	-21	-275
7	7	-275
25	77	-188
31	158	-35
35	194	95
44	153	145
62	37	138
75	-95	91
72	-179	137
46	-174	-11
1	-92	-189
-47	0	-210
-83	39	-156
-94	-4	-42
-83	-98	0
-59	-178	48
-34	-183	79
-14	-97	26
4	37	-163
20	150	-241
38	190	-63
51	150	-35
59	72	-9
52	11	45
36	0	20
14	27	29
-6	57	13
-20	49	12
-31	-3	-35
-41	-76	-96
-52	-125	-81
-59	-124	40
-58	-80	77
-45	-14	106
-20	35	149
8	55	18
32	52	-47
47	49	9
52	58	41
54	71	-88
54	74	-198
52	48	-243
41	-1	-193
19	-53	56
-11	-85	225
-44	-83	203
-70	-60	126
-78	-36	38
-68	-30	-112
-47	-40	-246
-21	-49	-270
0	-34	-188
16	11	-157
28	66	-110
40	106	-1
49	104	13
55	63	87
49	2	138
32	-48	119
5	-64	41
-23	-54	-2
-47	-37	-52
-60	-36	-113
-62	-56	-62
-60	-85	-83
-52	-94	-12
-41	-66	24
-28	-8	-22
-8	65	-21
12	117	34
34	135	59
50	118	-1
58	81	24
58	43	10
51	13	32
38	-11	26
20	-36	18
0	-60	81
-25	-79	155
-50	-75	192
-70	-46	52
-79	-10	-172
-68	11	-252
-44	-5	-234
-6	-54	-381
30	-118	-363
55	-153	-136
64	-127	-36
56	-48	-50
40	55	-115
23	131	-44
12	143	31
5	89	63
-1	-2	108
-14	-80	60
-34	-113	97
-56	-93	133
-71	-44	138
-75	0	83
-59	17	-27
-34	13	-35
-3	10	-64
24	30	1
42	80	133
51	139	156
55	180	94
56	174	-155
52	124	-449
39	48	-472
18	-24	-268
-14	-68	-134
-49	-83	-59
-79	-78	14
-94	-69	81
-88	-74	131
-63	-88	81
-28	-106	27
10	-113	138
41	-104	272
60	-70	224
67	-19	138
65	41	93
58	97	14
50	128	-151
41	122	-390
31	77	-418
13	8	-218
-11	-61	16
-40	-105	112
-65	-112	-13
-81	-90	-115
-81	-52	-108
-66	-21	-39
-43	2	-52
-18	20	5
4	45	149
22	82	120
37	116	127
51	127	151
64	101	147
69	41	75
62	-27	-56
40	-75	-201
5	-83	-197
-34	-61	-119
-66	-33	-119
-83	-31	-27
-84	-57	-11
-69	-98	-7
-48	-120	13
-27	-97	-70
-7	-33	-122
11	47	-86
28	106	-52
44	125	-23
58	106	10
62	76	18
57	60	112
42	66	232
20	81	237
-4	72	111
-26	28	-113
-44	-47	-255
-57	-123	-282
-64	-166	-264
-64	-158	-101
-54	-108	51
-35	-49	47
-6	-11	28
26	-1	-79
53	-4	-31
69	5	41
69	44	-70
55	114	-63
32	179	30
6	210	46
-19	182	93
-37	99	103
-49	-15	40
-54	-128	99
-54	-210	-68
-51	-251	-194
-42	-241	-124
-30	-190	-142
-11	-112	-160
14	-21	-153
40	58	-11
65	106	108
84	111	93
91	80	53
82	31	21
57	-4	-66
22	-9	-172
-16	10	-98
-50	32	-18
-75	30	-36
-82	-7	1
-78	-65	46
-65	-111	106
-52	-117	79
-36	-74	10
-21	1	-49
0	68	-15
22	106	-7
46	103	-19
64	77	80
68	55	20
61	51	-55
40	62	-164
12	62	-147
-16	35	-109
-40	-23	-204
-57	-90	-147
-70	-137	-49
-76	-144	52
-71	-108	104
-58	-52	189
-37	0	278
-8	29	173
23	38	34
48	41	-20
65	51	-201
71	72	-427
68	93	-453
54	93	-183
36	67	100
12	16	149
-15	-43	199
-41	-92	224
-62	-112	285
-71	-105	196
-66	-76	13
-49	-36	-51
-27	11	-234
-5	60	-328
10	108	-369
14	151	-399
17	171	-145
20	153	-10
31	86	33
45	-21	129
59	-139	103
62	-233	132
49	-268	69
20	-237	-34
-21	-157	-94
-57	-62	-41
-81	3	39
-82	22	55
-62	1	112
-32	-27	112
0	-30	81
23	10	-2
38	86	-157
44	165	-263
44	213	-59
42	209	90
34	158	55
22	74	126
6	-11	122
-10	-84	83
-24	-133	14
-32	-158	-34
-38	-159	-171
-40	-132	-314
-40	-86	-173
-40	-25	-123
-34	27	-68
-21	57	37
2	59	-51
27	40	-78
49	26	-108
59	33	-91
57	62	64
41	96	132
19	108	152
-4	84	177
-26	23	138
-44	-48	11
-58	-106	-124
-65	-128	-165
-62	-120	-130
-48	-95	-44
-27	-64	-20
-2	-34	-145
18	4	-167
31	53	-76
36	106	-75
36	142	-42
36	137	-6
39	82	8
39	-6	82
33	-89	155
16	-130	160
-11	-114	78
-40	-57	-37
-64	-2	-147
-74	17	-134
-63	-14	-39
-38	-72	-35
-7	-122	-7
23	-119	6
41	-59	-25
51	32	-70
49	115	-107
45	150	-77
42	129	39
40	68	176
35	6	175
20	-32	42
-2	-37	-126
-32	-23	-138
-60	-10	-65
-81	-11	-59
-88	-24	-17
-78	-36	-25
-58	-32	-105
-32	-11	-84
-6	18	-93
19	41	-107
40	50	-67
56	46	3
64	41	98
60	41	108
44	43	39
22	35	-58
-2	5	-104
-24	-47	-190
-39	-109	-166
-48	-154	-116
-54	-164	-78
-58	-135	56
-59	-82	32
-50	-29	53
-32	9	82
-3	25	-2
28	33	-6
56	45	46
69	70	107
69	100	204
57	118	233
37	114	142
19	82	56
1	35	-38
-15	-14	-130
-31	-48	-238
-46	-65	-264
-58	-74	-203
-62	-78	-200
-57	-78	-106
-42	-67	-71
-20	-44	-77
6	-6	-14
31	40	-9
50	82	7
62	112	-21
63	124	-24
51	131	-4
27	135	69
-3	131	186
-32	106	164
-51	34	126
-54	-80	64
-45	-219	-84
-30	-334	-282
-18	-378	-290
-14	-319	-151
-14	-174	-92
-11	4	35
2	148	75
28	205	10
58	177	-28
80	97	-4
84	22	79
66	-4	115
31	15	160
-7	52	196
-41	64	211
-60	35	107
-69	-23	-115
-71	-72	-257
-67	-80	-199
-59	-40	-115
-40	19	-22
-12	59	39
23	57	-42
56	17	-177
78	-24	-337
80	-34	-195
64	-3	61
40	52	47
13	92	-120
-7	86	-162
-23	35	-114
-36	-37	-141
-52	-97	-31
-68	-121	49
-81	-111	26
-86	-90	-13
-75	-76	-40
-49	-74	-30
-16	-66	-69
17	-37	80
46	19	196
67	89	158
77	139	111
78	150	9
66	119	-5
46	69	-39
18	30	-119
-15	13	-96
-44	11	25
-61	-3	118
-65	-46	64
-56	-117	-32
-39	-178	-46
-23	-192	-68
-10	-135	-130
-2	-21	-25
6	104	123
19	185	152
37	189	141
56	123	51
68	33	-127
66	-35	-289
46	-53	-378
17	-34	-256
-15	-13	-109
-40	-27	-61
-54	-84	20
-60	-154	124
-58	-198	175
-53	-177	126
-44	-95	58
-31	15	-72
-12	108	-128
14	153	-56
36	149	59
50	121	29
54	103	-35
46	98	-9
32	98	-17
18	68	-30
4	6	-51
-11	-76	-9
-29	-136	30
-53	-142	41
-75	-96	66
-85	-26	55
-72	10	-10
-42	-13	-135
2	-84	-185
42	-153	-178
68	-159	-205
74	-78	-104
62	63	-7
47	194	71
36	244	43
31	194	-16
25	68	-7
8	-62	-52
-20	-137	26
-54	-134	11
-85	-81	-4
-95	-29	-5
-84	-15	-15
-56	-40	19
-25	-69	60
2	-64	181
19	-11	181
31	76	-3
41	149	-225
53	173	-301
62	140	-289
61	77	-84
45	11	120
16	-26	113
-16	-37	171
-44	-39	66
-60	-47	-177
-62	-68	-276
-55	-87	-111
-45	-89	12
-34	-62	-63
-21	-17	1
-3	34	-25
17	75	22
37	100	75
50	120	-6
52	137	38
41	149	59
24	134	59
7	84	-26
-6	-7	-101
-13	-123	10
-16	-228	108
-21	-286	90
-28	-280	-28
-37	-216	-84
-42	-124	20
-36	-34	26
-18	27	-114
9	59	-135
37	68	-82
62	74	-68
75	82	-134
72	91	-55
56	93	120
31	78	30
3	43	-79
-28	-4	-230
-52	-50	-323
-69	-86	-217
-77	-97	-92
-76	-89	-23
-65	-66	-15
-49	-38	25
-28	-12	96
-4	15	149
18	41	127
40	71	130
54	101	104
63	122	72
62	129	37
51	112	-24
34	71	-98
11	14	-153
-11	-45	-112
-33	-94	-27
-50	-126	15
-63	-136	38
-68	-127	51
-66	-100	24
-54	-58	-5
-35	-1	-31
-12	63	91
17	121	155
41	157	41
61	151	-3
72	104	-28
72	25	-159
62	-56	-181
40	-113	-14
12	-133	-36
-18	-120	-131
-44	-93	-183
-61	-72	-122
-66	-68	-96
-61	-72	-190
-47	-69	-174
-29	-43	-141
-7	7	39
16	68	189
36	121	181
52	152	168
58	155	50
54	137	-182
41	103	-211
22	57	-52
2	2	-4
-18	-58	32
-35	-114	62
-48	-145	84
-60	-137	39
-69	-96	5
-70	-38	40
-60	4	70
-40	10	24
-10	-19	-8
20	-56	-109
46	-67	-193
61	-34	-48
63	40	2
57	119	-67
46	161	-84
34	138	179
18	65	242
-1	-25	2
-26	-92	-129
-52	-107	-160
-71	-80	-198
-81	-32	-238
-72	-1	-193
-51	6	-120
-21	-4	54
8	-13	100
32	3	145
48	39	61
58	81	-44
60	104	-80
58	96	-171
47	56	-89
27	3	-40
0	-48	66
-30	-87	133
-54	-108	78
-68	-116	108
-69	-110	80
-60	-92	-8
-47	-61	-91
-28	-21	-147
-6	15	-60
17	42	5
40	56	-33
59	69	98
67	93	169
60	134	85
41	182	35
13	199	-47
-10	156	-36
-23	37	-106
-22	-131	-210
-15	-296	-211
-12	-388	-249
-16	-361	-311
-32	-230	-210
-46	-44	-14
-50	115	28
-37	195	101
-10	187	91
23	124	-6
46	65	105
54	43	101
50	53	30
38	58	101
31	27	102
26	-49	16
18	-140	-156
0	-192	-178
-29	-174	58
-64	-95	172
-92	2	60
-97	63	-27
-77	66	-27
-39	30	-45
5	2	-139
38	13	-241
56	68	-136
62	132	-35
64	154	-7
62	110	24
56	18	-27
38	-64	48
8	-96	80
-34	-60	-7
-70	8	-119
-93	53	-95
-93	43	60
-70	-23	12
-40	-100	21
-11	-136	-5
10	-102	-30
23	-15	64
34	81	37
46	134	22
59	125	2
65	76	-147
61	18	-289
42	-9	-201
9	-6	-112
-28	8	13
-61	5	150
-80	-33	76
-86	-95	68
-77	-152	16
-58	-170	-112
-36	-140	-147
-11	-71	28
15	8	237
40	71	222
63	103	135
81	102	44
87	82	-116
81	57	-368
59	39	-379
30	25	-112
-5	8	93
-37	-14	66
-61	-45	-54
-77	-78	16
-80	-103	-11
-75	-113	-222
-64	-102	-167
-50	-77	36
-32	-36	-12
-8	6	-106
18	45	-95
44	76	-89
64	95	44
72	100	158
68	91	210
51	71	309
27	41	215
1	13	44
-23	-11	10
-41	-23	-101
-53	-24	-223
-61	-23	-223
-59	-23	-211
-49	-32	-140
-30	-44	-18
-5	-51	64
22	-41	93
44	-12	48
54	29	-18
56	68	-40
48	90	-127
37	83	-95
25	46	-64
11	-1	-40
-6	-45	-80
-27	-72	-120
-52	-68	76
-78	-38	120
-94	8	183
-97	54	147
-82	81	120
-46	71	22
0	20	-170
49	-56	-179
90	-131	-171
112	-164	-172
109	-130	-232
84	-35	-161
44	83	-101
5	162	12
-24	158	34
-38	52	13
-37	-109	87
-34	-261	101
-34	-333	72
-41	-291	-3
-48	-163	59
-49	-7	60
-34	113	-54
-7	163	-119
26	153	-32
52	121	-12
65	106	-26
61	119	87
44	140	129
24	136	71
4	87	-43
-13	-2	-108
-25	-96	-107
-38	-159	-159
-48	-171	-139
-58	-136	16
-60	-84	69
-56	-36	62
-43	-7	36
-23	10	5
1	28	-166
25	56	-281
46	90	-129
59	113	-49
61	117	-8
51	94	83
31	58	126
9	23	68
-12	-2	-4
-30	-18	-63
-43	-33	-46
-53	-53	-82
-58	-78	-94
-60	-98	22
-55	-100	130
-41	-79	164
-17	-35	-18
13	14	-117
41	58	-94
62	86	-125
69	96	-160
67	92	-115
53	76	7
33	51	49
11	18	9
-14	-21	-53
-35	-63	-136
-54	-97	-89
-65	-113	62
-67	-107	52
-56	-81	-9
-39	-44	-16
-15	-8	-44
9	20	58
28	40	54
42	50	15
52	56	50
57	60	46
57	60	140
50	55	89
38	41	8
16	20	-75
-8	-8	-147
-35	-41	-92
-56	-70	-135
-70	-92	-70
-76	-93	24
-70	-71	-79
-58	-32	-177
-39	16	-158
-15	50	-124
13	58	-44
42	33	59
68	-8	39
83	-46	101
80	-55	136
59	-23	59
23	35	-35
-18	94	-32
-56	116	62
-78	82	-195
-81	-7	-182
-63	-118	-22
-33	-207	-157
-4	-239	-170
18	-192	-167
26	-86	-5
26	44	95
21	160	142
20	229	187
24	244	87
33	213	120
41	154	108
42	76	-15
34	-12	-99
18	-111	-117
-2	-206	-133
-23	-277	-215
-41	-297	-217
-58	-248	-82
-70	-137	-7
-69	-1	21
-55	113	69
-26	166	89
11	148	85
48	84	82
74	18	74
80	-16	25
68	-6	-85
44	24	-23
18	44	19
-6	33	-62
-27	-7	-20
-45	-53	-48
-62	-77	-115
-77	-60	-63
-80	-14	-14
-69	40	-7
-49	85	46
-22	101	32
7	97	-50
32	78	-156
50	55	-252
65	31	-139
72	6	-49
69	-20	-83
53	-38	-58
25	-48	37
-10	-49	113
-43	-49	26
-67	-60	-36
-76	-83	13
-69	-108	16
-56	-121	39
-43	-103	68
-28	-56	-4
-11	9	-13
13	66	11
39	101	54
63	105	101
78	90	-17
74	75	-92
53	63	-135
23	58	-111
-6	43	-176
-31	10	-215
-47	-38	-80
-58	-86	-9
-65	-113	57
-68	-107	29
-62	-70	16
-45	-20	2
-19	27	1
13	60	34
39	77	61
53	86	46
57	91	-37
52	91	-113
46	78	-12
41	50	152
33	10	96
16	-35	106
-10	-72	65
-39	-99	-137
-62	-111	-262
-71	-116	-246
-63	-113	-118
-40	-102	11
-15	-80	122
6	-40	182
17	9	110
23	65	78
28	119	-18
31	169	-230
34	213	-232
30	239	-95
19	230	-102
4	160	-75
-10	23	22
-14	-164	-14
-11	-348	-1
-5	-460	-13
-10	-460	4
-23	-332	21
-42	-133	-71
-53	62	-151
-44	181	-154
-12	195	-56
32	132	42
72	53	113
93	12	166
86	23	186
58	65	159
22	94	80
-8	80	-57
-31	24	-168
-46	-41	-245
-58	-84	-224
-71	-88	-114
-82	-59	-64
-80	-25	-32
-63	-4	44
-35	7	137
0	18	152
29	45	85
49	88	42
60	128	-81
63	145	-276
60	129	-250
50	85	-114
33	28	-1
8	-21	135
-20	-62	63
-46	-99	-97
-61	-139	-36
-64	-176	-23
-60	-192	-14
-49	-168	135
-40	-99	62
-28	-6	-34
-15	81	-96
7	127	-130
34	127	-72
59	96	-49
77	61	-11
74	49	-54
55	57	-86
25	68	-79
-6	57	-16
-32	14	52
-50	-51	68
-59	-110	-10
-63	-136	64
-63	-123	126
-56	-81	36
-37	-31	-24
-9	6	-74
21	28	21
48	41	-113
62	59	-66
65	81	102
54	100	72
40	100	38
22	80	25
2	47	-33
-20	13	-224
-44	-13	-149
-62	-35	-113
-72	-64	-189
-67	-111	-132
-49	-163	-60
-23	-196	47
0	-186	49
14	-115	-27
20	-3	-22
21	112	39
26	183	3
37	183	-71
52	123	-134
62	33	-80
59	-42	82
39	-80	66
5	-76	56
-32	-50	21
-65	-26	8
-85	-9	2
-90	7	-112
-80	35	-72
-59	77	20
-31	113	-3
4	118	-1
34	83	27
60	19	12
74	-41	55
74	-65	142
59	-50	174
41	-16	99
25	-8	21
15	-55	-56
8	-149	-280
-1	-242	-389
-18	-278	-264
-41	-228	-111
-61	-107	76
-71	29	233
-60	120	241
-30	139	87
8	105	-115
44	65	-215
65	61	-224
68	103	-198
57	152	-163
38	162	-47
18	110	34
-1	11	136
-20	-85	174
-40	-133	144
-60	-113	7
-75	-56	-279
-79	-4	-291
-69	2	-268
-49	-32	-98
-23	-72	111
2	-80	121
23	-31	187
40	52	120
53	131	72
60	168	43
60	148	51
50	96	142
28	39	145
2	6	-19
-28	-12	-194
-48	-28	-283
-63	-60	-310
-66	-110	-178
-62	-151	-66
-52	-160	-8
-37	-120	-80
-17	-50	-99
8	26	-8
33	75	26
56	85	53
68	70	101
69	51	168
60	45	192
42	49	162
22	53	161
-1	40	166
-23	6	49
-45	-31	-79
-63	-56	-89
-80	-50	-187
-86	-16	-327
-81	31	-359
-63	64	-331
-33	60	-175
5	19	-34
44	-46	39
79	-106	50
99	-133	44
100	-112	104
80	-49	107
44	24	42
6	78	-1
-26	79	-27
-45	21	-22
-52	-75	54
-51	-165	-12
-47	-211	-31
-44	-192	124
-40	-117	161
-29	-19	48
-12	62	-116
14	103	-190
37	105	-234
54	90	-273
58	82	-142
49	90	3
32	101	53
10	101	103
-11	72	68
-34	26	3
-55	-17	-60
-72	-41	-187
-81	-31	-159
-75	-3	52
-54	21	124
-22	22	137
15	0	33
46	-31	-3
65	-49	49
74	-42	1
71	-12	81
62	26	91
46	51	44
27	58	-71
4	47	-268
-19	24	-226
-36	-5	-11
-44	-40	151
-45	-83	134
-40	-122	113
-38	-145	91
-36	-131	52
-36	-78	-57
-30	9	-290
-12	94	-449
16	148	-437
44	148	-211
66	102	7
69	41	11
48	-1	85
12	0	181
-28	32	22
-58	64	-67
-70	52	-18
-63	-23	44
-44	-152	93
-22	-286	183
-2	-362	238
9	-341	163
13	-216	21
12	-32	-113
16	140	-198
26	243	-215
41	244	-83
57	171	-54
62	78	-97
54	15	-70
28	2	16
-7	28	29
-42	51	-24
-65	38	-90
-72	-13	-169
-68	-80	-140
-57	-118	-107
-47	-105	-65
-37	-45	47
-24	28	82
-3	80	161
25	95	311
54	80	260
75	60	134
79	55	8
65	67	-140
39	76	-300
9	57	-327
-18	10	-238
-38	-56	-160
-50	-109	48
-60	-127	154
-64	-103	161
-64	-52	155
-56	-5	52
-42	31	-20
-21	51	-137
1	70	-213
22	93	-181
40	112	-125
55	105	-62
68	54	62
74	-32	65
68	-129	-66
46	-192	-102
13	-194	-32
-28	-135	85
-60	-49	48
-79	16	13
-76	31	-32
-58	-5	-113
-36	-56	7
-16	-82	95
-3	-50	78
6	30	70
14	127	-48
25	201	-94
37	221	-2
47	182	-36
49	101	-9
41	3	118
26	-93	99
8	-175	-105
-11	-232	-211
-26	-254	-219
-40	-233	-306
-50	-171	-160
-55	-79	50
-50	14	45
-34	80	41
-6	106	32
28	101	26
57	88	51
75	86	32
72	104	19
54	128	34
25	136	-58
-6	116	-77
-32	72	85
-52	25	174
-64	-8	182
-71	-23	253
-71	-33	172
-63	-59	-162
-43	-105	-462
-15	-158	-476
17	-184	-320
48	-160	-189
68	-82	12
75	25	196
69	116	260
54	154	222
36	131	124
18	67	53
2	-2	37
-15	-48	-83
-32	-60	-205
-51	-54	-244
-65	-47	-242
-74	-51	-108
-68	-60	-81
-54	-58	-92
-32	-34	-41
-6	11	37
17	59	58
35	93	57
46	101	129
51	87	19
49	62	-55
40	45	75
26	38	147
8	32	1
-13	17	-202
-34	-19	-246
-50	-66	-95
-62	-116	76
-67	-143	69
-65	-137	26
-54	-102	29
-33	-50	-9
-4	-2	-195
28	30	-270
58	41	-184
79	39	-97
82	34	45
69	33	87
44	40	124
15	47	183
-15	51	166
-42	44	105
-63	30	17
-78	12	-22
-82	-12	-37
-71	-33	-11
-47	-57	7
-11	-79	-24
30	-93	-98
66	-92	-36
86	-66	21
87	-22	-159
71	35	-323
48	81	-223
26	101	-100
10	84	-37
-3	40	249
-16	-11	316
-35	-48	321
-59	-57	300
-79	-44	91
-86	-26	-102
-75	-20	-292
-48	-30	-395
-14	-48	-331
19	-56	-239
41	-36	-256
51	12	-318
51	75	-234
46	122	68
42	133	143
36	103	116
26	38	104
8	-30	43
-16	-81	103
-44	-97	169
-67	-81	194
-80	-42	155
-80	6	55
-66	41	-34
-45	58	-112
-16	47	-191
14	12	-76
45	-38	115
72	-79	99
87	-88	36
88	-56	-64
74	7	-128
46	68	-81
15	96	-36
-14	65	13
-37	-13	-29
-52	-105	-134
-60	-165	-172
-64	-164	-89
-63	-108	-6
-55	-26	-132
-38	34	-103
-14	55	16
15	40	7
39	19	28
54	20	17
57	53	13
50	103	-12
37	135	33
22	129	30
7	83	-68
-12	15	-5
-31	-42	56
-51	-74	37
-68	-77	72
-76	-65	58
-74	-49	8
-60	-27	-17
-41	6	-42
-18	58	-5
6	120	38
31	165	-8
56	163	-113
78	101	-72
91	-7	23
91	-125	-81
75	-208	-123
44	-233	-178
7	-196	-221
-28	-134	-159
-53	-77	-100
-68	-47	65
-70	-47	119
-63	-53	59
-51	-45	16
-32	-6	-4
-7	56	-21
18	120	-8
42	165	72
62	174	99
71	155	46
66	116	16
47	75	38
21	38	-64
-8	6	-97
-36	-31	-14
-56	-81	-147
-68	-135	-218
-70	-182	-154
-63	-196	-104
-51	-170	32
-35	-100	-12
-17	-7	-55
5	72	30
27	120	40
48	121	64
62	90	-74
64	48	-67
52	23	60
30	21	162
2	31	185
-24	34	94
-43	15	-57
-53	-22	-361
-57	-63	-341
-55	-87	-124
-49	-77	-87
-39	-41	-93
-25	4	-41
-4	34	-30
18	40	26
38	27	129
51	12	237
53	10	251
49	23	184
37	42	181
25	47	19
10	27	-246
-5	-20	-395
-23	-78	-233
-41	-122	-65
-54	-139	-66
-63	-121	89
-59	-79	128
-46	-25	152
-23	25	178
1	66	1
25	102	-179
42	132	-262
50	158	-155
52	161	-25
48	134	22
41	70	71
32	-20	4
19	-114	-106
2	-182	-120
-19	-200	-147
-41	-170	-52
-58	-108	-10
-67	-43	-70
-59	-1	72
-38	12	-10
-8	10	-114
20	19	-94
37	54	-40
41	120	45
34	189	49
25	228	81
20	209	64
21	130	97
20	17	139
11	-87	163
-13	-144	130
-45	-147	100
-70	-112	49
-76	-82	-85
-55	-89	-63
-13	-133	-92
32	-186	-164
64	-202	-129
71	-153	-248
56	-48	-289
34	71	-198
19	151	-130
16	158	43
22	98	98
23	13	-18
9	-48	-68
-21	-58	-74
-56	-27	-90
-86	10	-35
-93	24	97
-79	0	111
-52	-37	45
-24	-55	49
-2	-30	100
15	33	26
28	105	5
42	153	84
57	157	64
65	126	-136
61	79	-249
42	36	-190
10	1	-241
-23	-36	-227
-52	-83	-122
-72	-135	7
-80	-173	7
-76	-176	82
-64	-134	136
-48	-63	87
-27	6	115
-3	49	22
20	57	77
41	49	125
56	45	100
64	65	34
64	103	-52
57	131	0
42	131	-121
20	92	-205
-6	27	-83
-36	-38	-26
-60	-79	-96
-76	-93	-200
-76	-96	-140
-61	-101	11
-37	-114	109
-12	-120	256
14	-102	251
31	-46	140
43	35	-31
52	114	-282
57	156	-264
56	147	-179
46	97	-133
28	35	15
3	-11	9
-26	-31	-83
-50	-33	-225
-68	-33	-188
-80	-41	77
-83	-55	106
-75	-67	138
-55	-64	142
-22	-50	66
24	-34	-25
71	-27	-202
107	-28	-153
118	-24	-44
101	-5	110
62	32	237
20	70	167
-12	82	81
-28	53	-36
-31	-8	-129
-34	-78	-135
-43	-122	-145
-60	-119	-46
-76	-77	166
-77	-23	104
-56	19	-32
-18	36	-135
23	43	-313
54	52	-265
68	79	-82
63	112	51
50	129	120
36	114	196
25	63	185
14	1	130
-1	-47	16
-23	-62	-111
-47	-49	-195
-67	-30	-190
-75	-27	-89
-68	-45	-217
-53	-72	-248
-32	-87	-138
-10	-66	-53
12	-22	85
32	25	213
50	55	233
61	52	91
63	32	78
55	7	112
34	-1	12
7	5	-193
-22	7	-213
-44	-6	-87
-60	-40	5
-67	-81	28
-68	-103	-176
-61	-87	-270
-48	-31	-185
-29	40	-58
-5	101	56
20	121	187
44	96	272
65	37	129
81	-24	16
83	-64	-113
71	-72	-165
44	-53	-85
7	-25	-64
-33	-2	-30
-67	4	-101
-87	-5	-81
-89	-16	16
-76	-21	-27
-51	-16	6
-23	-8	76
6	-4	61
34	-11	83
59	-23	170
77	-22	130
78	10	-42
60	77	-171
26	161	-116
-12	223	-157
-42	219	-189
-51	129	-87
-42	-29	-109
-23	-208	-55
-8	-333	-96
-10	-354	-32
-24	-264	81
-42	-112	99
-42	38	152
-19	122	84
25	123	52
72	67	60
102	10	4
103	0	-111
71	44	-160
28	112	-75
-12	152	-37
-36	125	-78
-45	38	1
-46	-71	87
-50	-150	123
-59	-164	116
-68	-121	63
-70	-52	-87
-55	-1	-196
-27	18	-224
7	14	-142
33	13	27
45	35	101
46	75	82
41	106	-140
37	105	-141
33	65	59
26	3	113
12	-51	77
-12	-75	-9
-40	-68	-114
-64	-49	-147
-78	-43	-199
-76	-55	-178
-59	-74	-90
-35	-72	-153
-10	-42	-119
15	15	-46
36	77	61
51	110	128
60	114	164
60	86	216
53	57	158
39	41	75
17	45	-99
-5	51	-107
-28	35	15
-47	-13	-63
-60	-87	-127
-68	-157	-214
-64	-192	-278
-53	-173	-126
-32	-95	-98
-10	13	-150
12	116	-57
30	180	196
43	194	216
54	154	164
64	84	210
70	4	7
67	-65	-134
53	-113	-132
26	-143	-37
-11	-157	43
-47	-159	69
-71	-145	-23
-79	-117	-122
-67	-69	-133
-44	-11	-162
-18	47	-126
4	91	5
19	110	66
28	113	24
34	106	53
37	103	64
40	104	24
38	102	6
27	84	33
8	37	104
-18	-32	69
-44	-109	6
-62	-170	-71
-68	-196	-159
-59	-184	-166
-36	-140	-173
-9	-81	-100
17	-20	-90
36	32	-76
46	71	23
51	100	92
50	118	158
48	130	218
39	137	236
23	145	101
-3	150	-47
-34	138	-143
-60	98	-201
-76	12	-115
-70	-110	7
-51	-242	-130
-24	-330	-228
-3	-339	-165
7	-254	-150
9	-101	-71
8	58	-97
13	164	-101
26	181	-42
46	123	46
58	39	76
55	-20	5
35	-26	11
4	6	0
-30	39	46
-57	37	57
-69	-8	126
-71	-74	294
-63	-116	326
-53	-105	233
-40	-42	50
-24	40	-158
0	106	-391
27	132	-550
49	123	-479
63	100	-300
60	83	-121
47	71	181
27	54	260
9	12	164
-5	-52	178
-14	-117	80
-22	-153	-44
-33	-137	-44
-46	-81	70
-59	-12	49
-61	30	-139
-47	30	-282
-20	-1	-272
17	-35	-242
48	-36	-228
68	-3	-12
68	49	168
57	85	211
36	83	240
18	38	133
3	-22	16
-7	-66	1
-17	-81	65
-29	-65	-70
-44	-46	-235
-59	-39	-162
-68	-45	-69
-70	-49	-42
-61	-26	-65
-42	33	80
-18	110	169
14	171	158
44	183	162
74	131	64
91	40	-90
90	-48	-167
69	-96	-68
32	-90	-21
-10	-49	-12
-44	-17	-51
-59	-23	-83
-57	-69	-36
-43	-125	-55
-30	-147	-91
-24	-106	-118
-25	-13	-99
-26	91	-176
-13	154	-175
15	139	-50
54	65	12
86	-30	84
94	-94	58
74	-98	64
31	-52	132
-16	3	129
-52	23	63
-66	-6	9
-62	-71	4
-52	-131	-21
-43	-150	-159
-40	-111	-306
-35	-32	-272
-24	48	-119
-2	105	17
26	123	101
52	116	186
66	101	215
64	96	292
48	101	267
26	101	74
7	88	-20
-8	49	-176
-22	0	-236
-39	-53	-171
-55	-92	-193
-69	-112	-24
-75	-113	43
-63	-98	-76
-40	-70	-109
-10	-32	-33
21	16	20
44	66	-164
56	110	-67
59	131	127
52	123	47
41	87	-106
25	31	-302
6	-34	-229
-17	-92	-97
-41	-131	-141
-60	-153	16
-72	-148	171
-74	-123	124
-63	-84	119
-45	-36	-26
-21	8	-101
5	39	-107
29	53	-91
50	54	-2
63	47	-63
67	40	-1
61	35	51
46	33	-15
23	27	24
-1	10	109
-25	-13	115
-44	-39	-38
-55	-56	-34
-58	-59	109
-54	-47	-5
-45	-22	-138
-30	7	-181
-13	38	-2
6	59	118
24	72	93
39	79	245
48	81	112
48	88	-181
41	96	-391
26	104	-373
7	92	-158
-11	45	10
-22	-44	61
-27	-164	24
-24	-276	53
-21	-333	-19
-22	-297	-37
-23	-174	6
-25	-6	3
-16	133	-11
7	193	16
39	161	90
68	72	91
83	4	57
69	2	42
35	67	0
-4	143	-48
-34	159	-75
-38	69	-111
-25	-103	-58
-8	-275	-13
-2	-358	51
-17	-301	60
-39	-136	30
-58	51	23
-52	171	-69
-22	174	-97
21	95	-151
55	2	-48
66	-32	6
54	14	-50
27	102	101
4	165	160
-7	152	33
-7	68	-225
-10	-39	-294
-23	-112	-123
-49	-121	-222
-77	-78	-233
-91	-25	-23
-84	-3	58
-54	-14	155
-14	-33	242
21	-26	321
44	24	302
53	99	167
57	159	-42
57	169	-226
56	124	-320
46	44	-431
28	-28	-301
-4	-74	-242
-38	-89	-223
-67	-91	-160
-83	-99	-161
-81	-115	38
-66	-128	124
-46	-117	222
-25	-75	182
-4	-8	83
16	56	11
40	96	-128
61	104	-103
74	85	-85
72	61	-2
56	40	86
31	25	106
2	7	133
-21	-19	97
-38	-52	16
-48	-85	-39
-53	-99	14
-55	-92	93
-50	-64	56
-38	-30	-66
-17	3	-144
8	32	-114
33	59	-30
50	91	35
58	120	15
54	139	-10
43	132	36
28	92	2
11	22	-13
-5	-64	-12
-22	-139	-72
-36	-188	-106
-46	-196	-68
-54	-171	-14
-56	-122	14
-53	-61	85
-41	-4	112
-22	47	108
2	91	60
27	128	-10
48	157	-131
62	171	-289
63	168	-202
56	138	-2
37	85	-9
13	14	-119
-15	-60	0
-42	-126	137
-61	-175	60
-68	-202	-33
-60	-211	-84
-37	-202	-125
-4	-176	-196
25	-129	-268
44	-60	-96
47	22	57
40	101	213
31	155	403
28	170	201
31	147	97
34	106	-23
27	78	-263
1	76	-315
-38	97	-251
-81	113	-193
-108	89	-259
-106	3	-265
-80	-128	-215
-38	-262	-130
0	-340	-7
22	-320	101
29	-205	99
26	-36	112
27	117	101
38	202	59
56	198	86
69	127	64
66	44	102
43	-10	158
9	-17	134
-28	7	34
-54	27	-20
-64	18	-97
-61	-21	-126
-51	-65	45
-42	-84	124
-32	-56	93
-19	6	65
-2	77	-32
22	122	-35
44	129	-31
61	106	-63
63	74	-62
51	56	-227
29	57	-328
2	60	-128
-22	47	-2
-46	4	18
-64	-63	70
-77	-136	-19
-77	-185	-86
-63	-195	-50
-37	-163	30
-3	-98	38
28	-21	-11
49	52	42
58	106	64
57	133	-9
52	128	-68
46	96	-90
40	45	-76
28	-11	-104
10	-56	-103
-17	-86	3
-45	-96	-5
-67	-94	-32
-74	-88	14
-66	-76	62
-46	-62	99
-24	-38	142
-4	-1	151
12	49	70
25	100	7
40	136	35
56	145	6
69	118	5
71	65	8
58	3	-98
34	-51	-215
-1	-82	-355
-34	-85	-287
-62	-69	-169
-77	-52	-173
-81	-48	-171
-75	-60	-145
-62	-79	-50
-45	-88	-57
-22	-71	-13
4	-30	64
31	28	112
52	84	161
66	117	91
65	123	33
52	105	-17
31	70	72
7	26	133
-14	-21	59
-31	-69	2
-44	-117	-68
-52	-150	-66
-58	-159	-70
-55	-132	-58
-46	-77	-39
-28	-8	-46
0	55	-58
27	95	-34
52	110	74
67	110	41
72	102	77
69	91	168
58	74	51
40	45	-51
18	3	-42
-9	-41	-7
-38	-70	-121
-65	-69	-160
-84	-37	-75
-91	12	-108
-84	61	-152
-66	92	-137
-49	103	-89
-30	96	21
-10	75	16
18	39	-67
54	-18	-7
93	-92	-2
121	-167	-20
122	-216	-41
92	-219	-85
36	-173	11
-25	-99	151
-70	-40	208
-87	-24	247
-75	-51	319
-46	-93	278
-23	-108	1
-12	-67	-176
-10	22	-263
-7	122	-506
6	187	-413
28	189	-278
52	137	-141
63	67	32
51	22	-80
21	12	-91
-14	21	-96
-42	25	-47
-55	-2	100
-57	-52	132
-56	-103	82
-56	-120	34
-59	-96	-21
-56	-40	-50
-42	20	16
-15	59	112
20	74	137
49	75	102
67	79	63
70	95	-15
60	110	-87
46	110	-59
29	80	32
12	22	18
-10	-45	14
-32	-98	15
-54	-123	-38
-67	-124	-93
-68	-110	-109
-56	-93	29
-33	-75	-5
-8	-49	-94
16	-10	-26
32	41	61
45	91	126
55	122	77
60	124	61
59	98	34
46	57	-184
25	18	-424
-4	-7	-302
-34	-21	-100
-59	-29	-23
-75	-42	31
-76	-61	56
-62	-87	138
-40	-105	24
-14	-107	-83
15	-88	-127
36	-45	-100
46	13	-38
48	74	-25
41	125	121
33	150	164
24	135	115
20	82	31
15	5	-64
7	-77	-78
-11	-127	-67
-36	-131	-139
-64	-85	-179
-88	-11	-42
-93	51	-11
-75	67	-35
-35	25	-23
16	-54	-7
66	-131	54
97	-155	-7
103	-110	-104
85	-16	-128
52	82	-53
21	127	-23
0	97	-46
-12	7	34
-18	-93	164
-28	-148	213
-46	-133	124
-68	-64	1
-85	7	-157
-85	45	-245
-64	31	-209
-29	-8	-108
9	-34	-5
36	-14	105
50	51	101
50	126	24
44	169	92
38	153	138
33	90	4
24	19	-155
7	-23	-219
-21	-17	-349
-51	19	-298
-78	50	-108
-85	41	41
-71	-11	171
-43	-89	152
-7	-154	100
25	-170	107
47	-126	71
58	-38	22
60	58	-12
57	127	-12
51	149	42
43	114	-58
30	49	-172
11	-21	-86
-14	-64	59
-41	-77	91
-65	-61	232
-80	-40	208
-82	-34	-13
-66	-47	-96
-42	-71	-221
-12	-84	-405
15	-64	-492
34	-13	-278
44	51	-71
49	98	22
52	104	126
52	68	94
51	18	95
41	-23	125
22	-32	60
-5	-16	10
-34	1	42
-54	-10	116
-62	-52	59
-56	-109	-40
-43	-142	-66
-27	-123	-99
-12	-53	-109
2	39	-142
18	116	-135
36	145	-71
53	126	-52
64	81	-28
62	38	47
44	19	36
18	19	37
-13	21	133
-39	4	174
-56	-30	158
-64	-70	123
-66	-96	63
-62	-92	-90
-53	-64	-252
-39	-27	-238
-17	4	-195
10	24	-99
35	36	38
54	50	24
63	70	-46
59	87	-235
46	89	-265
28	63	-27
8	16	169
-12	-40	178
-31	-88	108
-48	-110	48
-58	-109	-69
-63	-90	-165
-58	-67	-228
-45	-49	-40
-25	-35	99
-2	-18	50
20	6	91
40	36	-23
54	68	-89
62	93	-79
60	103	-105
50	93	9
32	68	147
7	31	126
-20	-15	62
-44	-57	-77
-60	-96	-199
-69	-117	-172
-68	-118	-162
-59	-98	-38
-44	-64	27
-22	-25	31
4	11	118
30	39	112
52	59	46
67	74	-13
70	84	-79
62	86	-190
45	80	-151
23	58	5
0	23	-13
-23	-18	-4
-42	-59	39
-59	-88	-27
-68	-99	-2
-70	-95	48
-60	-79	7
-42	-55	5
-17	-26	-4
9	6	-110
31	40	-109
47	78	-32
54	109	60
56	124	91
51	117	132
39	89	155
23	43	85
1	-3	87
-20	-45	-31
-39	-78	-198
-49	-99	-284
-48	-118	-341
-40	-136	-299
-29	-149	-133
-20	-142	-13
-11	-110	-25
-2	-50	8
11	23	-4
27	91	-6
44	131	-7
56	134	44
54	108	99
35	67	16
3	30	-40
-31	4	-81
-59	-19	-78
-71	-45	0
-68	-85	56
-54	-124	56
-36	-149	36
-20	-135	-56
-5	-78	-81
9	8	49
27	97	99
45	155	137
63	170	155
74	143	77
69	97	87
53	52	-27
26	19	-238
-3	-4	-246
-32	-28	-206
-54	-56	-193
-67	-88	-165
-75	-111	-121
-71	-111	-37
-63	-88	158
-44	-46	234
-19	-4	166
10	29	121
38	50	48
59	63	-37
70	76	-167
68	85	-181
57	89	-152
36	80	-125
12	51	-89
-13	9	-56
-35	-36	69
-51	-72	123
-60	-98	96
-63	-107	54
-60	-106	31
-50	-95	-31
-32	-70	-183
-6	-35	-189
20	15	-82
42	65	35
58	104	105
64	119	76
60	106	24
46	77	-76
29	37	-115
10	6	-106
-8	-23	-66
-28	-45	-11
-46	-69	-7
-62	-93	43
-69	-106	25
-68	-102	-19
-53	-70	-28
-31	-20	-3
-5	41	-33
18	99	-89
33	139	-61
41	163	61
41	166	108
32	156	90
20	131	171
2	93	60
-15	30	-163
-32	-52	-316
-41	-149	-242
-43	-242	-32
-36	-307	-5
-25	-328	-44
-11	-297	-167
4	-222	-204
19	-119	-43
36	-21	22
53	48	-35
68	81	-32
76	78	-35
70	57	-2
56	37	36
32	32	69
6	40	107
-17	50	113
-36	52	162
-51	34	59
-63	2	-28
-70	-32	-30
-71	-49	-11
-61	-38	0
-43	-1	23
-16	55	-8
12	106	-22
35	142	50
49	150	-25
53	131	-101
48	96	-63
37	52	62
21	14	-60
1	-19	-263
-21	-42	-160
-43	-60	-197
-62	-70	-113
-75	-74	81
-76	-71	52
-63	-60	-13
-43	-44	-48
-19	-20	-31
8	7	-63
32	35	26
52	60	42
63	75	-68
65	80	-144
57	71	-129
42	50	21
21	20	29
-1	-15	2
-22	-49	34
-40	-80	64
-53	-99	64
-61	-105	69
-61	-97	6
-53	-77	-122
-36	-50	-127
-15	-21	6
9	3	78
31	23	72
44	38	1
52	50	-101
51	59	-76
46	61	-67
35	53	-38
20	32	96
1	2	143
-21	-34	59
-45	-60	-155
-64	-72	-260
-75	-64	-44
-74	-42	52
-56	-13	-2
-29	11	-56
5	24	-104
38	30	55
64	33	53
79	40	-76
78	53	16
65	66	90
42	69	37
17	51	-25
-7	14	-65
-27	-39	-83
-41	-95	-125
-53	-137	-150
-56	-160	-157
-56	-157	-109
-47	-135	-9
-34	-98	51
-15	-52	87
5	-1	51
20	55	-7
30	115	-56
35	174	63
36	228	91
32	254	-32
26	238	-95
16	170	-120
7	53	20
-5	-93	111
-18	-231	24
-28	-322	-19
-34	-341	-47
-37	-281	-114
-35	-166	-97
-28	-33	-96
-16	71	-88
0	134	-21
18	145	76
34	126	137
49	93	103
57	61	61
60	33	-40
54	3	-102
40	-27	-64
19	-52	-64
-11	-65	-128
-42	-62	-136
-70	-46	-155
-88	-29	-125
-89	-20	-95
-74	-20	-105
-45	-22	-23
-13	-15	55
16	9	49
36	45	-94
48	80	-137
52	95	-31
51	88	19
42	58	67
28	25	72
6	-6	83
-18	-27	155
-40	-42	190
-56	-57	191
-64	-68	187
-60	-74	169
-50	-60	-52
-31	-27	-349
-11	18	-318
13	59	-100
34	84	-119
52	85	-197
59	68	-93
56	47	113
44	34	129
29	31	100
12	28	105
-7	14	-81
-24	-16	-118
-44	-60	-64
-62	-102	64
-77	-123	132
-79	-112	77
-66	-65	-93
-42	-2	-244
-12	61	-189
14	100	-192
32	105	-252
42	72	-287
50	17	-193
58	-43	-31
64	-91	52
64	-106	68
48	-89	94
20	-53	104
-17	-19	129
-50	-5	156
-68	-20	41
-68	-51	-34
-55	-79	-41
-37	-79	-9
-20	-42	-17
-5	18	-58
10	80	24
27	117	39
48	116	8
64	89	-45
68	55	-99
54	37	-90
23	42	-15
-17	64	79
-54	85	35
-81	83	16
-91	50	28
-84	-12	18
-61	-88	-28
-29	-162	-102
8	-210	-91
40	-218	-94
64	-181	-81
70	-97	-35
64	7	39
51	104	74
40	159	123
35	156	145
33	106	72
27	37	10
8	-11	-149
-24	-17	-149
-63	11	-94
-97	47	-93
-108	55	-36
-95	21	5
-59	-47	43
-18	-114	59
18	-145	25
41	-123	-127
53	-56	-72
57	25	4
58	89	-49
57	114	65
50	101	18
36	58	-97
11	5	-251
-16	-52	-320
-41	-104	-156
-59	-141	17
-68	-159	129
-71	-142	91
-67	-96	-94
-55	-29	-196
-36	35	-100
-10	77	32
20	89	168
46	76	187
64	59	225
69	57	155
61	72	6
48	91	-28
31	94	-140
14	66	-215
-6	9	-145
-30	-56	-85
-56	-106	-155
-81	-125	-97
-91	-111	-19
-83	-77	70
-56	-38	54
-22	-10	-35
13	15	-43
37	37	-64
51	62	-68
55	89	-65
54	105	26
50	103	-25
42	78	-107
29	37	-109
7	-11	-32
-19	-52	-9
-46	-81	34
-65	-92	130
-72	-89	127
-69	-71	126
-56	-40	36
-38	-2	5
-16	39	-33
9	69	-132
35	79	-138
60	63	-9
77	30	2
83	-4	-47
72	-28	-5
50	-35	-34
20	-35	-3
-8	-40	104
-31	-57	66
-48	-87	-25
-59	-106	24
-67	-97	53
-70	-45	70
-69	38	-18
-57	122	-20
-32	169	-6
4	155	-197
42	81	-273
77	-28	-222
96	-120	-123
97	-159	-18
77	-127	58
42	-47	91
7	38	97
-27	85	3
-49	66	-167
-60	-4	-215
-64	-89	-132
-62	-141	-30
-58	-132	53
-50	-69	76
-34	16	52
-10	81	5
23	100	-5
52	76	28
71	34	-17
75	10	-42
60	15	-25
34	43	19
7	65	4
-15	60	-18
-29	17	43
-40	-46	-28
-51	-101	-58
-62	-124	-66
-71	-103	-196
-68	-57	-132
-51	-6	-32
-19	32	-92
19	54	-66
51	67	31
69	79	164
74	95	281
65	102	324
51	96	249
36	66	99
22	22	-86
2	-24	-268
-22	-61	-361
-50	-81	-368
-72	-87	-282
-84	-86	-63
-81	-82	90
-63	-74	49
-38	-53	-70
-12	-19	-144
11	28	9
30	75	89
44	103	19
56	96	-6
63	59	112
62	5	224
52	-45	86
32	-72	-171
4	-72	-498
-28	-53	-420
-58	-33	-51
-80	-27	164
-89	-39	182
-81	-65	115
-52	-88	179
-12	-92	225
32	-61	143
69	-7	83
90	59	-43
90	117	-230
72	142	-178
48	132	-180
25	93	-165
6	38	31
-8	-8	-10
-23	-40	-60
-42	-51	-113
-65	-53	-123
-85	-55	-102
-91	-64	-19
-80	-78	111
-54	-84	-5
-22	-69	91
9	-29	124
31	33	70
44	105	103
50	159	69
52	174	-65
52	139	-298
48	61	-366
35	-36	-289
14	-121	-97
-16	-163	36
-48	-154	134
-75	-102	141
-87	-38	105
-81	6	108
-57	12	44
-23	-16	21
15	-51	-6
46	-68	-21
70	-52	11
82	-6	33
84	45	56
77	83	89
62	90	12
39	71	-147
8	38	-136
-24	6	-43
-57	-23	-68
-81	-48	-59
-89	-72	-21
-86	-93	-47
-69	-96	-114
-47	-72	-107
-23	-23	14
-1	39	69
22	98	32
42	130	-49
59	131	-41
68	110	-22
66	77	-8
54	47	36
32	21	103
7	-5	127
-19	-33	70
-41	-67	17
-59	-94	-62
-70	-103	-93
-74	-88	-96
-63	-54	-18
-43	-12	10
-15	28	-182
15	54	-269
40	71	-179
56	78	-120
61	76	-91
56	61	-80
44	36	-30
28	1	127
10	-39	186
-12	-69	102
-34	-84	-46
-53	-78	-178
-65	-61	-182
-69	-49	-119
-61	-45	-38
-44	-52	61
-22	-56	-67
1	-48	-162
19	-21	67
36	20	111
49	61	93
59	92	87
61	101	1
54	93	-97
39	72	-168
17	43	-111
-7	11	-11
-30	-31	149
-47	-77	199
-55	-117	143
-56	-135	46
-49	-123	16
-39	-78	-43
-23	-14	-200
-4	45	-162
17	81	-121
36	84	-27
51	66	19
60	43	-85
60	32	41
52	32	46
34	38	0
9	34	51
-23	10	-20
-54	-29	-139
-81	-71	-154
-94	-102	-72
-89	-114	26
-66	-104	124
-34	-71	61
-6	-15	58
9	77	24
5	199	-19
-12	331	49
-25	422	117
-20	416	215
14	279	208
66	22	93
119	-283	-128
144	-541	-438
128	-652	-609
71	-589	-447
-2	-394	-299
-65	-174	-266
-96	-16	-74
-87	32	-7
-50	-6	40
-7	-56	145
22	-50	166
32	34	241
31	162	200
27	265	115
29	291	78
32	233	47
29	127	-39
14	33	-108
-14	-17	-120
-44	-21	-87
-64	-14	45
-70	-21	130
-64	-47	126
-51	-70	114
-40	-63	74
-31	-14	-56
-20	60	-238
0	122	-242
25	141	-76
51	117	-2
67	74	41
67	41	-3
51	33	-31
25	39	-38
0	31	-135
-23	-5	-75
-40	-67	87
