File Name: not saved
Channel 2: 'Channel 2', 31430 values, raw ADC, no filters.
Channel 3: 'Channel 3', 31430 values, raw ADC, no filters.
Channel 4: 'Channel 4', 31430 values, raw ADC, no filters.

-52	106	-111
-89	55	-122
-100	14	-51
-81	-13	10
-36	-33	22
16	-56	45
60	-79	85
85	-81	105
86	-52	46
66	1	-10
29	48	-42
-20	61	-111
-75	27	-205
-114	-36	-256
-119	-93	-163
-75	-107	-52
15	-75	-22
129	-16	-7
231	36	-32
279	62	-60
256	62	-57
162	61	-19
28	71	15
-108	88	10
-209	82	65
-252	34	123
-237	-58	151
-180	-166	147
-112	-232	89
-48	-214	-8
1	-107	-99
42	51	-176
86	203	-243
129	296	-219
158	300	-100
147	235	-1
78	127	3
-42	13	-53
-173	-95	-64
-258	-180	-65
-250	-237	-131
-143	-246	-131
20	-190	-41
159	-75	67
201	67	95
125	169	75
-32	168	64
-191	43	45
-273	-165	49
-237	-358	11
-103	-441	-18
56	-352	-12
179	-127	1
226	133	-3
204	312	-15
154	327	-13
116	190	-28
102	-12	-31
94	-164	-23
66	-195	-4
0	-109	39
-91	25	93
-176	115	130
-224	114	97
-222	37	8
-178	-49	-63
-123	-80	-137
-83	-29	-194
-61	68	-219
-52	157	-175
-32	183	-76
11	138	-26
75	60	12
139	-5	10
175	-31	1
167	-25	2
111	-19	11
32	-34	63
-42	-74	65
-77	-112	67
-63	-121	81
-7	-86	39
68	-17	-27
140	54	-80
188	106	-113
207	130	-102
200	135	-65
167	133	-13
105	130	21
12	118	12
-111	87	-19
-240	39	-93
-340	-14	-164
-363	-57	-198
-291	-88	-179
-132	-111	-105
64	-139	-32
228	-178	15
299	-205	48
256	-196	68
135	-123	34
-4	1	-16
-89	140	-35
-86	244	-11
-6	265	63
97	210	159
161	117	196
143	41	122
46	22	2
-86	58	-144
-201	114	-291
-259	134	-372
-252	84	-335
-204	-45	-161
-153	-215	27
-128	-376	104
-127	-470	69
-134	-467	21
-120	-368	4
-71	-194	-19
10	-5	-18
103	142	45
183	205	152
234	171	242
239	74	249
202	-39	171
127	-109	22
32	-113	-106
-63	-56	-232
-133	12	-323
-158	52	-277
-133	48	-123
-76	16	21
-14	-4	38
30	18	21
51	85	15
61	168	9
81	226	2
117	233	-25
156	191	-31
165	125	-11
124	63	0
31	19	24
-79	-11	64
-163	-34	26
-187	-51	-32
-152	-53	-51
-91	-23	-67
-42	29	-87
-32	79	-71
-51	85	-12
-65	27	9
-40	-85	2
35	-201	-7
145	-263	-22
254	-242	-22
324	-140	-19
341	-19	-34
309	63	-50
238	68	-35
136	9	-10
15	-65	-25
-116	-100	-80
-239	-62	-110
-321	23	-90
-350	110	-90
-316	145	-70
-243	106	5
-158	21	92
-91	-56	143
-40	-72	152
1	-11	131
43	101	106
93	200	74
129	225	-6
133	155	-123
100	18	-205
39	-117	-225
-20	-185	-239
-55	-156	-203
-58	-55	-57
-48	49	48
-47	91	54
-68	42	-28
-98	-64	-109
-113	-155	-153
-91	-164	-171
-29	-70	-86
46	80	12
113	203	58
143	224	76
139	123	109
111	-52	101
74	-218	77
24	-307	74
-37	-294	68
-111	-211	19
-176	-120	-26
-194	-62	31
-143	-48	122
-25	-43	133
119	-16	10
222	48	-111
234	131	-189
151	193	-260
19	202	-276
-93	153	-178
-131	61	-16
-95	-38	37
-23	-123	45
24	-174	35
16	-184	8
-39	-149	-3
-100	-69	-18
-117	46	-13
-82	173	-38
-13	268	-52
49	296	-23
80	236	4
77	110	18
60	-30	22
57	-121	24
66	-126	11
72	-44	-9
49	77	-32
0	168	-31
-59	175	-21
-87	91	-28
-60	-50	-16
8	-185	16
84	-249	74
122	-211	90
107	-98	69
46	37	11
-17	128	-83
-47	142	-137
-33	85	-176
16	6	-178
65	-41	-155
95	-21	-99
96	51	-7
74	131	92
34	166	112
-20	123	55
-94	13	-18
-182	-114	-109
-258	-210	-192
-288	-243	-188
-247	-223	-86
-135	-177	-16
2	-138	18
110	-115	65
147	-87	101
111	-30	95
45	61	48
8	160	-25
32	222	-95
106	207	-121
179	114	-128
196	-17	-105
132	-136	-7
8	-196	105
-119	-192	181
-202	-147	171
-223	-97	105
-199	-64	38
-167	-43	-65
-143	-15	-164
-117	37	-214
-60	102	-160
42	157	-81
179	179	-60
292	168	-46
322	136	-50
242	108	-23
75	89	3
-109	61	13
-242	4	1
-277	-94	-2
-225	-202	32
-130	-276	46
-48	-273	76
-3	-183	138
9	-46	169
14	77	119
35	131	47
74	112	-36
113	57	-200
131	17	-341
118	30	-338
83	87	-173
48	144	12
31	154	62
32	99	50
36	5	26
24	-79	-17
-14	-104	-59
-71	-61	-70
-121	25	-56
-136	108	-3
-96	153	21
4	150	-17
136	109	-2
258	58	22
325	9	12
301	-36	-28
180	-86	-58
-7	-134	-78
-199	-176	-60
-331	-192	-13
-360	-167	-11
-291	-90	12
-173	29	22
-63	171	3
-14	301	-45
-19	372	-84
-39	334	-62
-15	170	-32
84	-94	34
238	-378	109
383	-572	110
446	-582	49
389	-393	-12
231	-83	-79
34	219	-131
-125	379	-147
-212	336	-101
-234	136	-1
-237	-96	33
-256	-243	-2
-299	-248	-21
-332	-141	-13
-316	-17	-34
-231	43	-44
-104	17	-53
9	-54	-72
58	-106	-71
30	-102	-68
-42	-55	-48
-100	-21	-11
-97	-36	13
-30	-101	60
65	-159	151
131	-156	235
138	-69	241
91	64	162
34	175	34
10	212	-124
42	169	-272
117	99	-376
194	67	-358
232	106	-222
211	197	-56
144	268	79
60	267	164
-8	174	174
-44	41	86
-50	-68	-29
-38	-107	-116
-21	-71	-176
-12	-13	-189
-18	19	-95
-35	-5	-6
-60	-65	-1
-79	-114	29
-82	-115	61
-58	-57	62
-13	22	47
41	88	16
92	110	-8
125	95	-30
141	70	-38
144	54	-32
133	51	13
105	40	40
49	-1	34
-31	-72	19
-120	-151	-31
-180	-194	-57
-177	-176	-74
-100	-94	-113
26	23	-140
150	140	-140
216	224	-118
195	262	-63
101	260	-3
-21	215	82
-121	126	194
-176	-8	199
-189	-173	98
-182	-331	-49
-174	-430	-144
-164	-433	-197
-144	-343	-267
-104	-206	-200
-50	-97	-20
-6	-66	105
12	-124	93
7	-211	14
-5	-253	-47
-2	-195	-42
27	-34	-64
60	169	-96
68	331	-18
29	387	59
-51	332	117
-134	206	116
-175	76	49
-145	-9	-12
-59	-38	-51
37	-29	-63
101	-11	-92
107	4	-92
69	21	-62
27	48	-60
18	93	-44
54	131	5
117	139	74
172	96	145
186	13	191
151	-80	191
77	-141	94
-7	-150	-65
-79	-113	-210
-123	-59	-331
-134	-27	-387
-117	-28	-298
-82	-54	-76
-40	-81	41
-9	-83	51
2	-51	56
-4	2	49
-15	54	71
-5	92	50
39	110	48
113	113	74
184	112	81
216	110	52
193	106	-4
117	92	-45
29	68	-56
-34	39	-38
-42	15	-35
-10	10	-34
26	24	-53
31	50	-54
-11	64	-51
-77	49	-41
-128	-8	-42
-133	-98	-70
-86	-187	-64
-14	-237	-40
44	-215	36
60	-123	69
31	7	30
-22	116	-63
-71	155	-156
-100	112	-173
-102	18	-171
-95	-58	-123
-91	-69	-39
-92	-8	57
-98	75	137
-96	95	216
-79	2	253
-40	-192	187
11	-394	61
64	-492	-104
107	-400	-252
129	-139	-359
125	168	-336
98	372	-221
54	362	-102
5	150	-6
-44	-154	37
-93	-384	53
-139	-427	31
-181	-280	13
-208	-34	39
-202	174	56
-156	259	75
-69	213	118
28	116	123
107	52	72
144	66	3
134	129	-61
102	174	-129
81	154	-188
94	70	-179
139	-19	-70
186	-55	1
195	-17	-5
147	67	-2
50	131	-3
-59	138	43
-141	93	114
-169	43	164
-144	34	161
-95	68	101
-43	101	16
-2	74	-75
34	-30	-169
86	-174	-252
159	-263	-213
249	-232	-86
325	-72	13
351	134	32
299	270	-6
158	252	-45
-47	82	-74
-269	-149	-70
-448	-317	-39
-539	-340	41
-509	-227	82
-380	-56	60
-199	76	64
-27	113	13
86	77	-43
130	27	-94
115	21	-134
85	63	-107
71	112	-83
80	117	-44
96	51	-7
93	-53	-4
58	-142	-27
2	-174	-65
-42	-142	-71
-55	-84	-41
-31	-37	16
8	-23	91
32	-21	128
29	-5	171
15	38	182
20	90	129
63	110	45
139	84	-48
211	21	-109
234	-32	-201
178	-35	-324
66	10	-349
-56	63	-294
-142	69	-215
-165	1	-84
-141	-122	19
-111	-230	99
-106	-260	100
-128	-189	42
-151	-52	42
-134	84	32
-63	165	4
40	174	-16
131	140	-4
162	106	39
106	96	84
-14	97	94
-143	91	39
-231	63	-27
-241	21	-72
-175	-12	-94
-67	-29	-78
36	-43	-77
94	-86	-66
91	-170	-5
44	-273	62
-21	-344	119
-62	-320	137
-58	-184	111
-8	18	28
64	205	-69
124	298	-163
142	271	-241
111	161	-236
49	45	-130
-16	-16	-14
-53	-9	38
-50	26	28
-8	39	-5
48	5	2
104	-59	7
140	-102	1
155	-84	-8
147	-1	-19
115	103	-2
61	168	5
-10	166	9
-84	106	26
-140	36	11
-167	0	-7
-160	8	-6
-128	34	14
-88	33	23
-53	-17	53
-23	-106	87
9	-179	51
53	-185	47
106	-105	44
151	32	-6
169	162	-109
144	225	-243
83	192	-282
3	87	-270
-64	-40	-192
-97	-131	-30
-83	-162	93
-32	-137	111
28	-90	82
67	-58	29
62	-60	-32
14	-94	-3
-63	-138	-33
-132	-170	-143
-161	-167	-184
-132	-117	-192
-55	-28	-193
30	85	-182
87	192	-121
88	259	4
39	255	87
-31	170	87
-81	25	65
-87	-133	40
-52	-251	28
-1	-289	17
30	-248	12
26	-156	15
-7	-63	14
-45	-5	24
-66	9	44
-65	5	63
-50	10	110
-42	46	152
-54	109	121
-80	171	47
-97	211	-36
-84	214	-129
-30	187	-202
51	145	-198
130	101	-104
183	56	-33
190	1	-59
162	-62	-67
113	-125	-56
69	-162	-37
36	-153	4
13	-99	81
-18	-23	147
-66	38	101
-125	53	57
-174	17	11
-190	-49	-68
-159	-107	-130
-89	-120	-147
-3	-78	-107
61	4	-47
87	91	-8
70	153	-12
32	170	-21
-10	151	-43
-31	109	-55
-32	68	-55
-20	34	-45
-3	12	-7
12	-11	51
35	-39	142
72	-77	186
125	-106	135
181	-112	17
216	-76	-126
214	10	-236
166	127	-279
83	233	-219
-12	275	-74
-92	211	91
-143	41	181
-162	-190	182
-156	-393	89
-130	-481	-11
-95	-400	-90
-50	-175	-147
4	103	-170
65	322	-145
128	391	-41
175	298	-7
200	100	-37
190	-101	-34
145	-227	-57
77	-247	-69
-7	-195	-62
-94	-133	-89
-175	-109	-106
-247	-129	-130
-308	-167	-124
-347	-182	-47
-350	-158	16
-302	-107	64
-194	-63	112
-43	-43	152
119	-44	217
244	-29	243
296	30	172
259	144	58
156	283	-8
36	397	-71
-56	438	-166
-97	386	-196
-90	257	-130
-66	93	-91
-59	-58	-162
-80	-173	-195
-114	-242	-144
-136	-272	-22
-117	-269	46
-53	-236	51
31	-170	79
107	-77	62
152	27	37
155	116	19
127	169	3
89	174	-17
55	150	-7
38	114	-24
31	97	-91
32	108	-107
34	140	-79
40	168	-62
41	161	-111
38	109	-135
26	18	-42
4	-81	96
-19	-157	175
-37	-187	135
-45	-176	17
-42	-149	-56
-34	-125	-108
-22	-118	-131
-8	-108	-53
13	-69	60
44	14	80
82	126	16
111	215	3
111	228	15
71	124	18
-14	-62	10
-117	-259	-8
-207	-373	-4
-251	-348	39
-232	-200	68
-152	-6	37
-32	134	-27
94	166	-97
202	102	-154
268	10	-229
282	-28	-268
244	25	-201
161	143	-105
51	252	-41
-59	283	7
-148	211	17
-195	69	8
-202	-70	17
-182	-157	32
-150	-173	21
-121	-151	20
-99	-131	12
-71	-138	-44
-35	-153	-56
14	-136	-27
61	-56	-11
91	77	-54
86	211	-62
46	278	-21
-15	227	6
-77	60	28
-120	-160	-3
-133	-353	-27
-112	-441	-19
-60	-393	1
12	-224	39
88	5	103
145	221	217
161	361	246
119	387	135
29	301	17
-76	139	-81
-149	-45	-244
-160	-192	-412
-104	-256	-409
-14	-218	-231
62	-108	-79
89	20	-12
60	106	47
6	119	87
-34	58	102
-30	-32	69
16	-98	26
76	-104	0
109	-48	-11
101	37	31
61	115	109
20	161	105
8	171	9
29	169	-68
74	166	-142
107	162	-159
111	142	-85
79	93	6
22	19	20
-37	-51	-15
-85	-80	-1
-109	-48	2
-111	28	22
-86	99	38
-34	110	68
33	32	91
103	-114	93
147	-264	87
144	-353	-23
95	-331	-150
16	-210	-234
-55	-39	-290
-85	112	-287
-63	194	-192
-9	191	-72
44	121	-28
56	17	-2
21	-93	30
-43	-186	34
-96	-254	-3
-101	-282	-34
-41	-261	20
57	-189	49
147	-77	32
181	48	24
128	156	21
-2	229	12
-168	259	5
-308	251	-7
-377	204	-16
-362	117	-14
-281	-7	-35
-181	-145	-63
-103	-254	-54
-72	-280	-24
-83	-195	9
-105	-26	44
-109	154	94
-77	256	93
-14	233	16
61	101	-56
128	-51	-161
175	-130	-246
207	-93	-208
229	25	-80
241	131	39
238	140	157
206	30	291
144	-139	387
58	-263	377
-30	-265	173
-92	-148	-113
-109	17	-375
-80	126	-584
-18	124	-655
53	35	-494
113	-59	-169
145	-78	59
140	8	130
98	145	112
25	250	101
-61	249	124
-141	145	106
-186	-1	94
-182	-101	77
-126	-106	78
-39	-28	53
48	68	26
104	113	5
111	75	-32
76	-27	-40
14	-137	-46
-43	-200	-26
-76	-195	-9
-66	-125	12
-18	-22	24
59	88	55
144	180	65
209	244	24
229	265	-16
182	227	-75
75	134	-118
-71	9	-172
-217	-104	-170
-321	-166	-98
-357	-167	-61
-311	-131	-39
-201	-108	-3
-62	-129	50
75	-186	97
183	-225	65
245	-174	-40
257	-14	-120
216	215	-156
143	412	-182
53	462	-160
-26	323	-67
-65	41	24
-60	-251	69
-18	-426	116
32	-413	135
54	-254	102
20	-66	16
-77	24	-125
-202	-32	-248
-311	-186	-279
-351	-326	-224
-304	-352	-93
-179	-235	40
-26	-36	93
97	138	95
151	204	64
125	157	47
54	54	84
-18	-16	77
-52	-12	102
-40	52	105
-4	117	66
20	131	48
5	87	24
-44	23	7
-100	2	-59
-125	51	-106
-94	149	-142
-12	233	-144
89	249	-140
175	179	-129
225	58	-57
226	-49	-48
195	-101	-92
150	-85	-149
106	-34	-107
67	9	0
37	19	28
11	1	38
-13	-19	32
-36	-22	38
-60	-5	90
-81	12	90
-92	8	51
-81	-23	29
-42	-63	5
20	-83	-17
93	-58	-13
147	11	24
157	98	72
117	171	76
44	203	10
-31	181	-41
-83	115	-59
-96	20	-132
-78	-83	-142
-49	-178	-92
-25	-244	-111
-7	-254	-135
11	-196	-101
42	-65	16
90	105	31
135	261	-32
161	343	-97
142	305	-151
77	159	-106
-24	-47	-62
-133	-231	3
-222	-329	41
-262	-320	56
-247	-238	72
-180	-144	56
-83	-90	29
9	-94	5
64	-121	54
62	-129	64
8	-81	-10
-71	10	-61
-139	105	-79
-163	152	-117
-135	122	-143
-80	38	-99
-31	-52	-17
-15	-96	1
-35	-74	-18
-64	-7	-18
-72	48	-21
-44	51	-15
13	-9	-16
64	-102	-25
79	-170	-50
47	-170	-24
-2	-93	26
-34	26	42
-15	140	43
54	215	18
139	243	-34
196	233	-84
198	200	-66
150	158	-25
82	98	48
34	19	142
21	-62	183
32	-124	144
39	-135	48
21	-94	-25
-22	-25	-100
-69	28	-181
-98	30	-225
-97	-13	-200
-75	-65	-170
-45	-77	-198
-24	-24	-205
-2	72	-151
31	160	-1
84	181	113
144	125	182
189	22	225
191	-65	225
143	-93	141
68	-52	-10
-2	15	-76
-42	51	-134
-48	32	-132
-37	-33	-72
-32	-94	18
-37	-109	3
-38	-65	-84
-17	7	-101
33	58	-172
90	59	-145
113	15	-56
68	-34	-15
-40	-49	-42
-176	-6	-44
-279	78	-7
-311	157	1
-269	191	47
-197	150	86
-148	38	91
-141	-125	76
-164	-296	31
-159	-432	-45
-86	-488	-103
60	-434	-92
229	-267	-93
343	-24	-112
351	224	-54
244	390	6
78	417	41
-66	300	103
-134	102	107
-113	-93	91
-48	-208	62
3	-227	46
1	-180	9
-49	-127	-94
-107	-112	-164
-126	-126	-207
-84	-130	-222
1	-81	-219
90	34	-174
141	185	-36
144	311	55
113	360	48
78	321	11
62	210	10
62	78	0
61	-44	-40
35	-127	-43
-22	-171	-14
-100	-178	19
-162	-145	25
-180	-86	7
-143	-17	-6
-61	30	-2
35	30	12
119	-21	57
165	-92	145
167	-126	202
132	-86	163
80	33	43
22	182	-79
-29	283	-181
-65	283	-237
-87	174	-177
-92	11	-46
-89	-129	6
-79	-183	-51
-68	-144	-89
-57	-53	-93
-43	29	-43
-20	63	72
20	50	149
71	25	106
128	23	18
172	55	-36
193	100	-102
172	120	-97
115	96	-47
34	40	-10
-48	-13	9
-112	-27	-35
-143	0	-77
-143	45	-86
-128	72	-60
-114	56	-26
-114	3	-10
-126	-63	-28
-137	-115	-65
-128	-145	-55
-87	-168	-21
-20	-196	7
52	-229	22
106	-235	2
124	-183	-43
112	-63	-49
80	88	-63
46	208	-92
16	233	-48
-10	139	42
-47	-28	79
-99	-202	30
-152	-312	-48
-180	-333	-133
-149	-282	-142
-44	-202	-59
116	-123	9
285	-41	61
411	66	86
439	215	39
358	388	-31
201	528	-81
18	568	-114
-129	471	-45
-213	253	79
-231	-31	149
-212	-301	139
-195	-494	-6
-203	-567	-142
-227	-523	-190
-237	-381	-222
-202	-185	-271
-114	13	-203
8	166	-42
123	236	66
188	225	105
180	162	64
116	99	24
32	83	37
-30	118	33
-47	177	-9
-28	205	-32
7	166	-23
26	59	13
21	-66	65
1	-153	141
-13	-162	196
-8	-98	151
21	-7	36
57	58	-82
81	72	-167
75	41	-233
46	6	-207
11	-5	-55
-10	19	60
-3	55	55
24	78	3
55	64	-36
68	23	-62
49	-21	-79
1	-49	-63
-62	-51	-40
-111	-36	0
-129	-20	37
-108	-15	14
-58	-13	-13
1	0	-5
48	31	-28
75	81	-70
85	131	-82
85	163	-90
89	153	-70
91	92	-34
84	-9	-3
50	-133	19
-10	-245	30
-88	-311	32
-159	-304	-19
-194	-216	-57
-179	-77	-116
-123	71	-121
-56	174	-42
-5	205	-28
14	160	-49
7	79	-59
-2	7	-43
0	-28	-13
20	-30	-25
40	-32	13
41	-64	95
14	-136	161
-30	-215	256
-65	-258	272
-72	-227	186
-43	-125	20
5	0	-194
47	85	-371
64	85	-387
59	8	-256
42	-98	-202
35	-159	-127
41	-127	-35
52	-6	6
56	148	39
40	259	4
12	272	-14
-23	180	-12
-46	35	-12
-55	-94	3
-59	-153	89
-57	-128	201
-50	-59	240
-29	1	167
6	11	64
48	-25	-10
75	-72	-157
67	-84	-307
24	-29	-323
-34	78	-170
-68	189	-89
-56	250	-76
1	237	32
68	162	75
101	64	87
72	-8	64
-10	-40	53
-100	-38	49
-152	-29	23
-140	-33	12
-77	-53	-38
4	-70	-38
65	-59	-45
94	-14	-52
104	58	-63
113	131	-76
131	180	-9
139	193	51
116	166	105
44	109	134
-57	28	32
-152	-64	-88
-199	-154	-153
-182	-212	-215
-120	-214	-223
-54	-149	-117
-16	-33	46
-8	85	113
-6	158	97
22	150	41
88	74	-7
164	-30	2
208	-111	-43
184	-134	-54
92	-112	-59
-30	-79	-95
-124	-75	-101
-149	-112	-20
-102	-174	89
-22	-229	101
40	-247	145
50	-236	133
3	-213	46
-70	-200	-79
-130	-190	-238
-147	-160	-299
-111	-80	-289
-38	52	-246
44	206	-145
114	329	-27
143	372	58
119	338	110
42	250	120
-71	156	71
-187	93	4
-256	58	-43
-245	34	-68
-151	-4	-48
0	-53	-3
140	-90	37
211	-87	41
184	-35	29
77	32	32
-58	77	23
-158	63	8
-177	5	-4
-115	-55	-16
-10	-68	-31
89	-13	-4
140	83	69
135	158	118
85	151	68
20	56	-16
-30	-87	-76
-52	-200	-125
-43	-216	-149
-18	-126	-120
13	28	40
38	166	132
49	215	6
50	156	-121
44	19	-210
39	-123	-259
36	-206	-233
36	-195	-128
35	-106	7
27	15	59
14	115	76
-4	155	59
-17	132	40
-18	64	37
-10	-18	24
4	-90	-9
16	-131	-49
22	-144	-42
23	-129	-22
26	-89	-15
31	-28	8
39	48	41
44	129	53
42	192	36
35	213	36
28	174	42
29	80	-11
38	-45	-18
48	-154	1
46	-211	-63
18	-196	-97
-38	-132	-66
-105	-64	14
-167	-31	100
-205	-58	109
-212	-118	59
-194	-163	-53
-168	-139	-198
-141	-26	-341
-112	150	-412
-74	325	-302
-18	424	-119
60	395	-31
147	231	-21
216	-20	8
251	-278	49
226	-464	53
145	-519	78
30	-433	113
-91	-246	130
-186	-31	145
-236	135	85
-232	197	8
-185	145	-30
-115	25	-57
-36	-93	-80
39	-141	-67
105	-98	26
154	22	96
172	152	66
158	231	-31
104	228	-90
26	154	-132
-48	59	-142
-91	-11	-44
-86	-30	63
-46	-9	76
8	20	24
42	32	-22
44	20	-56
14	1	-50
-19	-2	-49
-33	23	-39
-16	68	-24
22	110	-21
60	127	-48
75	110	-82
58	72	-39
20	34	-18
-19	14	0
-36	11	32
-23	10	60
18	-4	77
76	-38	65
132	-77	68
171	-101	81
180	-88	60
151	-36	-7
86	31	-54
2	88	-75
-82	106	-98
-142	92	-154
-167	60	-208
-159	41	-191
-130	43	-139
-107	49	-105
-95	17	-109
-88	-88	-125
-70	-260	-46
-26	-449	101
44	-562	242
118	-527	204
164	-334	5
155	-35	-98
86	251	-176
-16	419	-241
-108	410	-159
-153	258	9
-138	46	103
-84	-130	57
-27	-216	-21
-10	-218	-105
-46	-175	-164
-124	-127	-166
-202	-89	-100
-236	-43	17
-203	26	77
-111	114	56
9	183	28
116	200	40
183	144	37
203	43	36
187	-47	51
151	-81	68
107	-42	64
57	32	20
8	93	-2
-45	100	-16
-85	54	-30
-101	-12	-43
-92	-54	-58
-64	-54	-53
-42	-23	-4
-38	12	12
-53	23	12
-66	12	32
-52	1	8
8	13	-21
107	59	-32
221	124	-21
309	183	6
340	211	50
311	207	67
234	177	47
132	123	0
30	50	-68
-67	-52	-127
-158	-174	-176
-239	-288	-214
-300	-351	-187
-325	-326	-88
-300	-219	-25
-214	-65	7
-80	74	21
69	158	22
195	181	17
266	180	46
265	193	97
203	233	91
106	261	40
14	218	-1
-44	69	-46
-58	-168	-63
-38	-404	-69
-12	-534	-108
-6	-486	-91
-33	-280	-47
-83	-15	3
-130	189	63
-148	248	99
-122	170	53
-69	29	-5
-20	-71	-62
-3	-81	-190
-33	-13	-269
-95	62	-251
-151	74	-185
-168	7	-192
-128	-101	-172
-41	-173	-38
63	-156	58
147	-53	69
184	76	38
175	155	13
141	141	20
111	45	38
113	-70	34
151	-134	103
211	-110	195
252	-4	203
238	121	129
138	204	16
-41	198	-98
-260	106	-206
-450	-25	-232
-548	-137	-132
-526	-175	-33
-401	-123	9
-227	-6	35
-78	114	37
-1	173	33
3	126	6
-30	-25	-28
-42	-224	-35
2	-387	-50
104	-429	-49
222	-322	-51
309	-93	-27
334	171	10
300	368	4
228	421	13
155	319	50
99	120	98
56	-88	101
20	-221	53
-18	-243	-26
-50	-177	-101
-60	-71	-160
-39	16	-219
6	63	-147
54	72	17
78	72	139
63	86	205
18	115	225
-30	150	190
-60	170	65
-60	164	-121
-36	131	-250
-12	90	-273
-3	52	-292
-18	26	-304
-47	8	-214
-79	-14	-95
-98	-43	-14
-97	-84	14
-78	-125	2
-37	-159	17
18	-173	34
80	-153	59
130	-104	52
151	-29	-13
124	46	-65
54	106	-84
-35	131	-81
-115	116	-3
-153	80	182
-139	44	335
-88	34	425
-25	51	343
25	78	60
50	82	-243
48	35	-460
29	-58	-560
-1	-177	-497
-37	-273	-224
-76	-312	-20
-104	-280	38
-109	-198	78
-86	-103	41
-45	-24	28
-15	29	40
-19	70	63
-66	122	69
-134	194	49
-184	266	43
-180	299	11
-113	249	2
-15	95	4
77	-131	-2
127	-364	3
137	-510	6
133	-512	-5
145	-359	-8
179	-112	6
212	132	15
210	282	37
151	295	74
53	193	31
-40	53	-55
-88	-44	-67
-77	-48	-90
-29	22	-89
9	116	-21
1	168	70
-49	145	137
-108	67	94
-130	-21	-19
-95	-63	-122
-15	-46	-221
69	13	-252
123	70	-142
136	93	-4
120	67	37
100	12	12
90	-34	10
82	-52	-14
57	-39	-44
6	-17	-52
-61	-5	-64
-118	-13	-83
-137	-33	-77
-116	-43	-40
-69	-29	6
-28	19	74
-4	89	150
8	166	191
32	233	130
80	268	28
139	261	-79
175	192	-160
147	61	-246
37	-112	-298
-122	-283	-183
-272	-395	-62
-352	-412	-8
-329	-319	70
-217	-160	102
-72	-4	75
46	93	8
100	106	-24
90	68	-20
40	28	-59
-12	34	36
-42	84	175
-49	139	177
-40	147	-27
-31	72	-275
-24	-70	-386
-21	-233	-466
-16	-351	-452
-4	-388	-294
14	-344	-23
44	-253	196
82	-152	272
128	-55	285
170	34	215
192	133	133
183	241	56
136	337	3
63	384	-21
-8	354	-53
-58	244	-11
-71	83	31
-55	-80	37
-34	-192	31
-30	-230	-13
-54	-192	-54
-102	-114	-57
-152	-38	-36
-178	-1	-24
-172	-11	35
-129	-56	89
-60	-102	69
25	-114	51
121	-72	26
216	15	-4
294	116	-44
322	197	-56
280	230	-3
170	218	4
11	180	-54
-148	140	-103
-257	113	-133
-285	85	-169
-240	36	-196
-161	-50	-151
-92	-163	-63
-61	-263	-9
-68	-304	4
-81	-249	9
-70	-107	-9
-24	76	-18
41	224	-24
101	278	-52
128	219	-38
118	84	-19
88	-65	9
64	-167	85
59	-183	80
71	-129	7
81	-46	-46
64	18	-106
17	43	-89
-51	41	25
-117	45	103
-153	90	52
-141	171	16
-88	253	-13
-7	278	-56
72	200	-65
130	15	-65
156	-219	-34
148	-410	-38
117	-474	-39
78	-379	-41
38	-164	-34
2	69	-42
-32	218	-55
-66	225	-19
-103	109	-7
-132	-50	21
-149	-157	66
-144	-152	106
-119	-47	108
-81	90	45
-34	177	-43
13	173	-142
57	90	-305
96	-11	-353
128	-65	-230
151	-49	-109
157	17	-26
145	72	20
110	68	46
56	-16	54
-20	-149	66
-98	-272	124
-165	-330	132
-200	-301	138
-193	-203	231
-144	-72	280
-70	47	205
-2	131	4
39	177	-139
44	197	-211
28	209	-341
14	221	-421
18	232	-289
42	224	-65
62	183	-1
52	91	-69
-2	-46	-132
-92	-214	-172
-176	-373	-113
-214	-471	25
-184	-475	108
-96	-372	99
14	-187	79
105	18	78
145	182	53
131	256	24
85	239	19
38	164	25
12	86	29
11	46	55
26	58	53
40	100	33
41	132	26
23	134	-3
-5	101	-33
-27	48	-68
-34	2	-58
-18	-24	-18
16	-27	-4
56	-16	33
89	4	39
104	30	15
97	67	-5
78	104	-14
54	128	-11
34	119	-17
18	63	-19
0	-20	-19
-25	-108	-34
-56	-157	-40
-86	-157	-61
-102	-109	-131
-95	-46	-192
-63	-2	-206
-18	10	-193
25	-2	-127
56	-16	-24
66	-10	13
60	18	-8
44	56	3
22	82	5
-1	82	48
-27	51	86
-54	4	41
-83	-52	-10
-106	-109	-117
-119	-162	-186
-116	-200	-121
-90	-209	87
-43	-173	302
18	-84	339
81	44	243
128	183	65
151	298	-94
148	354	-265
128	345	-439
109	270	-409
97	149	-229
85	-12	-117
53	-183	-114
-15	-341	-97
-125	-446	17
-256	-460	117
-361	-383	118
-400	-236	104
-358	-86	33
-248	2	-14
-113	-7	9
6	-90	19
79	-180	32
107	-196	49
110	-96	59
111	100	29
117	319	24
119	466	26
106	482	-1
71	372	-19
31	185	-14
-2	-4	7
-10	-144	16
5	-218	31
29	-242	20
48	-233	-9
52	-196	-43
45	-130	-35
39	-28	-1
44	96	12
59	208	49
78	268	29
90	261	-8
86	197	-32
68	113	-67
39	47	-97
5	14	-88
-32	3	-72
-67	-15	-93
-98	-58	-86
-117	-121	-66
-117	-174	-2
-94	-183	20
-54	-138	-70
-8	-52	-141
28	39	-170
51	100	-208
61	117	-198
66	104	-88
68	85	58
75	77	118
75	79	104
62	69	86
33	29	65
-5	-44	63
-45	-125	41
-75	-175	-16
-88	-164	-74
-82	-91	-69
-60	10	-49
-31	96	-28
6	134	42
51	124	141
100	100	167
144	95	74
167	125	-25
157	166	-117
103	169	-227
17	96	-257
-86	-46	-133
-180	-206	-26
-241	-309	-49
-264	-300	-105
-257	-181	-129
-231	-16	-109
-197	106	42
-165	122	213
-127	26	242
-79	-136	200
-14	-282	-5
60	-362	-198
130	-361	-214
174	-303	-230
180	-227	-290
152	-150	-298
105	-77	-129
61	5	42
38	89	113
36	159	119
45	185	96
42	160	90
17	101	81
-30	47	79
-81	33	89
-111	60	99
-99	109	85
-45	141	41
32	137	12
113	106	-10
172	74	-41
198	68	-47
184	92	-13
137	121	-19
58	128	-60
-43	97	-51
-156	45	-52
-248	-1	-40
-296	-17	-4
-278	-8	-5
-203	2	-11
-96	-13	-27
3	-56	-35
62	-102	-59
70	-114	-89
48	-67	-92
24	22	-62
27	110	-43
59	147	-76
103	101	-96
128	-3	-112
116	-121	-92
67	-196	-47
2	-204	12
-50	-157	110
-76	-90	240
-68	-36	322
-40	-5	274
-3	18	164
36	58	59
76	125	-77
116	205	-302
151	262	-483
170	267	-478
158	207	-348
113	104	-279
52	-2	-185
-3	-76	1
-30	-98	116
-23	-86	145
1	-65	106
5	-70	74
-36	-110	38
-128	-176	0
-241	-240	-11
-321	-268	-18
-337	-245	-4
-260	-170	8
-116	-60	7
44	51	16
171	138	66
229	177	155
222	155	231
171	80	225
115	-32	101
66	-147	-34
31	-233	-138
-4	-260	-292
-46	-223	-392
-97	-135	-360
-134	-30	-184
-144	53	-38
-121	96	25
-67	98	37
0	86	10
67	85	18
122	113	12
156	154	51
160	174	47
123	147	39
42	61	46
-77	-51	45
-198	-152	43
-282	-192	18
-294	-159	22
-221	-72	1
-87	25	-10
59	98	-24
160	132	-27
187	138	-17
144	140	-32
69	150	-56
5	161	-67
-15	153	-44
8	109	-35
52	40	-35
86	-21	-39
81	-43	-30
36	-15	-11
-36	32	-9
-102	48	3
-136	-11	41
-122	-139	63
-65	-289	39
8	-372	19
68	-330	7
91	-168	16
70	47	24
23	213	-13
-20	255	-31
-34	170	-32
-14	30	-103
24	-71	-153
49	-69	-94
42	30	-51
3	151	-97
-49	206	-77
-80	142	77
-68	-9	130
-24	-174	110
30	-264	42
64	-246	-97
60	-142	-254
27	-25	-395
-13	44	-389
-34	53	-217
-26	32	-25
7	27	83
51	61	81
86	112	54
103	134	80
97	89	85
68	-20	111
18	-144	97
-46	-224	37
-113	-212	-9
-165	-121	-111
-179	7	-226
-150	121	-223
-82	189	-108
1	214	-34
68	210	-2
100	192	41
97	149	72
74	67	140
50	-55	256
40	-188	281
44	-280	173
50	-282	36
44	-190	-109
20	-43	-268
-19	81	-357
-65	117	-292
-109	48	-103
-142	-79	16
-162	-184	64
-159	-192	75
-129	-91	46
-76	82	28
-8	237	-8
52	290	-24
86	209	9
90	22	68
75	-189	84
66	-340	65
81	-370	43
114	-271	-17
140	-84	-95
127	123	-163
57	285	-192
-53	358	-153
-161	327	-84
-221	207	-32
-205	30	-3
-130	-148	4
-38	-280	2
27	-326	20
46	-264	50
32	-124	82
16	49	107
25	188	93
60	239	31
96	183	-36
98	56	-102
52	-79	-141
-21	-163	-155
-88	-157	-155
-107	-77	-77
-70	38	-8
3	132	-8
76	177	21
112	178	63
107	160	151
74	148	247
46	145	242
44	136	151
74	96	7
107	12	-124
118	-96	-238
83	-192	-270
4	-237	-245
-95	-222	-215
-183	-152	-140
-228	-63	-88
-216	12	-112
-156	62	-150
-66	89	-120
20	103	-20
84	105	34
112	95	24
107	56	15
82	-8	-7
46	-83	12
12	-140	39
-17	-149	31
-38	-101	43
-52	-13	44
-57	80	48
-52	140	37
-42	150	17
-31	105	3
-27	27	-19
-32	-54	-20
-42	-112	-8
-47	-125	-15
-37	-92	-36
-12	-22	-66
22	43	-81
51	66	-44
59	11	-54
41	-119	-52
9	-281	-20
-26	-400	-36
-48	-403	-30
-54	-277	1
-47	-63	51
-40	142	49
-44	250	-33
-59	218	-94
-76	85	-140
-78	-58	-172
-56	-127	-122
-7	-84	12
55	33	113
120	148	116
166	193	39
179	153	-48
155	76	-18
101	20	45
32	27	72
-36	81	90
-89	131	77
-121	133	32
-132	74	-100
-124	-7	-204
-99	-61	-205
-55	-49	-154
4	13	-103
74	88	-32
137	126	39
174	109	40
167	54	72
121	-3	101
50	-35	127
-15	-43	133
-52	-44	93
-56	-56	21
-38	-82	-60
-20	-100	-145
-20	-95	-271
-34	-61	-265
-52	-21	-151
-53	4	-64
-32	1	-35
5	-21	-39
38	-31	-42
49	-15	-11
31	25	21
-4	62	57
-39	72	91
-52	43	82
-37	-4	76
3	-38	50
50	-45	-2
87	-31	-63
102	-27	-44
87	-58	4
44	-121	6
-19	-180	28
-91	-190	-12
-151	-130	-101
-185	-15	-176
-180	106	-249
-134	190	-198
-61	212	6
15	191	208
74	158	240
103	124	133
101	85	-11
80	13	-149
51	-96	-254
32	-218	-312
18	-299	-254
6	-283	-121
-12	-174	0
-40	-13	61
-69	114	84
-89	153	83
-86	91	84
-62	-18	117
-30	-98	116
-4	-100	113
3	-29	102
-8	55	39
-28	96	-55
-38	63	-144
-29	-15	-143
-1	-80	-129
30	-83	-138
49	-12	-96
54	95	-9
50	180	81
54	206	105
68	165	96
87	93	91
86	31	79
48	12	9
-27	29	-127
-115	63	-192
-174	77	-140
-173	42	-112
-106	-40	-156
-4	-161	-137
88	-282	-10
131	-368	85
120	-376	62
78	-288	28
41	-117	5
35	93	-26
59	278	-19
93	373	20
109	357	32
97	240	-2
62	71	-35
21	-84	-89
-18	-181	-117
-57	-216	-92
-104	-207	-26
-156	-184	12
-200	-166	-27
-217	-147	-23
-189	-115	-19
-122	-60	3
-44	7	28
20	71	19
51	116	29
58	135	21
59	140	10
75	147	-6
104	158	-39
130	162	-75
131	147	-66
99	101	-25
44	32	10
-5	-35	41
-29	-72	64
-23	-72	43
-2	-43	-14
9	-11	-31
-5	3	-56
-36	-5	-75
-67	-21	-16
-78	-18	93
-59	13	160
-23	59	103
13	98	-4
35	104	-127
44	78	-224
53	41	-302
75	33	-313
105	74	-190
135	142	-86
138	190	-45
100	157	-18
17	18	1
-93	-196	-6
-197	-403	-18
-273	-504	-1
-303	-451	33
-286	-252	78
-232	-1	51
-156	194	13
-66	253	51
24	171	64
107	15	74
176	-127	104
216	-189	103
218	-166	-16
175	-107	-201
92	-77	-283
-17	-107	-240
-123	-178	-168
-197	-233	-167
-221	-215	-93
-181	-112	42
-92	43	119
18	188	152
114	264	162
170	258	129
179	190	96
152	106	40
115	40	-27
89	12	-88
82	13	-122
80	26	-69
68	41	-33
30	49	-19
-26	47	2
-83	30	4
-112	-4	-31
-101	-46	-86
-55	-78	-57
0	-74	31
38	-23	91
39	67	87
7	161	31
-40	214	-25
-76	201	-72
-81	124	-103
-49	19	-78
4	-72	-21
54	-121	17
81	-124	19
67	-100	8
15	-78	-13
-63	-68	-17
-140	-69	-11
-189	-66	-26
-188	-45	-47
-135	-6	-60
-40	41	-96
65	82	-101
154	110	-36
196	129	57
184	136	154
128	139	127
45	126	-22
-39	92	-164
-108	36	-261
-147	-27	-328
-152	-82	-288
-126	-113	-87
-81	-121	48
-29	-118	45
18	-120	63
48	-135	108
64	-152	131
74	-152	106
86	-116	101
111	-41	133
145	48	113
179	126	-22
194	166	-185
175	158	-232
124	114	-242
41	49	-306
-56	-17	-289
-156	-80	-126
-239	-133	39
-294	-167	131
-310	-169	164
-284	-125	171
-221	-43	151
-126	51	104
-28	116	30
59	122	-32
119	67	-67
151	-11	-95
164	-60	-95
170	-47	-108
175	23	-101
171	102	-70
144	131	-43
85	77	-21
-4	-48	30
-101	-189	74
-174	-282	63
-200	-292	45
-172	-225	-6
-104	-111	-42
-27	3	-42
37	92	-9
81	150	27
109	174	24
132	171	-6
156	135	-24
171	72	-31
163	2	-70
118	-46	-96
34	-54	-113
-70	-27	-97
-177	10	-61
-258	15	-19
-298	-24	24
-285	-92	43
-223	-135	65
-122	-115	54
-1	-28	26
107	93	-2
183	185	-40
208	208	-89
189	158	-126
145	79	-95
105	23	-34
82	19	9
65	57	54
36	91	103
-20	83	145
-101	16	140
-173	-77	52
-197	-149	-90
-153	-159	-194
-51	-101	-236
60	-3	-248
132	86	-141
136	130	68
87	118	229
29	68	260
4	12	149
24	-16	52
59	-5	-21
59	42	-118
-11	103	-145
-145	139	-182
-296	125	-202
-385	47	-225
-358	-74	-272
-214	-200	-255
-3	-274	-94
203	-263	108
337	-178	149
368	-64	89
313	9	37
214	4	-37
122	-78	-132
54	-171	-192
11	-208	-124
-33	-148	2
-93	-19	66
-166	96	54
-230	117	6
-250	18	11
-204	-149	51
-102	-278	60
19	-275	47
115	-121	30
147	113	19
111	312	23
37	372	24
-26	275	29
-46	92	15
-15	-63	-1
41	-110	-21
84	-38	-32
82	88	-11
31	179	-16
-41	179	-38
-105	92	-48
-134	-23	-39
-129	-107	-37
-106	-129	-46
-82	-103	-3
-61	-66	104
-37	-47	176
2	-43	164
59	-30	96
117	10	-4
152	68	-149
151	122	-302
117	134	-303
75	95	-194
46	22	-133
43	-40	-99
50	-58	-44
50	-24	-32
24	40	-42
-28	93	0
-83	101	41
-114	51	89
-106	-36	98
-65	-125	43
-15	-183	-26
24	-181	-139
40	-116	-219
38	-8	-179
29	104	-55
22	182	17
17	190	30
9	127	60
-10	24	130
-35	-63	187
-57	-86	180
-68	-24	137
-59	85	46
-35	170	-41
3	155	-118
42	21	-202
81	-186	-222
107	-368	-145
112	-425	-125
90	-318	-53
33	-97	25
-40	130	45
-112	255	51
-152	225	-5
-144	76	-44
-91	-93	-111
-14	-186	-144
54	-163	-135
91	-58	-37
95	51	44
82	96	38
68	64	38
62	-4	22
55	-46	12
26	-29	-9
-36	34	9
-129	98	60
-222	120	66
-277	97	35
-269	52	0
-197	27	-35
-95	31	-46
1	33	-3
56	-1	87
65	-88	173
47	-189	176
36	-242	103
50	-192	-24
92	-45	-203
136	123	-331
156	221	-334
135	183	-282
81	35	-232
21	-137	-105
-17	-222	5
-22	-164	38
0	-4	63
22	155	48
23	211	51
-5	126	12
-49	-45	-2
-89	-192	24
-103	-225	7
-86	-126	9
-45	38	-1
0	168	-23
34	194	-41
53	119	-18
58	17	28
55	-36	36
51	-5	16
49	87	6
45	170	5
42	189	-34
37	130	-48
30	35	-32
22	-43	-43
14	-70	-44
5	-57	-11
-7	-42	32
-20	-49	87
-33	-80	92
-44	-97	56
-54	-72	-5
-67	-6	-110
-81	67	-198
-96	102	-233
-109	76	-193
-114	4	-107
-103	-61	-22
-68	-77	41
-16	-40	65
44	7	54
94	6	44
118	-65	69
111	-183	53
78	-271	-19
41	-270	-55
25	-162	-59
41	10	-121
81	158	-182
120	223	-156
130	186	-38
96	100	-4
21	23	-66
-66	0	-107
-136	17	-114
-173	32	-54
-173	5	10
-155	-74	59
-135	-163	90
-122	-219	138
-108	-206	142
-77	-133	113
-26	-40	87
33	33	46
78	68	-9
89	80	-90
64	88	-121
26	110	-124
6	138	-133
27	147	-153
85	122	-149
143	68	-97
165	10	-30
123	-32	16
28	-50	28
-83	-53	22
-159	-59	17
-172	-67	25
-123	-66	23
-38	-37	2
38	23	-1
81	90	19
78	127	40
47	105	58
9	36	46
-22	-42	44
-39	-76	57
-46	-44	44
-41	33	4
-28	99	-34
-4	105	-54
23	34	-77
46	-81	-104
54	-174	-98
46	-199	-65
27	-145	-68
13	-47	-44
13	43	4
28	93	37
45	101	49
50	93	-7
39	92	-32
16	104	-67
-4	105	-145
-5	75	-138
12	12	-102
37	-51	-86
54	-69	-71
53	-20	-38
37	82	-25
19	178	-30
6	195	16
-9	101	4
-34	-88	-52
-79	-297	-92
-131	-441	-97
-162	-460	7
-137	-359	50
-48	-190	1
75	-25	-19
181	70	7
204	85	28
121	35	-8
-40	-29	-25
-215	-67	-5
-328	-62	-1
-339	-11	5
-253	74	28
-124	174	30
-7	269	0
63	345	-76
86	386	-101
82	366	-108
77	283	-111
72	138	7
61	-43	143
34	-235	182
-10	-393	106
-51	-485	-21
-77	-492	-121
-74	-421	-229
-55	-292	-301
-34	-149	-208
-19	-28	-38
-5	36	75
22	47	74
66	28	52
121	23	65
161	60	58
165	140	42
131	233	44
82	286	45
49	271	-4
49	190	-8
74	82	0
89	-4	-24
64	-28	-64
-9	6	-104
-104	61	-53
-177	92	-11
-191	71	13
-137	9	47
-43	-58	66
46	-89	78
100	-64	22
107	3	-42
84	76	-108
51	114	-168
27	106	-215
8	59	-225
-12	-2	-136
-38	-60	-30
-62	-101	-2
-69	-124	-32
-51	-136	-49
-8	-136	-26
36	-118	-5
67	-74	21
72	-11	94
61	64	196
46	127	222
41	161	155
42	160	105
36	127	74
8	83	-5
-39	38	-158
-87	11	-198
-111	-2	-115
-97	-8	-126
-51	-16	-193
6	-40	-202
45	-81	-215
48	-133	-178
18	-182	-40
-33	-209	101
-86	-204	93
-129	-158	17
-159	-79	-33
-178	22	-98
-182	123	-37
-168	198	54
-130	224	118
-76	182	103
-14	83	43
32	-51	-6
50	-169	-58
39	-236	-72
13	-232	-64
-5	-178	-2
4	-124	48
46	-109	22
110	-143	-79
172	-189	-103
211	-189	-72
215	-97	-15
186	80	64
138	274	49
90	404	34
54	404	6
33	279	-38
16	90	-90
-16	-68	-131
-63	-140	-115
-124	-117	-39
-178	-50	33
-205	-4	76
-194	-11	91
-149	-59	34
-87	-101	-39
-28	-94	-84
17	-29	-97
50	67	-116
83	147	-84
115	171	24
141	136	131
148	71	189
120	10	128
59	-24	-12
-12	-27	-143
-62	-15	-265
-72	-4	-349
-38	-7	-264
17	-22	-42
63	-46	155
75	-76	259
44	-102	281
-8	-117	280
-52	-100	196
-62	-39	-27
-37	61	-213
13	171	-281
64	244	-323
95	244	-306
94	158	-106
65	24	97
18	-94	155
-40	-141	145
-100	-102	84
-157	-12	-53
-201	64	-125
-226	68	-71
-217	-4	-68
-172	-110	-134
-91	-171	-209
7	-139	-138
98	-23	-3
160	112	15
179	174	3
156	117	-24
105	-48	-23
49	-235	-8
7	-341	16
-15	-307	26
-20	-144	25
-23	57	37
-36	202	30
-62	224	33
-91	134	24
-106	1	31
-93	-92	27
-49	-93	-41
14	-18	-108
75	78	-120
113	129	-122
117	106	-96
89	22	-25
45	-71	51
5	-130	90
-23	-133	67
-40	-95	7
-60	-48	-58
-91	-19	-68
-130	-11	-64
-161	-11	-58
-162	6	-31
-122	48	-32
-42	106	-29
50	147	9
129	143	89
171	80	142
172	-26	86
143	-142	4
100	-219	-57
52	-224	-132
0	-152	-207
-56	-36	-209
-113	66	-117
-147	106	-13
-140	68	79
-86	-20	171
0	-99	230
80	-114	288
119	-45	291
102	76	192
50	189	-40
1	238	-265
-6	211	-371
33	147	-429
92	98	-425
129	103	-345
110	143	-163
38	165	-31
-51	105	51
-112	-50	108
-117	-246	155
-72	-393	187
-9	-405	167
40	-264	119
57	-37	78
49	179	49
38	292	-70
37	277	-153
48	169	-125
55	45	-41
44	-27	-9
14	-35	3
-26	-2	5
-56	27	-78
-66	22	-143
-58	-16	-150
-48	-67	-129
-47	-113	-93
-61	-151	-21
-83	-184	2
-99	-224	1
-102	-251	4
-88	-246	11
-62	-186	15
-31	-77	15
-1	54	4
27	168	-20
46	225	-3
51	227	-2
48	187	5
40	135	-11
42	93	-23
55	60	8
75	27	-5
76	-19	-58
40	-71	-44
-37	-122	-5
-133	-152	18
-205	-157	112
-210	-140	205
-134	-117	245
-11	-95	175
107	-67	22
166	-29	-119
142	27	-278
65	90	-414
-14	139	-397
-44	160	-232
-14	139	-65
51	95	44
107	48	128
114	22	190
72	17	160
5	25	51
-45	22	-21
-60	-3	-78
-42	-39	-163
-16	-58	-195
-4	-31	-109
-16	51	1
-39	166	22
-54	256	34
-55	268	14
-46	178	-8
-44	5	-4
-55	-188	-18
-80	-326	3
-94	-362	16
-79	-300	49
-27	-186	88
48	-87	59
118	-45	-9
162	-58	-58
170	-85	-119
154	-69	-140
139	9	-38
142	123	90
157	227	98
160	261	29
123	218	-19
33	120	-88
-95	19	-152
-225	-45	-155
-311	-69	-66
-325	-70	-30
-269	-77	-10
-168	-93	-9
-64	-104	-21
12	-82	16
46	-16	6
44	74	19
23	149	22
-2	166	0
-20	120	-23
-23	28	-60
2	-65	-102
56	-129	-121
133	-151	-97
206	-140	-40
238	-118	-28
197	-94	-39
82	-61	-8
-72	-11	34
-207	67	61
-259	157	34
-211	233	22
-93	268	-6
28	248	-16
90	179	103
68	88	233
-14	4	273
-94	-49	183
-121	-68	2
-80	-67	-193
0	-71	-324
67	-105	-363
85	-171	-340
54	-250	-192
17	-312	-57
10	-319	-20
52	-254	-2
116	-126	8
158	23	37
143	151	74
75	222	38
-10	215	-77
-65	153	-137
-69	49	-189
-42	-62	-169
-23	-162	-16
-49	-225	162
-116	-237	260
-191	-190	231
-221	-87	125
-174	44	-39
-68	166	-158
48	230	-249
126	218	-291
138	141	-156
102	37	20
55	-41	45
38	-64	31
58	-19	16
102	65	-27
130	151	-16
120	200	36
74	192	81
11	131	79
-40	35	64
-62	-62	49
-53	-137	47
-34	-167	-1
-20	-147	-58
-27	-90	-63
-52	-21	-55
-91	28	-42
-121	41	-45
-130	20	-47
-109	-12	-53
-57	-26	-60
6	-5	-57
64	44	-38
93	93	-15
83	109	-1
40	72	1
-12	1	3
-48	-71	4
-55	-106	14
-33	-80	74
-1	-5	116
27	85	125
42	153	123
49	171	82
59	141	18
74	77	-62
89	-1	-120
91	-72	-192
75	-123	-238
40	-143	-161
8	-123	-80
-8	-63	-68
1	17	-82
23	85	-96
38	97	-115
28	35	-63
-15	-87	21
-75	-213	49
-130	-279	29
-163	-242	-7
-170	-114	-107
-157	35	-169
-134	125	-134
-111	95	-48
-81	-42	95
-40	-213	175
9	-320	164
56	-301	72
84	-163	-33
77	19	-132
40	153	-190
-5	185	-131
-33	134	-39
-20	65	4
31	51	30
97	106	58
143	188	81
144	221	57
101	154	-15
30	5	-11
-30	-147	-27
-57	-206	-109
-42	-138	-201
-3	20	-185
34	163	-48
49	194	7
33	85	50
-3	-102	118
-42	-251	159
-64	-272	175
-66	-149	127
-48	47	47
-18	207	-72
13	254	-198
36	190	-211
44	84	-163
32	19	-76
-5	40	11
-56	120	77
-110	192	128
-145	198	100
-147	130	19
-113	36	-59
-53	-24	-118
4	-22	-171
39	15	-151
42	21	-59
23	-53	0
-2	-202	15
-12	-353	49
6	-412	49
44	-322	3
89	-111	-16
121	127	-35
135	279	-19
130	275	1
112	138	24
91	-51	64
65	-188	69
30	-219	-5
-19	-159	-90
-78	-77	-139
-133	-43	-207
-165	-80	-232
-158	-149	-194
-107	-187	-87
-25	-151	12
61	-39	65
123	99	26
144	209	-61
124	259	-66
76	257	-37
17	235	-24
-34	214	49
-68	201	251
-87	163	401
-87	82	354
-62	-41	188
-13	-174	16
60	-264	-143
139	-282	-414
194	-224	-647
194	-121	-536
119	-23	-279
-18	40	-124
-180	54	12
-310	35	130
-361	-3	140
-329	-41	113
-226	-65	66
-100	-68	55
2	-45	127
46	0	136
39	53	97
1	91	41
-34	89	-3
-39	43	-24
-11	-27	-67
40	-86	-82
96	-99	-66
137	-51	-57
158	39	-34
154	131	-3
133	187	13
102	186	65
68	132	138
33	53	171
5	-21	118
-18	-78	19
-31	-113	-92
-39	-136	-218
-38	-153	-256
-26	-157	-188
-1	-144	-86
34	-104	-9
70	-37	29
93	41	32
86	118	4
49	171	-35
-10	196	-48
-66	189	-40
-103	156	-34
-105	106	-35
-75	53	-43
-27	15	-42
20	6	-42
51	37	-33
69	97	-36
78	158	-25
82	185	48
78	139	88
58	15	57
15	-157	16
-53	-313	-38
-127	-393	-71
-182	-359	-112
-197	-236	-134
-161	-84	-75
-92	24	21
-20	43	56
19	-13	3
12	-94	3
-35	-133	19
-95	-97	22
-129	6	-44
-115	122	-162
-51	196	-223
38	190	-276
123	110	-273
171	-6	-190
170	-122	-10
129	-203	145
68	-233	233
15	-209	273
-16	-127	235
-16	-5	149
2	131	21
24	243	-79
33	283	-157
23	233	-189
-3	104	-153
-33	-58	-108
-49	-200	-50
-42	-282	-5
-11	-300	13
35	-264	23
83	-205	14
117	-121	41
128	-5	31
119	143	-20
88	305	-59
41	433	-35
-22	475	-5
-93	403	-11
-159	233	34
-206	16	27
-221	-174	-17
-193	-288	-32
-134	-316	-52
-65	-273	-42
-8	-191	16
22	-95	95
27	-3	114
20	76	39
15	126	-49
25	135	-151
46	105	-201
69	51	-137
82	11	-40
75	7	15
50	40	-4
19	90	1
-10	113	-7
-30	91	-49
-36	28	-66
-33	-36	-63
-17	-66	-39
9	-51	-6
49	-3	32
95	36	52
135	47	77
159	31	84
145	14	47
90	20	31
2	50	65
-95	79	63
-172	60	-2
-199	-16	-115
-169	-137	-234
-95	-246	-289
-10	-289	-289
52	-249	-207
69	-147	-37
44	-38	85
7	30	119
-15	47	71
-1	34	7
39	29	-4
83	54	6
95	100	62
57	128	63
-22	110	113
-114	39	167
-179	-52	52
-195	-121	-117
-160	-131	-227
-93	-76	-215
-25	14	-202
18	103	-232
30	152	-195
21	150	-103
14	95	-126
23	-4	-130
54	-126	-38
92	-254	15
110	-348	62
90	-378	63
29	-316	82
-54	-173	102
-126	9	91
-159	164	67
-142	236	49
-85	205	68
-13	105	84
44	-2	78
77	-54	58
84	-32	35
79	48	-4
75	139	-36
74	208	-70
67	240	-48
52	250	-24
29	250	-37
7	236	-34
-4	191	-48
3	93	-36
19	-44	-7
31	-184	1
28	-270	12
6	-273	9
-21	-214	-18
-37	-149	-44
-34	-134	-42
-17	-185	-38
4	-256	-87
11	-269	-124
3	-170	-117
-11	27	-117
-17	244	-90
-4	388	-61
24	391	-41
52	275	-15
66	116	-25
56	-4	-31
34	-55	43
13	-64	145
7	-90	202
9	-162	173
4	-253	97
-29	-288	61
-92	-212	-47
-163	-28	-224
-209	183	-291
-195	319	-246
-115	301	-162
14	157	-22
142	-28	131
221	-139	150
222	-114	77
144	29	-33
20	203	-177
-109	310	-236
-202	298	-173
-245	178	-22
-230	14	76
-169	-134	79
-83	-229	68
13	-264	97
96	-259	102
149	-222	39
162	-152	-20
132	-56	-72
74	43	-127
11	113	-157
-35	114	-88
-46	38	-24
-23	-91	-48
21	-215	-77
68	-278	-84
93	-249	-100
84	-138	-71
39	0	-31
-27	113	-12
-96	159	-6
-147	135	-23
-153	70	-14
-114	2	15
-38	-40	49
50	-50	60
121	-36	37
147	-14	14
121	4	6
56	17	20
-23	26	19
-87	33	19
-120	32	22
-112	16	-7
-75	-17	-13
-16	-56	8
55	-84	17
128	-80	-3
189	-31	-52
212	54	-72
183	158	-63
93	253	-21
-38	318	85
-170	335	107
-253	298	23
-253	210	-26
-184	79	-85
-79	-76	-159
5	-225	-224
33	-326	-189
1	-358	-96
-57	-313	-58
-96	-208	-46
-88	-91	-8
-27	-3	43
58	28	26
128	15	-3
157	-14	-5
141	-23	39
101	9	87
56	68	91
21	128	48
-3	158	-30
-22	144	-99
-38	106	-181
-45	74	-177
-36	72	-89
-10	98	-23
24	126	4
44	120	40
37	62	78
5	-37	56
-31	-142	15
-45	-206	-47
-18	-206	-82
40	-148	-43
101	-71	-1
132	-21	29
115	-14	100
66	-37	115
11	-52	17
-16	-26	-62
-11	40	-128
8	105	-193
8	113	-249
-35	24	-241
-109	-144	-125
-176	-322	-65
-187	-419	-31
-123	-372	7
-3	-192	-15
121	49	11
189	248	49
170	327	115
78	278	229
-40	153	306
-135	38	248
-172	-9	31
-151	17	-127
-94	72	-257
-34	91	-324
14	37	-202
48	-78	76
72	-199	225
86	-264	93
81	-242	-40
45	-130	-142
-22	21	-250
-107	164	-239
-183	252	-89
-222	274	36
-209	233	74
-157	159	75
-85	76	49
-15	8	32
35	-29	-15
63	-33	-64
74	-18	-71
69	-7	-54
52	-18	-21
32	-55	35
12	-101	91
7	-118	135
26	-81	158
68	8	144
119	110	88
155	170	-25
157	141	-142
117	26	-235
52	-127	-306
-11	-249	-302
-51	-274	-211
-60	-201	-89
-51	-72	-12
-42	43	-10
-48	95	-26
-66	85	18
-83	50	103
-72	43	128
-29	85	86
40	149	0
111	183	-107
155	145	-144
154	39	-107
110	-90	-5
44	-178	106
-14	-183	182
-44	-116	175
-44	-27	70
-24	23	5
-2	10	-86
0	-48	-224
-21	-94	-238
-58	-82	-129
-96	-1	-20
-115	106	21
-104	182	44
-59	180	34
10	94	-2
89	-28	-42
159	-129	-88
204	-159	-116
207	-113	-120
167	-31	-30
93	38	79
-1	48	120
-92	-4	149
-166	-98	130
-212	-187	10
-236	-233	-78
-247	-214	-78
-245	-137	-40
-226	-29	30
-177	82	48
-92	166	-16
23	211	-112
135	215	-205
212	189	-282
221	148	-211
159	106	-52
52	74	11
-50	42	30
-110	3	25
-111	-58	20
-70	-142	36
-21	-226	48
7	-273	12
4	-251	-35
-10	-152	-48
-11	-3	-68
16	142	-46
69	222	42
124	208	166
157	115	278
155	5	302
125	-62	228
83	-46	70
40	40	-122
2	144	-302
-37	205	-373
-79	181	-334
-113	81	-259
-122	-51	-117
-93	-156	21
-26	-196	71
50	-173	21
105	-105	-54
117	-31	-92
89	31	-118
48	76	-68
25	105	56
39	120	178
75	116	213
93	93	137
54	56	47
-54	25	-39
-203	20	-185
-333	48	-297
-386	84	-235
-333	89	-134
-193	34	-108
-21	-84	-10
121	-224	98
203	-326	112
225	-342	134
216	-252	171
208	-90	186
198	85	84
163	201	-59
85	223	-172
-38	143	-232
-169	-5	-172
-252	-179	-90
-245	-326	-52
-156	-405	-25
-39	-393	-5
34	-300	-7
22	-145	12
-63	18	16
-158	142	2
-188	194	-38
-118	181	-52
24	137	-20
172	114	11
258	138	70
245	203	155
167	267	210
72	279	181
12	225	61
-8	106	-123
-15	-18	-242
-43	-112	-349
-109	-148	-372
-183	-138	-190
-221	-113	-15
-182	-99	48
-70	-100	43
67	-94	69
174	-64	90
214	0	117
186	77	144
120	138	180
59	156	209
25	130	137
17	82	22
11	38	-62
-11	18	-154
-50	20	-300
-89	23	-393
-107	12	-320
-97	-16	-157
-67	-48	-62
-28	-65	-23
10	-53	11
51	-15	34
103	36	29
162	80	-11
212	101	-51
223	98	-69
170	62	-30
54	3	82
-90	-79	238
-212	-167	332
-273	-236	267
-257	-261	121
-182	-225	-27
-94	-132	-221
-24	-14	-360
16	90	-353
38	150	-249
60	162	-141
87	145	-60
107	135	4
100	147	12
48	169	48
-33	168	96
-109	112	155
-140	-6	173
-106	-163	68
-21	-309	-31
67	-400	-106
113	-405	-159
94	-330	-163
24	-207	-80
-54	-69	26
-93	52	47
-69	144	-3
2	198	-24
88	211	-54
142	189	-58
142	140	7
90	84	78
6	37	87
-82	14	48
-150	7	-15
-191	2	-72
-203	-23	-109
-191	-78	-168
-160	-145	-124
-111	-203	-36
-56	-215	-6
-6	-170	46
25	-78	65
40	32	78
42	131	92
47	194	63
66	211	49
99	188	32
131	129	-16
147	48	-68
132	-40	-88
89	-112	-52
29	-141	19
-23	-117	76
-59	-44	54
-69	43	-33
-63	114	-112
-44	131	-157
-16	97	-166
19	38	-48
59	-14	81
98	-31	110
118	-16	9
107	18	-224
64	45	-378
2	59	-357
-56	68	-242
-93	80	-113
-96	96	49
-75	91	130
-47	40	118
-26	-67	103
-16	-209	39
-7	-330	-6
7	-368	-32
32	-286	-30
58	-112	-2
81	89	37
86	233	117
82	261	173
75	178	126
68	38	22
58	-77	-59
30	-112	-138
-24	-58	-188
-101	39	-182
-182	115	-44
-241	117	91
-259	43	130
-232	-74	103
-181	-175	16
-120	-214	-53
-60	-182	-116
8	-97	-151
98	0	-132
203	81	8
296	139	109
333	186	100
284	233	58
151	268	9
-19	267	-5
-152	201	-27
-190	51	-89
-122	-142	-106
7	-325	-119
123	-418	-145
160	-381	-113
96	-227	-57
-32	-22	-7
-153	145	11
-208	223	58
-175	203	40
-79	138	-50
22	86	-84
78	80	-85
65	99	-76
1	91	-71
-80	14	-32
-136	-130	34
-151	-286	74
-129	-383	51
-88	-371	12
-47	-265	29
-17	-131	64
1	-32	78
15	0	51
36	-11	27
63	-11	24
104	45	-35
148	154	-52
184	260	11
197	310	29
172	269	-26
110	166	-96
18	53	-113
-76	-14	-192
-142	-21	-261
-162	4	-204
-141	17	-137
-100	-12	-81
-64	-68	3
-52	-121	56
-60	-129	15
-67	-92	-33
-49	-30	-74
-1	24	-81
67	47	-28
125	51	49
151	50	166
136	62	209
98	81	186
57	88	161
32	70	101
28	31	40
28	-3	-66
13	-10	-174
-28	18	-215
-84	57	-176
-134	66	-175
-153	23	-227
-126	-64	-149
-61	-152	-18
24	-189	76
105	-148	80
158	-43	82
166	69	126
127	135	159
49	120	167
-44	39	90
-126	-62	-52
-169	-127	-155
-147	-128	-215
-65	-70	-233
49	7	-112
155	56	19
211	58	29
193	13	-37
110	-51	-63
-2	-96	-20
-101	-97	16
-156	-52	-45
-153	17	-144
-110	77	-148
-56	92	-115
-23	43	-58
-30	-65	-7
-81	-206	24
-156	-325	56
-229	-378	41
-262	-326	40
-232	-183	47
-128	14	46
32	198	32
205	317	-3
331	350	-39
358	325	-28
275	289	40
113	272	124
-61	275	178
-180	258	170
-195	166	93
-121	-14	-30
-10	-247	-161
72	-444	-284
82	-530	-328
19	-460	-243
-70	-280	-147
-129	-75	-82
-118	67	-53
-45	106	-29
56	75	26
135	33	44
161	43	40
133	117	21
86	211	16
46	269	36
32	251	45
36	158	37
37	33	37
23	-80	17
-8	-153	-38
-38	-189	-59
-51	-195	-77
-42	-182	-65
-20	-136	-3
-2	-51	109
3	65	203
-3	182	171
-7	250	114
2	244	65
24	175	-9
47	85	-110
58	14	-161
52	-9	-82
32	-1	-41
15	4	-89
8	-21	-203
1	-74	-311
-20	-115	-287
-66	-107	-235
-136	-35	-128
-200	69	31
-216	153	116
-165	169	122
-45	106	103
107	8	2
238	-76	-92
301	-104	-114
278	-80	-161
190	-43	-123
76	-32	4
-21	-63	64
-80	-110	51
-98	-130	30
-91	-98	24
-84	-30	-30
-87	11	-58
-104	-25	-8
-126	-154	17
-152	-319	42
-169	-426	36
-176	-393	28
-166	-209	45
-140	47	37
-101	257	18
-56	316	12
-24	202	1
-7	-4	-20
-5	-176	-44
0	-212	-92
21	-97	-113
65	99	-97
122	261	-63
162	313	-19
164	247	24
115	131	69
38	44	106
-30	30	123
-54	68	101
-26	94	16
38	63	-89
107	-21	-185
140	-104	-230
126	-123	-203
74	-57	-100
14	56	15
-30	138	53
-46	131	35
-40	32	-2
-26	-97	-23
-14	-173	-51
-5	-143	-23
5	-20	22
23	128	19
42	222	17
54	214	-1
49	117	-2
27	-13	-12
-6	-120	-11
-35	-168	-11
-53	-159	12
-56	-113	44
-54	-60	45
-55	-13	47
-61	15	-44
-69	15	-140
-68	-20	-153
-52	-85	-95
-16	-149	16
36	-167	117
101	-105	199
169	32	172
224	190	42
249	291	-104
223	277	-227
131	145	-248
-23	-39	-289
-202	-183	-309
-352	-221	-163
-417	-150	-79
-373	-33	-11
-241	47	49
-83	48	30
32	-8	9
63	-55	-31
21	-36	-16
-42	53	11
-63	155	13
-16	180	4
85	88	29
184	-97	55
228	-277	84
192	-351	91
102	-270	56
8	-77	32
-39	121	-28
-28	219	-112
20	171	-166
64	23	-115
72	-126	-34
40	-184	0
-16	-114	19
-69	39	22
-100	192	12
-105	267	-32
-88	243	-25
-55	145	-16
-14	36	-7
31	-40	33
70	-78	105
94	-92	191
90	-108	200
66	-131	125
40	-151	-50
29	-140	-270
40	-95	-446
64	-35	-492
78	11	-349
59	23	-107
5	7	90
-71	-12	132
-140	1	109
-178	55	130
-172	127	121
-123	182	113
-46	183	96
41	134	85
117	63	47
158	14	-32
136	14	-78
46	48	-125
-96	78	-119
-240	50	-85
-328	-53	-59
-315	-209	-24
-195	-345	-2
-24	-393	-4
125	-313	8
188	-125	80
150	90	138
48	247	171
-42	286	171
-68	210	81
-16	75	-71
81	-39	-225
162	-81	-320
185	-51	-345
143	3	-301
71	21	-185
9	-20	-63
-18	-96	21
-14	-145	59
-4	-103	47
-6	36	11
-23	235	8
-32	396	1
-16	438	-2
36	335	4
104	105	33
150	-165	72
143	-386	61
75	-489	46
-30	-460	48
-134	-337	51
-199	-170	29
-206	-18	17
-164	85	29
-95	138	10
-32	161	-43
13	178	-48
35	207	-6
43	244	-30
46	259	-89
44	224	-143
34	117	-201
18	-38	-245
-3	-199	-219
-13	-301	-84
0	-309	40
42	-230	69
101	-108	72
149	-10	32
155	25	5
99	2	-15
-6	-32	-39
-120	-25	26
-191	47	155
-181	162	312
-84	253	337
58	259	222
178	153	18
219	-32	-247
162	-224	-464
30	-342	-557
-113	-343	-412
-210	-237	-140
-231	-80	20
-189	51	74
-125	105	68
-80	67	18
-70	-32	-5
-87	-132	0
-103	-183	-8
-101	-152	2
-81	-48	19
-54	88	45
-39	205	87
-35	257	96
-29	237	91
-1	158	101
53	61	82
125	-16	-2
184	-55	-107
207	-64	-144
180	-60	-126
112	-56	-119
29	-52	-66
-42	-36	20
-80	3	30
-70	67	5
-25	137	3
42	188	-2
107	198	14
148	168	119
147	110	169
106	50	76
42	4	-41
-21	-25	-143
-63	-40	-215
-78	-41	-237
-74	-34	-132
-68	-16	-13
-77	1	45
-94	4	105
-107	-27	91
-96	-97	31
-53	-179	-63
16	-236	-155
93	-222	-213
155	-125	-251
184	26	-211
180	174	-81
147	259	-4
95	253	34
41	171	137
-3	65	228
-27	-20	281
-25	-57	217
-4	-63	91
20	-66	-68
24	-81	-230
-5	-103	-356
-67	-102	-372
-138	-61	-192
-184	12	-45
-178	79	-12
-117	88	0
-29	17	59
49	-119	129
76	-265	147
37	-370	87
-52	-384	-19
-159	-312	-122
-245	-184	-217
-285	-43	-207
-264	68	-70
-198	131	86
-99	137	161
9	93	175
109	23	162
180	-40	96
207	-46	9
194	28	-97
151	180	-164
99	353	-133
59	461	-39
47	438	120
57	257	233
69	-17	224
66	-286	112
32	-444	-78
-28	-446	-236
-92	-313	-376
-133	-131	-369
-137	12	-175
-102	77	-24
-45	75	21
13	60	8
56	78	-6
77	137	13
80	206	87
71	240	130
60	213	91
44	133	28
26	38	-11
-1	-40	-83
-31	-83	-166
-56	-96	-158
-69	-99	-66
-64	-94	31
-39	-76	69
0	-29	57
38	41	-31
69	108	-58
86	131	-37
93	88	-21
100	-9	-24
117	-107	-40
147	-141	-6
172	-83	-9
175	45	6
129	166	29
32	194	20
-95	93	1
-214	-103	-27
-285	-300	-50
-282	-394	-66
-213	-339	-40
-107	-148	76
-2	89	193
70	279	182
105	358	96
105	327	-1
87	225	-100
59	104	-166
21	-1	-155
-28	-87	-112
-85	-151	-195
-140	-189	-287
-177	-183	-244
-180	-124	-141
-150	-30	-95
-96	47	-76
-34	50	-26
20	-39	13
61	-189	23
85	-311	12
94	-320	52
92	-185	145
78	43	199
55	257	175
27	353	119
4	287	25
-18	110	-57
-35	-82	-121
-49	-186	-201
-64	-173	-171
-78	-76	-89
-85	28	-36
-83	78	52
-65	70	112
-35	41	125
5	41	116
48	77	70
93	112	-21
131	98	-110
161	11	-111
175	-117	-107
165	-216	-137
130	-225	-108
71	-131	-20
5	4	-17
-60	100	-43
-105	92	-72
-120	-9	-59
-101	-130	21
-60	-183	20
-14	-125	15
24	13	12
40	155	3
33	221	-16
9	191	-49
-15	106	-68
-26	47	-90
-20	60	-97
-2	137	-69
11	215	26
9	219	126
-16	120	175
-54	-52	100
-92	-221	0
-105	-312	-59
-89	-292	-105
-46	-192	-81
8	-58	-62
56	56	-75
91	131	-107
110	171	-94
123	188	-77
138	177	-79
155	134	-44
161	53	11
142	-51	95
86	-157	113
-5	-223	94
-113	-238	111
-211	-210	130
-267	-159	125
-264	-105	72
-205	-49	-22
-106	15	-117
-7	94	-185
58	171	-262
64	215	-272
9	195	-160
-86	109	-91
-174	-4	-84
-214	-89	-62
-173	-96	-44
-49	-31	-14
118	55	-3
269	89	26
342	20	91
302	-133	109
170	-301	23
-5	-390	-71
-144	-345	-38
-189	-178	29
-130	28	65
-11	179	135
99	215	181
141	150	149
103	51	-7
12	-1	-186
-70	29	-230
-99	116	-259
-61	189	-270
9	188	-204
63	100	-61
68	-27	51
23	-125	91
-44	-138	130
-94	-69	99
-105	34	24
-78	117	-53
-38	141	-137
-10	110	-196
2	51	-121
3	-5	32
6	-51	85
19	-94	83
38	-137	87
51	-171	65
50	-167	38
36	-113	-14
18	-22	-71
5	63	-86
1	96	-58
-3	52	-51
-11	-41	-67
-22	-124	-46
-32	-141	-24
-26	-72	-4
4	53	-2
53	171	0
110	240	32
154	240	80
158	200	99
111	160	69
20	138	20
-96	120	-56
-203	75	-121
-270	-13	-131
-271	-128	-87
-209	-221	19
-109	-242	90
-6	-180	152
67	-64	238
105	43	213
111	95	63
110	71	-107
117	2	-255
128	-70	-414
128	-109	-463
94	-112	-368
24	-106	-170
-61	-115	-17
-128	-145	38
-151	-177	43
-120	-184	-7
-59	-148	8
-2	-79	47
27	-8	86
23	43	103
4	70	61
-12	92	-4
-11	129	-47
-3	191	-74
-2	261	-33
-20	301	83
-57	290	160
-95	222	167
-109	117	62
-89	6	-154
-39	-91	-289
22	-174	-265
78	-252	-229
118	-326	-224
141	-384	-113
150	-394	26
144	-345	82
122	-230	127
84	-84	144
34	50	166
-8	144	139
-26	190	87
-15	208	44
14	219	-6
34	230	-13
25	233	-18
-24	202	3
-91	142	22
-144	60	19
-160	-8	-16
-133	-49	-85
-85	-57	-108
-45	-54	-82
-37	-58	-48
-55	-69	-38
-77	-71	-23
-68	-38	-28
-20	30	-62
58	104	-69
137	136	-97
191	95	-115
206	-11	-77
190	-129	-43
155	-193	-21
107	-168	-29
44	-66	-38
-37	43	-18
-139	93	11
-239	55	72
-300	-41	171
-299	-121	216
-229	-126	161
-115	-37	86
6	99	-63
97	209	-236
144	244	-323
156	200	-340
151	121	-243
142	55	-95
131	22	-4
111	2	-24
71	-48	-54
14	-144	-57
-48	-263	-39
-96	-340	13
-115	-322	31
-104	-196	48
-70	-18	19
-27	129	22
16	181	163
50	125	346
76	23	425
86	-42	289
79	-11	56
52	112	-142
10	261	-345
-45	349	-513
-104	309	-485
-160	138	-256
-205	-105	-24
-231	-329	51
-229	-460	48
-191	-456	20
-119	-333	2
-20	-147	21
85	35	21
171	155	33
216	183	44
226	135	16
206	47	-21
181	-19	1
166	-21	31
159	47	93
154	155	135
131	241	91
77	250	26
-5	160	-57
-101	-4	-113
-184	-184	-178
-234	-316	-153
-241	-364	-10
-206	-325	65
-142	-230	68
-66	-117	22
4	-7	-14
55	86	-34
82	165	-48
83	218	-36
66	239	-47
40	213	-82
16	143	-117
-2	56	-141
-10	-21	-156
-14	-57	-114
-15	-57	-18
-16	-35	1
-16	-17	-31
-10	-19	-16
5	-27	4
24	-25	60
40	7	127
46	65	130
40	126	52
27	158	-64
14	139	-109
14	86	-107
22	18	-68
31	-29	-19
23	-42	34
-7	-29	120
-55	-9	135
-103	-1	72
-122	-9	-38
-103	-29	-162
-47	-46	-250
18	-66	-315
65	-93	-271
72	-129	-106
41	-170	20
-5	-188	84
-40	-157	162
-44	-65	229
-17	68	194
19	202	80
41	279	15
35	268	49
11	174	7
-14	35	-140
-18	-89	-176
6	-158	-156
40	-156	-145
64	-111	-150
54	-66	-144
12	-60	-54
-45	-110	35
-84	-192	80
-81	-265	78
-35	-289	19
25	-233	-37
65	-109	-82
56	49	-101
-6	187	-58
-94	261	0
-169	244	74
-195	154	102
-165	27	29
-96	-81	-39
-16	-125	-103
47	-92	-142
91	3	-68
121	110	35
155	185	29
195	194	-2
226	136	-7
216	43	-32
152	-46	-9
26	-96	26
-135	-100	68
-279	-64	54
-360	-20	-8
-351	8	-35
-262	11	-74
-134	-15	-96
-11	-53	-91
68	-91	-35
94	-106	20
85	-92	21
74	-39	-5
82	44	-28
116	138	-9
158	213	-12
180	241	-22
167	215	-6
115	148	4
46	75	21
-19	26	29
-59	10	40
-76	6	47
-75	-25	52
-65	-103	53
-55	-213	-13
-40	-298	-93
-14	-299	-130
27	-187	-138
72	7	-120
110	205	-72
127	323	61
119	319	202
93	215	196
55	85	47
15	-11	-124
-31	-40	-262
-83	-36	-379
-135	-54	-395
-169	-131	-261
-161	-246	-111
-97	-332	-95
15	-322	-112
138	-200	46
219	-13	305
214	153	360
116	221	254
-46	180	100
-217	81	-95
-331	3	-286
-347	-1	-387
-269	58	-254
-139	125	-53
-7	130	72
80	51	113
106	-81	65
81	-203	2
31	-258	-33
-15	-236	-40
-41	-167	-13
-42	-96	33
-27	-45	89
-1	-3	116
30	58	79
61	156	40
93	265	7
118	337	-26
136	329	-65
137	233	-66
118	84	-9
79	-70	17
24	-188	24
-39	-270	23
-100	-329	4
-141	-381	-7
-156	-411	-32
-136	-379	-35
-88	-253	-23
-22	-43	-39
44	188	-50
98	353	-47
131	388	-62
139	299	-82
129	150	-98
98	30	-87
54	-4	-24
0	33	45
-57	81	85
-106	68	69
-135	-22	35
-136	-150	-3
-111	-237	-57
-66	-225	-79
-22	-113	-80
16	40	-104
42	159	-110
61	197	-96
82	161	-75
107	100	-51
136	67	-63
154	76	-45
149	102	-23
109	106	-16
41	69	71
-44	10	205
-128	-34	377
-195	-35	442
-234	-1	242
-231	23	-61
-187	-6	-317
-109	-97	-546
-16	-210	-652
70	-275	-452
130	-235	-64
142	-89	141
110	106	145
46	262	92
-22	319	31
-70	256	0
-86	120	-17
-67	-19	15
-28	-109	69
12	-127	115
40	-101	144
54	-64	112
54	-50	20
46	-69	-109
33	-110	-215
11	-162	-259
-18	-204	-215
-56	-223	-46
-94	-202	118
-124	-138	139
-129	-40	121
-105	65	65
-49	136	-30
27	143	-111
104	83	-131
158	-15	-52
172	-97	31
148	-115	89
99	-60	39
42	33	-80
-4	114	-172
-35	136	-242
-53	97	-241
-68	31	-154
-80	-17	24
-81	-12	120
-57	36	78
-8	95	47
53	117	-11
102	89	-57
110	24	-47
65	-31	-7
-18	-42	32
-103	-1	81
-157	67	152
-160	117	191
-116	117	163
-50	67	90
8	-1	34
42	-44	-24
52	-39	-119
50	6	-232
42	53	-277
34	62	-227
20	14	-182
-2	-77	-77
-28	-167	119
-48	-222	213
-53	-225	155
-37	-191	56
-5	-150	-66
31	-120	-211
62	-98	-298
80	-61	-224
84	3	-77
69	90	26
46	168	72
18	204	79
-5	181	68
-17	115	77
-10	50	77
7	26	112
16	58	149
5	127	136
-31	189	80
-75	202	-58
-97	147	-213
-70	36	-325
2	-97	-325
91	-213	-230
156	-282	-109
162	-278	-10
111	-201	32
37	-66	49
-10	93	78
-1	224	57
50	279	-2
103	238	-16
103	123	13
29	-14	42
-98	-114	68
-223	-145	81
-291	-125	12
-285	-100	-42
-217	-118	-40
-133	-191	-40
-74	-280	-11
-48	-322	60
-38	-278	118
-16	-148	100
33	13	-24
95	126	-130
136	152	-177
131	95	-234
78	9	-249
2	-38	-157
-61	-15	-5
-89	66	42
-83	156	70
-58	202	101
-42	189	103
-42	124	63
-47	47	-36
-42	-15	-92
-11	-49	-125
40	-61	-125
100	-53	-106
150	-23	-38
181	26	20
200	85	34
207	124	51
204	116	19
179	45	24
123	-56	16
34	-144	-46
-64	-165	-108
-148	-103	-134
-184	3	-91
-164	94	-51
-104	113	-45
-41	59	-15
-12	-23	24
-32	-76	87
-86	-59	170
-136	4	196
-148	64	175
-98	67	119
-5	14	36
91	-47	-111
145	-54	-289
129	25	-373
48	157	-310
-60	255	-260
-153	236	-209
-190	80	-28
-167	-155	169
-99	-361	235
-19	-439	166
45	-364	35
82	-189	-90
97	-11	-168
107	93	-188
120	98	-105
138	46	24
149	4	72
138	14	76
101	75	65
38	142	53
-37	169	90
-107	129	89
-152	38	28
-164	-66	-18
-136	-151	-75
-71	-188	-112
11	-179	-83
88	-127	-26
136	-48	27
140	45	36
100	135	0
38	200	10
-20	221	37
-50	188	59
-50	117	74
-30	30	67
-10	-48	25
-1	-106	-58
-4	-145	-117
-15	-171	-164
-23	-182	-197
-30	-166	-186
-39	-109	-119
-54	-15	-81
-68	96	-69
-64	187	-8
-23	233	21
58	227	60
157	190	82
234	154	74
239	134	72
163	122	55
20	84	48
-142	-5	-21
-274	-149	-109
-340	-305	-154
-332	-420	-132
-274	-443	-95
-201	-357	-125
-136	-201	-98
-84	-30	-64
-36	98	-94
18	156	-119
83	150	-90
147	112	-6
195	76	2
212	55	11
198	51	36
161	44	55
112	25	67
67	-9	72
28	-48	101
-6	-71	113
-39	-71	108
-65	-40	43
-81	12	-44
-75	76	-94
-46	138	-77
-8	189	-35
29	213	51
46	200	150
46	150	161
32	66	24
20	-26	-190
22	-102	-323
39	-137	-340
62	-123	-263
72	-79	-198
59	-32	-93
22	-19	12
-24	-43	65
-58	-98	103
-63	-144	70
-38	-147	60
4	-91	32
41	10	-17
55	119	-12
39	192	-33
-1	195	-70
-52	130	-58
-100	23	-50
-134	-81	-28
-148	-136	60
-133	-129	155
-83	-71	194
7	2	173
120	45	136
228	40	74
280	-11	-11
245	-75	-117
114	-119	-166
-72	-115	-147
-253	-74	-120
-354	-21	-99
-339	10	-62
-223	4	-33
-69	-32	-57
46	-69	-62
80	-88	-82
31	-83	-90
-52	-61	-92
-108	-45	-125
-94	-39	-143
-15	-34	-129
92	-18	-51
175	21	52
199	67	164
169	99	229
111	97	200
58	62	68
29	27	-54
19	21	-173
11	57	-261
-8	114	-226
-39	150	-99
-70	130	46
-85	50	80
-76	-50	69
-49	-121	54
-21	-122	41
2	-56	7
14	35	-15
20	102	-13
25	110	-39
33	71	-46
41	23	-32
50	8	14
60	41	6
74	116	-32
83	194	-42
80	236	-56
50	222	-44
-1	149	1
-66	28	63
-119	-119	118
-132	-261	129
-95	-368	105
-24	-393	87
42	-319	57
74	-164	-8
46	19	-136
-20	154	-230
-93	183	-292
-129	103	-339
-115	-30	-244
-56	-127	-107
10	-126	59
48	-19	158
46	125	82
13	215	-36
-23	190	-134
-36	43	-177
-12	-148	-182
39	-297	-123
89	-340	-11
111	-281	67
95	-169	94
46	-66	69
-11	-11	65
-49	8	55
-51	21	17
-17	55	13
32	98	4
68	123	26
66	101	47
16	31	11
-67	-45	-4
-156	-82	18
-212	-49	35
-209	41	9
-144	137	-20
-37	188	-37
71	166	-51
151	94	-27
176	14	12
151	-29	32
88	-21	7
16	20	-24
-45	57	-57
-86	63	-93
-105	35	-139
-111	-15	-168
-107	-65	-115
-94	-109	-75
-68	-139	-58
-35	-156	-30
6	-142	19
42	-84	25
69	24	-5
86	155	-13
95	256	-27
100	273	-21
101	189	-3
93	33	14
72	-109	11
34	-170	5
-14	-120	6
-59	-6	-14
-92	84	-20
-101	72	-18
-88	-53	0
-62	-226	29
-31	-337	74
-1	-305	140
22	-127	155
41	115	76
49	312	-38
46	372	-132
33	299	-238
12	145	-327
-4	7	-277
-9	-63	-111
3	-60	1
22	-29	17
37	-15	53
34	-33	120
11	-71	147
-23	-102	107
-48	-111	60
-52	-112	22
-34	-118	-18
-4	-126	-104
20	-106	-208
28	-27	-215
25	114	-160
26	269	-169
40	370	-204
69	350	-77
96	213	109
93	18	179
50	-150	167
-20	-226	82
-85	-215	-10
-109	-175	-88
-74	-170	-133
0	-222	-98
57	-291	-60
54	-312	-2
-26	-237	61
-150	-86	110
-244	72	124
-239	157	54
-115	134	-14
79	44	-70
250	-33	-100
299	-33	-92
182	47	-75
-50	153	-18
-292	204	15
-439	163	-2
-422	53	-40
-262	-49	-60
-49	-79	-72
125	-19	-77
198	85	-5
175	161	61
104	158	79
51	93	44
46	16	-5
81	-15	-33
121	8	-61
140	45	-81
130	36	-64
102	-48	-60
78	-179	-62
60	-280	-13
43	-282	45
12	-177	84
-38	-14	111
-91	117	147
-121	150	120
-114	88	38
-71	-6	-80
-16	-48	-170
29	8	-209
46	143	-235
40	283	-178
28	345	-104
22	291	-88
24	138	-57
27	-45	-19
16	-199	-2
-10	-281	2
-40	-291	-6
-61	-253	12
-57	-190	14
-28	-115	-31
16	-37	-65
61	33	-43
94	89	-16
107	119	22
98	130	82
62	143	79
9	171	29
-53	215	-25
-109	243	-66
-136	211	-68
-126	101	-47
-82	-70	-2
-23	-237	80
22	-326	126
40	-300	126
32	-189	63
21	-71	-40
31	-34	-88
71	-110	-93
123	-253	-46
153	-368	-7
126	-351	-40
32	-183	-89
-102	81	-138
-232	329	-177
-312	457	-128
-317	429	-27
-258	282	18
-166	105	-5
-80	-34	11
-17	-110	32
18	-144	-12
34	-171	-68
36	-192	-58
31	-192	-63
16	-144	-121
-3	-45	-89
-16	65	6
-7	132	22
35	120	30
101	48	61
167	-28	30
209	-42	16
206	19	-8
165	116	-33
98	171	-11
30	124	29
-24	-15	98
-58	-177	104
-74	-261	43
-72	-211	-75
-54	-40	-160
-20	166	-168
24	301	-177
63	308	-96
83	186	19
75	11	60
46	-133	63
14	-184	59
-2	-136	37
4	-37	-11
19	56	-64
23	96	-101
1	76	-113
-48	11	-105
-105	-60	-87
-143	-107	-66
-145	-116	-31
-108	-84	-2
-49	-30	24
7	30	33
44	72	13
59	93	5
60	90	20
53	72	65
46	55	90
32	43	64
12	33	34
-11	19	-14
-26	-7	-109
-22	-40	-197
6	-66	-207
50	-68	-156
94	-38	-51
123	18	91
128	81	249
111	126	360
85	139	334
52	131	187
21	120	-15
-19	129	-256
-74	170	-453
-148	219	-492
-228	236	-302
-300	166	-63
-346	-11	63
-350	-282	120
-305	-581	-3
-218	-805	-158
-108	-862	-254
2	-721	-255
93	-420	-97
147	-67	81
163	215	180
154	345	178
138	316	113
130	187	-8
136	63	-111
151	16	-182
155	54	-176
136	130	-48
92	174	112
39	153	249
0	70	267
-6	-9	154
22	-39	11
67	-8	-105
102	49	-189
94	76	-227
41	39	-186
-47	-40	-86
-138	-98	-24
-199	-71	1
-208	52	11
-169	223	3
-102	341	31
-36	331	91
11	171	150
33	-64	97
38	-271	-1
41	-349	-38
46	-263	-83
52	-69	-126
48	131	-108
27	243	-23
-4	213	56
-34	71	87
-42	-99	32
-26	-218	-31
10	-236	-84
42	-156	-116
50	-27	-72
26	87	-10
-21	139	32
-65	120	-3
-79	48	-38
-46	-37	-41
18	-105	-12
87	-137	21
129	-133	26
116	-106	45
52	-64	51
-36	-17	42
-113	32	13
-150	82	-40
-134	120	-103
-75	134	-136
1	112	-132
65	57	-105
101	-9	-17
107	-60	112
88	-72	207
52	-48	180
6	-6	38
-52	19	-139
-118	10	-320
-183	-32	-441
-223	-77	-405
-214	-87	-195
-144	-46	2
-30	29	78
101	102	105
203	130	82
245	106	57
226	47	54
154	-5	77
67	-27	109
-2	-18	110
-40	-8	90
-50	-34	-1
-45	-103	-89
-36	-192	-140
-31	-248	-140
-25	-232	-59
-18	-131	51
-10	15	66
-5	150	14
-11	225	-62
-27	224	-138
-43	166	-99
-52	93	-59
-43	43	-93
-16	28	-111
23	35	-36
58	41	66
79	31	119
77	5	91
52	-30	31
15	-58	-9
-23	-81	-95
-48	-94	-161
-51	-100	-125
-28	-101	-27
12	-89	24
48	-58	-10
65	-13	-45
51	33	-76
9	71	-70
-46	96	-40
-91	114	-17
-104	138	4
-81	165	10
-24	174	12
49	137	20
122	24	33
175	-155	37
190	-353	42
158	-482	38
74	-471	31
-51	-296	34
-190	-2	54
-300	301	64
-345	505	67
-310	523	43
-201	362	-24
-55	98	-69
85	-160	-109
180	-322	-140
212	-358	-158
191	-288	-129
127	-176	-63
39	-77	-40
-56	-22	-30
-143	-5	-19
-206	-11	-11
-221	-17	-8
-174	-13	-2
-69	2	21
64	28	24
183	60	18
251	103	8
250	140	-17
192	163	-58
106	159	-102
29	125	-103
-22	79	-106
-50	41	-54
-66	34	76
-86	57	225
-99	93	338
-97	104	285
-63	65	113
-8	-25	-124
50	-144	-364
86	-249	-522
74	-296	-494
20	-264	-289
-56	-175	-120
-123	-61	-27
-160	38	50
-156	97	72
-117	117	41
-61	113	18
-2	102	5
46	86	-17
79	51	-19
86	-11	-16
68	-102	9
35	-192	-13
3	-246	-23
-4	-232	26
23	-145	51
84	-22	48
149	96	47
186	163	42
170	170	14
99	129	0
3	74	-24
-85	23	-44
-130	-20	-44
-129	-60	4
-94	-105	84
-52	-139	120
-23	-139	84
-13	-85	29
-10	17	26
-1	132	28
19	218	8
47	241	-4
77	205	-34
101	138	-132
120	83	-249
132	57	-298
133	50	-214
113	36	-14
60	-13	121
-29	-87	169
-133	-162	104
-221	-186	-10
-259	-139	-79
-234	-29	-143
-158	106	-168
-56	214	-169
35	265	-95
99	253	-32
133	203	-19
148	139	16
147	81	24
124	30	22
76	-26	11
-4	-92	3
-99	-166	-12
-182	-233	22
-225	-278	101
-214	-289	161
-164	-269	171
-104	-235	130
-65	-198	99
-56	-173	69
-65	-153	62
-67	-124	85
-45	-71	87
-2	4	-25
41	85	-174
65	138	-359
57	131	-546
25	61	-522
-6	-47	-365
-17	-145	-162
-1	-180	-31
31	-130	3
63	-16	52
84	102	70
91	171	56
96	164	26
109	97	3
138	28	11
174	8	50
205	61	94
210	163	124
178	259	160
107	291	155
3	239	87
-110	114	6
-205	-42	-93
-256	-177	-187
-249	-260	-222
-189	-279	-176
-103	-242	-64
-27	-168	45
9	-75	54
-10	11	31
-58	74	48
-104	96	40
-106	83	65
-47	49	87
61	22	62
181	21	3
263	45	-28
275	81	-46
200	94	-68
61	71	-56
-102	14	-54
-241	-52	-44
-318	-90	-42
-315	-78	-54
-239	-14	-92
-118	69	-84
8	139	-42
105	164	-10
157	131	62
166	64	118
149	-9	152
122	-51	113
101	-48	60
81	-2	102
49	58	130
6	101	74
-46	102	-42
-86	64	-129
-96	8	-273
-70	-39	-463
-22	-61	-518
30	-64	-405
68	-74	-163
85	-108	17
91	-170	64
93	-233	56
97	-268	67
90	-252	98
60	-195	85
1	-130	52
-72	-89	20
-135	-82	17
-158	-88	4
-124	-78	-22
-51	-31	-18
23	41	-9
63	105	-11
49	131	-25
-8	116	0
-80	86	104
-121	78	169
-109	109	151
-48	161	120
32	186	8
100	153	-114
120	60	-159
87	-44	-141
18	-109	-100
-60	-103	-122
-120	-42	-90
-149	17	-56
-148	27	-50
-130	-25	2
-112	-98	16
-93	-133	-15
-71	-82	-77
-38	44	-99
12	185	-80
71	265	-56
125	236	-14
159	109	57
163	-53	111
135	-177	90
91	-210	56
42	-157	36
6	-54	-5
-18	42	-43
-27	103	-68
-32	126	-91
-39	122	-74
-48	104	-59
-58	67	-48
-58	3	-23
-41	-94	20
-6	-196	59
36	-260	32
75	-237	-28
98	-112	-65
96	75	-68
78	249	-58
55	333	3
42	289	143
44	141	272
56	-31	300
57	-147	205
31	-154	43
-27	-69	-134
-103	39	-397
-166	99	-652
-182	61	-609
-140	-50	-371
-46	-178	-151
58	-248	13
132	-218	118
148	-107	138
107	29	82
38	118	14
-21	118	-35
-50	29	-17
-49	-101	31
-41	-209	26
-49	-249	20
-81	-205	11
-122	-103	11
-144	12	27
-129	97	42
-77	135	81
-4	140	121
62	140	119
113	162	77
151	205	-9
187	243	-68
222	231	-63
239	140	-34
208	-15	41
111	-189	118
-44	-306	138
-213	-312	59
-336	-202	-27
-370	-30	-72
-303	118	-135
-174	169	-158
-44	101	-122
36	-42	-54
51	-182	-40
20	-237	-109
-18	-185	-142
-28	-54	-161
-3	84	-186
42	168	-141
82	169	-43
99	118	21
91	64	32
68	44	47
37	63	64
3	86	61
-39	68	98
-88	-2	155
-129	-103	170
-150	-179	123
-129	-184	-9
-68	-111	-129
17	4	-204
109	99	-235
184	131	-151
226	100	12
229	51	113
196	39	61
128	89	3
35	171	-20
-68	211	-2
-162	143	2
-215	-53	-35
-213	-318	-27
-156	-541	-74
-61	-612	-180
33	-486	-291
101	-207	-254
124	108	-105
113	335	-15
82	406	7
52	337	17
36	208	87
33	110	178
35	85	208
36	110	123
28	115	13
6	43	-90
-23	-105	-190
-52	-265	-198
-67	-353	-104
-60	-309	20
-28	-140	69
17	68	94
54	227	49
69	265	-27
58	197	-16
37	84	26
26	2	84
41	1	151
77	68	225
102	161	205
86	227	51
13	251	-81
-99	241	-189
-211	207	-330
-269	142	-432
-253	17	-328
-176	-182	-88
-81	-429	68
-14	-639	174
2	-708	152
-24	-578	32
-54	-282	-60
-57	59	-172
-25	300	-241
24	341	-168
60	198	-44
60	-17	16
23	-170	-16
-27	-174	-38
-66	-55	1
-78	87	26
-61	145	19
-32	83	-10
-4	-48	1
17	-143	-2
34	-121	19
51	15	87
68	183	152
82	282	155
85	251	45
78	109	-43
61	-58	-132
44	-161	-218
24	-162	-195
-1	-90	-35
-35	-14	150
-74	15	213
-105	-5	178
-110	-35	64
-78	-22	-65
-15	54	-179
62	163	-265
127	244	-219
166	250	-60
176	170	62
172	45	122
158	-67	152
132	-125	162
90	-116	124
18	-64	7
-72	-11	-140
-160	21	-265
-210	23	-341
-204	9	-327
-149	-9	-217
-68	-22	-78
-4	-37	7
25	-56	15
23	-82	22
10	-105	64
9	-111	79
34	-91	87
74	-43	109
109	21	144
129	91	155
133	153	107
138	198	26
145	219	-70
148	201	-129
124	134	-131
52	17	-47
-62	-137	49
-197	-283	18
-302	-371	-63
-336	-348	-104
-291	-212	-115
-197	-2	-125
-98	197	-137
-33	305	-71
-14	279	-16
-15	138	38
-3	-43	110
46	-182	122
124	-218	108
201	-153	60
234	-33	-26
207	69	-79
123	104	-86
12	63	-91
-94	-24	-71
-171	-110	-92
-205	-163	-131
-190	-167	-172
-128	-131	-214
-31	-68	-163
76	5	-61
150	72	-16
140	119	8
23	124	57
-178	81	56
-389	0	63
-518	-87	65
-496	-136	60
-314	-129	42
-47	-74	20
196	-9	15
325	21	-4
314	0	-4
212	-51	-21
113	-77	-46
93	-34	-55
163	86	-54
278	233	-13
352	327	56
320	307	121
172	169	181
-27	-30	149
-198	-196	58
-272	-258	-50
-240	-198	-176
-135	-66	-219
-24	54	-211
42	101	-91
54	67	20
30	-2	17
6	-39	-8
10	1	-79
44	112	-127
87	241	-122
111	316	-59
102	288	-17
62	161	-5
8	-20	54
-40	-190	72
-74	-288	47
-94	-286	54
-105	-198	84
-110	-68	100
-102	45	112
-70	100	101
-12	74	2
67	-11	-155
143	-106	-281
186	-153	-330
178	-116	-252
117	-6	-147
30	122	-127
-52	197	-127
-100	170	-98
-101	43	-25
-68	-122	29
-30	-250	66
-13	-282	70
-23	-215	28
-55	-99	9
-84	3	-5
-89	50	-9
-61	45	46
-15	29	164
35	36	281
76	76	273
101	116	124
119	123	0
142	80	-108
170	11	-219
184	-29	-287
163	-7	-229
90	80	-83
-30	177	-67
-170	221	-91
-291	162	-90
-361	14	-27
-361	-167	59
-308	-308	90
-221	-351	102
-126	-292	32
-44	-166	-35
17	-19	-85
50	102	-113
50	174	-132
18	193	-97
-37	160	-5
-86	83	45
-96	-18	82
-43	-121	90
58	-192	79
167	-205	55
230	-163	5
210	-83	-61
118	-2	-90
4	51	-70
-63	72	-9
-44	80	37
52	96	-38
175	129	-144
257	160	-156
252	154	-125
159	95	-128
22	-15	-91
-106	-129	10
-191	-196	52
-229	-182	34
-222	-95	4
-180	17	-25
-107	93	-14
-7	94	26
107	22	98
202	-77	192
239	-142	263
199	-131	251
100	-47	164
-12	75	11
-86	178	-170
-91	215	-324
-39	177	-403
19	82	-332
42	-16	-159
15	-78	-37
-48	-74	20
-102	-21	29
-115	49	13
-80	90	14
-26	74	31
17	5	30
30	-85	-21
15	-141	-42
-2	-129	-37
-7	-36	-26
3	103	-15
15	228	-19
16	279	-12
3	228	-2
-12	86	15
-14	-93	49
-2	-242	87
13	-312	70
9	-286	20
-19	-189	-53
-62	-64	-113
-92	41	-106
-79	101	-59
-23	108	62
52	83	130
111	52	67
122	49	-39
83	83	-161
19	140	-313
-38	185	-361
-65	170	-215
-62	69	-60
-49	-106	7
-43	-301	30
-56	-434	26
-85	-437	83
-115	-301	170
-138	-81	152
-151	125	138
-145	229	115
-118	197	4
-55	67	-125
46	-69	-218
167	-135	-196
272	-95	-141
321	10	-95
285	99	-27
176	109	23
37	23	64
-76	-107	64
-128	-210	36
-119	-229	-13
-79	-159	-64
-44	-44	-97
-37	51	-70
-53	91	-7
-62	86	63
-46	74	126
0	99	129
52	166	82
87	244	18
88	282	-39
65	247	-87
41	141	-118
24	11	-111
20	-87	-52
6	-118	-30
-28	-87	-21
-78	-30	3
-120	4	28
-126	-9	66
-89	-55	37
-21	-105	-40
42	-119	-123
78	-86	-181
77	-11	-205
55	75	-151
36	150	-32
34	200	20
38	219	8
30	199	9
4	124	9
-37	-11	15
-64	-199	-8
-63	-389	-62
-36	-512	-60
-7	-495	-41
-8	-316	3
-54	-25	111
-123	275	258
-172	469	383
-165	483	366
-89	320	196
31	70	-51
147	-157	-337
216	-271	-572
231	-254	-619
202	-150	-393
154	-28	-100
107	49	45
60	74	118
4	68	119
-67	68	117
-143	90	151
-202	113	191
-225	103	185
-202	38	15
-153	-69	-147
-95	-179	-243
-45	-245	-279
-2	-233	-267
45	-160	-209
104	-63	-27
163	4	120
200	22	191
196	-4	194
138	-41	152
48	-48	49
-49	-9	-87
-120	63	-144
-149	135	-134
-134	182	-96
-85	194	-24
-13	187	112
66	182	191
139	179	128
187	150	21
186	53	-63
123	-127	-142
13	-358	-179
-111	-549	-143
-198	-602	-44
-217	-466	-6
-168	-186	-45
-81	120	-57
-7	313	-59
18	319	7
-6	168	87
-47	-12	134
-66	-86	187
-39	14	161
23	233	60
85	428	-49
107	467	-170
80	300	-294
20	3	-368
-38	-278	-365
-62	-406	-269
-52	-342	-113
-31	-154	22
-30	31	69
-57	109	96
-103	68	108
-130	-21	112
-113	-55	152
-44	23	173
54	189	127
139	342	45
180	382	1
164	265	-35
110	31	-96
47	-210	-106
2	-356	-50
-19	-354	-27
-23	-232	-27
-22	-80	4
-27	17	29
-32	13	71
-31	-68	122
-18	-162	150
7	-192	117
31	-133	-16
50	-7	-148
58	135	-256
63	231	-337
70	253	-327
81	218	-151
89	164	87
83	123	136
59	113	118
14	116	75
-43	104	6
-106	61	-66
-160	-18	-153
-202	-117	-149
-226	-212	-97
-210	-289	-47
-144	-330	4
-23	-332	104
135	-283	161
285	-188	151
373	-53	105
357	88	7
238	191	-87
65	223	-164
-83	170	-182
-141	67	-147
-96	-36	-100
9	-85	-65
94	-56	-56
86	26	-51
-34	114	-63
-214	158	-43
-372	143	14
-426	87	6
-352	29	-27
-183	1	-20
-2	3	-9
119	13	16
148	0	57
101	-39	102
31	-89	97
-14	-110	26
-12	-86	-45
21	-33	-86
56	10	-86
63	1	-57
29	-68	-35
-30	-166	-20
-93	-230	11
-133	-213	-1
-137	-108	-27
-102	45	-36
-40	179	-48
31	239	-35
93	210	42
131	127	181
142	38	257
132	-13	281
111	-14	230
92	16	19
82	47	-246
77	54	-387
66	33	-391
42	-5	-365
2	-43	-224
-48	-65	-44
-93	-64	-33
-113	-32	-124
-98	29	-182
-45	116	-111
38	202	4
129	247	31
206	211	70
244	74	116
223	-138	108
141	-359	58
17	-498	28
-120	-497	-2
-231	-346	-41
-289	-115	-79
-290	92	-69
-243	183	4
-178	131	60
-115	-6	93
-68	-129	110
-39	-143	124
-19	-14	108
-8	208	72
-6	415	22
-14	502	-30
-22	422	-62
-12	210	-125
33	-41	-136
114	-230	-72
209	-301	-5
283	-256	57
300	-145	64
245	-34	6
143	41	-46
41	80	-74
-18	102	-104
-19	131	-126
21	171	-96
59	195	-49
54	177	-84
-10	101	-165
-115	-16	-159
-221	-141	-97
-281	-241	-4
-282	-286	170
-230	-282	289
-141	-238	231
-47	-177	59
36	-109	-101
107	-45	-277
169	2	-345
216	24	-241
245	11	-121
237	-29	-34
191	-71	14
113	-78	44
18	-28	27
-70	70	41
-141	174	60
-193	229	98
-231	198	87
-263	91	21
-285	-38	17
-281	-124	22
-240	-130	12
-161	-64	-78
-57	19	-84
42	70	-12
114	60	31
144	12	49
139	-27	30
121	-19	29
100	39	-18
85	110	-132
69	153	-276
49	132	-328
20	67	-214
-13	-11	-26
-34	-68	75
-40	-96	79
-30	-109	65
-23	-129	36
-27	-166	-18
-46	-192	-52
-65	-182	-21
-68	-115	21
-40	-4	39
15	106	35
78	177	17
128	185	9
144	149	11
131	103	21
102	78	40
71	78	95
51	77	104
37	47	21
21	-19	-70
-7	-96	-168
-43	-145	-243
-75	-130	-229
-88	-41	-128
-76	97	-45
-44	248	-21
-5	366	8
24	413	38
39	358	41
42	186	51
44	-87	62
50	-410	26
66	-682	-10
89	-806	-12
113	-715	22
125	-432	67
121	-66	90
90	233	66
31	349	-1
-48	267	-63
-135	71	-140
-204	-95	-241
-232	-129	-256
-208	-20	-140
-136	148	-31
-44	257	-23
35	241	-4
78	119	7
79	-11	21
56	-52	55
31	21	65
28	155	86
45	241	91
60	205	28
42	53	-96
-25	-133	-136
-136	-254	-128
-254	-251	-96
-328	-139	2
-321	7	95
-229	113	138
-76	145	91
82	124	-4
196	96	-64
244	88	-90
229	93	-116
181	78	-49
130	22	22
93	-61	-43
64	-138	-120
35	-174	-148
-5	-176	-159
-55	-178	-148
-98	-223	-32
-114	-311	131
-100	-395	215
-62	-406	140
-25	-286	-6
-5	-53	-101
-11	211	-217
-36	395	-263
-58	429	-163
-60	324	41
-33	164	168
18	48	164
69	40	160
106	120	98
114	210	-13
96	228	-189
62	135	-306
30	-33	-272
7	-201	-153
-5	-291	-40
-11	-265	19
-17	-149	51
-25	7	61
-30	139	64
-24	211	62
-8	214	62
17	157	45
41	66	36
54	-32	28
48	-107	-10
22	-131	-36
-15	-100	-48
-53	-29	-35
-83	32	22
-99	45	111
-96	-9	164
-75	-103	113
-36	-174	-8
11	-159	-117
58	-42	-179
96	125	-238
107	260	-232
91	279	-114
52	168	-17
4	-22	-26
-40	-189	-31
-70	-251	-25
-81	-192	12
-82	-57	50
-84	65	52
-92	118	58
-105	93	4
-112	36	-42
-96	4	-82
-51	17	-105
20	51	-98
105	51	-64
175	-17	-30
219	-145	-3
216	-271	52
175	-326	115
106	-273	139
28	-126	77
-43	42	5
-94	162	-75
-113	191	-135
-102	138	-131
-63	55	-84
-10	-6	-4
41	-21	22
69	0	-28
63	32	-59
25	43	-72
-25	35	-41
-61	19	5
-65	14	-2
-30	27	-20
23	40	-60
65	36	-86
71	4	-70
36	-43	-11
-26	-76	43
-84	-66	62
-117	-13	54
-122	53	38
-115	95	5
-112	71	-37
-120	-14	-23
-127	-127	14
-116	-211	103
-71	-216	183
-4	-127	186
60	24	69
92	180	-106
81	275	-234
40	272	-364
-1	171	-402
-15	18	-350
3	-135	-238
36	-233	-101
62	-249	-30
66	-187	29
57	-80	82
54	31	72
74	117	41
109	168	32
135	198	49
126	225	108
69	259	164
-18	274	186
-95	233	133
-123	104	-11
-90	-111	-141
-20	-353	-178
42	-535	-140
57	-569	-116
9	-437	-101
-77	-192	-6
-156	52	32
-175	193	3
-119	183	-51
-6	58	-85
119	-68	-54
201	-104	-30
212	-8	41
159	171	71
76	332	62
4	372	61
-26	268	54
-17	60	40
0	-148	14
-8	-263	39
-63	-250	86
-156	-134	93
-245	19	46
-285	141	-22
-252	199	-84
-151	194	-141
-21	151	-190
93	99	-140
155	45	-32
158	3	-13
123	-32	-57
80	-53	-116
54	-62	-144
52	-64	-127
63	-70	-75
70	-89	-4
61	-117	45
37	-143	47
2	-150	19
-31	-127	2
-54	-86	-18
-64	-44	-19
-59	-24	9
-39	-23	5
-8	-32	24
28	-25	78
59	7	65
74	49	27
61	80	-8
22	68	-27
-40	14	9
-106	-61	44
-158	-112	46
-183	-109	-7
-176	-40	-102
-142	63	-257
-95	152	-398
-45	181	-381
2	131	-247
42	23	-63
82	-96	61
119	-171	129
147	-169	203
150	-87	209
122	39	107
70	154	-24
11	211	-126
-33	188	-199
-48	97	-151
-33	-17	37
-8	-98	233
7	-101	311
2	-19	259
-15	116	104
-17	240	-66
14	287	-206
81	222	-319
154	48	-337
196	-171	-202
179	-356	-3
99	-441	100
-13	-392	96
-109	-244	71
-153	-61	32
-136	81	-18
-83	144	-39
-32	135	-71
-18	89	-95
-40	47	-92
-81	29	-65
-101	28	-22
-83	24	4
-27	8	34
32	-14	47
62	-19	37
41	4	10
-23	40	-9
-101	57	-29
-153	24	-47
-151	-52	-31
-94	-138	-13
-10	-178	-23
66	-140	-25
103	-41	-16
87	65	-1
33	119	15
-28	99	62
-64	30	110
-52	-24	69
14	-17	-7
123	56	-88
244	147	-141
340	190	-162
380	153	-117
336	49	-46
211	-53	4
25	-97	46
-175	-53	51
-343	39	49
-434	109	41
-442	100	27
-374	-3	-10
-271	-150	-75
-174	-263	-88
-107	-289	-44
-70	-210	-5
-50	-67	1
-26	80	16
12	175	32
61	206	-47
110	181	-150
151	130	-164
183	74	-91
208	17	-66
216	-41	-121
203	-106	-118
148	-168	-111
50	-211	-106
-67	-221	-43
-165	-183	22
-199	-109	-24
-156	-13	-33
-53	83	9
62	163	15
143	215	7
167	243	-24
150	237	-7
131	195	-6
141	119	-18
181	10	-55
210	-112	-78
181	-222	-66
68	-275	-94
-106	-257	-95
-277	-172	-26
-382	-53	112
-371	41	259
-257	72	323
-99	22	281
41	-69	124
123	-143	-71
143	-142	-228
123	-43	-324
94	114	-298
68	261	-209
41	321	-83
0	262	37
-56	110	90
-111	-72	158
-132	-213	168
-108	-272	125
-54	-251	70
2	-185	18
19	-112	-63
-11	-55	-151
-71	-14	-138
-122	28	-84
-122	77	-65
-63	126	-83
38	158	-83
137	158	-57
202	123	-53
216	72	-64
201	26	-57
175	1	-42
155	-2	-7
135	8	40
89	17	79
-2	18	112
-139	12	119
-285	9	87
-383	12	-3
-383	22	-98
-274	27	-172
-99	19	-213
81	-9	-157
192	-53	-30
199	-94	55
117	-110	74
-1	-89	81
-91	-31	60
-109	39	-12
-55	89	-63
32	86	-67
107	20	-75
139	-92	-50
128	-200	24
91	-257	97
59	-226	100
39	-110	52
22	43	-21
-11	177	-103
-64	241	-162
-125	228	-195
-156	160	-122
-118	93	7
-10	63	60
141	77	90
280	103	111
342	95	107
292	32	102
136	-76	75
-70	-183	19
-260	-238	-71
-366	-218	-127
-361	-126	-144
-260	-6	-170
-112	101	-177
19	162	-112
89	162	-37
82	104	-59
22	0	-75
-50	-133	-93
-94	-265	-122
-93	-361	-129
-58	-375	-143
-16	-286	-101
9	-121	-60
11	63	3
4	197	118
8	236	185
33	190	181
71	108	87
94	53	18
79	56	-24
25	96	-19
-46	120	61
-94	86	67
-91	-3	-29
-34	-103	-149
46	-152	-210
111	-116	-180
129	-21	-60
97	74	40
35	103	50
-23	49	7
-51	-46	-66
-47	-120	-132
-23	-119	-123
6	-40	-40
32	69	4
58	150	-16
90	170	-18
125	134	5
153	84	28
152	56	28
109	63	-5
21	85	-3
-85	82	23
-182	35	79
-244	-51	154
-253	-149	149
-209	-224	127
-130	-256	63
-40	-240	16
40	-185	24
94	-99	59
121	5	112
121	118	59
110	213	-64
100	268	-221
93	270	-348
84	223	-379
62	147	-276
20	62	-86
-39	-15	-47
-93	-92	-57
-113	-171	-36
-74	-240	-14
32	-264	33
175	-214	28
310	-77	10
371	104	-38
318	253	-70
151	287	-69
-92	179	-15
-340	-39	63
-509	-263	97
-556	-400	93
-481	-387	34
-329	-249	4
-166	-74	-42
-52	55	-74
-9	92	-40
-16	58	-23
-30	10	-20
-16	6	-16
31	59	3
87	134	-5
118	181	-3
105	164	0
59	96	-26
18	16	-31
20	-26	-3
74	-17	29
153	22	38
211	48	3
211	30	-52
149	-25	-76
52	-89	-100
-26	-112	-122
-52	-84	-99
-26	-24	-48
24	24	-13
59	19	-41
54	-40	-44
12	-116	-21
-38	-148	37
-70	-93	179
-68	41	332
-42	204	411
-16	313	335
-4	305	95
-10	174	-194
-18	-29	-479
-16	-218	-659
-1	-317	-609
18	-286	-372
23	-157	-70
10	4	111
-15	112	150
-29	132	106
-13	76	5
33	-2	-78
87	-37	-59
120	3	-21
106	102	44
42	204	144
-49	244	222
-129	193	183
-169	61	56
-156	-98	-58
-107	-223	-202
-46	-270	-282
1	-241	-198
25	-162	-22
36	-74	74
47	-7	98
72	38	95
116	68	44
167	100	52
212	125	107
238	135	107
232	114	51
188	62	-8
101	-6	-72
-24	-64	-112
-173	-92	-181
-314	-83	-171
-416	-52	-58
-452	-27	-10
-412	-21	8
-319	-35	7
-206	-55	9
-110	-53	-19
-49	-12	-49
-17	70	-56
17	171	-70
78	243	-87
169	241	-90
266	134	-46
328	-65	16
322	-304	64
236	-489	90
99	-541	101
-37	-425	60
-123	-176	17
-135	103	-42
-88	291	-95
-13	313	-100
48	178	-104
74	-26	-83
64	-170	-44
36	-170	6
7	-24	53
-20	182	84
-48	331	28
-84	341	-46
-121	215	-105
-149	31	-163
-144	-112	-144
-104	-153	-37
-38	-94	120
25	-3	181
60	49	171
59	26	91
36	-52	-55
18	-131	-181
31	-157	-254
78	-100	-259
140	15	-187
190	148	-66
204	249	-23
175	284	-23
121	249	-2
55	147	28
-7	2	95
-69	-152	217
-134	-265	305
-195	-308	231
-237	-259	43
-234	-141	-115
-176	-11	-223
-75	77	-337
38	85	-323
119	31	-142
149	-36	15
136	-56	37
115	-7	14
115	85	-27
149	165	-50
190	179	-20
193	121	34
124	26	53
-13	-49	-2
-178	-70	-50
-314	-51	-72
-365	-36	-84
-328	-68	-76
-231	-149	-45
-126	-230	-27
-51	-242	-9
-18	-151	0
-4	16	2
21	174	17
79	244	50
158	196	87
224	67	111
244	-41	104
199	-59	61
103	16	44
-13	118	48
-109	147	3
-159	51	-110
-159	-142	-176
-121	-330	-182
-72	-408	-208
-32	-326	-160
-13	-133	-40
-15	72	18
-30	194	13
-42	198	34
-37	127	61
-6	57	94
46	40	130
105	75	140
145	106	121
148	97	52
99	32	-23
13	-42	-104
-86	-74	-186
-158	-41	-248
-176	32	-260
-131	91	-223
-45	99	-163
48	58	-86
117	14	-7
139	7	93
121	43	164
90	88	161
70	77	140
76	-13	110
94	-154	-9
94	-272	-160
51	-304	-242
-36	-228	-294
-145	-84	-291
-231	53	-150
-251	132	16
-190	143	74
-76	118	74
42	96	54
117	86	65
122	74	95
74	29	119
9	-43	137
-24	-117	152
-11	-137	164
36	-86	70
83	18	-49
93	116	-115
52	153	-179
-19	116	-248
-87	35	-218
-123	-37	-89
-115	-70	-6
-76	-80	22
-29	-96	1
7	-144	-15
28	-200	25
46	-211	66
71	-125	118
109	50	114
148	251	30
167	381	-78
155	372	-170
110	235	-219
41	41	-189
-33	-104	-80
-103	-149	11
-161	-105	19
-204	-37	-4
-234	-12	-28
-242	-46	-44
-223	-110	-36
-172	-149	-18
-95	-130	-13
-6	-70	-27
80	-11	-16
148	11	-17
190	0	-48
200	-16	-30
182	3	32
140	58	64
87	110	99
34	115	158
-3	46	232
-16	-61	211
-13	-147	82
-4	-150	-59
-10	-61	-218
-39	64	-325
-84	150	-349
-122	138	-269
-129	35	-136
-99	-102	-31
-43	-186	31
8	-171	51
26	-67	63
4	63	43
-45	145	-5
-86	132	-33
-89	29	-42
-43	-112	-20
33	-228	48
105	-270	147
139	-224	208
122	-116	170
64	13	10
-6	121	-179
-59	183	-325
-77	194	-379
-60	163	-268
-22	115	-87
17	70	67
44	46	101
55	43	87
54	51	85
51	64	11
50	75	-41
52	93	-42
55	125	-27
50	168	-108
29	193	-137
-11	165	-52
-65	52	55
-119	-135	112
-156	-345	52
-162	-497	26
-133	-515	-21
-77	-384	-87
-4	-157	-102
59	68	-84
100	194	-38
106	179	13
85	54	61
42	-90	84
-4	-171	102
-43	-143	76
-65	-33	36
-63	93	10
-38	171	-28
4	179	-45
50	141	-50
88	106	-40
101	113	-16
89	156	-1
56	199	-13
15	204	-25
-19	153	-43
-37	65	-56
-39	-24	-60
-27	-81	-99
-7	-102	-95
14	-101	-70
31	-92	-76
39	-78	-22
36	-37	63
21	40	76
-5	147	39
-31	233	-8
-41	241	-56
-26	137	-110
10	-63	-124
46	-288	-88
60	-449	-79
30	-481	-86
-39	-376	-59
-124	-200	4
-187	-36	112
-198	48	210
-156	43	265
-77	-16	228
0	-61	67
46	-48	-94
61	25	-238
62	123	-341
72	188	-371
103	182	-260
135	99	-48
133	-24	109
77	-139	147
-35	-201	82
-162	-189	-34
-242	-120	-145
-231	-25	-181
-122	54	-167
28	96	-63
151	98	96
187	83	178
122	84	196
-2	117	117
-115	180	-42
-160	238	-148
-117	249	-156
-21	183	-179
71	52	-209
115	-97	-109
94	-212	44
36	-241	134
-20	-183	155
-43	-80	109
-30	11	65
-1	39	5
17	5	-67
13	-53	-81
-7	-70	-69
-24	-11	-5
-18	123	69
14	269	142
60	353	186
103	317	159
123	161	69
117	-53	-70
85	-238	-182
39	-318	-260
-14	-277	-255
-66	-161	-139
-111	-47	-16
-138	-3	65
-138	-45	79
-110	-137	17
-58	-208	-40
-2	-201	-108
40	-108	-163
57	38	-165
48	170	-130
27	244	-28
8	252	102
11	222	184
36	195	140
86	191	12
138	190	-78
175	149	-138
178	38	-149
136	-136	-83
57	-320	18
-42	-443	24
-129	-451	-10
-180	-344	-24
-182	-177	-62
-153	-16	-52
-115	83	-42
-98	112	26
-111	100	99
-136	83	86
-143	85	70
-110	90	57
-30	72	29
62	15	-10
126	-70	-64
128	-145	-155
72	-167	-237
-12	-120	-264
-79	-32	-209
-95	48	-115
-55	83	-47
16	61	15
90	16	49
140	-5	61
164	32	65
169	120	81
159	225	107
133	287	97
84	279	47
7	199	21
-89	80	17
-181	-41	-12
-241	-127	-21
-257	-166	-28
-226	-164	-17
-162	-130	-3
-78	-83	-25
10	-26	-27
96	26	-30
165	60	-44
205	66	-62
205	35	-67
163	-20	-75
92	-82	-68
15	-119	-44
-40	-117	-25
-68	-79	-16
-72	-26	-9
-66	5	10
-64	-9	-30
-65	-67	-62
-61	-140	-30
-42	-182	48
-12	-153	147
18	-43	150
35	114	74
38	259	-7
44	329	-126
69	290	-247
120	154	-284
178	-21	-193
212	-162	-44
193	-219	113
115	-179	294
4	-80	332
-101	23	228
-158	76	48
-160	60	-206
-126	1	-456
-95	-60	-573
-85	-79	-439
-98	-37	-158
-112	51	52
-99	150	123
-51	215	127
17	229	112
72	177	87
91	82	22
63	-30	-52
10	-129	-75
-47	-194	-84
-85	-218	-68
-96	-202	-19
-91	-162	20
-82	-112	21
-75	-74	22
-69	-54	31
-61	-52	26
-51	-50	21
-36	-19	19
-18	57	0
10	178	-9
51	313	13
111	416	30
175	432	52
219	335	49
214	135	31
147	-107	9
30	-316	-5
-97	-425	42
-195	-409	44
-229	-301	69
-199	-170	87
-128	-81	-23
-47	-63	-123
24	-95	-245
84	-121	-338
136	-88	-297
188	16	-150
234	153	-3
258	267	60
250	310	129
196	274	152
105	189	117
-6	90	16
-124	-6	-101
-226	-113	-173
-299	-246	-255
-321	-394	-227
-290	-510	-91
-213	-510	14
-108	-356	57
-8	-77	52
59	230	18
86	438	4
90	469	5
93	338	22
114	143	65
154	12	113
181	9	160
164	106	155
86	204	107
-35	207	30
-159	90	-106
-237	-90	-263
-247	-222	-338
-193	-226	-289
-111	-109	-155
-36	45	-67
12	130	-14
39	95	10
62	-26	17
97	-136	47
140	-142	57
181	-30	53
198	137	19
182	247	-16
130	225	-17
52	71	12
-35	-127	5
-119	-264	-14
-180	-278	18
-200	-181	50
-169	-53	35
-93	18	6
3	-3	17
80	-85	43
107	-150	16
81	-138	-14
19	-39	-40
-34	98	-85
-50	199	-144
-22	210	-171
24	135	-92
58	17	-1
58	-83	51
36	-121	74
23	-95	87
46	-28	85
111	45	65
186	103	47
216	135	17
167	144	32
33	137	36
-144	121	-3
-305	110	-55
-393	116	-154
-392	137	-249
-311	154	-313
-190	125	-316
-71	18	-211
12	-173	-34
59	-393	63
69	-562	39
55	-582	2
31	-434	-28
5	-167	-37
-10	106	-23
-3	272	25
31	279	54
83	160	91
139	16	160
178	-62	183
184	-38	158
155	46	42
96	111	-100
26	100	-197
-34	11	-278
-71	-98	-309
-83	-160	-209
-68	-139	-78
-35	-59	-13
3	25	34
38	70	46
63	75	39
75	77	30
70	119	0
53	205	14
28	291	24
-3	316	49
-34	247	141
-63	104	285
-85	-49	394
-98	-151	301
-102	-174	116
-99	-154	-78
-96	-153	-302
-98	-210	-493
-103	-308	-543
-104	-378	-376
-90	-352	-181
-48	-208	-71
16	5	-13
89	195	28
148	284	66
167	257	69
140	165	93
81	88	106
12	82	149
-38	137	186
-52	188	93
-33	161	-35
-1	23	-148
23	-174	-259
25	-345	-296
4	-403	-226
-24	-319	-61
-42	-136	75
-36	57	160
-7	186	196
31	215	155
63	180	97
78	126	54
69	104	24
48	121	-66
27	154	-117
19	158	-119
29	115	-124
53	28	-113
80	-75	-87
86	-157	-7
63	-196	65
6	-189	115
-71	-143	118
-148	-77	42
-193	-6	-71
-193	46	-153
-148	76	-196
-76	77	-231
-7	60	-195
36	43	-38
46	41	84
33	59	72
12	77	60
6	63	26
13	-7	6
21	-122	5
13	-243	-17
-20	-304	-51
-72	-261	-43
-122	-120	6
-134	67	10
-93	213	24
-4	260	32
104	191	34
187	56	-11
212	-72	-56
170	-133	-49
78	-115	-30
-26	-49	25
-105	13	31
-139	40	-13
-130	33	-54
-95	11	-97
-54	-2	-101
-25	-7	-96
-10	-23	-85
-3	-61	-14
1	-116	69
5	-151	135
15	-126	140
27	-33	106
42	97	60
56	201	-26
64	230	-144
62	171	-257
44	72	-251
15	-7	-133
-19	-22	-4
-44	20	89
-50	66	138
-32	60	85
2	-22	-101
41	-150	-235
75	-259	-279
92	-286	-200
92	-219	-42
75	-93	87
42	33	147
4	112	106
-29	131	22
-44	115	-64
-30	94	-84
11	84	-62
57	70	-40
83	38	22
60	-24	113
-12	-92	188
-112	-131	155
-201	-114	18
-237	-40	-129
-206	56	-218
-122	131	-260
-21	158	-226
53	136	-97
75	90	29
48	45	85
-3	19	60
-52	4	15
-76	-11	9
-70	-33	32
-48	-54	32
-25	-60	-3
-5	-45	-43
13	-22	-66
39	-19	-68
85	-54	-47
144	-124	21
202	-195	127
226	-218	196
192	-161	110
88	-29	-52
-66	130	-115
-232	257	-165
-347	301	-211
-372	252	-168
-290	138	-45
-129	15	77
51	-77	108
189	-122	90
242	-132	39
211	-133	-30
129	-131	-66
52	-128	-61
22	-101	-24
46	-37	-16
107	45	-40
163	117	-49
176	148	-38
138	123	-46
60	54	-81
-28	-18	-84
-101	-59	-59
-147	-62	-40
-169	-40	-7
-177	-30	39
-178	-52	84
-172	-110	111
-153	-166	69
-114	-183	-4
-58	-136	-89
1	-29	-137
55	106	-98
93	233	-30
116	319	96
131	357	181
141	353	137
148	305	44
139	209	-86
111	59	-251
56	-127	-363
-19	-315	-315
-97	-439	-178
-156	-449	-105
-182	-337	-107
-166	-141	-64
-114	55	32
-44	180	70
24	193	82
71	114	91
90	3	76
81	-86	60
51	-120	43
19	-117	42
-1	-105	82
2	-105	124
36	-111	97
91	-95	37
151	-40	8
184	51	-35
170	138	-118
87	183	-157
-50	161	-107
-214	92	-98
-357	18	-150
-428	-23	-190
-404	-20	-156
-289	2	-44
-125	11	4
37	-13	14
151	-55	29
192	-84	28
169	-69	4
114	-13	10
56	53	60
19	83	79
0	55	61
-9	-11	12
-17	-67	-28
-29	-74	-42
-33	-14	-47
-19	77	24
17	149	112
59	155	120
95	99	32
105	13	-78
86	-51	-122
52	-59	-142
28	-22	-130
30	24	-53
60	38	39
103	3	51
126	-63	14
104	-121	-64
27	-136	-167
-86	-102	-144
-189	-35	-123
-240	31	-128
-206	81	-68
-92	118	-19
59	158	5
188	211	24
248	272	46
222	305	52
132	274	38
26	168	9
-43	-2	-16
-56	-194	-45
-21	-358	-63
26	-464	-44
47	-504	-25
22	-487	16
-41	-426	83
-116	-326	126
-170	-190	180
-189	-26	155
-172	137	29
-128	264	-84
-79	320	-207
-29	298	-278
9	213	-232
34	114	-83
40	41	64
24	16	161
-11	31	217
-52	60	175
-85	80	95
-95	75	-21
-75	48	-182
-36	11	-305
2	-33	-353
26	-78	-308
35	-115	-155
35	-124	-24
44	-91	49
69	-11	101
107	94	96
141	177	55
156	194	-8
136	123	-55
84	-10	-64
15	-149	-31
-54	-233	-16
-113	-226	1
-150	-152	24
-166	-55	41
-161	3	80
-134	7	68
-90	-26	64
-34	-53	33
21	-32	-36
69	39	-43
107	136	-39
140	213	-32
175	239	-66
216	206	-122
245	131	-102
241	45	-101
172	-31	-143
33	-89	-142
-153	-127	-57
-336	-151	21
-450	-158	7
-448	-150	-27
-319	-122	-9
-112	-85	33
98	-38	39
234	8	31
253	51	32
170	92	5
41	121	-86
-56	137	-91
-81	124	5
-28	81	75
55	4	81
110	-93	39
101	-189	-6
28	-255	-79
-65	-259	-158
-132	-192	-182
-137	-64	-84
-88	85	17
-16	201	21
42	236	53
71	171	61
82	43	49
97	-85	46
127	-141	34
165	-100	25
182	15	-12
155	133	-26
83	182	-11
-14	131	16
-99	13	12
-142	-100	-20
-149	-140	-46
-133	-83	-98
-120	31	-145
-115	130	-114
-108	158	-21
-83	106	41
-29	27	55
36	-21	13
91	-1	-14
107	68	-59
86	128	-128
41	120	-126
8	24	-86
5	-119	-96
29	-245	-131
58	-283	-120
59	-225	-72
22	-98	60
-40	34	255
-93	117	377
-106	131	319
-67	86	141
11	17	-45
93	-49	-252
147	-94	-460
154	-105	-492
121	-82	-262
68	-23	-37
13	55	76
-32	125	100
-79	149	86
-134	96	110
-207	-23	72
-282	-167	42
-339	-264	36
-344	-270	-16
-295	-170	-64
-195	-14	-104
-76	119	-58
34	170	-8
115	124	-40
166	25	-52
200	-57	-40
231	-65	-22
252	15	-8
245	138	-1
198	239	-2
104	244	-23
-14	142	-4
-116	-45	49
-162	-249	30
-138	-393	-2
-60	-430	-7
26	-348	-11
85	-183	-50
96	8	-110
71	160	-86
40	233	-50
29	222	-27
40	155	-3
58	80	-3
62	38	-28
35	45	-55
-10	81	-48
-52	113	-47
-72	103	-40
-68	41	-14
-48	-46	32
-31	-122	69
-29	-140	84
-32	-92	78
-28	10	74
2	120	87
53	195	6
106	213	-106
132	179	-197
114	118	-245
55	55	-207
-20	7	-84
-78	-33	104
-95	-79	234
-68	-134	263
-23	-191	183
12	-225	75
12	-213	-26
-25	-149	-162
-78	-47	-234
-115	53	-227
-115	124	-161
-76	147	-120
-14	139	-43
44	138	37
80	177	-6
89	257	-84
82	335	-166
69	345	-232
59	231	-229
40	-15	-54
6	-334	135
-42	-608	195
-91	-726	151
-115	-637	63
-100	-379	21
-53	-72	-6
1	157	-11
27	228	6
11	154	17
-35	21	-10
-77	-69	-77
-72	-63	-126
-14	14	-122
78	92	-111
148	95	-105
151	8	-63
64	-121	-3
-80	-216	34
-224	-218	16
-306	-131	8
-295	-9	9
-199	84	11
-59	115	51
69	103	102
159	92	130
198	118	79
204	178	-41
196	237	-152
183	244	-265
160	193	-271
116	96	-120
49	-1	95
-27	-59	249
-91	-78	238
-112	-75	142
-80	-84	61
-4	-111	-9
83	-138	-98
147	-136	-159
158	-80	-167
107	20	-81
15	130	-4
-85	207	8
-159	223	6
-187	174	-4
-165	93	-27
-112	6	-67
-51	-61	-95
-6	-96	-132
19	-99	-107
32	-75	-67
44	-33	-46
66	16	10
90	64	60
105	105	60
93	139	26
50	164	48
-18	174	91
-93	150	80
-152	68	-13
-181	-78	-91
-176	-272	-170
-143	-455	-242
-91	-552	-218
-26	-505	-106
46	-319	46
119	-59	158
176	168	210
201	270	162
169	235	71
77	108	-45
-58	-7	-183
-198	-35	-261
-296	36	-228
-314	148	-77
-238	210	79
-93	180	186
78	74	219
216	-31	194
283	-62	101
262	1	-58
169	110	-188
41	174	-273
-80	131	-282
-160	-19	-193
-186	-203	-89
-160	-333	-10
-95	-346	23
-14	-257	20
66	-123	32
132	-16	16
174	34	-24
188	43	-52
182	53	-57
165	90	-49
147	136	-22
132	153	-28
119	109	9
90	10	87
33	-97	97
-58	-160	51
-175	-149	-40
-288	-85	-46
-366	-23	-35
-375	-5	-22
-308	-38	5
-176	-77	4
-16	-67	47
129	15	70
234	154	39
276	284	-14
269	353	-53
229	327	-110
171	228	-176
104	95	-194
24	-25	-137
-74	-117	-30
-182	-183	76
-280	-230	141
-338	-252	90
-330	-235	0
-249	-171	-58
-119	-80	-122
18	8	-183
119	52	-167
166	51	-61
162	22	9
135	9	28
113	31	45
110	81	32
115	121	31
113	115	44
86	61	63
30	-1	87
-37	-20	74
-96	30	62
-129	121	38
-135	186	-7
-111	155	-25
-61	15	-43
7	-185	-78
88	-343	-102
165	-376	-102
212	-259	-52
208	-44	31
145	161	106
37	261	104
-76	219	22
-159	64	-89
-190	-124	-222
-174	-263	-270
-138	-309	-238
-115	-259	-229
-118	-148	-230
-136	-24	-135
-140	81	18
-108	153	96
-32	199	111
60	233	76
133	261	24
159	283	-20
132	276	-51
77	215	-52
28	88	-12
11	-96	55
25	-292	111
49	-432	123
51	-453	91
19	-338	56
-40	-126	15
-94	94	-15
-113	236	-34
-84	250	-72
-13	158	-96
65	34	-137
121	-39	-172
134	-19	-113
111	75	-60
74	174	-22
43	212	-1
32	153	-19
35	20	-4
33	-130	13
7	-234	29
-44	-260	56
-107	-213	102
-149	-121	124
-137	-25	69
-67	54	46
50	106	57
175	134	47
265	148	1
278	155	-38
210	164	-50
90	169	-169
-35	156	-289
-123	100	-270
-151	-13	-178
-126	-183	-89
-86	-362	-35
-65	-489	24
-91	-501	15
-152	-378	-7
-225	-159	-4
-269	71	-13
-260	230	12
-198	274	32
-102	229	95
1	153	111
77	108	96
111	103	64
106	106	-38
74	61	-131
29	-41	-229
-10	-171	-209
-38	-254	-81
-52	-238	-12
-54	-129	24
-40	5	35
-15	79	15
25	52	24
75	-37	26
124	-102	11
166	-58	17
184	98	39
175	294	86
141	409	125
88	371	161
29	191	213
-23	-25	228
-55	-153	161
-64	-131	-21
-52	7	-278
-22	150	-463
13	189	-501
40	91	-463
51	-91	-353
42	-247	-140
20	-298	-9
-3	-232	-22
-17	-112	-30
-20	-20	-40
-20	0	-8
-31	-30	59
-60	-52	162
-101	-21	256
-132	56	239
-135	123	144
-102	123	45
-44	39	-51
11	-80	-183
38	-149	-223
33	-106	-127
8	47	-2
-14	239	91
-14	372	109
7	380	53
33	250	-3
47	43	-59
46	-162	-114
35	-303	-119
27	-361	-81
29	-353	-9
31	-313	20
18	-260	7
-16	-196	-15
-59	-123	-14
-89	-43	-13
-82	24	4
-38	56	68
17	49	139
52	15	178
50	-8	130
17	13	49
-18	91	-62
-18	197	-190
24	279	-235
90	295	-177
143	215	-95
148	67	-28
98	-97	-3
17	-204	24
-56	-222	70
-95	-147	105
-92	-30	141
-66	67	123
-47	105	39
-42	79	-76
-53	27	-142
-63	3	-202
-54	36	-234
-26	117	-207
12	191	-168
39	196	-163
44	100	-155
25	-68	-82
-10	-246	-32
-48	-346	19
-80	-322	54
-98	-194	124
-103	-27	129
-94	93	39
-74	114	13
-40	43	34
6	-56	12
56	-117	-6
101	-92	106
131	13	179
135	145	130
111	251	-14
62	287	-133
-1	259	-171
-61	183	-243
-102	90	-273
-107	-12	-203
-72	-124	-118
-15	-238	-59
40	-338	5
66	-383	18
53	-343	32
11	-224	22
-28	-56	15
-29	94	40
23	185	48
111	201	53
188	168	21
205	134	19
139	127	42
15	147	49
-118	157	59
-203	122	74
-214	29	87
-159	-89	56
-79	-182	-30
-20	-202	-98
3	-137	-154
-2	-28	-180
-5	66	-102
16	90	3
58	33	59
97	-63	105
106	-136	125
74	-124	69
12	-17	-10
-44	139	-109
-70	269	-194
-58	299	-259
-24	205	-236
4	26	-91
7	-155	19
-20	-261	63
-54	-253	77
-74	-152	80
-61	-24	21
-20	68	-74
35	92	-111
82	71	-118
104	49	-100
101	66	-85
79	113	-66
50	153	-8
25	129	55
8	17	94
-8	-157	117
-20	-322	89
-30	-409	41
-34	-378	19
-22	-243	-2
9	-67	-21
60	80	-27
118	158	24
161	170	48
155	150	-32
83	132	-138
-53	131	-215
-226	134	-320
-377	112	-316
-453	55	-170
-415	-28	-58
-274	-107	13
-89	-155	39
72	-158	92
147	-126	167
123	-91	245
32	-68	313
-58	-62	280
-93	-62	179
-48	-50	20
52	-17	-167
158	33	-311
216	84	-392
209	121	-344
151	135	-225
84	131	-124
40	117	-46
35	99	-91
52	82	-63
69	65	36
60	53	84
26	40	127
-25	24	116
-74	-5	102
-106	-50	57
-118	-108	13
-111	-160	-23
-82	-181	-15
-26	-154	16
52	-77	13
143	22	32
216	106	19
245	141	-26
212	120	-77
126	59	-97
14	-12	-83
-88	-65	-48
-149	-97	-8
-167	-111	0
-156	-118	-9
-134	-118	1
-116	-90	19
-100	-26	23
-74	80	39
-32	198	74
16	282	90
59	299	65
84	235	9
87	116	-76
78	-11	-165
72	-102	-238
72	-141	-237
71	-138	-112
61	-117	19
35	-95	97
6	-77	134
-13	-57	127
-8	-36	138
15	-23	132
35	-31	16
32	-61	-122
-6	-93	-190
-63	-81	-252
-118	7	-276
-152	163	-190
-162	331	-86
-162	422	-44
-163	366	-9
-170	153	32
-172	-150	28
-152	-431	-12
-113	-572	-13
-69	-532	19
-44	-340	0
-48	-99	-14
-63	87	16
-56	162	42
1	135	5
111	75	-13
242	41	34
340	65	51
366	121	0
320	149	-88
225	104	-127
123	-16	-162
44	-162	-134
-11	-272	16
-54	-290	185
-100	-217	205
-139	-92	91
-158	28	-39
-139	98	-175
-84	110	-256
-15	93	-234
31	83	-103
35	103	-11
1	145	42
-46	189	59
-79	200	27
-81	170	28
-57	110	8
-24	40	6
2	-19	-25
19	-60	-69
28	-88	-60
34	-112	-45
38	-133	-20
30	-141	28
3	-127	102
-36	-85	139
-71	-24	95
-85	35	17
-61	74	-22
-10	91	-35
53	90	-58
108	100	-41
139	130	49
144	174	139
129	211	98
101	198	-47
63	117	-139
18	-29	-203
-31	-192	-263
-72	-316	-243
-94	-342	-92
-84	-249	108
-39	-65	158
20	151	91
81	324	22
116	397	-76
117	345	-158
85	199	-193
33	6	-198
-24	-171	-142
-78	-286	-70
-122	-322	-28
-167	-294	-21
-217	-242	0
-273	-204	43
-321	-203	83
-343	-235	123
-300	-259	93
-178	-241	36
15	-153	-21
241	-11	-47
439	143	-75
549	251	-97
529	274	-54
389	218	-34
172	125	-11
-53	53	35
-231	38	124
-319	72	200
-313	117	222
-236	118	185
-116	54	57
9	-55	-78
103	-156	-193
141	-199	-303
107	-164	-295
12	-70	-156
-107	27	-9
-198	85	74
-214	88	59
-142	57	1
-12	30	-51
111	35	-127
169	70	-193
136	106	-211
42	110	-130
-54	61	-18
-98	-25	32
-66	-117	95
9	-173	155
77	-167	231
92	-106	208
52	-4	72
-5	106	-42
-35	202	-148
-10	261	-161
58	278	-97
128	244	-13
156	166	-18
122	62	-99
44	-39	-140
-35	-110	-202
-89	-138	-205
-100	-138	-105
-83	-140	15
-62	-173	45
-50	-236	39
-45	-301	49
-37	-316	10
-15	-243	-7
20	-85	-8
57	109	-16
80	266	-10
82	327	-5
67	278	22
55	159	67
59	32	99
81	-45	98
105	-61	84
110	-43	52
72	-30	-13
-15	-51	-76
-135	-102	-117
-253	-153	-117
-325	-167	-72
-324	-126	-30
-241	-40	-14
-107	61	-17
29	147	-9
126	196	-10
159	205	-19
138	182	-31
87	137	-61
37	77	-78
1	11	-71
-29	-55	-78
-68	-108	-90
-123	-137	-65
-175	-136	-31
-190	-113	20
-140	-84	52
-30	-65	14
105	-71	-12
212	-94	-2
242	-117	35
189	-114	65
91	-74	110
7	-7	211
-18	61	272
24	98	201
94	84	41
141	20	-144
127	-61	-324
54	-120	-456
-42	-125	-500
-117	-72	-340
-141	12	-75
-123	92	63
-85	132	50
-56	131	-42
-42	104	-86
-27	79	-65
9	76	22
72	97	140
140	128	215
178	150	209
154	148	128
69	120	1
-47	70	-202
-148	5	-280
-192	-78	-208
-179	-170	-121
-123	-255	-99
-60	-306	-76
-16	-292	8
2	-213	59
8	-82	70
14	52	62
29	145	60
52	168	65
71	135	91
87	86	82
99	60	40
107	76	5
104	108	-39
72	121	-77
1	83	-99
-104	-7	-75
-215	-112	-30
-296	-184	-11
-308	-182	-14
-245	-111	18
-126	-5	42
-1	79	42
93	101	19
144	55	-18
160	-28	-36
159	-96	-60
151	-111	-59
127	-61	-46
69	30	-23
-25	121	5
-132	169	4
-207	147	-32
-208	67	-33
-129	-40	38
2	-137	121
130	-190	151
203	-188	112
205	-140	60
157	-68	-24
105	6	-127
85	68	-192
104	120	-215
139	156	-248
157	171	-282
138	150	-234
82	80	-138
6	-38	-103
-76	-182	-113
-151	-304	-109
-221	-355	-38
-279	-313	29
-315	-187	70
-307	-32	91
-240	96	85
-128	157	76
-6	155	55
84	130	32
120	129	13
107	168	8
84	218	1
86	228	-17
132	145	-36
201	-22	-29
242	-218	6
212	-353	69
98	-361	221
-65	-241	380
-215	-49	372
-291	118	178
-267	193	-50
-161	170	-235
-23	104	-393
93	75	-445
159	121	-287
178	233	-57
175	335	69
172	357	86
172	264	37
161	80	-40
111	-127	-140
20	-280	-183
-101	-333	-120
-215	-288	-55
-291	-187	-49
-310	-74	-49
-273	15	-57
-203	70	-21
-118	91	-14
-31	84	-43
44	51	-36
97	0	-48
107	-65	5
68	-129	79
-20	-173	135
-122	-190	125
-189	-182	40
-177	-157	-14
-74	-121	-91
88	-84	-139
241	-46	-94
319	-15	26
287	6	90
167	11	90
23	3	77
-82	-7	24
-108	-7	2
-65	14	-40
3	49	-57
44	83	-51
36	96	-44
-14	83	-33
-77	51	-63
-112	22	-92
-108	10	-91
-67	14	-67
-12	27	-50
41	38	-27
81	45	42
101	63	95
107	97	69
94	139	5
61	164	-48
14	135	-98
-36	45	-140
-65	-84	-150
-60	-189	-119
-20	-218	-74
34	-150	-5
75	-20	68
76	95	131
33	129	210
-37	60	216
-104	-68	205
-139	-181	117
-129	-202	-89
-79	-123	-287
-4	12	-357
67	131	-250
115	177	-168
129	148	-119
111	85	-67
74	50	-38
33	71	-55
2	130	-174
-12	180	-210
-18	171	-116
-24	90	1
-42	-39	115
-68	-166	246
-86	-251	353
-72	-281	371
-19	-260	253
62	-202	52
137	-117	-176
163	0	-374
116	143	-435
4	291	-306
-126	395	-111
-231	403	-19
-264	286	34
-229	64	59
-152	-206	44
-72	-438	41
-29	-566	44
-25	-565	10
-44	-451	-37
-57	-282	-15
-47	-121	4
-13	-6	9
36	53	28
83	78	47
114	94	76
130	127	69
133	178	20
131	238	-34
123	283	-40
111	294	-41
96	252	-40
75	157	-19
44	20	0
4	-129	19
-48	-249	33
-108	-297	35
-162	-249	2
-195	-115	-21
-191	50	-36
-156	182	-58
-91	215	-80
-20	141	-95
45	0	-82
95	-124	-53
130	-158	-23
156	-78	-27
170	79	-30
169	221	-42
139	275	-66
87	215	-75
19	84	-114
-41	-46	-111
-76	-113	-58
-72	-109	31
-41	-72	147
1	-57	189
36	-87	225
52	-125	163
53	-123	-58
46	-39	-200
35	110	-190
24	255	-168
6	315	-215
-28	244	-138
-76	74	20
-126	-115	47
-163	-236	-51
-176	-245	-189
-165	-170	-224
-134	-79	-165
-98	-35	-60
-67	-60	34
-40	-124	45
-15	-171	47
12	-160	38
42	-90	-1
74	4	-31
97	79	-50
114	117	-54
125	126	-26
132	129	37
135	141	91
127	151	83
98	132	63
37	63	33
-46	-50	17
-141	-175	69
-224	-261	93
-269	-271	64
-267	-203	22
-224	-85	-67
-150	38	-130
-60	126	-131
31	163	-121
123	154	-30
208	120	40
274	80	52
301	43	44
275	16	21
189	-1	12
66	-13	9
-55	-23	23
-128	-29	4
-132	-37	-7
-74	-45	-48
10	-45	-103
72	-24	-151
86	21	-178
54	81	-134
4	141	-74
-35	171	-38
-48	164	-29
-51	111	-4
-66	35	-1
-109	-47	-21
-168	-127	-21
-214	-202	-20
-214	-274	12
-163	-322	62
-83	-320	106
-15	-235	93
18	-66	9
19	145	-55
22	325	-105
58	395	-137
137	321	-52
228	131	152
275	-81	281
241	-222	152
132	-233	-33
-1	-126	-145
-92	27	-241
-103	147	-337
-40	179	-328
44	125	-190
92	27	-103
71	-64	-48
-5	-122	28
-91	-148	129
-140	-152	221
-136	-145	201
-94	-118	135
-48	-60	26
-24	21	-141
-24	100	-271
-28	131	-289
-17	95	-215
18	-2	-165
66	-109	-68
104	-168	58
117	-143	122
101	-50	130
67	56	97
22	120	65
-30	110	49
-90	43	36
-154	-26	57
-204	-50	113
-218	-8	142
-180	79	105
-95	168	-7
12	215	-103
106	212	-166
156	168	-205
156	106	-155
118	45	-44
68	-12	30
24	-70	1
-7	-136	-34
-34	-194	-66
-61	-224	-92
-87	-208	-52
-96	-142	-23
-77	-41	-25
-26	72	8
42	174	65
106	239	102
140	244	135
132	186	152
89	59	112
26	-110	-3
-39	-274	-116
-86	-376	-167
-109	-368	-177
-108	-249	-242
-89	-65	-268
-58	106	-189
-21	198	-149
18	185	-92
52	95	-44
77	-4	8
86	-46	42
80	-9	10
65	86	-4
45	178	26
28	211	40
15	158	37
3	32	35
-7	-126	9
-17	-262	18
-22	-337	30
-20	-332	24
-8	-254	27
9	-130	32
29	-2	79
45	88	112
60	112	68
78	76	-16
90	18	-74
90	-7	-98
56	37	-97
-24	150	2
-148	286	123
-281	374	151
-378	374	74
-393	287	-30
-319	155	-96
-176	38	-187
-28	-32	-258
65	-76	-231
74	-137	-128
17	-251	-97
-52	-401	-111
-75	-516	-51
-19	-515	38
98	-355	48
230	-89	8
322	183	-2
342	345	-25
295	343	-24
212	208	-25
129	37	-26
68	-61	-6
23	-47	24
-17	45	58
-61	136	67
-111	154	48
-145	91	0
-156	1	-53
-133	-42	-111
-95	-1	-114
-57	95	-51
-37	171	20
-31	154	112
-23	33	247
2	-140	332
52	-273	222
107	-301	-18
144	-219	-206
139	-91	-334
92	-4	-442
21	-8	-443
-31	-94	-268
-37	-188	-47
6	-215	62
75	-137	82
124	16	56
117	171	25
42	254	19
-76	233	32
-190	143	14
-260	48	-16
-263	9	-36
-215	41	-69
-147	111	-57
-87	156	-24
-51	126	11
-34	21	35
-20	-120	59
7	-236	91
46	-279	70
94	-242	42
131	-150	24
159	-54	-6
170	12	-44
163	43	-70
135	58	-80
85	83	-60
12	124	21
-66	171	143
-126	195	213
-144	171	123
-115	100	-56
-56	11	-205
-6	-56	-315
2	-75	-374
-47	-37	-259
-133	29	-22
-209	91	76
-231	113	85
-173	90	84
-51	33	31
92	-37	11
204	-97	24
256	-140	35
245	-161	28
206	-155	19
164	-112	-1
142	-26	-33
134	98	-67
120	227	-87
75	301	-63
-8	274	-76
-108	106	-42
-198	-163	53
-245	-453	133
-240	-648	155
-188	-668	93
-117	-487	1
-48	-178	-152
-1	139	-273
23	345	-288
33	393	-198
33	296	4
29	142	163
19	23	230
4	-14	209
-16	13	121
-33	51	1
-39	51	-136
-31	4	-217
-8	-56	-273
20	-79	-255
49	-32	-179
69	63	-123
77	158	-95
68	201	-40
49	171	118
24	97	297
0	15	288
-15	-36	121
-13	-52	-47
6	-55	-232
32	-70	-384
48	-109	-384
42	-150	-193
7	-170	40
-44	-152	124
-92	-102	183
-104	-46	216
-68	-5	231
8	13	173
94	29	49
155	59	-62
164	110	-176
118	167	-204
41	198	-202
-31	183	-109
-68	124	-1
-61	44	51
-19	-23	61
35	-55	48
71	-55	39
75	-36	4
37	-17	1
-35	-11	-2
-129	-12	-4
-218	-15	21
-275	-7	38
-278	15	53
-215	57	51
-99	122	8
38	200	-39
151	268	-88
204	279	-133
191	191	-143
128	-17	-111
55	-308	-81
2	-586	-52
-16	-745	-27
-8	-712	7
3	-497	54
2	-198	65
-16	49	103
-40	153	65
-62	110	-25
-72	8	-86
-75	-41	-155
-71	28	-187
-68	190	-184
-56	341	-111
-32	377	-8
2	261	65
37	58	104
52	-114	84
38	-165	30
-1	-79	-36
-41	62	-116
-56	150	-186
-30	116	-119
25	-12	33
83	-137	84
111	-160	24
101	-49	-44
66	131	-64
38	271	-99
42	279	-108
82	149	-57
123	-43	10
131	-188	2
78	-206	-36
-22	-104	-22
-130	43	-36
-190	139	-65
-172	131	-68
-88	33	-32
16	-90	-10
80	-167	20
69	-166	58
-5	-99	119
-96	-13	209
-145	55	268
-120	89	269
-29	95	173
85	88	25
163	76	-143
175	54	-282
125	25	-298
52	-11	-210
4	-31	-105
-4	-24	-25
23	10	-16
45	47	-8
28	62	22
-37	36	1
-128	-21	-18
-197	-79	-56
-203	-108	-106
-134	-83	-132
-20	-15	-128
94	71	-65
158	144	-6
148	183	17
75	188	-12
-30	160	-75
-124	110	-103
-183	37	-91
-191	-57	-31
-154	-171	13
-80	-292	45
15	-390	100
105	-441	164
166	-418	196
179	-317	121
136	-153	10
56	37	-82
-28	203	-155
-83	301	-180
-91	299	-147
-59	201	-81
-22	39	-47
-7	-121	-30
-31	-223	9
-80	-230	25
-118	-149	49
-114	-27	55
-53	79	35
42	121	40
139	96	-35
199	35	-123
205	-22	-159
165	-34	-176
100	-1	-113
37	59	46
-8	112	174
-35	127	141
-49	100	44
-53	40	-56
-52	-29	-162
-45	-94	-222
-38	-134	-189
-40	-147	-52
-53	-122	85
-80	-60	145
-106	24	129
-114	115	91
-89	183	53
-31	212	21
42	196	-44
109	155	-82
145	113	-57
150	92	-48
126	95	-44
97	100	-42
72	87	-80
61	40	-113
52	-31	-100
38	-104	-91
14	-153	-54
-20	-165	-61
-53	-148	-119
-79	-125	-144
-89	-114	-82
-89	-118	-15
-81	-120	-11
-72	-100	39
-67	-46	81
-67	28	81
-71	99	56
-79	136	48
-91	129	12
-102	89	-15
-113	38	-48
-118	3	-103
-109	-5	-101
-83	17	-65
-29	57	13
46	110	108
139	164	199
226	203	233
280	205	204
279	140	94
212	-1	-89
92	-204	-223
-44	-406	-302
-155	-527	-252
-201	-509	-76
-178	-348	60
-103	-116	141
-10	85	119
62	162	-11
91	94	-98
79	-51	-143
37	-160	-190
-10	-134	-182
-47	39	-113
-63	276	-38
-56	438	-12
-31	428	-32
6	222	-44
42	-80	-56
65	-322	-61
62	-394	-37
31	-277	8
-19	-51	45
-66	141	108
-87	199	174
-69	109	180
-16	-44	116
54	-150	9
113	-133	-58
132	-12	-72
106	129	-78
42	193	-66
-31	138	-10
-82	11	26
-87	-101	-40
-45	-114	-113
22	-21	-118
81	117	-98
94	208	-32
56	185	39
-20	58	100
-101	-101	85
-152	-202	36
-152	-194	27
-112	-93	-30
-55	39	-89
-18	136	-103
-12	171	-32
-24	164	80
-28	155	47
0	160	-42
61	157	-110
132	100	-208
175	-41	-264
154	-239	-179
69	-414	-66
-52	-471	-46
-165	-368	-1
-221	-138	40
-203	108	74
-128	252	103
-38	247	76
31	125	26
60	1	-57
56	-27	-104
47	79	-118
54	252	-123
88	370	-92
132	333	-26
163	122	22
151	-174	19
98	-426	21
17	-524	68
-61	-444	134
-110	-262	176
-122	-81	150
-104	20	55
-72	30	-64
-48	-2	-170
-37	-2	-267
-35	57	-335
-23	161	-270
16	251	-116
88	279	0
179	241	100
260	159	229
292	82	306
251	32	225
128	1	80
-49	-37	-14
-232	-105	-77
-366	-192	-128
-417	-263	-149
-379	-284	-127
-278	-240	-131
-151	-144	-184
-33	-34	-248
56	57	-183
119	116	24
166	150	150
197	169	151
212	174	65
203	156	-20
162	100	-66
94	5	-114
7	-100	-77
-82	-179	20
-160	-201	84
-211	-162	63
-226	-83	37
-197	8	18
-120	88	-2
-4	160	1
128	229	-27
245	292	-42
309	321	-13
300	269	11
216	114	16
80	-127	22
-72	-378	28
-202	-536	54
-281	-519	-2
-299	-321	-76
-262	-23	-98
-194	244	-150
-112	364	-190
-37	289	-193
21	65	-111
62	-188	-23
91	-349	20
115	-341	35
137	-179	32
152	60	15
155	272	0
138	377	-3
106	353	-19
63	229	-31
25	70	-72
-1	-62	-68
-18	-137	-19
-33	-148	14
-57	-114	-8
-97	-69	-52
-142	-38	-35
-173	-29	11
-168	-35	66
-120	-44	117
-36	-35	136
58	-4	126
133	45	86
169	103	-12
159	142	-111
120	149	-168
65	102	-181
16	9	-153
-23	-117	-117
-50	-234	-75
-63	-305	-50
-54	-301	-80
-18	-216	-155
44	-81	-172
116	58	-43
167	153	167
175	181	279
126	155	221
28	116	58
-93	106	-100
-203	147	-185
-277	219	-246
-306	287	-207
-285	309	-120
-223	256	-46
-129	138	57
-19	-16	171
85	-182	256
154	-331	222
172	-449	124
131	-515	4
50	-512	-87
-34	-427	-155
-89	-262	-154
-96	-49	-59
-58	155	9
4	290	-8
70	328	-44
130	268	-75
179	165	-108
213	70	-76
222	22	-72
179	19	-44
72	26	-18
-83	8	-43
-242	-45	-15
-345	-109	0
-345	-139	-8
-232	-106	-33
-49	-13	-51
127	101	-37
234	180	-6
244	186	32
169	122	76
65	30	49
-16	-44	-32
-49	-67	-115
-42	-51	-190
-24	-21	-219
-18	-15	-177
-32	-37	-78
-50	-65	-30
-54	-69	28
-34	-21	147
5	62	205
43	149	163
63	193	104
53	171	64
22	101	-8
-17	26	-77
-50	-7	-113
-63	15	-81
-58	67	-22
-37	94	-21
-10	43	-30
15	-95	-24
22	-283	-7
8	-444	32
-28	-502	94
-67	-420	155
-89	-228	126
-75	2	-24
-17	182	-238
66	256	-398
147	227	-356
190	141	-211
188	65	-56
148	40	63
90	62	87
38	95	62
-4	89	27
-48	30	18
-112	-63	4
-193	-141	2
-273	-160	15
-313	-97	31
-279	25	37
-166	153	12
1	230	-27
169	224	-38
285	135	-36
320	0	-21
273	-127	47
178	-203	85
71	-203	40
-19	-135	-16
-85	-37	-9
-125	41	-19
-151	56	-105
-158	3	-172
-149	-97	-144
-117	-186	-159
-68	-206	-215
-19	-136	-181
18	7	-68
30	161	51
20	260	52
0	268	52
-11	197	72
0	103	93
33	37	89
79	35	67
118	77	45
132	112	1
114	100	-2
66	28	-27
3	-68	-27
-59	-142	0
-100	-166	45
-113	-148	84
-92	-124	75
-50	-131	32
1	-174	-54
44	-210	-131
66	-198	-186
62	-112	-194
31	22	-155
-16	140	-140
-67	187	-118
-110	138	-67
-132	32	-3
-129	-64	76
-99	-96	141
-46	-53	178
20	29	162
87	96	126
141	114	66
167	92	-14
156	62	-111
110	58	-208
44	80	-244
-13	100	-252
-44	90	-236
-35	43	-136
7	-13	-17
58	-39	12
90	-9	2
84	57	-1
41	113	4
-16	110	26
-55	31	77
-55	-92	129
-17	-211	108
35	-280	44
65	-290	-18
36	-260	-89
-53	-215	-156
-179	-166	-185
-290	-96	-100
-336	10	12
-291	143	20
-173	258	-2
-30	299	-1
78	231	-7
111	74	2
71	-100	12
-3	-210	11
-54	-206	9
-45	-105	31
25	27	59
119	116	69
188	126	45
196	81	11
147	37	-15
78	47	-53
37	112	-32
46	192	34
96	228	80
145	183	51
154	75	-33
104	-43	-95
13	-109	-163
-79	-98	-243
-139	-33	-183
-152	28	-52
-130	28	-14
-99	-43	-15
-75	-163	-38
-56	-264	-50
-40	-301	-56
-22	-248	-38
-6	-122	23
-4	23	15
-23	147	-33
-54	215	-38
-79	233	-13
-77	200	30
-47	135	42
-9	49	29
16	-57	23
7	-163	-35
-27	-244	-49
-55	-263	19
-45	-204	79
20	-83	112
131	58	123
251	158	70
336	171	-48
346	96	-170
283	-21	-282
159	-113	-267
10	-130	-156
-129	-71	-44
-229	12	36
-276	56	46
-272	18	22
-233	-92	-25
-178	-209	-51
-123	-260	-18
-77	-198	10
-34	-51	-63
8	116	-144
48	224	-151
77	237	-90
71	179	24
21	113	76
-62	93	68
-140	128	33
-166	180	19
-108	182	29
27	106	20
183	-30	10
288	-160	39
291	-215	107
192	-166	152
45	-41	117
-62	87	21
-79	154	-77
-5	131	-161
100	52	-255
157	-32	-248
117	-77	-92
-11	-61	26
-158	-15	54
-250	32	45
-248	47	15
-170	36	-6
-79	10	6
-32	-17	31
-52	-36	68
-108	-55	68
-142	-82	-14
-115	-118	-72
-25	-150	-89
85	-164	-82
166	-153	-52
191	-115	-33
175	-62	-25
151	2	-70
151	71	-138
175	142	-169
195	200	-105
178	224	-8
106	198	3
-7	120	14
-130	13	31
-226	-86	21
-275	-133	44
-277	-116	65
-240	-53	63
-172	12	21
-76	33	-46
29	-5	-127
123	-83	-185
172	-143	-215
165	-137	-187
104	-44	-64
32	110	47
-4	256	111
17	318	176
78	248	192
124	64	131
105	-163	38
-1	-344	-83
-157	-403	-177
-291	-326	-211
-344	-170	-156
-287	-21	-35
-153	51	37
-13	27	36
75	-54	-30
86	-112	-82
50	-86	-108
19	37	-107
33	202	-42
96	328	-5
175	341	13
229	228	38
221	32	43
142	-162	30
25	-274	24
-88	-270	34
-158	-168	60
-170	-24	118
-130	93	179
-60	143	185
12	117	129
68	48	63
100	-22	-15
110	-52	-138
107	-26	-243
105	42	-276
104	125	-289
98	175	-268
77	171	-159
37	106	-44
-15	14	-1
-69	-67	47
-105	-99	81
-113	-64	61
-100	10	40
-80	82	7
-72	110	-52
-80	81	-77
-100	8	-46
-108	-62	17
-96	-90	65
-60	-62	56
-11	3	45
32	59	-8
62	70	-87
76	18	-125
78	-81	-108
68	-185	-68
49	-263	-42
15	-286	-30
-28	-254	-40
-61	-181	-36
-65	-79	-26
-22	31	-2
60	136	26
151	213	74
202	240	102
180	198	91
83	101	34
-63	-22	-62
-211	-121	-95
-311	-160	-88
-332	-131	-114
-281	-62	-89
-177	0	15
-50	24	61
69	2	33
159	-44	-21
199	-78	-100
191	-83	-144
137	-54	-147
62	-14	-125
-10	23	-68
-54	56	24
-61	93	98
-43	145	135
-20	198	161
-8	224	120
-17	190	9
-34	88	-104
-46	-57	-178
-40	-183	-201
-22	-224	-128
4	-149	58
20	19	218
31	205	253
42	320	149
68	296	-15
107	130	-135
150	-109	-230
172	-321	-244
159	-410	-155
111	-339	-44
41	-144	-3
-22	77	-48
-65	219	-76
-87	225	-84
-101	99	-122
-124	-81	-155
-157	-225	-121
-186	-263	-28
-181	-190	80
-126	-60	170
-21	61	281
104	126	346
206	134	253
249	116	91
216	113	-64
130	140	-205
28	177	-311
-47	185	-303
-81	138	-208
-79	45	-120
-65	-64	-32
-70	-143	11
-98	-170	20
-134	-150	48
-149	-109	68
-120	-76	81
-42	-51	9
60	-21	-93
151	34	-149
198	112	-161
181	181	-159
113	198	-128
24	130	-47
-51	-13	22
-91	-186	69
-85	-312	101
-49	-334	74
