File Name: not saved
Channel 2: 'Channel 2', 31420 values, raw ADC, no filters.
Channel 3: 'Channel 3', 31420 values, raw ADC, no filters.
Channel 4: 'Channel 4', 31420 values, raw ADC, no filters.

80	254	0
46	239	-3
-6	138	16
-48	-8	29
-55	-142	-12
-33	-203	-40
-1	-178	-80
25	-92	-96
46	5	-77
81	66	-77
131	86	-19
190	84	4
226	92	-4
204	122	24
107	166	-8
-39	191	-27
-191	171	-23
-295	103	-38
-318	3	-54
-273	-90	-60
-203	-153	-42
-150	-179	-40
-136	-177	-32
-154	-161	-19
-172	-137	-6
-150	-104	5
-75	-45	1
40	31	2
159	117	15
248	183	26
280	203	1
255	170	-36
198	90	-27
127	-5	-7
62	-85	-40
11	-127	-85
-24	-127	-48
-43	-103	-20
-41	-78	-26
-16	-72	-13
30	-99	-42
82	-152	-36
110	-213	-19
90	-254	2
6	-263	29
-130	-234	25
-287	-179	29
-415	-118	-8
-474	-69	-46
-450	-40	-40
-347	-25	-33
-194	-14	-50
-35	4	-46
96	27	-51
178	52	-62
211	78	-50
209	102	-30
194	138	-7
181	189	-13
181	244	-38
184	285	-51
178	277	-43
145	202	-35
86	74	-20
18	-67	1
-32	-169	-7
-44	-190	4
-14	-131	53
40	-34	67
85	44	35
90	62	-17
47	15	-64
-22	-65	-9
-89	-127	17
-121	-134	-18
-108	-77	-10
-61	20	-43
-5	117	-45
35	186	-55
53	218	-59
54	225	-38
50	215	-60
46	197	-60
42	169	-40
36	126	-23
21	72	-40
3	16	-72
-15	-33	-87
-28	-71	-49
-40	-103	2
-60	-133	26
-89	-161	22
-119	-171	10
-136	-154	36
-126	-100	26
-80	-21	-3
-13	56	-10
53	103	-19
98	103	-44
107	67	-82
90	19	-101
58	-11	-103
32	-12	-111
19	10	-78
27	39	-26
59	50	8
113	43	15
182	25	5
242	10	6
263	4	-48
210	4	-5
65	-12	12
-143	-61	-44
-356	-149	-16
-497	-260	-25
-523	-364	-16
-423	-439	-15
-259	-460	-8
-115	-436	1
-57	-372	-13
-107	-289	2
-228	-204	1
-344	-117	7
-389	-24	-5
-325	75	-4
-168	180	9
41	275	-5
245	340	-7
404	356	-21
493	320	-42
506	244	-72
459	164	-83
368	100	-69
255	70	-25
151	68	10
71	74	4
22	68	-4
-5	41	0
-31	4	-3
-66	-24	-7
-112	-29	-17
-151	-7	-7
-169	25	52
-152	48	27
-115	46	-29
-71	32	-56
-40	22	-87
-18	37	-87
10	89	-88
59	156	-85
132	211	-51
207	227	-26
245	187	-16
216	105	-5
125	1	-2
-2	-100	17
-115	-190	8
-174	-264	-4
-170	-329	-12
-124	-366	-32
-75	-356	-37
-44	-289	-22
-32	-159	-19
-15	11	-26
31	178	-20
106	301	-21
184	362	-8
226	353	-4
207	295	4
131	213	3
33	123	-22
-43	32	-15
-77	-57	-2
-71	-137	-7
-59	-195	-16
-69	-215	-9
-106	-190	-22
-147	-136	-58
-157	-80	-82
-117	-48	-111
-38	-53	-117
37	-92	-85
69	-137	-38
37	-165	-8
-40	-161	-12
-123	-125	-9
-162	-81	-16
-139	-52	-5
-65	-58	8
25	-103	0
94	-161	24
120	-195	29
103	-162	17
63	-38	9
22	160	-67
-5	382	-116
-12	543	-45
-1	574	-44
18	453	-52
27	205	-24
9	-83	-8
-46	-311	21
-132	-408	-7
-223	-364	-1
-281	-232	-3
-281	-86	-15
-213	9	-20
-98	32	-24
21	13	0
101	3	4
128	39	9
115	123	-1
93	215	-22
93	261	-28
123	230	-11
170	124	-27
203	-11	-60
196	-126	-56
142	-181	-44
55	-167	-38
-38	-109	-9
-116	-41	14
-161	7	17
-169	28	19
-143	31	-11
-94	38	-22
-32	52	-34
29	74	-39
80	85	-33
106	69	-63
110	27	-62
95	-33	-72
75	-89	-106
54	-116	-83
42	-104	-11
34	-56	17
28	8	-2
23	74	-2
18	123	6
17	158	26
15	177	9
14	190	-33
9	191	-40
10	168	-47
25	110	-26
60	15	14
113	-99	32
160	-202	-6
171	-254	-33
118	-238	-46
0	-165	-76
-159	-78	-70
-308	-32	-69
-394	-64	-30
-401	-171	-7
-318	-301	-22
-183	-393	-15
-41	-390	-31
68	-283	-16
126	-115	-9
132	51	-7
95	157	-3
37	183	-22
-24	149	-25
-72	98	-22
-96	71	-3
-88	79	1
-50	110	-21
6	131	-29
68	135	-28
130	117	-25
175	93	-18
197	80	-18
179	76	14
109	68	10
-9	41	-27
-153	-6	-17
-273	-62	-42
-321	-106	-57
-270	-113	-49
-134	-85	-11
31	-33	10
154	19	-10
180	53	-28
115	64	-53
8	54	-43
-75	31	-28
-83	-2	-19
-22	-35	-27
68	-62	-43
133	-70	-31
147	-49	-15
117	-6	-16
85	43	-28
84	77	-34
116	83	-24
152	62	-17
147	43	-17
75	49	-10
-52	85	5
-189	131	24
-281	151	13
-300	113	-12
-243	9	-2
-139	-126	-9
-24	-245	-42
72	-304	-51
143	-282	-50
186	-202	-39
202	-90	-24
190	19	-13
145	106	-40
81	169	-78
12	202	-58
-35	202	-40
-48	164	-34
-36	91	-12
-19	0	28
-19	-78	65
-45	-117	16
-83	-109	-44
-102	-68	-16
-81	-28	-10
-11	-9	-46
86	-16	-54
175	-31	-51
219	-26	-30
201	6	-19
126	56	-24
18	95	-28
-88	100	-32
-159	60	-32
-178	-4	-38
-143	-62	-33
-74	-94	-34
1	-92	-57
41	-77	-58
29	-65	-12
-37	-74	19
-129	-96	1
-211	-115	-17
-239	-117	-23
-197	-92	-16
-104	-47	-7
8	12	1
102	75	-4
151	131	-22
155	169	-10
131	169	-28
94	115	-42
57	5	-29
16	-134	-17
-32	-257	-4
-93	-309	-14
-159	-263	-1
-215	-141	10
-255	7	-12
-264	112	-75
-256	143	-98
-232	106	-63
-200	60	-59
-156	53	-47
-87	108	-27
17	197	1
156	261	9
310	247	-4
438	149	9
496	4	-8
453	-120	-15
314	-176	4
124	-159	-7
-53	-103	-21
-162	-56	-18
-166	-45	-4
-89	-64	-6
16	-77	-20
89	-54	-23
96	8	-28
48	81	-44
-18	135	-78
-60	150	-57
-62	137	-24
-32	121	-15
4	121	-19
29	134	-9
50	137	11
94	106	4
175	31	1
287	-64	-9
378	-145	11
387	-181	-5
270	-165	-38
40	-122	-42
-245	-80	-55
-491	-60	-47
-619	-68	-43
-602	-88	-36
-470	-104	-36
-288	-108	-43
-130	-107	-43
-40	-104	-30
-18	-102	-16
-35	-93	-34
-51	-66	-38
-42	-30	-11
-2	9	-13
53	33	-28
107	41	-34
145	41	-49
163	55	-38
172	96	-15
186	154	2
214	204	15
255	208	11
294	148	14
302	30	17
254	-106	-1
136	-213	-35
-39	-257	-76
-222	-233	-86
-351	-165	-89
-366	-88	-67
-262	-27	-41
-71	8	-28
118	29	24
219	51	60
178	82	31
5	117	3
-217	150	30
-385	166	36
-415	168	2
-284	165	4
-55	166	1
171	171	-38
299	174	-98
283	159	-92
148	109	-57
-33	25	-70
-185	-76	-65
-253	-176	-77
-240	-250	-49
-177	-283	-11
-99	-274	5
-32	-227	11
25	-151	-22
82	-58	30
141	38	65
195	127	34
226	190	-9
216	210	-28
172	177	18
110	94	14
50	-21	16
12	-139	2
-1	-224	-11
12	-249	-39
44	-206	-80
94	-113	-83
152	-3	-93
201	93	-77
216	145	-61
178	150	-30
78	114	-24
-69	64	-32
-219	21	-43
-324	-3	-62
-355	-9	-72
-315	-11	-79
-229	-21	-39
-139	-53	13
-81	-103	37
-58	-166	17
-58	-225	-21
-54	-263	-49
-23	-279	-36
38	-261	-19
115	-208	-25
179	-123	-23
200	-13	-7
166	106	-14
86	215	-35
-16	296	-35
-99	325	-16
-131	305	24
-106	252	34
-34	185	15
44	126	32
95	88	19
97	66	-22
62	54	-55
20	41	-85
6	30	-74
36	26	-63
96	38	-57
152	69	-47
167	106	-9
121	131	1
21	125	-11
-97	86	-16
-199	25	-19
-258	-36	-10
-262	-82	-35
-222	-109	-50
-149	-125	-25
-68	-149	9
5	-182	32
57	-215	13
76	-229	2
68	-199	26
43	-126	25
30	-26	15
39	68	5
70	130	-4
98	143	-3
85	117	-29
9	78	-57
-117	41	-80
-245	19	-69
-313	-6	-60
-273	-61	-81
-132	-166	-78
58	-320	-44
224	-486	-45
288	-604	-41
238	-615	-18
102	-488	-38
-50	-248	7
-156	40	65
-175	287	51
-118	424	43
-24	427	11
59	330	-18
103	200	-11
102	108	-25
71	85	-33
40	114	-21
27	153	-10
34	155	-38
49	109	-60
56	33	-63
37	-25	-86
-6	-36	-84
-60	1	-75
-102	60	-63
-104	103	-44
-62	108	-56
8	82	-60
77	53	-58
109	45	-45
91	61	7
33	84	26
-30	82	17
-59	40	33
-36	-32	41
30	-105	-4
107	-147	-44
159	-141	-4
166	-97	-4
132	-36	-18
88	13	-8
57	47	-18
51	72	-23
66	106	-46
82	149	-57
82	191	-60
63	210	-48
33	188	-14
1	118	-6
-34	15	-2
-72	-93	9
-121	-188	33
-174	-254	51
-214	-291	6
-227	-296	-34
-195	-264	-46
-126	-196	-57
-31	-85	-55
64	55	-17
136	199	12
172	301	-17
164	339	-35
116	286	-59
43	162	-53
-36	-4	-54
-105	-177	-42
-154	-319	-4
-188	-408	5
-222	-434	-3
-269	-401	-15
-329	-319	5
-371	-205	-26
-351	-86	-66
-237	14	-76
-34	78	-50
204	101	6
395	94	4
459	72	-8
363	57	-19
150	53	-22
-99	58	-18
-287	58	-25
-356	51	-21
-307	39	8
-187	30	32
-59	38	34
30	61	16
76	89	-5
93	101	-20
107	93	-83
123	64	-80
135	34	-40
128	21	-55
102	27	-18
68	40	-14
49	36	-17
57	3	-8
85	-52	-32
118	-108	-34
133	-130	-46
127	-103	-61
106	-39	-82
84	26	-95
69	58	-82
60	43	-62
46	-5	-62
20	-45	-45
-14	-49	-30
-36	-3	-19
-30	69	11
7	137	48
57	166	106
93	150	119
83	114	74
25	83	17
-59	77	-11
-134	90	-45
-161	100	-74
-128	82	-63
-52	23	-57
31	-56	-70
91	-123	-68
107	-139	-51
90	-92	-49
55	6	-42
27	105	-34
12	156	-6
4	127	0
-14	26	-13
-50	-102	-23
-102	-199	-27
-154	-210	-22
-183	-124	-20
-178	20	-23
-137	154	-35
-76	210	-26
-10	150	-11
53	-8	-23
107	-206	-7
157	-365	16
202	-425	-6
238	-368	-14
249	-225	-38
214	-57	-58
120	67	-37
-30	108	-31
-214	68	-19
-398	-20	-5
-532	-107	-7
-579	-159	19
-526	-161	19
-390	-127	5
-218	-88	11
-60	-63	2
38	-57	-5
68	-51	-18
54	-26	-35
41	32	-38
65	110	-80
138	183	-130
234	223	-75
312	214	-41
335	174	-36
297	130	11
226	112	17
163	121	44
138	141	39
145	139	26
147	97	34
103	18	24
-4	-68	15
-147	-124	-11
-269	-128	-22
-317	-86	-21
-269	-19	-46
-147	36	-93
-7	68	-88
86	77	-76
110	82	-83
74	93	-80
18	113	-90
-16	129	-43
-6	125	-6
34	96	-17
76	45	-7
92	-5	11
70	-44	-20
25	-61	-60
-18	-57	-55
-35	-42	-24
-14	-23	-11
40	-5	13
107	12	43
158	22	7
172	26	-40
139	17	-71
65	-4	-105
-24	-33	-105
-93	-65	-81
-113	-92	-42
-79	-109	24
-6	-116	56
56	-117	55
75	-115	39
29	-109	-4
-56	-103	-37
-143	-97	-35
-181	-93	-18
-150	-90	-16
-65	-86	-7
25	-77	-16
78	-56	-27
75	-25	-48
26	17	-45
-28	62	-11
-63	102	9
-79	128	17
-97	126	-32
-152	90	-42
-243	12	-10
-340	-94	-31
-387	-212	-32
-333	-305	-23
-177	-339	-13
36	-296	3
229	-185	10
334	-41	-6
332	94	-31
254	186	-38
159	228	-52
97	239	-51
74	239	-43
62	244	-11
25	241	16
-53	211	19
-149	131	13
-213	7	-24
-210	-127	-61
-142	-229	-59
-44	-254	-22
31	-199	-7
52	-89	-19
35	23	-48
16	93	-36
36	103	-13
102	64	-8
184	18	-23
234	-8	-24
216	5	0
140	43	-1
44	81	20
-15	98	27
-18	86	-9
20	60	-27
52	38	-23
42	35	-97
-21	48	-165
-108	60	-121
-167	60	-58
-165	41	-52
-100	17	-38
-10	6	-12
60	24	2
77	69	-7
47	114	17
4	124	63
-11	71	77
32	-40	72
129	-179	20
245	-289	-15
336	-322	-30
358	-264	-40
289	-130	-48
143	29	-87
-42	164	-102
-221	233	-84
-341	236	-55
-375	190	-24
-324	127	-21
-221	67	-38
-111	17	-14
-35	-34	25
-6	-93	13
-17	-157	-20
-38	-214	-25
-48	-246	-24
-41	-241	-52
-28	-208	-58
-28	-162	-42
-48	-122	-37
-80	-94	-9
-104	-64	-2
-98	-22	-33
-54	43	-48
10	114	-25
70	164	0
101	155	4
85	81	0
28	-43	-30
-56	-171	-38
-149	-254	-37
-227	-265	-41
-274	-211	-35
-279	-121	-30
-234	-33	-26
-142	28	-12
-15	68	3
128	106	3
269	156	2
392	211	-30
469	247	-74
484	238	-39
428	174	8
291	80	49
94	-3	61
-130	-41	26
-318	-19	16
-412	33	-15
-385	72	-31
-241	57	-42
-32	-13	-53
159	-103	-58
268	-168	-98
262	-166	-117
161	-95	-98
10	12	-52
-124	105	-26
-198	149	-11
-198	135	14
-141	88	32
-60	43	31
8	24	-7
46	31	-25
58	44	21
52	41	9
44	19	13
42	-17	25
49	-41	-6
59	-40	-10
66	-11	-41
72	35	-55
72	77	-66
64	106	-45
44	117	-43
14	116	-62
-26	103	-50
-64	69	-48
-83	8	-40
-70	-88	-28
-28	-198	-10
26	-287	1
71	-315	21
85	-261	29
59	-142	24
6	-4	-3
-51	95	-20
-94	122	-37
-111	80	-85
-101	9	-109
-75	-45	-105
-33	-52	-62
18	-22	-44
79	3	-24
135	-9	11
162	-71	19
135	-151	36
44	-193	26
-93	-160	17
-231	-53	12
-308	74	-43
-285	158	-69
-166	150	-69
7	59	-52
160	-55	-1
229	-120	62
191	-86	89
78	36	40
-50	194	5
-124	308	-42
-107	327	-104
-14	243	-41
105	95	15
184	-64	-6
194	-194	34
128	-270	27
31	-298	33
-50	-283	10
-84	-240	-65
-70	-164	-93
-39	-64	-107
-17	38	-106
-17	122	-129
-22	166	-138
-12	163	-99
27	127	-59
82	88	-63
109	66	-34
76	71	-18
-33	93	-23
-187	106	-24
-329	95	13
-393	47	74
-355	-25	44
-222	-110	32
-47	-181	-4
113	-215	-35
216	-198	-28
251	-118	-72
241	14	-93
210	174	-70
180	323	-49
151	410	-46
113	412	-6
60	321	34
-10	166	48
-83	-7	39
-144	-158	33
-175	-256	38
-176	-301	22
-144	-306	-1
-96	-291	-22
-42	-265	-27
6	-230	-27
40	-176	-41
54	-97	-48
44	2	-53
19	104	-74
-14	183	-66
-34	215	-51
-32	183	-30
-8	95	15
29	-25	8
65	-141	5
85	-216	8
86	-238	1
83	-214	9
86	-176	-21
99	-156	-25
101	-159	-13
64	-160	-21
-30	-117	-10
-178	-1	-2
-331	178	-15
-426	362	-38
-412	465	-69
-280	427	-90
-81	240	-90
110	-23	-78
225	-263	-35
231	-382	-13
159	-345	6
68	-194	22
16	-14	37
18	108	54
52	136	-2
82	94	-54
77	38	-57
44	23	-26
17	66	-21
25	147	-27
78	215	-23
148	244	-16
198	215	-4
206	149	-8
171	72	-8
118	9	-22
74	-34	1
42	-64	4
15	-87	-24
-36	-99	-23
-120	-95	-21
-215	-69	-22
-281	-29	-57
-287	15	-70
-221	47	-54
-108	63	-51
7	65	-83
88	64	-104
123	71	-61
130	86	-41
132	106	-34
144	121	-13
155	127	13
139	119	42
74	101	28
-43	68	-9
-190	17	-22
-324	-54	1
-402	-148	24
-403	-238	-40
-321	-306	-118
-178	-322	-65
5	-278	-25
193	-190	-9
358	-81	36
478	16	1
534	78	2
512	102	13
422	96	22
269	79	24
83	57	-25
-116	37	-53
-296	13	-57
-425	-18	-63
-480	-54	-85
-451	-93	-76
-348	-127	-44
-201	-157	-35
-56	-179	-50
48	-196	-46
97	-204	2
93	-199	5
54	-181	10
9	-157	19
-33	-136	-6
-68	-123	-16
-100	-113	-34
-120	-90	-5
-121	-40	16
-89	41	4
-24	141	-12
57	227	-26
127	261	-4
164	233	11
151	164	-20
99	91	-70
30	64	-71
-34	104	-43
-82	191	-44
-101	279	-57
-98	313	-50
-72	265	-33
-33	142	-27
16	-7	-16
60	-126	-15
85	-182	14
83	-166	31
56	-114	20
21	-61	25
-5	-37	22
-5	-42	7
17	-53	-19
57	-49	-43
103	-16	-38
143	38	-5
179	93	-20
206	127	-8
216	131	-7
198	112	-50
138	82	-31
36	53	-36
-84	30	-40
-185	10	-40
-236	-9	-62
-218	-23	-54
-141	-21	-43
-40	4	-50
41	49	-56
80	102	-57
65	140	-60
17	143	-62
-38	104	-56
-78	31	-50
-89	-56	-46
-75	-133	-22
-44	-190	-33
-14	-223	-32
7	-237	19
10	-237	61
-8	-225	93
-36	-193	69
-66	-144	8
-81	-88	-26
-71	-45	-45
-41	-40	-61
-3	-79	-81
28	-143	-84
41	-194	-61
35	-181	-30
18	-82	-6
0	86	11
-18	255	26
-35	353	28
-58	321	13
-84	159	0
-97	-66	2
-86	-265	-35
-46	-355	-64
4	-305	-42
38	-153	-46
34	25	-44
-8	145	-26
-63	174	-7
-90	120	-2
-53	35	-16
50	-33	-6
193	-56	-31
327	-41	-53
406	-13	-15
401	16	-17
311	47	16
152	98	38
-44	174	11
-252	255	1
-429	298	-18
-536	256	-17
-540	125	-30
-442	-57	-76
-262	-210	-111
-62	-263	-37
101	-194	-28
191	-36	-42
211	123	3
196	209	-4
180	179	9
180	62	-10
184	-67	-1
169	-140	-25
116	-119	-43
38	-30	-30
-30	70	-38
-56	126	10
-34	115	12
17	53	-3
60	-12	-17
72	-49	-49
56	-42	-61
35	-5	-102
37	41	-93
66	81	-46
102	110	-45
107	131	-45
61	150	-40
-27	156	-59
-123	138	-55
-185	86	-22
-175	4	27
-92	-92	52
44	-177	2
191	-227	-18
306	-233	-32
342	-194	-23
278	-119	-19
112	-21	-28
-118	80	-17
-345	154	-47
-503	171	-59
-540	112	-36
-459	-28	-3
-320	-226	19
-185	-420	9
-110	-551	-5
-98	-573	-3
-109	-471	-19
-82	-282	-51
14	-69	-42
164	101	-32
313	189	-39
396	194	-7
386	149	14
300	104	17
188	93	32
89	129	43
22	192	31
-24	250	17
-77	265	-15
-153	215	-48
-245	104	-55
-331	-55	-69
-390	-223	-63
-412	-353	-53
-394	-403	-55
-346	-346	-78
-253	-198	-66
-106	-1	-56
89	180	-62
301	289	-20
481	301	-23
569	241	-9
541	155	22
400	93	22
205	77	15
21	85	12
-94	84	47
-123	41	17
-84	-31	-16
-15	-104	8
42	-131	-10
74	-92	4
74	-2	-4
60	96	-23
51	157	-9
54	162	5
72	122	-8
97	70	-56
110	36	-40
100	29	-32
58	40	-59
-12	48	-58
-94	43	-50
-172	30	-81
-225	19	-137
-242	19	-113
-229	25	-20
-193	32	-4
-148	26	-15
-97	11	-4
-39	-7	11
21	-19	41
81	-19	37
128	-15	22
155	-11	-26
159	-17	-46
148	-29	-39
136	-49	-87
132	-79	-86
129	-114	-43
114	-157	-18
72	-186	11
7	-186	1
-64	-134	-20
-121	-40	-25
-152	61	-40
-161	119	-26
-162	88	29
-166	-33	47
-166	-200	12
-132	-334	-46
-45	-378	-92
94	-305	-72
242	-157	-31
332	-2	20
302	98	46
142	122	14
-100	95	-12
-340	58	-16
-491	40	-65
-511	34	-114
-414	13	-76
-258	-41	-24
-113	-118	-9
-14	-167	-25
42	-138	-27
87	-21	-16
144	153	-9
214	301	-18
268	359	-12
268	305	-18
191	178	-38
54	51	-28
-89	-16	-36
-187	-10	-32
-201	35	-30
-138	65	-17
-28	43	4
79	-23	2
140	-93	24
150	-127	24
120	-108	-10
86	-57	-16
71	-11	-3
83	11	-20
103	13	-53
107	26	-71
77	72	-60
14	144	-71
-58	201	-84
-107	191	-40
-105	95	-11
-44	-61	-6
54	-210	18
150	-286	51
196	-254	25
167	-144	32
59	-21	31
-94	56	5
-237	59	0
-310	20	-46
-273	-9	-58
-133	16	-76
65	100	-70
245	205	-80
334	275	-97
291	268	-98
139	189	-55
-60	59	19
-229	-70	13
-300	-180	-7
-262	-259	-20
-156	-308	-3
-38	-322	26
42	-283	16
72	-187	-19
75	-41	-9
84	104	-8
115	195	-34
157	190	-24
175	97	-23
144	-29	-47
52	-113	-50
-68	-103	-32
-180	-2	-34
-241	131	-34
-237	221	-40
-181	210	-45
-96	103	-24
-12	-51	-16
51	-181	-40
83	-243	-31
78	-224	-7
36	-152	-41
-25	-66	-57
-85	9	8
-116	66	34
-106	105	-7
-61	120	17
-14	100	39
7	32	24
-13	-76	1
-50	-189	-15
-57	-268	-26
-6	-273	-54
100	-205	-47
214	-90	-49
262	22	-50
200	93	-30
46	119	-10
-122	122	-27
-218	134	-11
-182	170	-2
-30	219	-39
151	250	-12
269	235	-5
262	171	-7
145	86	5
-13	14	-2
-129	-22	-21
-163	-21	-63
-132	-11	-64
-85	-24	-48
-70	-71	-51
-89	-144	-55
-104	-201	-78
-65	-209	-84
44	-149	-49
199	-36	3
331	84	20
373	166	22
301	183	2
148	133	-20
-29	45	-20
-169	-47	-44
-240	-112	-25
-250	-139	-15
-231	-131	-6
-205	-105	24
-182	-68	37
-151	-28	16
-101	20	-37
-38	77	-45
22	132	-45
64	179	-30
84	197	-35
91	179	-69
105	126	-62
129	53	-31
154	-16	-4
150	-66	-18
101	-88	-14
11	-86	-30
-80	-63	-34
-125	-33	-5
-95	0	-14
8	31	-33
133	53	-39
222	64	-39
223	59	-35
135	41	-52
-5	11	-48
-136	-23	-9
-208	-64	5
-207	-117	8
-163	-183	-6
-125	-260	-26
-135	-330	-59
-202	-368	-56
-291	-342	-27
-360	-244	-18
-357	-96	-9
-273	61	-18
-133	169	-2
16	186	-5
129	108	-15
187	-29	-15
199	-168	-22
198	-250	-13
207	-243	-12
237	-156	-4
269	-31	-13
270	77	-16
222	132	7
121	130	18
-4	89	5
-119	50	-10
-194	39	-20
-217	66	-57
-195	120	-72
-144	174	-62
-78	214	-56
1	233	-40
87	237	-22
171	239	-2
231	244	-15
238	239	-34
178	215	-21
57	165	-12
-89	85	-11
-210	-8	-21
-262	-99	-28
-229	-174	-21
-125	-227	-22
2	-254	-24
106	-253	-34
158	-218	-50
154	-149	-32
117	-51	6
77	57	-1
58	145	-28
69	193	-16
97	194	0
129	158	16
150	110	21
150	71	0
121	56	-27
66	54	-55
-16	51	-46
-123	38	-30
-240	12	15
-339	-16	35
-394	-32	44
-392	-31	33
-321	-18	-8
-201	-7	-46
-50	-13	-89
107	-44	-109
257	-96	-124
390	-161	-65
494	-216	-6
549	-250	24
534	-249	60
435	-206	47
263	-129	-13
48	-33	-55
-170	49	-45
-354	85	-63
-485	54	-116
-565	-46	-86
-603	-186	-52
-589	-312	-39
-518	-361	-31
-374	-301	-44
-162	-141	-32
77	70	-52
280	257	-65
392	362	-46
387	359	1
297	279	42
175	174	15
86	104	-39
44	77	-50
31	68	-32
6	30	-21
-56	-75	-13
-138	-233	-7
-191	-390	-5
-165	-460	-13
-45	-394	-2
121	-207	2
262	39	14
302	244	37
216	335	32
44	298	16
-142	180	-18
-272	63	-19
-311	4	-26
-271	15	-95
-193	63	-89
-114	105	2
-47	114	-4
19	105	-41
101	105	-31
192	129	-20
263	164	-19
287	162	-52
245	97	-54
151	-31	-21
49	-162	7
-18	-225	-3
-33	-177	34
-12	-38	85
9	116	59
-1	198	36
-48	162	-21
-112	33	-58
-154	-103	-81
-155	-159	-126
-115	-89	-113
-58	71	-36
-10	241	32
27	330	29
63	300	9
122	178	-28
209	21	-50
299	-104	-55
341	-181	-101
290	-222	-141
137	-255	-140
-88	-298	-118
-305	-334	-95
-436	-345	-38
-443	-309	16
-336	-246	51
-172	-182	69
-23	-151	68
61	-150	52
81	-149	42
68	-105	21
65	6	-32
94	164	-11
135	312	6
154	379	-27
114	329	-31
16	180	-36
-113	-8	-46
-221	-167	-28
-262	-246	-18
-226	-241	-28
-119	-179	-8
22	-101	0
162	-29	4
266	30	-17
311	89	-19
277	150	-3
162	207	-49
-20	241	-55
-223	241	-57
-383	202	-61
-450	139	-55
-401	77	-35
-259	25	-36
-77	-11	-54
86	-42	-42
190	-72	-44
240	-99	-33
253	-111	-22
250	-90	-17
229	-39	-7
182	29	9
96	91	41
-13	128	37
-113	135	-3
-163	120	-13
-137	104	-8
-52	92	-20
52	83	-24
135	59	-30
171	12	-31
165	-62	-45
139	-145	-62
118	-211	-46
103	-238	-37
85	-219	-24
46	-167	-2
-14	-98	-28
-85	-27	-19
-142	43	12
-172	116	20
-164	191	33
-124	259	11
-66	289	7
-8	259	31
31	156	48
39	-7	33
1	-186	4
-72	-334	-36
-158	-405	-96
-210	-384	-128
-191	-288	-155
-96	-158	-134
48	-40	-92
183	33	-74
252	58	-52
234	59	-28
147	66	1
46	104	18
-20	168	20
-46	227	16
-54	238	14
-84	170	30
-154	27	28
-243	-151	-25
-303	-305	-55
-290	-380	-85
-194	-358	-104
-57	-259	-54
60	-130	-9
114	-18	12
101	55	53
53	99	46
22	142	15
35	203	13
84	282	-33
133	340	-119
153	339	-128
131	252	-24
87	92	2
48	-102	-17
32	-271	-37
31	-368	-52
28	-374	-46
8	-297	-60
-22	-169	-30
-38	-30	-19
-14	92	-22
59	174	-16
166	213	6
274	213	56
353	191	81
386	168	41
357	156	-22
258	162	-34
84	168	-48
-155	153	-63
-420	95	-64
-647	-5	-44
-770	-124	-20
-731	-230	-25
-546	-282	-14
-281	-275	-8
-31	-212	-26
130	-120	-72
184	-28	-67
165	47	-42
133	100	-51
137	134	-19
179	154	-34
234	162	-20
262	154	0
253	132	14
211	98	36
156	47	26
87	-19	40
-7	-107	14
-140	-212	-15
-305	-318	-27
-452	-384	-18
-526	-372	-22
-481	-259	-44
-321	-60	-44
-118	157	-26
56	316	-2
151	345	-1
166	233	-5
154	20	-33
167	-202	-42
229	-346	-53
299	-361	-65
317	-254	-62
234	-88	-61
64	67	-42
-117	163	-42
-213	187	-26
-170	171	-2
7	149	-1
234	140	-12
401	136	-8
446	114	1
358	53	-9
194	-29	-21
26	-105	-32
-84	-138	-30
-132	-115	-23
-139	-56	-12
-138	-2	-13
-148	12	-7
-162	-20	2
-168	-71	-6
-161	-105	-37
-142	-88	-47
-126	-22	-21
-119	64	-15
-109	132	-2
-81	160	19
-23	145	31
54	115	35
128	94	11
172	93	-35
182	105	-35
164	113	-16
136	100	-43
116	66	-66
104	17	-69
86	-33	-48
56	-80	-42
10	-110	-77
-37	-120	-76
-71	-101	-69
-88	-40	-32
-91	57	-30
-96	175	-45
-108	278	-9
-119	331	-1
-109	311	-15
-64	219	-41
2	85	13
64	-61	41
77	-191	16
18	-291	27
-108	-361	7
-258	-394	-87
-373	-393	-181
-405	-339	-140
-335	-249	-69
-190	-151	-20
-20	-85	25
120	-80	20
201	-124	32
211	-177	31
175	-171	-18
120	-71	-43
74	104	-29
42	283	-51
27	373	-32
19	323	-26
12	139	-40
9	-88	8
12	-254	6
22	-290	0
34	-198	-1
41	-50	-19
38	66	-23
24	100	-34
10	66	-44
4	27	-29
16	48	0
39	144	1
67	274	-17
83	362	-25
79	345	-12
57	215	-11
29	17	-16
8	-171	-24
-4	-282	-23
-5	-298	-14
0	-233	-13
5	-135	-9
8	-42	-11
8	25	-20
6	72	-33
0	106	-25
-16	132	-17
-47	147	-23
-91	143	-8
-133	123	-4
-158	96	-26
-143	75	-30
-90	59	-25
-7	51	-20
78	38	-12
147	13	-6
182	-20	-23
184	-54	-33
166	-76	-24
127	-79	-23
72	-64	-6
0	-40	3
-89	-17	-24
-179	0	-68
-243	-1	-85
-253	-21	-86
-199	-57	-69
-98	-106	-62
9	-153	-52
79	-183	-3
86	-183	18
44	-154	42
-8	-101	33
-19	-44	2
33	2	-11
138	31	-21
245	43	36
299	48	61
245	50	26
99	53	-6
-93	56	-33
-255	58	-37
-321	61	-19
-276	65	-32
-149	66	-66
-6	52	-83
81	17	-102
88	-44	-78
29	-119	-56
-35	-179	-57
-55	-196	-49
-14	-161	-13
58	-81	37
105	13	43
72	90	44
-44	126	54
-203	128	37
-329	115	-28
-360	110	-96
-273	126	-88
-107	155	-43
74	177	-4
204	170	13
254	127	-6
234	55	4
184	-20	1
136	-78	-4
110	-94	-25
91	-65	-56
60	-6	-82
8	64	-123
-52	113	-135
-93	118	-113
-93	66	-77
-48	-29	-51
18	-141	-25
68	-232	-8
85	-263	-4
63	-234	-23
29	-152	-74
15	-61	-72
35	-2	-45
74	0	-15
99	-54	26
78	-126	43
2	-176	43
-95	-167	1
-170	-95	-26
-177	19	-1
-114	130	-1
-11	202	-10
77	227	-4
106	213	10
71	197	12
0	189	-24
-56	183	-41
-61	142	-23
-12	33	2
62	-144	2
116	-351	-22
119	-504	-40
62	-536	-44
-26	-411	-28
-115	-173	-17
-170	84	-2
-184	266	8
-152	321	-3
-83	270	-23
14	187	-32
120	136	-14
210	141	-1
257	163	54
230	138	84
127	30	28
-23	-134	-45
-170	-281	-86
-263	-322	-50
-280	-233	-72
-227	-51	-65
-142	123	-21
-65	205	-20
-16	170	-6
17	64	-46
48	-27	-42
81	-38	-50
97	32	-54
71	125	-24
-6	164	-12
-115	112	17
-195	-5	28
-197	-117	44
-108	-160	45
35	-118	33
162	-31	8
210	33	-43
167	35	-105
78	-19	-129
15	-77	-99
23	-83	-63
97	-15	-51
175	101	-52
194	205	-71
120	250	-78
-14	215	-66
-144	136	-71
-204	51	-79
-182	-6	-54
-117	-31	-27
-63	-46	-31
-55	-71	-25
-70	-113	-3
-63	-153	41
12	-165	69
150	-138	77
291	-81	49
359	-19	9
302	27	-15
133	45	-42
-68	46	-42
-221	45	-21
-263	51	7
-207	57	-11
-111	50	-21
-43	19	-19
-40	-40	-23
-87	-109	-23
-135	-169	-22
-138	-205	-27
-76	-212	-33
28	-200	-2
130	-179	3
186	-153	15
175	-117	-12
110	-65	-34
20	4	-18
-63	85	-27
-121	158	-53
-140	201	-121
-130	190	-74
-105	119	-48
-86	-4	-52
-88	-151	17
-114	-274	8
-159	-336	9
-199	-303	19
-211	-179	16
-177	-2	0
-91	174	1
32	300	-19
172	343	-13
302	311	29
406	235	29
461	153	29
455	88	-14
388	43	-35
271	1	-76
131	-44	-131
6	-91	-159
-71	-114	-155
-89	-96	-91
-57	-38	-45
-18	36	-9
-5	92	16
-38	106	22
-105	80	23
-170	41	46
-198	28	79
-176	55	77
-118	112	-3
-51	161	-40
-7	166	10
7	114	44
3	27	34
2	-54	-19
20	-98	-67
53	-87	-141
81	-40	-173
76	15	-107
25	49	-106
-68	55	-104
-178	35	-38
-262	-2	-15
-291	-41	11
-248	-81	15
-139	-110	2
-1	-120	-57
118	-96	-100
181	-33	-59
171	47	-21
114	119	-11
48	147	9
24	119	49
58	53	12
127	-11	-28
180	-51	-54
159	-68	-24
44	-102	13
-132	-196	3
-299	-363	15
-378	-567	10
-332	-715	-4
-180	-732	-12
11	-582	-11
160	-311	-12
221	-19	-13
192	194	-13
116	282	9
42	272	28
-5	238	24
-31	243	6
-62	299	-32
-120	352	-35
-187	339	-53
-236	230	-50
-229	62	-19
-155	-72	-20
-35	-99	-23
90	3	-28
178	169	-50
216	295	-54
214	298	-44
197	174	-53
172	-11	-26
138	-159	-1
69	-200	-15
-35	-141	-40
-151	-43	-26
-227	19	-10
-207	8	-17
-70	-53	-1
141	-107	15
353	-98	12
472	-24	-27
446	77	-30
280	144	-34
57	145	-51
-137	90	-38
-234	24	-33
-223	-2	-9
-144	26	-30
-69	86	-59
-47	131	-20
-83	134	7
-150	88	-26
-202	22	-60
-210	-22	-16
-170	-24	25
-103	16	29
-33	68	51
21	103	46
59	99	19
86	50	-20
107	-27	-55
124	-117	-78
127	-195	-89
111	-242	-101
78	-246	-105
32	-205	-40
-14	-130	-1
-49	-40	-14
-59	38	-29
-34	90	-76
35	105	-58
139	90	-42
255	57	-82
340	21	-72
346	-12	-60
265	-38	-7
109	-46	50
-60	-39	37
-188	-14	20
-235	18	24
-214	31	34
-180	9	54
-187	-55	24
-257	-143	-40
-355	-218	-113
-416	-249	-128
-377	-225	-66
-233	-171	-30
-39	-118	-1
124	-99	-6
190	-105	-5
148	-106	-9
44	-62	-19
-48	39	-35
-81	164	-59
-52	252	-47
-5	247	-17
14	135	16
-8	-44	19
-52	-208	24
-74	-274	20
-42	-214	3
33	-49	-23
115	139	-47
162	278	-52
159	321	-46
122	274	-1
89	189	32
82	114	10
94	83	-13
97	83	-15
59	85	-30
-23	50	-42
-120	-34	-49
-188	-150	-50
-191	-259	-35
-124	-316	-36
-15	-298	-41
93	-206	-36
167	-74	-40
199	55	-34
193	144	-16
162	174	-15
111	155	-25
44	110	-27
-26	70	-23
-85	48	-24
-98	44	-19
-54	44	-32
32	32	-55
115	5	-55
139	-28	-50
76	-46	-32
-69	-41	-8
-234	-13	-9
-351	24	9
-370	45	29
-291	39	13
-168	6	21
-65	-32	35
-32	-52	41
-64	-39	25
-115	11	0
-117	82	5
-26	150	15
158	189	9
380	186	-23
566	138	-68
648	59	-99
597	-27	-108
428	-92	-115
199	-102	-124
-12	-49	-108
-153	50	-70
-191	161	-42
-141	227	-38
-52	207	-6
22	96	36
35	-68	24
-30	-230	0
-158	-321	-5
-300	-322	21
-405	-252	5
-435	-166	-43
-387	-122	-5
-280	-144	8
-156	-213	-25
-50	-273	-55
26	-270	-67
78	-187	-31
124	-42	-18
178	110	-18
234	229	-21
277	283	-18
280	287	-33
229	264	-21
123	228	12
-5	177	26
-126	97	49
-203	-20	8
-223	-158	-28
-188	-270	-10
-120	-316	-8
-54	-272	-27
-15	-157	-39
-12	-21	-61
-36	82	-67
-63	116	-67
-72	94	-37
-52	48	-19
-17	18	-23
13	23	-23
10	51	-33
-30	76	-15
-89	74	-25
-132	44	-48
-132	7	-70
-85	-16	-70
-11	-18	-56
48	-12	-51
71	-13	-23
54	-35	2
33	-66	1
42	-81	-3
103	-53	-13
191	18	-20
261	106	-37
269	170	-45
203	168	-23
93	95	-11
-4	-21	-3
-35	-137	12
8	-207	45
95	-213	63
169	-162	59
184	-86	42
147	-11	18
87	45	3
54	84	-18
76	111	-35
133	136	-67
182	158	-82
167	166	-107
72	153	-119
-93	114	-128
-278	57	-141
-434	3	-99
-526	-40	-48
-550	-61	-6
-512	-65	22
-431	-67	62
-318	-79	70
-194	-106	38
-76	-143	-2
19	-179	-28
77	-192	-46
97	-175	-76
99	-124	-45
107	-53	6
135	21	36
172	86	30
196	131	4
175	162	-15
99	174	-45
-4	173	-60
-88	149	-51
-99	99	-3
-22	30	45
117	-45	38
253	-99	5
324	-112	-8
287	-77	-26
162	-12	-41
5	48	-22
-113	79	-12
-148	62	-25
-93	18	-53
11	-26	-58
104	-37	-53
148	-11	-43
136	35	-21
89	62	-30
35	37	-56
-4	-43	-47
-34	-157	-20
-72	-254	-13
-129	-296	-15
-202	-262	-11
-264	-164	-9
-291	-35	-10
-267	96	-19
-189	210	-32
-79	308	1
44	392	14
159	450	-1
245	461	-3
300	400	-37
302	249	-55
245	23	-63
136	-229	-74
-1	-441	-47
-128	-559	-38
-201	-557	-42
-199	-456	-51
-128	-296	-59
-23	-133	-42
74	-6	-24
129	75	-6
132	119	-7
97	153	-19
40	180	-43
-15	198	-40
-59	187	0
-88	133	31
-94	40	78
-68	-62	53
-6	-135	-35
77	-147	-40
153	-93	29
178	-6	42
123	64	52
-13	78	52
-189	27	-4
-339	-56	-22
-401	-125	-77
-344	-133	-136
-195	-72	-134
-24	27	-63
100	119	-22
133	162	-48
84	149	-66
-6	102	-86
-79	59	-96
-105	44	-80
-90	58	-31
-69	72	2
-72	63	14
-107	21	-4
-142	-40	-19
-139	-94	-34
-77	-120	-53
34	-116	-60
145	-100	-56
207	-95	-29
198	-109	-4
140	-139	22
86	-162	47
81	-162	45
134	-127	29
212	-71	34
254	-15	14
214	26	-20
90	37	-26
-71	24	-36
-199	1	-37
-237	-14	-26
-168	-9	-19
-30	20	-9
111	68	-7
203	117	-23
214	148	-38
159	141	-38
68	97	-35
-24	29	-39
-109	-37	-44
-191	-80	-28
-275	-88	-7
-358	-65	-6
-415	-35	-4
-402	-17	-11
-298	-17	-19
-97	-28	-26
167	-26	-16
434	9	-12
628	80	-28
701	166	-36
631	237	-46
453	265	-43
224	239	-32
19	174	-21
-112	103	-5
-162	47	-6
-161	20	-9
-163	8	-13
-207	-12	-6
-296	-59	-5
-389	-129	-19
-431	-205	-16
-379	-252	-20
-229	-246	-26
-26	-186	-30
170	-86	-35
300	17	-38
342	100	-32
310	143	-22
237	154	-23
158	135	-32
96	104	-26
57	62	-24
32	12	-24
14	-39	3
-14	-92	16
-63	-129	14
-145	-150	34
-260	-147	21
-390	-124	-8
-497	-92	-20
-539	-49	-46
-487	-3	-65
-344	48	-116
-138	98	-155
79	134	-118
267	148	-104
405	126	-104
484	72	-80
506	-4	-19
462	-83	58
350	-145	85
182	-186	51
1	-194	14
-136	-182	0
-180	-148	16
-118	-98	54
-1	-36	39
97	32	14
118	95	-53
49	137	-109
-58	149	-90
-133	123	-64
-130	67	-38
-62	1	-11
9	-59	-4
8	-99	-28
-89	-105	-5
-242	-80	6
-369	-31	4
-393	23	9
-304	65	-24
-140	74	-48
19	35	-69
123	-40	-87
167	-131	-96
191	-196	-72
234	-202	-55
296	-130	-31
336	7	-4
291	165	13
137	291	16
-92	338	21
-315	294	63
-442	173	28
-431	25	-20
-308	-101	-68
-137	-175	-71
-2	-192	-30
71	-168	-12
93	-124	46
104	-84	35
133	-49	4
184	-19	-6
230	7	0
239	28	1
202	36	2
133	27	-2
64	5	-28
14	-16	-21
-18	-24	-36
-48	-14	-45
-86	11	-67
-132	32	-96
-165	41	-90
-162	35	-79
-116	30	-71
-37	43	-60
46	79	-55
111	126	-57
133	158	-27
117	150	16
66	97	30
-4	23	24
-75	-31	12
-123	-32	2
-128	23	-2
-84	97	-6
7	136	-5
115	93	6
202	-35	21
244	-205	3
233	-348	-37
193	-393	-51
150	-322	-48
119	-167	-34
90	10	-35
38	139	-32
-50	195	-11
-172	189	6
-280	166	15
-330	168	2
-291	197	-11
-178	232	-17
-29	227	-34
97	154	-30
162	21	-2
156	-134	30
97	-263	11
11	-322	-32
-89	-312	-48
-186	-244	-106
-269	-154	-169
-311	-74	-133
-287	-20	-66
-187	0	-45
-29	-8	-12
132	-40	-20
240	-84	-32
253	-123	-12
176	-150	-1
49	-150	34
-68	-126	16
-132	-82	0
-129	-29	-9
-70	26	2
16	88	-4
104	155	-30
175	222	-29
216	262	-36
214	258	-18
154	187	-24
38	65	-5
-104	-68	21
-225	-170	9
-276	-196	11
-239	-153	7
-125	-77	-33
9	-20	-23
104	-17	-3
122	-65	-30
69	-125	-37
-16	-139	-62
-80	-84	-41
-83	31	-23
-20	158	-25
83	241	-30
187	254	-61
256	207	-45
269	141	-46
228	98	-43
143	98	0
42	127	7
-59	149	-12
-136	137	-10
-176	84	-4
-177	4	-30
-156	-76	-40
-130	-134	-35
-125	-163	-25
-144	-170	-27
-174	-160	-37
-189	-131	-24
-167	-82	-27
-102	-6	-25
-16	85	-24
62	171	-25
107	222	-34
126	225	-53
140	178	-49
182	102	-40
255	22	-27
336	-41	-22
373	-84	-3
324	-108	32
169	-126	45
-49	-142	38
-253	-153	-2
-366	-157	-49
-353	-151	-63
-225	-137	-59
-44	-124	-50
110	-112	-47
189	-101	-30
183	-84	-11
115	-56	2
25	-22	11
-57	6	-14
-120	15	-27
-170	0	-18
-209	-31	-30
-231	-54	-40
-226	-55	-58
-190	-29	-74
-135	16	-34
-85	49	13
-59	52	38
-60	19	16
-66	-25	-19
-39	-54	-12
49	-35	-18
196	28	-13
357	108	-25
466	162	-19
468	158	15
346	97	49
140	5	71
-92	-68	24
-273	-95	-15
-362	-72	-44
-357	-27	-55
-287	3	-78
-193	1	-101
-110	-26	-100
-45	-50	-102
4	-40	-79
48	12	-77
85	85	-94
106	141	-81
102	149	0
76	98	6
40	16	3
16	-56	26
17	-89	-5
39	-72	3
64	-26	5
67	23	-16
39	50	-40
-12	55	-2
-59	50	56
-76	49	56
-46	62	43
17	79	43
86	80	12
132	60	-14
135	24	-68
97	-13	-153
37	-34	-107
-20	-30	-69
-58	-9	-56
-75	13	-21
-72	19	-25
-60	13	-16
-38	6	-27
-5	12	-19
39	41	-30
87	85	-34
119	123	-24
122	132	-36
90	101	-34
31	30	-17
-28	-64	13
-58	-158	-5
-47	-234	-33
6	-281	12
74	-301	37
121	-294	11
115	-264	-8
42	-224	-28
-76	-165	-19
-199	-95	-22
-268	-13	-51
-242	79	-60
-112	170	-45
83	244	-53
271	282	-69
366	261	-49
306	174	-22
87	39	-12
-225	-112	3
-522	-230	20
-700	-278	24
-695	-248	32
-526	-161	16
-279	-65	1
-63	-6	-17
41	-8	-62
26	-53	-107
-56	-101	-116
-113	-103	-76
-77	-30	-22
64	106	15
261	261	25
425	372	13
486	392	-4
433	305	-14
306	142	-3
172	-42	-4
96	-192	-38
94	-268	-51
136	-263	-36
170	-205	11
151	-125	36
74	-55	24
-31	-4	9
-111	32	-15
-125	68	-66
-68	108	-95
34	145	-79
132	162	-87
182	145	-70
162	92	-40
88	16	-39
-14	-55	-38
-109	-103	-20
-174	-116	3
-203	-105	14
-201	-85	35
-181	-61	30
-144	-37	-2
-97	-1	-33
-44	53	-42
11	125	-27
56	194	-12
86	235	4
99	237	5
97	200	33
89	147	32
82	96	1
71	56	-8
47	23	-26
5	-21	-38
-57	-86	-59
-128	-160	-70
-194	-218	-50
-234	-232	-34
-241	-192	-26
-209	-110	-25
-152	-22	-39
-78	41	-30
8	65	-2
97	62	-15
182	55	-45
251	61	-62
292	84	-77
288	103	-92
231	98	-94
124	53	-88
-16	-13	-49
-165	-77	3
-289	-111	38
-361	-104	71
-363	-72	44
-295	-40	-4
-175	-35	-15
-39	-62	-23
77	-106	-54
144	-139	-70
161	-136	-52
144	-101	-22
125	-52	2
124	-30	5
140	-59	13
150	-139	13
123	-238	-6
48	-300	-10
-61	-276	-41
-165	-157	-72
-216	26	-56
-191	209	-51
-103	321	-41
0	322	-30
74	229	-25
81	96	-11
21	0	19
-76	-13	56
-170	61	29
-237	171	-28
-258	244	-34
-225	227	-2
-134	105	8
14	-72	18
204	-247	-7
402	-348	-38
541	-354	-36
565	-280	-35
446	-169	-52
214	-67	-81
-58	0	-49
-281	33	-30
-383	55	-30
-361	86	-21
-258	132	-40
-138	185	-54
-54	215	-55
-22	206	-55
-27	154	-43
-36	76	-20
-34	-1	-9
-19	-55	11
-4	-76	29
5	-70	47
16	-58	11
41	-51	-40
85	-47	-7
135	-36	32
172	-2	49
175	61	33
147	140	3
94	205	-20
44	226	-82
11	185	-132
-7	93	-138
-20	-20	-62
-40	-110	-34
-68	-149	-50
-99	-124	-12
-111	-57	-22
-101	20	13
-66	83	24
-12	115	-5
58	121	-15
141	114	-20
232	104	-26
306	95	-25
333	82	-5
279	61	-33
135	29	-74
-71	-13	-75
-281	-66	-30
-431	-131	-39
-470	-213	-80
-399	-301	-78
-262	-378	-56
-129	-418	-4
-47	-393	38
-26	-298	51
-39	-148	24
-38	12	15
4	134	45
89	190	7
183	175	-53
245	127	-62
248	81	-30
198	65	22
132	82	39
91	105	-3
101	102	-30
152	49	-48
202	-39	-84
199	-133	-67
104	-184	-64
-88	-163	-84
-332	-65	-68
-547	79	-46
-652	215	-27
-603	298	-7
-412	283	-3
-144	180	3
100	13	13
237	-161	-8
234	-286	-33
118	-326	-14
-32	-278	4
-141	-175	-5
-165	-74	6
-110	-22	28
-20	-40	30
63	-105	14
117	-169	-16
155	-174	-33
200	-95	-30
266	55	-39
342	224	-42
394	353	-20
388	405	-20
314	374	-19
195	299	-25
59	199	-48
-60	106	-57
-161	14	-74
-241	-86	-75
-316	-194	-41
-377	-296	-11
-407	-346	-1
-387	-322	-2
-310	-219	-10
-193	-70	-17
-63	71	-18
56	162	-28
159	181	-18
245	152	-16
322	106	-37
373	78	-47
381	77	-69
328	86	-82
212	85	-33
63	60	30
-72	17	30
-157	-28	16
-177	-56	25
-147	-62	23
-97	-53	20
-56	-41	1
-26	-31	-24
4	-20	-44
44	1	-58
92	36	-42
121	78	-37
110	109	-58
44	117	-37
-54	95	-17
-152	55	-40
-202	12	-25
-191	-21	-3
-134	-40	6
-67	-53	1
-25	-65	-27
-18	-83	-51
-30	-95	-87
-28	-91	-62
8	-57	-46
82	3	-58
167	74	36
228	135	42
236	166	22
184	158	24
93	112	-19
-9	41	-40
-90	-45	-78
-135	-136	-72
-142	-216	-70
-121	-275	-59
-85	-294	-44
-47	-265	-14
-23	-196	21
-20	-104	11
-41	-19	8
-77	40	-25
-113	63	-36
-129	61	-28
-118	57	-42
-83	66	-41
-41	90	-49
-18	108	-32
-32	99	1
-80	45	7
-142	-38	13
-189	-129	16
-195	-198	20
-158	-228	7
-91	-222	15
-20	-188	22
30	-144	1
61	-91	-13
86	-25	-54
127	55	-78
196	139	-78
280	205	-72
346	233	-57
363	214	-46
302	162	-43
180	97	-47
32	47	-30
-93	17	1
-162	-1	39
-168	-24	26
-130	-58	1
-82	-95	6
-42	-108	-13
-18	-82	-19
3	-17	-28
33	61	-33
79	123	-43
126	147	-65
159	133	-71
151	103	-74
101	81	-53
16	80	-18
-78	87	-13
-153	87	-28
-185	56	-11
-165	0	5
-99	-70	1
-5	-123	-12
86	-139	-23
150	-117	-23
166	-64	-28
134	-7	-32
68	47	-46
-10	93	-21
-81	130	19
-131	162	16
-153	178	13
-150	170	-1
-125	127	-24
-86	50	-14
-36	-50	-17
15	-149	-24
59	-216	-10
94	-229	-19
116	-170	-41
132	-48	-55
142	105	-57
139	244	-42
107	317	-5
32	279	-6
-89	132	-26
-241	-87	-13
-386	-322	-20
-474	-503	-28
-484	-596	-35
-405	-602	-36
-256	-543	-48
-77	-457	-83
87	-356	-90
200	-242	-75
242	-99	-38
211	71	-11
127	244	8
32	373	13
-28	427	20
-12	388	17
84	282	16
223	161	26
340	60	11
363	3	-4
275	-22	-22
101	-35	-35
-79	-49	-39
-188	-58	-24
-188	-48	-20
-108	-12	-23
-23	43	-21
3	93	-25
-50	109	-18
-134	89	-30
-175	49	-28
-119	25	-27
27	39	-34
195	93	-29
299	161	-30
283	206	-21
170	204	-25
31	156	-27
-55	80	10
-53	4	31
10	-54	15
72	-93	-4
74	-121	-34
7	-141	-55
-92	-152	-61
-160	-137	-47
-157	-93	-43
-89	-20	-57
2	64	-64
76	131	-55
104	166	-15
94	157	12
71	122	19
49	80	19
27	47	4
-10	33	-35
-68	27	-71
-135	19	-91
-184	-5	-84
-186	-50	-46
-139	-108	0
-56	-161	42
28	-192	47
91	-192	57
123	-152	54
135	-81	11
140	8	-65
138	98	-62
123	171	15
84	219	-35
14	233	-63
-83	210	-56
-187	147	-65
-281	40	-109
-352	-102	-153
-383	-263	-56
-370	-419	-20
-298	-531	10
-177	-567	64
-28	-519	84
111	-390	86
203	-210	34
226	-25	-7
182	129	-68
111	227	-107
60	261	-138
62	244	-109
120	197	-58
206	144	-32
275	104	20
287	85	11
231	83	-1
117	83	-9
-23	66	-22
-159	24	-42
-262	-42	-58
-331	-118	-47
-353	-171	-25
-332	-183	-16
-267	-142	-2
-169	-61	4
-58	35	4
38	120	21
96	168	21
102	174	15
68	150	28
26	106	44
7	58	27
24	19	-3
74	-12	-49
119	-30	-76
135	-37	-108
107	-36	-132
52	-21	-100
10	4	-88
14	46	-66
75	106	-37
172	181	1
263	259	38
314	316	56
302	325	34
250	261	-1
178	122	12
107	-65	3
31	-259	-15
-69	-393	-15
-206	-437	-7
-361	-378	-4
-487	-248	-2
-526	-104	-4
-443	-1	-7
-253	32	-38
-24	10	-71
155	-36	-48
229	-62	-34
184	-51	-37
72	-8	-25
-35	37	-15
-82	52	-24
-52	30	-52
20	-19	-70
90	-60	-35
117	-67	3
99	-34	15
55	25	15
16	78	-9
-5	105	-20
-6	99	-35
1	78	-38
6	59	-37
12	58	-45
23	70	-40
44	79	-38
68	71	-33
84	47	-28
85	18	-13
76	2	-1
67	6	-4
69	28	4
80	44	5
79	41	-17
50	10	-36
-17	-39	-48
-111	-88	-34
-206	-113	-16
-277	-111	-5
-307	-86	5
-299	-54	-12
-262	-34	-42
-205	-27	-43
-130	-33	-28
-42	-40	-16
55	-44	-4
141	-45	-28
187	-43	-68
175	-45	-78
107	-44	-66
19	-36	-56
-49	-15	-34
-57	19	5
5	53	42
110	79	39
214	84	5
263	68	-15
233	36	-51
120	1	-70
-37	-31	-67
-194	-57	-69
-300	-77	-55
-321	-89	-21
-253	-90	16
-107	-78	43
72	-45	37
238	2	20
344	50	-1
359	85	-38
283	85	-58
139	51	-84
-30	-4	-105
-185	-54	-95
-295	-77	-31
-342	-54	26
-325	4	29
-256	69	25
-160	106	-3
-58	83	-11
18	1	-13
56	-110	-16
56	-203	-19
34	-232	-13
18	-183	-2
34	-72	-15
83	51	-2
147	144	-21
190	180	-55
184	161	-53
128	118	-50
38	82	-42
-42	72	-28
-82	79	-13
-68	80	-10
-15	55	-19
46	4	-21
85	-54	-22
84	-96	-11
46	-101	-4
-12	-74	-6
-74	-33	2
-119	3	13
-136	20	-4
-119	33	-25
-67	53	-40
12	92	-60
93	136	-76
154	163	-71
170	149	-51
141	82	-35
82	-16	-9
15	-115	-7
-34	-179	1
-61	-195	11
-68	-168	0
-71	-118	-5
-81	-65	4
-92	-17	-3
-93	28	9
-77	85	46
-39	153	45
11	219	40
57	268	-16
89	275	-65
101	236	-80
98	153	-134
87	39	-131
77	-89	-19
70	-218	9
69	-331	-10
80	-414	-2
93	-443	-25
104	-403	-44
94	-296	-82
45	-147	-86
-40	4	-76
-151	115	-68
-248	160	-42
-295	147	-14
-269	101	-12
-186	61	-32
-87	48	-32
-22	53	-10
-20	51	21
-75	13	33
-145	-66	31
-180	-167	8
-152	-246	-16
-63	-264	-24
46	-221	-27
137	-124	-24
180	-20	-22
172	59	-19
130	99	-20
70	108	-46
6	113	-54
-63	129	-46
-125	158	-38
-159	180	-15
-128	178	-1
-16	139	3
158	82	5
332	33	23
422	16	16
363	40	-1
154	88	-18
-135	126	-45
-389	124	-61
-505	74	-79
-443	-7	-69
-249	-88	-57
-29	-132	-44
111	-126	-11
125	-77	-7
39	-8	-26
-68	47	-40
-115	67	-36
-68	41	-30
48	-17	-20
170	-93	-4
234	-161	24
208	-202	38
117	-196	19
4	-147	31
-87	-59	26
-129	42	17
-119	131	34
-53	187	34
56	204	-19
202	196	-86
360	186	-62
489	188	-46
537	196	-55
470	183	-56
301	123	-58
77	-1	-55
-130	-163	-56
-258	-313	-46
-274	-390	-36
-209	-359	-31
-113	-234	-31
-39	-71	-16
-14	56	6
-28	104	23
-52	72	9
-60	7	-27
-47	-32	-45
-30	-11	-61
-32	61	-53
-71	137	-24
-141	166	-3
-218	129	18
-273	45	29
-285	-32	15
-253	-66	-21
-191	-50	-6
-118	-16	-1
-53	-8	-51
-6	-50	-60
20	-128	-41
29	-192	-17
25	-192	-8
18	-112	-11
16	20	-6
26	143	-5
46	205	-23
68	185	-59
77	114	-86
58	35	-78
15	-7	-47
-34	-13	-44
-63	-8	-34
-54	-31	7
-3	-103	-11
69	-208	-41
134	-306	-46
166	-352	-63
156	-322	-72
117	-226	-90
67	-87	-78
22	53	-58
-15	169	-30
-49	244	5
-84	274	10
-110	259	14
-118	206	6
-101	122	-13
-64	23	-20
-32	-68	1
-23	-135	49
-42	-161	56
-70	-145	31
-78	-99	11
-31	-36	-27
77	25	-57
223	77	-71
359	114	-87
436	134	-74
421	138	-33
311	131	-7
129	117	29
-81	103	49
-267	96	61
-392	90	69
-436	84	48
-392	62	2
-291	23	-76
-169	-29	-98
-69	-78	-86
-16	-100	-83
-4	-82	-65
2	-23	-51
39	54	-25
126	125	-9
239	161	14
325	145	45
328	85	55
216	-3	32
24	-94	-19
-177	-167	-67
-306	-215	-97
-316	-238	-114
-218	-249	-107
-77	-250	-81
33	-245	-38
70	-222	1
42	-166	15
-1	-76	26
-4	38	8
58	153	-30
166	238	-39
262	268	-19
306	241	-18
270	168	-19
178	68	-21
69	-30	-4
-15	-114	9
-62	-173	9
-82	-207	33
-92	-215	25
-107	-200	-13
-126	-162	-33
-145	-108	-28
-159	-47	-43
-174	9	-52
-197	52	-33
-227	89	-15
-241	119	-17
-217	139	-29
-137	154	-35
-19	144	-38
101	113	-42
175	59	-58
180	4	-55
124	-36	-43
54	-47	-35
13	-29	-27
23	3	-21
65	32	-27
102	46	-35
94	49	-19
38	49	-24
-32	54	-24
-71	70	-13
-48	84	-26
29	89	-54
125	75	-51
187	45	-16
188	13	6
130	-16	13
46	-31	22
-29	-36	40
-75	-33	21
-93	-28	-18
-103	-21	-53
-113	-12	-58
-124	-4	-44
-122	-1	-37
-96	-7	-28
-48	-15	8
1	-17	38
27	-1	-7
17	30	-42
-24	62	-11
-77	76	-9
-114	46	-43
-121	-22	-44
-98	-107	-45
-54	-165	-44
-8	-167	-40
33	-108	-39
66	-13	-6
93	70	-2
110	104	-1
117	70	46
111	-11	78
101	-105	53
94	-171	5
109	-191	-43
148	-171	-86
201	-125	-101
238	-81	-84
229	-52	-68
151	-46	-78
18	-58	-82
-132	-75	-50
-247	-85	-23
-281	-69	-9
-228	-28	-9
-117	43	19
-12	127	-12
31	198	-74
-10	237	-62
-115	229	-66
-232	174	-60
-299	85	-42
-281	-17	1
-188	-117	8
-65	-202	-11
26	-259	-14
44	-280	-29
-8	-259	-30
-97	-196	-36
-158	-109	-36
-141	-13	-33
-31	65	-20
138	119	-16
306	151	-11
409	174	3
402	202	13
290	233	18
120	256	4
-39	252	-6
-132	215	-8
-132	150	-14
-58	72	-21
37	3	-19
105	-48	-20
110	-77	-21
52	-89	-27
-36	-89	-25
-117	-78	-12
-164	-50	4
-165	-9	-1
-130	41	-21
-83	91	-25
-38	126	-25
-4	139	-15
23	131	-20
47	109	-30
69	72	-17
84	26	-21
84	-34	-18
66	-108	-27
34	-181	-33
-1	-237	-28
-28	-257	-24
-34	-237	-24
-16	-185	-30
23	-118	-26
72	-56	-15
119	-9	-16
148	30	-28
145	76	-16
116	129	-15
63	185	-34
3	215	-53
-54	202	-37
-102	129	-18
-139	10	-16
-170	-120	-4
-198	-225	15
-214	-275	17
-212	-274	2
-181	-238	-19
-116	-190	-46
-33	-142	-45
56	-94	-63
129	-33	-62
170	42	-60
175	127	-48
149	191	-4
98	217	32
31	194	77
-35	136	81
-92	71	45
-124	21	-9
-126	-5	-53
-96	-21	-91
-45	-42	-112
5	-80	-103
40	-119	-88
46	-138	-82
27	-116	-62
-6	-47	-58
-32	43	-54
-32	122	-36
3	154	-11
72	131	16
160	70	28
237	0	36
266	-51	4
230	-76	4
119	-74	30
-45	-62	16
-213	-49	17
-329	-37	-17
-353	-22	-36
-277	-2	-20
-129	24	-20
34	55	-9
156	92	-19
207	134	-48
189	174	-65
132	200	-62
74	183	-62
36	109	-53
21	-20	-43
10	-175	-56
-14	-300	-60
-61	-346	-24
-117	-301	8
-161	-189	-31
-175	-71	-49
-156	-8	-74
-113	-21	-78
-66	-83	-39
-30	-131	-30
-7	-114	-24
11	-7	-23
36	150	-2
74	290	6
117	344	13
147	287	21
148	147	7
110	-15	22
36	-131	68
-51	-174	80
-129	-151	37
-170	-104	-3
-168	-67	-43
-120	-57	-36
-51	-60	-34
18	-49	-49
68	-13	-31
91	45	-37
91	104	-78
77	137	-109
65	136	-89
57	109	-94
52	80	-84
46	63	-72
28	63	-39
4	63	-6
-27	45	1
-52	5	45
-65	-50	28
-63	-99	24
-49	-117	20
-23	-94	16
8	-41	11
36	24	-24
64	81	-38
86	116	-44
102	131	-16
111	131	-17
113	121	-25
105	96	-23
84	50	-22
46	-19	-15
-3	-102	-16
-54	-174	-23
-91	-210	-41
-92	-187	-47
-47	-107	-36
36	7	-14
131	115	6
196	174	16
197	171	11
115	110	-23
-31	28	-52
-199	-41	-52
-337	-76	-45
-399	-77	-12
-363	-75	24
-244	-93	19
-79	-148	7
84	-223	-1
190	-282	-29
202	-296	-49
107	-251	-46
-71	-169	-50
-278	-86	-47
-432	-36	-51
-472	-32	-54
-358	-52	-43
-126	-58	-36
150	-23	-19
369	50	-14
451	133	-23
373	181	-16
172	168	-16
-60	105	-20
-236	30	9
-297	-8	21
-237	13	18
-96	84	26
65	160	18
192	200	-13
253	181	-30
245	123	-62
179	66	-101
86	43	-107
-6	68	-96
-72	106	-43
-99	120	-19
-79	75	-35
-19	-22	-28
58	-133	4
133	-204	19
184	-200	10
199	-129	9
175	-26	11
131	51	21
78	70	-5
32	31	-22
2	-34	-21
-12	-81	-24
-18	-78	-34
-23	-21	-41
-27	61	-36
-26	137	-33
-4	174	-14
40	169	-30
103	130	-50
158	75	-84
175	18	-82
132	-29	-51
23	-65	-55
-123	-92	-32
-262	-101	-32
-351	-92	-16
-364	-64	3
-315	-29	-6
-226	-3	5
-134	7	13
-59	6	-15
0	4	-41
59	23	-5
124	66	1
190	123	-8
234	161	-12
236	145	-36
183	61	-11
84	-81	-8
-29	-240	-15
-127	-373	-1
-191	-437	-1
-217	-427	24
-214	-355	20
-190	-254	-21
-153	-155	-37
-109	-69	-20
-58	-1	-33
-11	57	-50
23	106	-37
39	145	-49
41	166	-65
39	160	-44
49	129	-9
66	84	0
72	37	3
45	4	-15
-25	-7	-52
-126	9	-72
-213	45	-67
-228	93	-55
-138	134	-38
36	154	2
236	145	39
383	108	43
413	58	18
314	12	4
136	-15	-1
-30	-25	-31
-109	-23	-39
-67	-29	-26
63	-45	-24
207	-69	-12
285	-92	-15
253	-95	-20
111	-79	-26
-83	-43	-45
-259	-1	-59
-356	36	-63
-355	63	-53
-270	80	-43
-140	92	-30
-13	101	-34
78	110	-35
116	117	-34
102	112	-31
41	90	-27
-49	41	-27
-156	-31	-17
-255	-124	-17
-328	-215	-27
-352	-278	-36
-314	-292	-44
-215	-246	-54
-69	-149	-22
97	-24	9
260	96	8
388	192	7
462	253	4
469	281	3
409	283	-1
300	261	3
165	225	16
45	173	11
-33	116	-8
-59	64	-7
-44	28	3
-19	7	-6
-13	-8	-69
-48	-35	-119
-114	-87	-80
-184	-160	-49
-226	-242	-15
-215	-315	26
-148	-355	43
-49	-356	38
49	-313	22
121	-240	12
143	-147	-7
118	-56	-8
55	10	-39
-22	37	-65
-93	20	-74
-137	-27	-102
-144	-80	-117
-112	-106	-93
-51	-86	-54
18	-20	-18
74	76	9
89	169	24
48	233	19
-48	252	10
-182	227	4
-324	162	-25
-429	70	-26
-455	-35	-15
-379	-138	-58
-202	-211	-70
41	-238	-62
295	-201	-47
490	-113	-20
569	2	-32
533	110	-9
399	185	-1
233	218	-9
95	218	28
30	203	16
29	190	-4
58	177	-11
68	162	-36
28	132	-39
-52	91	-57
-140	42	-43
-184	-6	-34
-161	-54	-48
-83	-111	-46
4	-182	-80
46	-263	-95
17	-336	-62
-74	-368	-18
-184	-325	21
-260	-208	16
-262	-44	13
-195	121	24
-90	236	13
10	273	19
69	239	24
84	168	30
71	96	26
63	51	-7
78	32	-37
116	16	-61
158	-15	-80
175	-62	-66
150	-106	-26
85	-111	-4
4	-61	-1
-62	42	-13
-88	165	-16
-64	261	-18
-10	292	-12
50	252	-11
80	158	-27
62	41	-39
-3	-57	-40
-97	-130	-24
-188	-175	-7
-251	-210	-2
-270	-246	-8
-248	-283	-20
-199	-317	-30
-135	-326	-36
-62	-302	-42
22	-238	-23
122	-139	9
226	-16	8
306	113	-15
328	226	-33
261	298	-43
107	305	-55
-85	244	-70
-256	129	-88
-347	-5	-100
-332	-116	-79
-228	-175	-56
-89	-180	-53
34	-160	-31
105	-148	8
130	-170	51
130	-212	79
130	-229	68
135	-177	46
140	-34	12
130	168	-28
100	362	-60
62	473	-55
29	457	-31
13	326	-37
3	137	-57
-13	-31	-49
-44	-136	-32
-83	-160	-36
-107	-131	-18
-100	-90	5
-55	-57	-11
8	-39	-18
58	-20	-7
81	9	-6
74	48	-22
54	79	-22
46	84	-21
57	61	-11
72	26	-7
77	-2	-41
52	-9	-58
8	3	-33
-39	16	-9
-63	12	-12
-49	-13	1
-6	-51	-11
52	-77	-30
98	-71	-8
116	-34	-4
98	23	-11
46	77	-38
-25	118	-30
-102	140	10
-160	162	-36
-183	187	-71
-161	221	-59
-110	249	-40
-56	247	-19
-30	204	-15
-46	112	-27
-91	-11	-35
-126	-144	-28
-122	-259	-42
-64	-337	-44
24	-370	-36
100	-355	-36
125	-309	-36
91	-249	-31
17	-195	-32
-54	-162	-34
-96	-150	-4
-97	-147	30
-77	-127	45
-59	-76	50
-57	8	48
-59	95	52
-49	149	16
-9	137	-34
57	57	-82
131	-51	-115
182	-140	-124
203	-161	-157
199	-105	-121
193	-2	-57
196	95	-35
212	137	-4
219	119	10
189	64	24
102	21	37
-44	23	39
-225	72	32
-393	136	-5
-515	171	-40
-546	143	-38
-486	50	-28
-353	-76	-9
-187	-192	19
-37	-256	20
62	-247	8
98	-167	11
85	-37	14
51	104	-12
34	225	-49
50	291	-69
101	299	-58
171	250	-51
237	171	-65
280	101	-58
299	63	-27
287	61	-6
251	77	-22
184	81	-40
96	45	-52
-11	-31	-45
-110	-128	-26
-177	-217	-26
-186	-263	-20
-135	-260	7
-43	-209	22
54	-131	0
121	-50	-17
137	21	-21
104	72	-24
46	103	-31
-4	103	-30
-25	76	-13
-16	31	-6
5	-15	-4
12	-41	2
-15	-36	7
-83	-2	-8
-174	45	-30
-256	85	-55
-295	103	-65
-267	102	-52
-182	92	-51
-67	79	-53
42	62	-24
117	30	8
143	-24	13
128	-96	-2
99	-162	-17
66	-192	7
39	-173	4
16	-109	9
-11	-36	6
-37	7	-36
-54	-1	-33
-48	-52	-28
-17	-109	-34
32	-136	-42
81	-109	-45
110	-38	-42
116	44	1
103	106	49
85	130	68
65	129	54
43	123	-4
9	136	-38
-40	166	-82
-93	194	-133
-133	187	-135
-139	128	-56
-105	22	3
-43	-110	-14
24	-233	-18
74	-317	-35
98	-347	-64
100	-322	-64
90	-248	-46
72	-135	-51
44	0	-50
-11	131	-33
-92	233	-43
-189	275	-63
-269	244	-74
-299	150	-56
-262	21	-30
-169	-105	-1
-52	-192	-3
46	-232	-15
99	-223	5
106	-181	0
89	-123	8
71	-50	0
68	32	-9
71	120	-10
67	195	-35
41	231	-20
-3	213	20
-46	139	51
-65	34	75
-53	-66	65
-22	-126	31
7	-129	-6
11	-88	-37
-16	-23	-67
-61	31	-89
-94	61	-75
-92	64	-50
-42	51	-23
42	36	-17
133	26	-45
201	27	-38
216	35	-26
180	53	-18
102	81	-5
16	114	-3
-45	148	3
-59	164	-2
-28	150	-22
23	92	-47
65	1	-42
70	-104	-44
36	-192	-54
-20	-241	-53
-69	-238	-32
-94	-192	-16
-90	-129	-24
-65	-66	-23
-34	-22	-18
3	9	-8
49	39	-9
107	74	3
166	115	17
189	138	-9
150	122	-28
41	47	-19
-104	-74	-17
-231	-205	-32
-279	-300	-17
-231	-317	-9
-112	-250	-3
16	-122	-3
97	15	-12
105	117	-30
58	162	-54
4	152	-47
-23	112	-46
-10	74	-40
18	49	-25
32	39	-2
11	33	-20
-35	18	-63
-79	-8	-56
-95	-36	-17
-72	-58	3
-30	-59	17
9	-45	54
29	-15	47
25	22	14
14	62	-15
2	106	-29
3	143	-55
10	174	-60
20	183	-40
28	168	-48
33	128	-58
37	68	-62
33	7	-50
16	-53	-18
-19	-103	-34
-63	-145	-34
-99	-175	-13
-104	-186	-48
-63	-173	-42
13	-126	-23
107	-51	-31
182	41	-25
210	135	-41
183	215	-68
107	268	-88
5	292	-90
-93	284	-74
-165	241	-35
-201	158	15
-203	33	16
-184	-123	18
-155	-286	34
-123	-418	62
-84	-482	86
-29	-460	57
56	-368	15
164	-235	-39
271	-104	-82
346	-12	-96
359	28	-105
297	28	-86
169	15	-53
12	11	-20
-130	22	1
-233	39	-3
-279	47	-1
-279	34	1
-242	2	8
-187	-38	11
-127	-66	5
-76	-78	-9
-46	-64	-20
-52	-37	-17
-93	0	-29
-145	43	-30
-184	90	-34
-174	134	-26
-102	163	-2
16	164	1
148	135	-2
248	80	-2
297	22	-13
285	-16	-21
237	-18	-26
166	12	-28
93	56	-21
20	92	-24
-48	99	-25
-110	83	-26
-154	50	-31
-162	23	-35
-135	8	-32
-76	4	-33
-6	7	-30
53	6	-15
91	3	-11
107	-1	-16
105	-1	-19
91	1	-19
62	-1	-37
16	-15	-45
-40	-43	-36
-95	-76	-26
-121	-100	-33
-101	-101	-52
-36	-75	-44
55	-28	-42
135	24	-42
175	64	17
163	89	68
116	94	43
63	86	14
36	70	-8
42	48	-16
62	19	12
74	-16	-5
49	-53	-30
-11	-87	-57
-94	-102	-85
-173	-93	-83
-227	-60	-61
-239	-8	-11
-214	48	26
-162	98	24
-85	123	-18
14	127	-32
128	112	-31
245	91	-38
339	78	-50
381	79	-54
351	93	-47
262	106	-67
142	106	-78
31	79	-96
-50	20	-95
-100	-56	-66
-137	-143	-59
-188	-224	-44
-250	-301	-3
-304	-372	39
-312	-441	42
-252	-495	13
-137	-507	-12
-20	-459	-6
41	-340	-4
14	-170	-16
-88	15	-8
-206	165	2
-274	244	0
-256	252	5
-169	205	-11
-63	137	-11
2	76	-3
11	33	-13
-12	10	-21
-17	3	-36
30	12	-34
121	41	-40
205	97	-32
216	168	-17
139	231	-25
-10	260	-34
-154	237	-37
-217	166	-27
-162	70	-24
-11	-15	-17
159	-65	-18
269	-78	-16
269	-60	1
172	-32	-2
35	-7	-20
-72	9	-26
-100	26	-30
-43	42	-27
62	58	-27
163	62	-19
216	47	-3
206	14	-10
151	-25	-11
82	-53	-24
30	-59	-32
9	-46	-32
8	-29	-47
8	-30	-32
-13	-56	-11
-59	-107	-10
-120	-153	-11
-172	-171	-6
-186	-137	-8
-156	-56	-15
-88	45	-17
-12	136	-11
45	182	-15
71	174	-15
71	127	-18
69	70	-35
82	30	-23
117	17	3
154	30	14
166	41	-5
131	37	-20
53	10	-30
-34	-25	-47
-99	-47	-79
-115	-47	-96
-89	-23	-77
-51	4	-78
-39	12	-77
-66	-11	-56
-120	-50	-26
-164	-87	31
-164	-92	79
-112	-48	65
-34	31	29
30	120	14
49	174	-32
23	171	-52
-17	104	-60
-25	-13	-64
19	-139	-30
101	-240	-15
175	-282	16
193	-259	12
131	-179	-27
21	-70	-51
-80	31	-52
-115	106	-31
-63	138	-33
35	137	-22
111	115	-1
99	86	-13
-18	55	-28
-206	20	-50
-375	-25	-65
-453	-89	-68
-415	-160	-74
-288	-224	-42
-136	-251	-19
-16	-224	-27
57	-135	-44
111	-1	-44
189	144	-26
309	265	-5
446	327	-4
535	319	-3
508	251	0
354	153	-1
105	52	4
-162	-30	1
-355	-96	1
-431	-157	7
-399	-224	1
-310	-291	-12
-221	-336	-5
-154	-325	-15
-105	-242	-34
-45	-100	-37
39	54	-39
137	166	-40
216	200	-18
245	161	3
219	92	8
172	42	16
147	47	12
162	93	14
198	136	5
205	131	-13
128	64	-39
-42	-35	-76
-267	-116	-65
-459	-133	-57
-548	-87	-53
-494	-12	-45
-325	34	-50
-116	20	-67
66	-39	-74
179	-100	-25
225	-113	9
229	-61	-2
216	26	-11
197	98	-5
162	106	-16
111	57	-12
67	-18	-4
59	-64	-34
105	-54	-53
188	7	-39
249	80	-6
226	116	-16
85	104	-50
-137	56	-64
-363	17	-47
-484	9	-24
-447	33	-13
-270	66	-4
-39	71	-2
154	41	3
238	-13	5
214	-54	15
133	-61	24
55	-32	16
19	10	16
20	33	21
27	20	4
14	-19	-17
-22	-53	-14
-61	-56	-42
-86	-19	-65
-82	45	-32
-60	106	-23
-44	145	-33
-44	149	-25
-54	127	-57
-51	89	-87
-24	32	-81
26	-40	-86
80	-134	-64
109	-233	-46
101	-308	-33
62	-325	-20
17	-271	-22
-14	-163	-15
-20	-39	-18
-15	56	-23
-12	103	-11
-28	106	21
-54	103	38
-74	123	32
-66	179	12
-19	247	1
52	279	-17
122	250	-53
155	139	-52
128	-21	-23
44	-192	-2
-66	-326	29
-162	-403	49
-202	-416	29
-169	-368	-6
-75	-273	-58
36	-150	-91
117	-11	-101
129	115	-85
68	204	-66
-37	235	-50
-136	204	-20
-191	129	-12
-178	43	-26
-115	-20	-42
-37	-52	-35
22	-51	-34
45	-35	-26
44	-16	-21
42	-4	-14
60	8	6
103	28	-2
158	56	-31
196	89	-30
199	111	-8
157	119	-23
72	106	-26
-34	81	-17
-144	46	-14
-237	9	-4
-294	-32	0
-304	-83	5
-264	-137	-10
-191	-192	-21
-103	-233	-27
-28	-243	-50
16	-211	-52
32	-137	-44
36	-34	-21
52	81	-2
98	182	9
161	249	12
212	268	-10
219	243	-24
164	181	-29
57	101	-42
-60	17	-48
-142	-63	-34
-156	-135	-37
-98	-192	-31
4	-227	-28
105	-223	-32
172	-174	-25
193	-81	-19
172	31	-8
126	131	-3
79	188	15
39	186	18
7	144	4
-15	97	-11
-29	78	-26
-30	97	-25
-24	134	-27
-14	147	-16
-13	99	16
-26	-11	26
-50	-151	8
-76	-261	-5
-87	-299	-18
-77	-246	-35
-55	-135	-43
-38	-20	-84
-42	55	-106
-71	72	-108
-112	52	-119
-132	31	-100
-99	36	-51
-1	71	-13
147	110	1
299	127	14
394	105	5
381	52	-11
245	-6	-28
24	-46	-65
-212	-60	-62
-386	-60	1
-432	-63	45
-347	-85	49
-180	-113	30
-4	-133	2
111	-123	-15
139	-76	-25
97	-4	-23
41	67	-13
18	115	0
50	130	3
117	119	-15
175	102	-27
182	94	-37
127	101	-35
32	114	-42
-65	117	-64
-133	96	-60
-156	38	-61
-141	-49	-39
-120	-154	-27
-109	-258	-41
-115	-334	-40
-130	-368	-44
-143	-334	-40
-142	-242	-12
-121	-107	-2
-88	33	4
-42	137	8
11	174	-4
66	144	-6
120	77	-14
164	14	-6
183	-7	-10
172	28	-34
140	94	-48
98	155	-36
65	166	-15
54	123	0
58	43	35
59	-34	37
34	-76	28
-26	-70	29
-117	-38	11
-207	-10	-9
-264	-11	-34
-272	-48	-61
-228	-106	-66
-151	-154	-63
-62	-173	-48
12	-151	-40
66	-97	-55
100	-26	-67
113	41	-50
103	95	-21
65	127	-32
15	138	-35
-31	134	-35
-47	115	-33
-21	88	-12
40	50	-1
105	4	-5
138	-48	0
117	-100	-11
46	-135	-33
-35	-145	-33
-87	-118	-46
-76	-55	-67
-4	23	-71
100	98	-50
195	148	-43
236	168	-47
210	160	-28
127	142	-13
16	128	-2
-85	124	9
-143	128	28
-148	127	23
-102	114	27
-35	84	36
18	41	14
36	-11	-34
10	-74	-65
-43	-142	-48
-99	-214	-33
-122	-268	-32
-106	-290	-46
-59	-263	-38
-5	-187	-21
35	-80	-22
50	27	-14
49	104	3
42	136	-7
44	132	-30
54	117	-30
58	112	-40
47	120	-54
19	128	-76
-18	110	-74
-46	50	-44
-58	-46	-24
-52	-148	-19
-37	-214	-21
-23	-216	-6
-16	-150	13
-13	-40	24
-6	71	27
6	147	31
24	171	11
38	150	-19
44	101	-37
45	47	-22
42	-5	9
42	-52	15
42	-104	-15
41	-161	-48
31	-223	-48
6	-286	-56
-34	-338	-48
-83	-375	-8
-137	-378	16
-190	-334	-13
-234	-237	-44
-259	-88	-8
-253	82	0
-206	233	-41
-117	309	-39
6	290	-32
136	187	-33
253	56	-31
325	-42	-33
340	-59	-16
288	7	-9
184	114	-16
41	206	-27
-103	236	-55
-216	200	-89
-272	128	-97
-260	62	-63
-195	33	-38
-107	33	-24
-27	39	-16
22	26	-3
43	-4	11
54	-32	21
69	-32	13
89	7	-4
98	64	1
78	106	-7
22	104	-13
-56	60	-12
-119	1	-31
-133	-36	-38
-83	-27	-30
16	17	-20
127	67	-2
206	95	2
226	91	-22
191	68	-19
121	54	-12
47	64	-23
-10	84	-30
-42	84	-40
-55	33	-46
-55	-66	-28
-43	-190	0
-18	-288	2
24	-318	-2
82	-265	-15
145	-152	-40
201	-13	-58
234	109	-59
222	187	-31
161	213	-5
52	198	22
-82	154	11
-215	93	-25
-314	27	-52
-350	-31	-76
-321	-78	-84
-250	-111	-88
-167	-136	-67
-107	-171	-61
-87	-226	-38
-98	-299	2
-113	-372	10
-104	-408	24
-57	-381	35
23	-278	36
113	-116	38
196	61	17
261	205	-22
318	281	-48
372	283	-56
417	237	-38
428	177	-11
363	130	9
193	101	-3
-83	72	-56
-415	24	-78
-714	-55	-59
-900	-153	-58
-911	-232	-44
-756	-263	-23
-477	-230	-1
-168	-145	9
97	-44	2
276	43	16
373	98	22
416	126	18
421	144	-12
398	168	-36
339	192	-69
238	204	-99
103	187	-100
-28	135	-85
-114	61	-64
-128	-8	-68
-77	-49	-50
3	-52	-31
66	-27	-20
84	10	-6
56	37	18
17	50	25
2	51	9
32	52	13
97	58	21
169	66	22
216	72	6
234	67	-2
222	56	-8
192	40	-21
148	26	-28
77	13	-38
-31	-4	-35
-174	-28	-22
-317	-58	3
-410	-86	-1
-412	-96	-19
-320	-82	-25
-170	-47	-35
-22	-16	-23
65	-13	-9
77	-58	-9
34	-145	-25
-13	-251	-32
-28	-329	-23
3	-345	-20
53	-285	-24
92	-161	-30
98	-11	-25
78	135	-24
60	249	-30
75	320	-37
128	353	-23
193	354	-5
229	330	6
197	272	34
93	189	13
-55	86	-22
-199	-17	-54
-291	-111	-54
-311	-189	-28
-262	-249	-48
-183	-297	-63
-113	-322	-77
-74	-315	-44
-68	-261	-12
-78	-162	11
-76	-43	7
-44	60	-32
14	114	-48
87	107	-84
154	60	-77
196	17	-61
204	11	-21
178	51	42
131	121	24
67	174	-20
-1	187	-24
-66	145	-18
-122	74	-9
-159	-1	3
-170	-53	-10
-152	-85	-19
-112	-105	-15
-59	-127	-14
-13	-155	-19
17	-167	-30
28	-142	-35
27	-72	-36
26	30	-35
34	132	-23
60	203	-5
100	218	-7
142	183	-13
172	121	-21
176	56	-28
147	6	-18
79	-30	-8
-22	-55	-13
-139	-76	-26
-245	-85	-47
-310	-70	-75
-304	-26	-82
-221	43	-78
-68	120	-52
103	174	-25
236	185	6
285	143	38
230	68	27
89	-16	-3
-83	-85	-38
-212	-134	-40
-257	-171	-40
-205	-224	-41
-83	-292	-37
57	-375	-43
169	-432	-38
224	-421	-26
224	-320	-4
181	-134	-7
115	89	-13
42	279	-19
-28	382	-27
-82	365	-35
-107	252	-40
-91	99	-15
-38	-28	-2
27	-88	-5
71	-78	-13
72	-29	-14
19	15	-9
-60	26	-5
-125	0	0
-143	-36	-13
-101	-53	-11
-18	-32	-7
74	27	-23
138	101	-24
166	166	-24
159	200	1
128	202	29
85	177	16
24	138	1
-49	94	-24
-130	48	-52
-205	2	-51
-247	-48	-12
-242	-103	34
-194	-157	63
-122	-192	63
-53	-202	11
-1	-177	-63
30	-115	-100
49	-36	-118
65	40	-122
78	90	-89
82	103	-64
70	88	-40
43	62	-52
14	48	-51
-11	48	-18
-23	55	-42
-31	48	-39
-43	12	-27
-60	-46	-37
-77	-102	-25
-69	-123	-30
-30	-97	-20
42	-29	-10
126	44	-12
192	92	-5
216	102	-3
199	82	0
151	65	-12
93	71	-26
42	106	-30
-1	149	-45
-42	162	-60
-86	129	-55
-124	49	-21
-147	-54	-6
-142	-160	19
-116	-245	43
-84	-307	32
-62	-345	7
-63	-354	-36
-75	-326	-43
-71	-254	-47
-34	-137	-44
41	-4	-33
127	110	-26
187	170	19
184	169	37
111	121	13
-12	66	-11
-130	32	-38
-195	27	-74
-170	36	-63
-52	38	-18
127	24	-19
312	0	-11
432	-1	7
431	32	12
288	103	40
23	178	37
-296	211	13
-562	173	-32
-681	56	-63
-615	-99	-82
-392	-243	-98
-101	-318	-66
137	-297	-36
245	-194	-16
219	-49	-2
125	89	0
51	185	-28
60	225	-60
137	214	-75
216	168	-76
221	98	-70
118	18	-59
-49	-68	-42
-193	-145	-42
-229	-199	-25
-137	-210	-6
29	-177	25
181	-115	38
236	-47	38
178	-1	62
54	15	53
-60	9	32
-113	5	11
-99	20	-21
-55	58	-43
-30	105	-53
-40	132	-48
-71	125	-42
-88	84	-44
-64	32	-47
-8	-5	-53
49	-15	-47
76	3	-49
59	24	-61
16	35	-46
-25	24	-43
-42	2	-51
-33	-21	-40
-14	-30	-30
-7	-26	-26
-18	-19	6
-33	-9	46
-37	0	46
-11	13	35
42	41	8
102	81	-47
149	123	-63
163	153	-77
148	157	-88
107	131	-72
57	88	-16
10	33	35
-27	-18	46
-51	-63	37
-65	-102	-20
-66	-134	-34
-61	-157	-34
-54	-160	-42
-52	-144	-30
-52	-112	-13
-46	-68	24
-25	-28	32
20	3	13
86	22	-21
154	33	-53
199	39	-60
200	40	-60
150	34	-62
58	15	-62
-42	-13	-21
-126	-47	11
-172	-74	-11
-177	-80	-30
-156	-61	-67
-135	-28	-102
-130	6	-71
-137	17	-24
-138	-2	-14
-106	-47	-15
-36	-93	-3
52	-110	12
117	-74	21
111	12	16
11	122	-5
-158	205	-26
-343	213	-24
-478	127	-22
-506	-39	-40
-420	-229	-51
-251	-376	-70
-50	-432	-75
127	-383	-67
248	-261	-45
292	-117	-27
273	4	-15
212	86	-4
145	139	-5
107	189	8
125	244	22
203	298	19
302	319	3
380	276	-3
373	171	1
268	26	4
89	-110	16
-94	-196	2
-212	-208	-24
-218	-160	-40
-129	-79	-55
1	7	-45
107	76	-36
145	126	-31
119	161	-20
60	179	-19
10	173	-17
-16	135	-12
-22	74	-10
-34	6	-18
-70	-42	-9
-124	-58	10
-170	-45	-1
-184	-24	0
-154	-18	-4
-88	-35	-8
-10	-67	-3
52	-88	-16
87	-76	-34
95	-25	-38
87	49	-51
78	119	-72
79	163	-76
86	169	-63
91	144	-44
82	104	-60
48	56	-70
-7	0	-43
-77	-66	-17
-134	-141	13
-163	-213	22
-151	-252	55
-106	-240	67
-48	-169	3
-1	-53	-10
21	68	12
27	168	5
33	215	15
53	215	8
85	182	-44
106	132	-109
92	83	-114
29	30	-81
-67	-32	-70
-167	-110	-52
-228	-190	-58
-236	-256	-71
-198	-286	-63
-140	-267	-54
-93	-210	-54
-63	-130	-47
-45	-59	-32
-21	-11	-17
18	6	-4
67	-4	-10
111	-25	-3
136	-46	11
143	-56	26
142	-54	13
140	-35	0
129	-3	18
95	35	-3
14	72	-38
-110	95	-57
-253	95	-48
-358	70	-31
-383	36	-22
-312	5	-9
-166	-16	-19
6	-22	-10
151	-24	-10
238	-29	-19
273	-40	-9
280	-49	-9
280	-44	-8
280	-23	-8
257	13	-13
181	47	-32
38	64	-41
-156	53	-34
-354	26	-20
-487	3	-9
-497	1	-18
-375	32	-24
-147	83	-25
117	131	-24
328	153	-11
422	139	-4
381	103	3
245	63	3
90	47	-6
-16	59	-13
-33	89	-20
23	104	-26
101	78	-27
140	-1	-31
111	-119	-26
18	-234	-28
-97	-300	-41
-184	-280	-41
-215	-174	-46
-191	-16	-48
-133	141	-43
-64	243	-39
-3	259	-35
46	190	-15
88	81	5
119	-24	-10
132	-81	-7
124	-78	3
100	-32	-22
75	24	-44
57	60	-17
52	59	14
44	24	22
19	-27	32
-32	-75	37
-97	-109	27
-145	-124	-7
-152	-129	-38
-111	-126	-50
-45	-117	-45
15	-100	-79
38	-64	-87
21	-15	-60
-20	47	-47
-60	103	-27
-83	134	-33
-89	131	-62
-88	97	-58
-89	45	-8
-91	1	12
-78	-20	-8
-39	-17	-26
26	-5	-30
97	-18	-54
148	-71	-66
162	-165	-70
140	-267	-61
104	-329	-35
71	-315	-25
55	-215	-11
45	-68	1
23	70	-4
-37	148	-21
-134	139	-22
-250	71	-32
-340	-8	-26
-366	-46	-11
-304	-29	0
-158	26	21
28	76	15
199	84	10
301	51	-4
306	7	-17
225	-2	-24
98	43	-22
-15	131	-20
-71	215	-21
-56	247	-23
5	206	-22
61	109	-19
68	8	-14
12	-53	-20
-79	-53	-39
-151	-13	-38
-152	28	-45
-66	35	-36
75	-5	-23
206	-64	-28
262	-101	-34
209	-84	-43
63	-13	-35
-113	77	-31
-251	142	-30
-303	145	-24
-262	83	-21
-170	-23	-12
-74	-127	-17
-17	-192	-19
-5	-200	8
-19	-157	16
-24	-84	0
-5	-7	-15
42	54	-32
103	96	-25
156	121	-12
193	132	-9
216	138	-5
237	128	-6
253	96	-18
258	33	-31
229	-61	-10
150	-175	-2
21	-282	-16
-133	-355	-26
-281	-371	-30
-390	-326	-28
-431	-242	-18
-392	-148	-43
-285	-76	-77
-129	-38	-95
38	-24	-90
187	-8	-65
278	34	-44
294	109	-7
238	195	11
140	261	28
42	274	33
-16	228	11
-23	135	-3
12	40	-6
51	-27	-15
62	-50	-5
26	-36	5
-43	-9	-4
-119	12	-28
-176	22	-50
-197	25	-52
-189	34	-52
-161	52	-55
-120	79	-60
-65	98	-40
7	106	-32
90	93	-34
169	68	-36
214	38	-42
223	0	-22
200	-37	-24
172	-74	-32
170	-101	-16
184	-108	4
184	-83	14
121	-32	17
-34	27	19
-262	72	48
-483	81	24
-605	51	-68
-562	-4	-109
-358	-56	-82
-69	-80	-53
194	-60	-54
341	-6	-30
341	62	15
240	123	54
107	152	54
11	140	8
-25	97	-19
-18	34	-35
0	-24	-13
17	-57	-1
41	-50	-23
92	-7	-36
171	45	-57
245	77	-62
265	50	-47
184	-40	-28
2	-174	-14
-228	-303	-17
-418	-381	-40
-497	-381	-65
-445	-313	-60
-287	-216	-43
-101	-135	-57
41	-89	-81
102	-63	-78
86	-30	-52
33	40	-31
-12	144	-22
-20	240	-4
5	275	13
46	213	16
81	71	27
95	-93	32
84	-200	12
56	-198	-6
25	-92	-6
1	61	-14
-10	177	-27
-4	195	-28
11	106	-14
20	-35	3
15	-154	-10
-10	-188	-14
-48	-119	-13
-81	10	-14
-87	132	1
-56	193	3
3	173	6
66	100	-20
106	24	-45
106	-4	-40
67	21	-38
15	83	-31
-19	131	-16
-10	139	-23
40	98	-48
109	22	-48
159	-48	-41
160	-92	-34
103	-99	-35
8	-84	-43
-79	-62	-43
-120	-48	-19
-95	-41	7
-14	-30	-5
85	-13	10
156	13	7
165	38	-10
104	54	13
-10	57	18
-138	47	3
-241	32	-35
-278	9	-54
-235	-18	-60
-112	-44	-71
61	-61	-74
234	-56	-76
340	-21	-63
336	45	-55
210	126	-54
3	196	-50
-203	233	-46
-325	222	-21
-316	169	-4
-191	85	-10
-23	-8	15
99	-100	61
119	-176	83
40	-230	67
-83	-254	52
-180	-250	20
-206	-229	-18
-167	-196	-56
-101	-170	-79
-46	-144	-94
-19	-109	-99
-1	-49	-58
26	37	1
69	129	37
100	189	4
79	178	-43
-12	92	-69
-136	-44	-72
-229	-169	-79
-224	-224	-84
-105	-183	-71
79	-69	-59
241	55	-9
300	131	0
242	126	-11
117	58	-5
6	-21	-12
-27	-68	-31
22	-60	-24
107	-17	4
158	28	-14
140	41	-28
68	21	-30
-12	-13	-19
-54	-36	0
-47	-36	-8
-18	-24	-13
0	-21	-3
-12	-37	24
-39	-68	38
-47	-82	32
-19	-51	21
40	32	6
100	149	-9
124	261	-24
110	337	-25
75	350	5
49	312	-3
48	237	-39
52	153	-70
31	67	-93
-40	-14	-79
-155	-95	-47
-271	-173	-20
-343	-230	-17
-339	-256	-17
-269	-240	-21
-172	-188	-11
-80	-113	3
-13	-37	-15
39	23	-44
92	64	-46
149	84	-25
196	88	-18
209	84	-22
171	75	-30
97	60	-32
26	40	-26
-4	15	-19
13	-16	-6
60	-49	2
86	-78	-2
55	-88	-36
-40	-71	-64
-173	-28	-61
-287	37	-48
-332	96	-16
-285	122	-9
-165	95	-24
-1	17	-56
163	-84	-60
288	-171	-20
346	-205	15
336	-182	61
253	-122	82
121	-67	62
-19	-46	20
-126	-67	-48
-162	-106	-100
-121	-121	-133
-26	-88	-136
74	-8	-91
125	83	-36
98	142	-27
-2	145	-34
-134	98	-49
-252	35	-67
-308	-9	-50
-288	-18	-26
-213	-11	-15
-114	-12	-2
-27	-47	3
22	-115	6
27	-181	13
5	-209	2
-24	-176	9
-35	-96	34
-18	0	36
31	74	21
99	108	4
160	112	-1
198	112	0
198	132	-8
155	171	-8
78	213	-9
-12	227	-22
-96	196	-30
-150	130	-33
-162	49	-32
-133	-19	-36
-81	-61	-38
-28	-83	-45
4	-90	-60
7	-93	-66
-8	-91	-74
-15	-77	-66
11	-41	-48
76	10	-26
161	63	-9
230	100	-11
245	109	-8
198	97	-3
109	76	-4
20	58	-6
-28	49	-14
-17	38	-30
37	15	-16
93	-29	-5
113	-77	-1
78	-111	14
7	-110	3
-67	-69	0
-114	-8	-5
-118	45	-38
-94	63	-75
-58	39	-84
-33	-15	-67
-19	-66	-31
-7	-90	-2
8	-77	27
24	-39	37
25	-11	34
0	-17	10
-52	-70	-67
-105	-154	-107
-125	-233	-92
-80	-261	-95
24	-216	-74
154	-97	-19
244	68	37
242	236	67
124	364	57
-71	422	29
-273	406	-10
-404	328	-58
-410	201	-86
-300	43	-89
-133	-131	-75
11	-308	-49
69	-460	-43
36	-556	-20
-54	-566	2
-128	-485	-6
-130	-322	-17
-45	-130	-48
93	45	-35
222	168	-32
286	224	-44
253	236	-18
147	233	-24
4	236	-22
-119	244	-25
-191	238	-15
-201	194	5
-158	106	9
-88	-4	26
-15	-107	15
36	-170	-4
54	-181	-20
32	-145	-23
-18	-85	-23
-71	-17	-21
-97	51	-17
-63	112	-26
32	162	-43
171	188	-69
306	180	-59
396	128	-24
401	48	26
320	-35	48
175	-94	37
11	-106	21
-132	-82	-24
-231	-41	-67
-272	-18	-86
-262	-27	-81
-221	-59	-69
-150	-92	-44
-60	-92	-19
40	-43	-9
144	44	-15
237	141	-20
300	204	-18
318	207	-14
278	138	-7
184	24	-11
48	-101	-24
-109	-191	-36
-262	-226	-34
-388	-199	-30
-459	-135	-28
-470	-67	-31
-412	-16	-52
-291	10	-57
-132	18	-33
36	28	0
167	47	25
234	81	33
226	116	36
163	140	39
86	142	46
40	123	24
50	90	-3
106	46	-15
172	1	-45
203	-44	-76
169	-84	-83
74	-117	-71
-51	-134	-56
-167	-138	-39
-237	-133	-61
-256	-123	-70
-231	-118	-43
-181	-113	-52
-117	-103	-40
-41	-84	-5
46	-52	4
140	-20	17
216	2	32
249	3	24
219	-8	32
130	-21	33
15	-16	27
-81	13	10
-116	59	-38
-83	110	-80
1	143	-100
94	155	-85
151	151	-80
151	145	-80
96	148	-46
15	155	-20
-61	158	-17
-102	139	-13
-100	95	-11
-67	25	-14
-20	-49	-17
17	-111	-5
31	-145	13
12	-148	11
-33	-125	17
-95	-87	13
-152	-48	-21
-190	-19	-56
-194	-5	-80
-162	-10	-71
-99	-25	-40
-12	-43	-27
93	-47	-25
212	-30	-14
340	13	-3
450	78	-11
503	145	-38
454	197	-61
266	214	-53
-46	186	-24
-412	110	-15
-731	-2	-6
-899	-131	-2
-856	-259	-17
-626	-351	-20
-289	-390	-30
27	-362	-42
241	-279	-20
322	-165	-8
299	-54	-15
234	16	-14
184	33	-30
165	0	-36
154	-53	-40
128	-98	-20
78	-109	5
22	-88	5
-6	-45	14
9	1	3
59	41	-18
111	77	-36
132	111	-32
107	143	-34
52	164	-39
-6	153	-36
-43	113	-26
-60	56	-14
-68	16	-14
-85	20	-6
-105	76	13
-105	158	37
-62	224	41
25	233	28
131	171	7
214	71	-17
234	-22	-47
175	-69	-85
67	-64	-92
-39	-32	-80
-101	-15	-59
-104	-38	-43
-59	-91	-33
0	-135	-27
42	-129	-26
57	-61	-39
49	41	-69
40	134	-67
39	168	-47
50	129	-47
58	44	-44
48	-38	-13
8	-81	24
-55	-70	53
-130	-26	60
-195	17	69
-228	38	41
-222	35	-11
-176	26	-48
-102	33	-71
-13	63	-72
72	106	-64
148	131	-48
199	129	-21
216	90	-4
192	24	-1
123	-43	14
19	-103	-5
-98	-140	-7
-184	-157	-22
-203	-149	-71
-143	-119	-68
-21	-72	-49
118	-26	-48
214	6	-43
229	7	-28
154	-26	-2
18	-71	41
-134	-109	59
-259	-118	44
-333	-103	-8
-355	-88	-50
-336	-99	-77
-285	-151	-96
-214	-222	-65
-130	-278	-31
-52	-278	-17
7	-210	-24
40	-97	-29
53	21	-18
68	99	-26
105	121	-56
166	99	-48
230	60	-43
267	36	-59
253	34	-42
182	49	-21
89	68	-9
8	87	-16
-31	101	-15
-37	110	-8
-34	115	-13
-52	101	-8
-98	66	11
-149	19	15
-166	-19	2
-124	-21	11
-30	24	14
79	110	2
155	203	-15
172	272	-17
136	289	-4
78	260	-18
35	200	-19
23	128	-14
34	53	-25
44	-31	-32
37	-128	-35
13	-234	-43
-14	-321	-52
-26	-359	-50
-25	-331	-52
-20	-240	-44
-26	-118	-27
-44	-8	-36
-62	61	-31
-56	88	-30
-15	89	-25
54	88	-14
125	99	-1
163	114	28
151	118	37
89	95	18
9	48	-7
-58	-2	-33
-91	-40	-56
-85	-48	-78
-53	-35	-90
-15	-13	-90
16	-5	-79
35	-13	-47
39	-30	-9
28	-43	16
6	-39	28
-25	-17	43
-53	19	61
-69	55	53
-65	83	8
-38	94	-35
0	83	-61
34	51	-87
54	5	-90
54	-48	-57
32	-94	6
-5	-111	55
-56	-95	57
-117	-50	35
-178	12	-4
-223	65	-25
-232	96	-33
-195	93	-66
-118	62	-85
-29	14	-49
40	-44	-23
58	-100	-18
22	-155	-30
-43	-196	-76
-91	-221	-102
-80	-216	-87
8	-181	-59
151	-122	-52
297	-52	-46
387	9	-33
374	48	-16
269	57	6
90	40	2
-92	7	-9
-223	-32	-22
-267	-54	-17
-231	-47	-3
-142	-4	4
-53	65	0
2	139	-8
11	186	-2
-12	181	-11
-42	122	-4
-55	26	-9
-50	-69	-19
-34	-132	-12
-24	-145	-18
-29	-120	-34
-49	-84	-33
-65	-58	-13
-60	-53	-15
-30	-55	-30
25	-45	-35
86	-5	-30
131	55	-21
147	115	-3
131	149	15
97	138	18
63	96	-2
49	39	-30
68	-1	-34
110	-8	-34
151	17	-42
159	64	-42
107	113	-27
4	155	-49
-122	183	-64
-215	198	-52
-233	195	-45
-165	169	-22
-47	117	7
54	39	31
87	-49	15
33	-133	0
-71	-190	-20
-166	-215	-38
-189	-213	-50
-130	-188	-61
-21	-158	-48
82	-125	-19
132	-90	12
123	-49	25
81	1	31
47	54	8
50	106	4
85	150	-3
123	181	-31
133	194	-55
106	187	-82
49	153	-55
-15	85	-9
-70	-15	3
-108	-138	-21
-130	-256	-71
-136	-333	-75
-122	-340	-62
-77	-271	-79
3	-144	-60
97	-3	-30
176	106	-11
211	161	-12
183	153	-31
98	108	-36
-18	60	-44
-130	25	-28
-221	7	-4
-277	-17	8
-299	-57	0
-290	-123	-9
-253	-199	-5
-193	-254	5
-117	-271	9
-43	-238	-21
14	-171	-30
46	-89	-4
62	-6	4
76	65	4
102	132	2
148	192	4
203	244	-3
260	279	-12
309	294	-7
341	281	-5
344	251	5
300	215	12
188	178	-1
-3	132	-28
-250	60	-54
-497	-52	-66
-658	-205	-70
-669	-372	-77
-521	-503	-80
-269	-556	-65
-7	-497	-55
169	-337	-52
215	-121	-47
161	84	-39
72	215	-37
18	247	-28
26	187	-19
66	88	-16
92	3	-22
66	-24	-35
0	13	-31
-66	83	-30
-74	150	-21
-4	181	-5
123	177	12
253	155	38
331	139	63
330	137	57
259	134	43
158	110	24
54	48	-20
-30	-36	-53
-97	-117	-62
-144	-160	-62
-168	-149	-66
-148	-102	-40
-75	-50	0
42	-26	12
170	-32	10
260	-48	7
280	-37	-9
234	23	-33
136	121	-54
38	224	-78
-31	279	-88
-56	258	-104
-48	160	-100
-27	21	-77
-15	-111	-54
-24	-201	-29
-63	-237	-20
-132	-226	-4
-226	-190	32
-333	-149	56
-425	-107	84
-468	-66	112
-433	-23	68
-317	20	14
-141	54	-5
42	70	-46
172	66	-70
216	47	-82
178	25	-96
91	8	-77
8	-1	-56
-30	-9	-38
-20	-24	-29
18	-52	-43
48	-88	-49
44	-119	-54
8	-135	-75
-42	-129	-77
-71	-108	-69
-60	-81	-34
-6	-56	-2
74	-36	10
154	-11	35
215	31	24
245	96	14
249	170	15
223	236	5
171	262	7
101	241	3
16	166	-11
-67	54	-24
-138	-65	-43
-180	-171	-48
-188	-242	-51
-163	-268	-34
-119	-245	-26
-64	-181	-36
-12	-90	-18
32	7	21
69	82	65
103	118	72
136	114	56
166	83	16
175	51	-46
151	40	-109
72	57	-139
-55	87	-122
-205	106	-106
-319	97	-72
-345	60	-42
-260	15	-28
-89	-16	-13
107	-21	-7
244	-13	-7
255	-9	-11
142	-32	-24
-39	-77	-24
-206	-113	-19
-279	-112	-11
-222	-55	-4
-65	34	-1
121	113	13
261	127	19
300	61	24
223	-61	16
65	-182	-12
-112	-240	-37
-250	-210	-57
-305	-112	-79
-262	-5	-90
-156	55	-94
-28	49	-81
64	1	-40
96	-36	-14
63	-14	-3
4	75	10
-41	194	15
-40	282	10
8	298	0
77	228	0
129	113	-2
143	9	3
122	-41	10
82	-38	-4
44	-13	-22
13	-11	-40
-20	-60	-56
-61	-154	-58
-108	-261	-32
-135	-336	-27
-118	-352	-29
-45	-305	-11
58	-211	9
151	-103	22
195	-2	10
172	74	9
107	119	5
40	133	-17
6	122	-43
9	95	-54
30	68	-33
38	59	-16
18	77	-4
-16	116	-8
-37	158	-26
-23	178	-28
21	160	-4
69	105	21
86	35	28
52	-26	2
-17	-57	-49
-95	-60	-72
-144	-48	-101
-153	-36	-108
-136	-36	-119
-120	-44	-136
-120	-45	-147
-138	-30	-97
-155	6	-6
-143	49	3
-96	85	18
-15	93	39
79	71	41
154	25	22
192	-30	-8
187	-80	4
144	-108	10
77	-112	16
11	-94	-6
-36	-59	-9
-44	-24	30
-18	6	31
33	24	-4
78	31	-35
89	37	-42
52	51	-61
-24	81	-76
-112	114	-69
-178	131	-60
-191	112	-50
-141	43	-17
-36	-58	-5
106	-167	-8
258	-240	12
380	-248	16
422	-182	10
354	-72	0
158	33	-17
-139	95	-35
-463	83	-38
-708	7	-15
-794	-105	-13
-691	-206	-25
-438	-253	-24
-135	-224	-16
105	-116	-6
216	42	-13
208	210	-21
138	337	-29
87	379	-52
106	316	-60
186	155	-56
274	-61	-39
306	-269	-37
248	-402	-32
109	-421	-26
-53	-326	-31
-181	-159	-18
-231	17	-18
-191	143	-27
-89	191	-27
37	171	-19
148	122	-27
216	83	-38
234	68	-38
202	69	-35
138	64	-30
65	25	-15
7	-39	4
-24	-107	16
-23	-138	24
-1	-114	20
24	-41	8
38	45	17
33	110	29
17	128	38
-2	104	36
-14	67	16
-17	48	-13
-14	63	-60
-14	104	-89
-18	139	-112
-29	150	-121
-41	122	-96
-53	67	-81
-64	6	-56
-78	-44	-34
-96	-71	-29
-114	-84	-32
-130	-87	-38
-133	-87	-39
-118	-77	-42
-77	-55	-32
-12	-19	-23
65	27	8
141	70	43
198	101	65
221	110	48
201	105	32
141	89	23
65	66	-32
-8	43	-82
-55	21	-108
-64	5	-72
-37	-5	-39
7	1	-41
45	12	-30
58	14	-18
32	-13	4
-33	-80	14
-122	-178	7
-212	-279	7
-278	-337	3
-290	-318	-9
-236	-215	-17
-113	-58	-14
57	97	-7
236	191	-30
373	189	-50
429	94	-53
373	-52	-62
219	-192	-52
14	-273	-43
-183	-275	-49
-312	-213	-41
-335	-120	-34
-260	-35	-34
-130	21	-33
-3	43	-41
74	45	-36
75	40	-18
14	39	-1
-76	38	26
-155	39	28
-195	41	9
-190	45	12
-148	58	16
-84	77	19
-20	93	7
33	98	-14
65	85	-28
75	60	-59
63	39	-57
44	39	-44
31	64	-70
36	108	-76
58	151	-52
89	171	-23
102	161	-1
82	117	5
27	59	-8
-50	8	-40
-118	-24	-76
-155	-39	-87
-145	-44	-48
-97	-50	-15
-26	-68	-4
49	-92	3
111	-109	10
159	-108	18
183	-85	6
188	-44	-30
169	0	-36
130	29	-30
85	35	-10
46	14	4
32	-21	-4
38	-54	5
55	-67	9
64	-50	1
50	-8	-8
20	51	-11
-10	104	-30
-16	131	-51
9	125	-54
54	82	-30
95	15	-2
101	-58	11
59	-116	36
-15	-149	38
-94	-147	11
-152	-117	-34
-175	-69	-54
-175	-14	-62
-170	34	-67
-178	64	-71
-198	62	-82
-215	23	-83
-210	-52	-77
-176	-149	-76
-123	-233	-45
-68	-279	-21
-34	-257	-12
-16	-170	-6
-3	-38	-7
24	98	9
77	196	13
143	235	12
202	215	-3
223	164	-6
196	106	-9
127	62	-16
49	30	-16
-9	-2	-37
-28	-43	-40
-7	-91	-56
32	-125	-55
66	-127	-6
80	-87	37
75	-13	34
68	67	31
76	126	28
101	145	-12
130	130	-54
131	96	-78
77	65	-71
-35	49	-79
-178	48	-78
-302	48	-55
-363	38	-40
-340	11	-11
-251	-31	20
-142	-83	28
-59	-131	22
-22	-166	13
-16	-171	0
-4	-137	-13
40	-61	-38
119	45	-45
198	164	-54
237	256	-63
207	290	-33
125	254	-23
39	150	-16
0	15	-10
33	-113	-8
128	-196	-24
229	-215	-42
270	-179	-23
222	-107	-8
83	-33	1
-106	22	-9
-287	51	-25
-400	65	-30
-425	74	-36
-366	79	-54
-249	79	-65
-112	55	-70
11	0	-57
97	-94	-44
133	-205	-20
122	-306	26
68	-361	50
-9	-348	39
-86	-273	24
-134	-159	22
-140	-46	-1
-100	34	-40
-28	67	-64
44	67	-66
96	61	-56
111	72	-43
100	112	-38
83	165	-25
86	208	-11
117	219	-11
169	189	-12
212	129	-13
222	61	-14
179	8	-8
87	-24	12
-26	-32	15
-134	-19	6
-212	9	-21
-248	50	-38
-242	95	-54
-201	122	-82
-135	106	-62
-52	35	-41
40	-86	-13
128	-215	9
191	-291	12
211	-270	-8
175	-148	-39
93	27	-77
-28	169	-108
-156	207	-94
-259	118	-49
-313	-54	3
-298	-230	26
-206	-321	22
-55	-296	9
116	-175	-11
265	-21	-54
346	106	-84
342	177	-76
258	203	-35
140	215	-2
42	235	8
-1	252	6
11	243	9
40	185	32
38	83	24
-25	-32	-2
-136	-111	-19
-245	-133	-12
-288	-98	1
-229	-39	11
-81	4	0
92	17	-26
215	1	-38
238	-16	-51
159	-14	-56
29	8	-64
-86	38	-60
-139	50	-48
-120	35	-41
-56	-5	-22
11	-47	-23
48	-77	-9
44	-88	9
14	-88	-18
-27	-94	-28
-57	-116	-25
-68	-150	-9
-56	-175	10
-27	-173	20
12	-129	15
44	-51	-9
49	43	-32
17	130	-61
-50	183	-68
-130	192	-66
-188	149	-47
-194	63	-3
-147	-44	7
-61	-152	-7
20	-229	-23
66	-260	-28
66	-238	-35
37	-175	-41
6	-95	-20
-4	-17	-12
11	38	7
42	79	21
69	104	13
87	131	-9
93	161	-29
94	183	-50
96	190	-71
91	169	-75
69	121	-70
32	58	-53
-7	-2	-43
-22	-51	-33
11	-83	-28
87	-95	-20
172	-93	-6
215	-78	-22
170	-50	-43
29	-9	-38
-167	38	-30
-345	81	-34
-445	107	-12
-433	108	14
-325	88	32
-184	57	43
-63	35	28
4	35	5
28	57	-19
44	86	-30
81	99	-35
138	77	-48
189	15	-42
198	-71	1
149	-153	22
59	-202	26
-24	-196	-2
-63	-141	-27
-46	-56	-42
10	23	-80
61	72	-86
81	81	-88
62	54	-82
34	15	-58
24	-23	-37
44	-48	-21
83	-66	-23
105	-87	-25
91	-113	-15
46	-141	-7
0	-153	-16
-14	-131	0
20	-71	22
84	12	39
131	101	52
123	169	61
40	195	61
-86	185	24
-206	158	7
-268	131	-42
-246	115	-91
-162	98	-67
-59	56	-61
7	-27	-62
14	-149	-70
-30	-279	-76
-84	-371	-54
-101	-384	-39
-53	-308	-11
54	-167	21
186	-14	24
299	101	22
341	154	-15
299	154	-53
175	130	-78
14	117	-101
-136	125	-95
-233	138	-84
-247	131	-52
-187	90	-31
-89	20	-24
-5	-50	-5
24	-90	8
-18	-84	24
-112	-42	7
-215	8	-13
-280	38	-22
-276	41	-21
-206	29	-10
-99	23	-3
0	41	-3
62	78	-25
77	112	-44
60	113	-38
36	65	-19
27	-31	-5
45	-151	6
85	-254	-1
133	-311	-3
176	-297	-11
208	-216	-14
221	-92	-18
210	38	-34
180	135	-34
127	183	-42
58	179	-52
-23	148	-44
-103	115	-32
-177	104	-27
-228	106	-11
-241	109	13
-210	85	28
-129	27	7
-15	-49	-12
105	-116	4
189	-137	5
204	-105	-7
139	-39	-36
15	27	-47
-120	58	-48
-213	43	-48
-225	-5	-24
-156	-55	-27
-39	-84	-43
70	-84	-39
132	-67	-30
129	-59	-26
81	-68	-26
23	-93	-34
-13	-110	-43
-14	-105	-44
9	-69	-56
36	-11	-47
52	46	-18
57	89	13
58	114	32
65	128	30
78	143	23
84	166	17
72	190	12
40	196	2
-6	171	-9
-49	106	-50
-78	19	-78
-89	-78	-81
-92	-160	-99
-91	-209	-101
-82	-218	-84
-53	-186	-54
0	-123	-27
69	-40	21
127	48	66
131	126	68
68	180	44
-44	201	-9
-158	190	-57
-215	149	-108
-178	90	-149
-64	20	-141
76	-55	-104
181	-133	-57
208	-209	-21
158	-277	21
58	-328	51
-44	-352	49
-118	-340	40
-156	-292	26
-162	-216	-3
-143	-122	-24
-100	-21	-13
-36	79	4
39	171	-21
105	251	-30
132	309	-11
109	339	-4
39	330	2
-47	279	-4
-124	188	-5
-172	72	-6
-192	-46	-14
-198	-147	-28
-195	-209	11
-180	-230	43
-138	-210	32
-64	-166	18
30	-110	-17
120	-52	-45
179	2	-72
196	54	-79
183	105	-76
162	154	-65
151	192	-45
151	210	-39
142	203	-35
114	164	-33
68	97	-16
27	11	-1
14	-71	-24
32	-137	-43
62	-163	-43
66	-144	-51
25	-93	-51
-56	-26	-48
-136	25	-54
-168	40	-47
-125	13	-26
-29	-40	-14
65	-90	-9
111	-114	7
85	-99	34
14	-60	25
-54	-24	-12
-77	-13	-21
-49	-29	-12
0	-56	-11
32	-68	0
21	-43	31
-20	16	64
-62	91	66
-78	150	40
-63	174	15
-38	164	-29
-28	129	-68
-38	91	-93
-50	57	-111
-35	30	-125
19	-1	-135
92	-38	-129
135	-81	-113
106	-114	-86
1	-127	-51
-145	-120	-28
-259	-98	-10
-281	-77	-13
-195	-60	-34
-36	-50	-54
132	-43	-56
251	-36	-21
287	-36	30
254	-49	53
181	-80	61
94	-112	96
10	-122	104
-77	-89	74
-162	-2	22
-237	110	-16
-274	211	-41
-253	260	-52
-164	241	-42
-28	174	-41
114	99	-49
219	54	-50
261	50	-49
234	71	-62
150	78	-75
46	45	-72
-51	-22	-54
-125	-101	-38
-164	-153	-21
-170	-163	-18
-157	-135	-13
-138	-102	-1
-123	-90	16
-118	-107	24
-115	-137	10
-101	-149	19
-67	-121	16
-10	-54	-11
58	27	-35
122	96	-38
162	132	-34
175	139	-48
175	131	-43
172	126	-28
175	127	-16
175	122	-5
154	96	-4
101	41	-8
25	-30	-16
-51	-93	-32
-97	-123	-32
-90	-111	-26
-48	-70	-21
0	-27	5
18	-1	32
-6	-1	42
-60	-11	18
-105	-5	-31
-112	28	-63
-70	85	-88
-6	137	-119
41	153	-132
41	110	-98
-7	21	-34
-78	-86	7
-129	-167	31
-129	-194	34
-69	-171	4
21	-116	-25
107	-64	-28
151	-39	-42
135	-40	-90
68	-51	-115
-20	-47	-95
-97	-17	-77
-134	35	-41
-119	88	15
-61	121	46
13	123	51
74	100	19
104	66	-19
93	32	-47
54	0	-53
10	-39	-48
-26	-87	-39
-48	-141	-28
-64	-180	-21
-79	-183	-3
-95	-141	12
-99	-67	24
-80	6	25
-30	51	11
39	57	21
99	39	28
127	29	-3
107	51	0
58	110	17
9	171	0
-7	202	-19
19	170	-32
68	83	-32
105	-32	-35
94	-129	-55
33	-176	-63
-49	-170	-63
-110	-124	-49
-119	-66	-18
-76	-8	-28
-10	45	-30
29	101	-37
21	153	-42
-27	185	-25
-75	182	-35
-85	130	-38
-38	43	-23
39	-49	-13
100	-114	5
99	-134	4
28	-110	-5
-79	-61	-28
-162	-18	-48
-174	9	-53
-105	15	-44
18	12	-27
133	11	-32
188	17	-28
155	26	-5
55	32	21
-65	35	10
-165	31	7
-203	19	12
-184	0	6
-122	-36	-11
-52	-84	-47
5	-137	-49
34	-179	-27
38	-189	-6
30	-160	10
21	-95	-7
24	-15	-57
42	59	-68
75	110	-48
114	138	-67
144	150	-53
159	154	-31
148	157	-17
113	148	-14
60	117	-43
5	55	-85
-42	-34	-98
-75	-139	-77
-83	-246	-71
-68	-334	-55
-35	-400	-18
10	-424	21
54	-403	27
80	-322	33
69	-190	42
21	-21	35
-56	155	18
-136	300	-17
-191	388	-2
-197	406	-8
-162	370	-8
-108	301	8
-68	225	-10
-68	148	-17
-102	74	-30
-145	7	-38
-161	-48	-43
-126	-78	-45
-46	-72	-30
57	-37	-18
151	12	-15
209	47	-17
229	58	-23
221	44	-37
196	26	-61
160	21	-65
107	35	-48
35	53	-49
-45	47	-40
-114	1	-11
-144	-84	12
-124	-173	21
-59	-228	26
20	-224	16
83	-159	-28
107	-64	-67
96	23	-67
61	77	-30
31	100	-2
20	101	14
29	100	22
44	104	26
50	105	44
38	91	49
6	59	30
-36	21	-8
-77	-12	-46
-109	-41	-78
-126	-72	-98
-129	-123	-86
-117	-192	-49
-88	-260	-30
-39	-286	-33
28	-237	-38
109	-108	-49
198	66	-62
280	219	-64
342	295	-49
360	266	-53
324	159	-50
219	30	-31
56	-72	-10
-144	-119	-6
-344	-124	-19
-496	-113	-36
-565	-111	-51
-535	-122	-58
-410	-133	-55
-221	-132	-30
-15	-114	10
161	-90	34
269	-63	26
299	-36	21
245	6	28
131	77	37
-6	165	16
-134	241	-18
-224	261	-34
-258	207	-49
-239	89	-64
-181	-44	-64
-108	-139	-27
-34	-163	7
33	-121	24
95	-52	33
151	1	12
196	20	-4
219	15	-21
205	16	-50
154	43	-48
75	92	-50
0	135	-49
-49	148	-39
-56	114	-48
-32	50	-43
-7	-16	-22
-1	-61	6
-28	-76	19
-75	-70	-25
-112	-63	-51
-117	-67	-58
-83	-82	-78
-22	-94	-63
38	-96	-42
77	-85	-21
89	-66	-2
87	-43	8
91	-16	14
114	14	16
151	50	24
183	82	2
184	97	-19
144	85	-8
66	43	-1
-26	-13	-1
-102	-63	-13
-127	-87	-37
-95	-77	-39
-14	-41	-44
85	0	-57
160	33	-51
181	49	-38
132	51	-28
30	51	-51
-99	51	-86
-215	56	-109
-292	58	-100
-319	53	-71
-300	38	-37
-256	12	-17
-199	-21	-6
-137	-61	14
-76	-101	19
-12	-131	28
49	-144	23
108	-126	12
163	-74	-7
218	9	-21
274	102	-24
325	188	-24
350	249	1
327	279	14
229	284	9
59	268	3
-149	237	2
-338	178	-13
-443	86	-30
-430	-42	-29
-304	-196	-28
-124	-353	-24
30	-475	-18
101	-531	-12
65	-504	-14
-44	-391	-1
-166	-217	7
-233	-19	-12
-214	162	-40
-118	282	-46
12	323	-57
122	279	-78
179	181	-63
172	59	-33
125	-38	-13
63	-88	-18
12	-86	-17
-18	-48	-21
-28	-9	-29
-24	7	-40
-10	-14	-42
17	-62	-31
57	-118	-18
110	-157	1
165	-156	8
209	-115	28
226	-40	39
204	47	22
145	124	-14
54	174	-41
-48	186	-67
-148	165	-84
-213	120	-102
-235	74	-95
-207	39	-36
-143	24	18
-63	25	52
13	28	60
69	20	56
107	-4	38
129	-36	4
139	-55	-39
138	-37	-61
119	27	-49
77	124	-17
16	217	-33
-47	261	-70
-97	224	-104
-120	95	-127
-119	-87	-102
-105	-270	-74
-90	-391	-43
-77	-413	-56
-58	-339	-67
-26	-202	-41
19	-56	-8
56	52	15
58	106	2
4	109	5
-97	88	30
-201	65	36
-252	53	25
-203	44	16
-55	24	3
143	-16	-18
322	-77	-40
406	-136	-52
371	-178	-47
234	-182	-43
63	-145	-44
-65	-78	-30
-107	8	-23
-55	91	-11
48	156	1
138	191	18
158	198	31
84	178	21
-62	141	14
-226	99	15
-340	58	11
-350	25	-7
-245	-9	-32
-62	-48	-39
131	-97	-20
268	-145	-8
295	-177	-12
201	-170	-36
29	-112	-60
-165	-18	-65
-320	82	-58
-399	143	-68
-392	137	-65
-318	65	-43
-207	-40	-35
-88	-131	-25
17	-170	-18
97	-142	-24
144	-78	-8
155	-14	-11
132	11	-31
85	-9	-30
27	-48	-30
-19	-68	-20
-32	-40	-14
-7	34	-12
56	123	-17
140	190	-20
216	202	-28
258	166	-32
242	104	6
170	55	64
53	39	76
-67	55	74
-158	84	100
-189	95	93
-161	75	56
-88	19	-32
-10	-48	-100
46	-109	-153
68	-140	-198
64	-133	-192
50	-98	-154
40	-48	-95
38	-4	-42
30	19	-2
7	17	-10
-33	-6	-53
-77	-32	-61
-100	-51	-37
-94	-48	-11
-59	-31	10
-16	-13	18
9	-8	-2
4	-28	-15
-25	-61	-21
-57	-94	-15
-69	-101	-15
-47	-71	-3
8	-9	10
78	70	-3
148	149	6
203	213	11
238	256	4
245	279	5
216	277	-11
150	239	-18
44	152	-16
-81	11	-30
-191	-171	-25
-253	-355	-31
-249	-498	-42
-185	-557	-45
-96	-515	-42
-14	-383	-28
31	-208	-23
38	-40	-30
22	79	-36
5	138	-46
-8	151	-44
-20	148	-30
-37	158	-27
-54	187	-31
-46	224	-23
12	238	-1
124	205	9
245	119	-17
306	5	-36
238	-107	-30
22	-179	-42
-288	-194	-48
-584	-165	-46
-740	-113	-21
-686	-71	-2
-455	-48	-2
-140	-33	34
143	-8	32
314	51	18
354	148	5
317	254	-18
256	330	-22
204	334	-17
151	249	4
78	92	21
-27	-86	-1
-132	-230	-16
-192	-290	-35
-170	-263	-49
-68	-171	-40
63	-60	-56
169	25	-46
211	68	-30
197	70	-37
167	57	-51
159	49	-57
181	53	-62
205	56	-69
195	34	-63
128	-17	-59
25	-94	-34
-72	-163	-9
-126	-199	2
-126	-182	-4
-100	-122	-23
-84	-49	-17
-100	7	-13
-137	26	-6
-168	17	-23
-158	5	-36
-105	15	-24
-39	55	-17
8	112	37
14	158	99
-6	170	98
-21	139	69
5	79	46
69	14	15
145	-33	-33
186	-57	-91
165	-61	-117
94	-58	-83
13	-52	-49
-29	-43	-37
-8	-21	-35
55	18	-52
114	68	-86
121	114	-93
57	131	-72
-54	113	-72
-169	60	-68
-245	-11	-48
-262	-79	-17
-235	-133	0
-195	-170	-32
-176	-196	-50
-187	-213	-40
-214	-214	-19
-228	-187	-21
-194	-119	-16
-96	-11	-7
64	120	-3
261	241	5
439	325	-11
554	345	-13
548	311	-4
411	230	10
172	121	0
-95	3	-39
-313	-119	-54
-426	-234	-44
-426	-328	-19
-351	-379	-21
-250	-371	-41
-170	-296	-19
-117	-173	5
-65	-37	28
16	72	21
135	134	10
263	153	-2
357	152	-16
373	158	2
302	185	-8
172	215	-14
29	224	1
-83	171	-8
-139	57	-25
-141	-93	-31
-103	-227	-45
-44	-289	-53
16	-256	-46
62	-137	-41
82	18	-27
71	147	-15
42	208	-19
23	193	-22
41	127	-31
107	51	-44
203	0	-32
272	-20	-24
255	-25	-16
116	-39	-11
-121	-79	-19
-394	-142	-22
-610	-209	-28
-690	-257	-19
-624	-271	-22
-452	-257	-24
-245	-227	-31
-71	-187	-43
36	-135	-39
88	-61	-44
117	43	-34
149	165	-14
193	272	-7
234	332	-4
245	319	6
228	243	15
181	137	12
125	48	6
82	6	-3
56	4	2
46	21	2
46	24	-19
48	-3	-26
50	-45	-34
55	-74	-52
64	-58	-69
72	2	-69
78	89	-58
77	161	-55
74	190	-42
81	162	-35
96	99	-4
116	25	14
124	-36	5
101	-74	19
35	-94	9
-70	-99	-9
-195	-94	-19
-311	-69	-19
-386	-27	-43
-400	27	-76
-345	75	-61
-237	95	-61
-93	81	-48
56	41	-32
175	6	-31
238	-12	-13
237	-7	-7
184	1	-9
111	-16	-41
59	-71	-64
51	-155	-47
82	-233	-17
119	-263	-5
123	-235	0
68	-154	7
-37	-56	14
-149	21	14
-208	59	-3
-176	70	-39
-56	76	-64
97	92	-85
212	114	-95
229	118	-54
130	77	-33
-52	-17	-16
-243	-140	1
-372	-249	7
-393	-301	16
-318	-280	12
-178	-210	21
-33	-126	24
68	-70	25
102	-46	14
74	-33	8
8	5	-3
-59	92	-27
-102	213	-49
-100	332	-69
-55	400	-78
17	386	-71
94	294	-65
149	160	-42
163	27	-6
135	-70	10
78	-124	17
8	-142	8
-50	-138	1
-83	-125	-23
-74	-107	-43
-29	-80	-43
41	-47	-27
120	-18	-3
181	1	4
204	10	8
184	18	9
132	32	-7
70	56	-34
29	76	-61
25	80	-76
51	55	-95
80	8	-114
75	-37	-98
11	-56	-64
-111	-30	-17
-255	32	21
-366	102	24
-392	147	16
-305	149	-2
-120	106	-9
105	41	-8
294	-11	-25
373	-31	-44
318	-11	-33
140	32	-4
-84	74	-10
-262	88	-26
-325	58	-2
-248	-19	10
-63	-129	-11
133	-242	-24
261	-326	-23
268	-353	-21
166	-311	-32
12	-212	-11
-110	-85	24
-151	36	25
-108	130	2
-25	183	-27
40	206	-37
49	200	-56
1	164	-99
-68	91	-97
-120	-25	-71
-133	-169	-37
-111	-308	-9
-80	-394	-5
-61	-401	-10
-62	-318	-16
-62	-175	-21
-39	-19	-21
15	110	-11
89	192	-14
152	233	-6
182	256	2
172	274	-2
139	287	-9
106	282	-24
87	244	-25
80	177	-3
66	91	-2
33	16	3
-21	-27	11
-75	-31	-9
-105	-5	-4
-94	35	-5
-44	77	-7
24	104	-28
83	117	-49
113	103	-59
115	48	-76
97	-50	-75
77	-182	-46
58	-315	-3
44	-395	-16
26	-390	-24
-16	-290	-11
-80	-131	-20
-165	17	-52
-252	94	-63
-321	74	-47
-348	-14	-30
-319	-105	5
-233	-135	-4
-111	-72	-20
14	56	-30
111	187	-40
157	253	-43
147	225	-44
101	120	-13
50	-7	24
18	-101	45
14	-137	26
30	-123	21
43	-93	-1
34	-70	-40
-12	-61	-61
-89	-49	-93
-176	-13	-88
-240	46	-41
-250	109	10
-195	149	19
-85	143	4
54	103	-14
181	53	-35
258	30	-33
271	37	-31
238	66	-33
184	81	-33
140	53	-31
118	-15	-21
107	-102	-25
89	-166	-68
44	-175	-63
-25	-120	-14
-97	-23	-3
-137	80	28
-126	157	41
-59	188	26
46	174	10
158	121	-12
238	44	-25
266	-43	-68
229	-131	-86
135	-199	-36
9	-233	-10
-115	-218	-13
-198	-163	-20
-222	-84	-44
-180	-14	-41
-103	21	-40
-34	17	-49
-11	-11	-35
-40	-33	-22
-99	-29	-26
-145	8	-36
-141	59	-32
-83	93	-32
-4	92	-16
51	51	7
54	-3	26
13	-47	30
-34	-58	21
-42	-42	-4
4	-17	-32
85	-2	-42
153	-6	-47
159	-13	-46
91	-6	-54
-23	28	-51
-134	81	-18
-198	123	-1
-191	131	-2
-132	93	-14
-48	29	-35
24	-25	-40
66	-38	-44
69	-2	-32
32	58	-24
-35	110	-21
-122	122	-25
-202	88	-30
-245	24	-10
-223	-36	-11
-134	-70	0
-8	-77	26
114	-62	44
188	-47	38
198	-35	9
164	-25	-22
126	-7	-60
120	25	-66
151	62	-82
195	88	-81
211	85	-38
172	45	-10
82	-21	-8
-21	-97	-22
-100	-168	-30
-121	-223	-52
-96	-254	-38
-58	-270	-13
-42	-265	-12
-63	-248	5
-100	-206	3
-119	-142	9
-92	-60	21
-15	33	21
83	120	7
161	185	-38
187	210	-74
161	195	-87
105	150	-79
56	93	-33
30	51	0
17	38	24
-14	53	28
-88	80	-4
-206	89	-24
-337	64	-34
-420	7	-51
-405	-58	-63
-274	-103	-46
-55	-97	-34
191	-40	-24
393	42	-40
486	120	-66
462	159	-45
342	149	-41
183	98	-41
43	31	-30
-35	-30	-34
-50	-76	-38
-31	-102	-32
-24	-120	-11
-63	-131	17
-155	-132	36
-262	-108	38
-341	-51	34
-350	38	9
-275	148	-32
-152	247	-48
-26	310	-38
58	316	-28
90	265	-25
85	171	-32
72	56	-26
77	-56	-16
93	-152	-13
98	-218	-1
69	-254	14
6	-258	0
-66	-232	-30
-114	-181	-40
-107	-118	-47
-52	-68	-57
21	-44	-75
77	-53	-70
91	-83	-47
70	-104	-46
47	-90	-53
49	-30	-31
84	53	-17
125	126	-27
139	145	-12
105	95	-20
27	-13	4
-60	-129	39
-113	-207	43
-102	-215	66
-39	-158	61
40	-67	54
93	19	23
90	81	-12
41	116	-42
-30	144	-109
-91	177	-160
-120	210	-162
-126	221	-115
-124	183	-53
-136	95	-15
-165	-24	16
-191	-126	46
-198	-171	59
-166	-139	54
-96	-52	49
-1	50	26
91	125	-15
160	157	-61
191	149	-96
188	124	-92
164	103	-60
140	81	-28
131	48	-8
137	-8	-6
148	-85	-20
138	-153	-50
94	-184	-79
5	-161	-77
-111	-100	-64
-217	-39	-60
-267	-15	-62
-237	-36	-59
-128	-77	-32
24	-95	-8
163	-51	6
237	51	11
226	180	9
144	278	-1
36	291	-26
-54	210	-29
-102	50	-18
-113	-136	-9
-112	-297	7
-126	-387	19
-164	-381	19
-211	-289	15
-232	-140	14
-200	20	16
-102	137	4
54	174	-3
237	124	-15
395	28	-26
478	-60	-17
459	-81	11
331	-21	19
124	90	-11
-85	187	-22
-229	211	-40
-252	147	-69
-152	25	-56
22	-85	-35
181	-129	-35
248	-89	-23
194	-1	-22
40	84	-45
-153	119	-75
-319	100	-100
-419	58	-82
-455	23	-63
-448	8	-66
-412	-5	-43
-350	-46	-9
-247	-127	-10
-105	-235	-8
53	-315	9
191	-326	31
265	-256	43
257	-129	32
191	-2	4
107	79	-38
48	98	-54
29	83	-27
41	74	0
62	104	4
80	178	-1
97	264	-2
123	319	13
156	305	31
178	221	24
161	91	-16
93	-40	-51
-8	-135	-68
-97	-170	-83
-128	-147	-81
-84	-95	-74
4	-45	-90
75	-31	-79
78	-60	-40
-1	-122	-12
-115	-183	-11
-195	-204	-26
-187	-164	-43
-83	-63	-54
75	62	-17
211	174	-22
276	231	-58
261	221	-25
194	161	-21
112	86	-25
35	38	3
-41	24	19
-133	41	24
-239	67	17
-325	86	10
-343	85	-5
-260	67	-3
-97	45	14
85	22	10
211	0	5
229	-20	-5
142	-35	-30
9	-38	-60
-102	-32	-104
-144	-24	-101
-120	-43	-40
-66	-107	-12
-27	-219	0
-20	-352	4
-31	-449	-12
-23	-455	-9
23	-348	-17
105	-157	-7
188	53	9
232	206	-13
203	259	-27
102	223	-39
-41	145	-52
-182	88	-47
-272	75	-47
-285	95	-55
-222	102	-49
-109	59	-21
2	-36	3
61	-147	12
43	-221	4
-44	-224	11
-158	-162	22
-239	-79	11
-241	-19	2
-165	-4	-25
-41	-15	-54
76	-7	-71
149	50	-71
175	156	-46
184	272	-22
203	343	0
244	338	19
276	259	3
262	147	1
179	45	4
45	-12	-35
-87	-36	-40
-158	-49	-38
-137	-77	-43
-50	-122	-66
47	-166	-91
102	-183	-93
97	-158	-59
54	-97	0
24	-23	3
38	42	11
88	85	8
138	106	-19
139	111	-7
76	103	9
-33	77	10
-137	26	4
-195	-37	7
-189	-97	4
-139	-122	-10
-88	-97	-3
-62	-25	42
-71	64	58
-95	132	15
-99	160	-60
-60	140	-118
24	97	-133
143	53	-138
269	28	-106
368	19	-82
402	11	-66
345	-11	-40
191	-56	-25
-42	-116	-2
-291	-181	2
-486	-235	-14
-563	-271	-27
-506	-285	-34
-354	-271	-21
-181	-229	3
-60	-154	-4
-26	-61	4
-58	36	40
-102	123	46
-95	181	38
-12	205	29
130	197	1
280	163	-32
394	110	-33
439	51	-17
413	-6	-28
331	-52	-63
202	-74	-70
35	-75	-66
-165	-66	-52
-373	-66	-43
-545	-89	-48
-621	-131	-37
-566	-169	-30
-379	-167	-17
-100	-113	0
187	-13	13
396	98	18
472	174	-5
411	198	-30
248	169	-30
59	119	-24
-86	78	-10
-149	58	19
-125	43	30
-50	18	39
32	-24	75
82	-66	72
86	-74	26
54	-19	-42
16	88	-103
-8	196	-137
-13	248	-135
-6	206	-90
-3	81	-54
-5	-65	-23
-7	-171	-2
12	-184	-4
56	-118	-34
113	-20	-46
151	53	-40
135	71	-55
55	43	-51
-65	4	-65
-173	-14	-72
-213	-10	-59
-159	-4	-45
-26	-28	-7
129	-88	16
238	-157	33
259	-192	44
193	-163	42
74	-81	0
-44	11	-43
-125	57	-54
-167	25	-27
-185	-65	-18
-201	-167	-48
-221	-215	-14
-226	-189	-4
-191	-102	-8
-113	1	3
-3	80	-14
104	125	-17
169	158	19
180	204	51
157	272	19
132	333	-10
132	350	-24
153	290	-46
171	168	-50
151	19	-49
78	-97	-53
-38	-152	-35
-156	-151	-46
-232	-129	-81
-245	-123	-72
-200	-136	-59
-123	-153	-51
-37	-135	-44
40	-69	-15
115	29	-4
184	123	-7
242	177	19
262	179	34
226	141	49
122	89	42
-27	36	22
-175	-21	6
-279	-92	-34
-304	-178	-59
-250	-252	-59
-149	-280	-40
-42	-232	-20
37	-114	-16
66	24	-5
46	120	-38
-10	123	-94
-85	32	-127
-156	-109	-134
-197	-231	-116
-191	-280	-89
-130	-240	-38
-34	-133	12
59	-9	63
107	89	104
81	132	113
-16	128	108
-137	90	49
-226	37	-5
-228	-3	-43
-130	-18	-75
32	1	-84
206	47	-79
332	109	-45
380	159	-19
344	174	-19
252	145	-33
131	83	-48
10	12	-58
-93	-44	-47
-165	-71	-19
-184	-74	-1
-143	-62	-11
-50	-45	-24
64	-24	-16
162	6	-15
198	43	-21
160	82	-28
75	96	-30
-12	68	-40
-53	5	-47
-33	-75	-38
34	-131	-18
104	-140	-16
135	-96	-31
116	-23	-3
54	40	34
-14	64	32
-63	43	26
-85	-2	21
-87	-41	-23
-86	-50	-49
-91	-21	-31
-96	30	-36
-87	90	-66
-59	145	-77
-15	194	-62
34	231	-39
74	248	-52
93	228	-63
94	150	-55
77	19	-49
38	-144	-39
-19	-290	-13
-93	-372	8
-162	-355	-5
-205	-249	-22
-203	-102	-26
-159	32	-5
-91	101	14
-30	91	21
0	20	35
9	-61	37
24	-111	36
79	-103	41
175	-45	41
288	25	26
360	72	5
344	74	-11
226	32	-39
41	-19	-72
-137	-46	-76
-255	-21	-51
-288	50	-22
-262	139	-23
-231	202	-62
-231	203	-86
-267	138	-109
-305	23	-120
-297	-102	-96
-215	-199	-69
-82	-247	-38
56	-242	-32
144	-194	-24
159	-121	-23
121	-39	-25
79	39	8
72	100	2
111	130	-9
169	116	-14
196	66	-19
159	-4	-12
60	-70	-34
-62	-106	-33
-154	-107	2
-181	-77	26
-132	-33	35
-39	10	34
57	45	32
123	81	39
150	115	36
142	136	8
119	131	-14
90	87	-42
52	11	-57
5	-71	-71
-47	-128	-91
-87	-131	-90
-90	-85	-78
-42	-12	-65
44	52	-59
133	84	-49
172	79	-26
131	56	9
10	39	15
-139	37	8
-244	41	32
-239	35	24
-108	2	-4
103	-54	-11
306	-116	-13
421	-153	9
396	-140	8
245	-68	-12
49	41	-42
-116	154	-63
-191	230	-62
-178	233	-55
-113	159	-14
-57	27	9
-48	-106	-6
-85	-190	-22
-132	-188	-27
-152	-105	-38
-124	14	-54
-58	103	-52
13	109	-23
66	29	-9
87	-102	-30
78	-211	-33
50	-243	-24
6	-175	-30
-55	-37	-16
-140	110	-10
-230	215	-6
-292	244	-25
-295	210	-62
-221	138	-82
-85	55	-55
59	-22	-9
158	-93	-5
180	-150	8
133	-188	-2
60	-195	-13
1	-168	-21
-14	-124	-31
6	-84	-16
34	-70	-34
44	-81	-50
27	-88	-44
2	-54	-36
-11	38	-13
3	171	-4
34	291	-17
65	334	-40
82	265	-61
82	100	-25
81	-95	29
93	-241	49
125	-283	27
163	-219	19
184	-90	24
172	41	-2
131	122	-24
69	139	-38
10	111	-41
-26	70	-45
-33	43	-49
-18	37	-45
2	34	-35
2	24	-17
-41	1	-7
-134	-25	-25
-269	-41	-44
-411	-38	-41
-508	-22	-12
-518	-14	-3
-426	-33	-10
-267	-88	1
-97	-157	-11
23	-210	-40
65	-213	-58
47	-151	-85
20	-39	-98
30	84	-79
93	171	-43
188	203	3
262	174	4
279	124	-3
236	89	22
160	90	8
96	127	-11
68	166	-5
76	171	4
93	113	-7
94	1	-28
75	-134	-23
51	-246	-18
46	-298	-32
69	-281	-38
106	-211	-28
128	-117	-32
113	-26	-52
54	45	-42
-24	99	-1
-91	139	12
-124	168	1
-117	188	-16
-88	192	-31
-55	181	-25
-40	152	-17
-42	110	-32
-60	58	-35
-81	-6	-38
-97	-81	-55
-106	-167	-54
-103	-254	-51
-81	-326	-35
-39	-364	-39
21	-349	-68
85	-278	-60
136	-164	-41
160	-36	-11
152	71	17
117	129	11
66	131	-11
3	94	-27
-68	43	-30
-151	14	-23
-234	16	-19
-299	47	-24
-319	79	-5
-274	85	26
-170	54	18
-33	0	3
87	-47	9
150	-57	3
143	-13	2
89	68	-1
34	157	-14
20	213	-3
66	211	-10
151	160	-22
230	77	-13
257	-1	-9
211	-54	-7
105	-77	-9
-22	-75	-23
-117	-62	-35
-153	-44	-54
-112	-21	-61
-16	16	-48
104	70	-47
206	132	-26
262	188	0
251	214	-6
166	203	-30
27	153	-32
-129	75	-28
-257	-16	-48
-314	-99	-43
-277	-168	-48
-158	-218	-52
-8	-248	-48
104	-254	-32
124	-234	-34
36	-186	-79
-126	-118	-68
-284	-47	-35
-363	6	-28
-325	30	-42
-180	18	-12
2	-17	22
140	-59	-1
184	-85	6
137	-86	6
44	-66	2
-25	-30	-8
-33	8	-12
15	43	13
84	75	16
120	95	16
100	99	11
40	77	14
-19	28	-14
-41	-43	-60
-15	-112	-85
33	-148	-90
59	-129	-61
33	-56	-27
-46	41	-24
-142	124	-42
-210	156	-38
-209	121	-30
-136	40	-13
-21	-46	5
91	-97	1
160	-94	-10
166	-41	-21
119	29	-13
48	86	-3
-16	106	-6
-47	96	-3
-45	70	-21
-17	45	-62
29	34	-75
76	29	-88
119	22	-79
155	6	-28
182	-15	25
192	-26	56
181	-21	44
144	4	56
85	33	53
12	51	30
-54	39	8
-99	-4	-38
-112	-66	-62
-95	-129	-56
-61	-170	-38
-36	-178	-36
-33	-153	-31
-60	-108	-39
-110	-61	-54
-161	-22	-50
-188	2	-50
-175	16	-50
-124	21	-52
-53	27	-48
14	34	-43
59	43	-50
74	58	-54
74	76	-54
68	92	-57
77	103	-52
99	103	-27
124	86	-2
144	56	24
143	26	37
122	7	30
79	11	15
22	35	9
-40	68	-15
-91	88	-38
-118	75	-30
-115	29	-26
-83	-38	-6
-46	-99	-10
-32	-130	-27
-61	-121	-9
-126	-77	-5
-205	-16	-26
-244	38	-23
-212	72	-19
-108	86	-23
36	82	-30
165	65	-42
225	35	-24
200	-16	-25
110	-82	-16
1	-156	-4
-86	-210	7
-124	-223	1
-117	-176	-13
-80	-81	-17
-31	30	-55
18	120	-84
69	158	-97
117	139	-102
151	84	-66
159	23	-33
130	-14	-15
66	-25	5
-6	-21	6
-60	-26	25
-70	-56	14
-28	-111	-3
57	-171	-7
158	-213	-30
233	-215	-16
245	-173	4
172	-94	4
22	5	-16
-187	107	-13
-383	196	-21
-501	251	-35
-496	252	-31
-366	198	-30
-156	100	-41
46	-8	-59
166	-89	-33
171	-117	18
95	-93	50
2	-56	40
-42	-44	16
-14	-83	-21
61	-154	-52
123	-210	-74
129	-196	-83
76	-97	-78
3	57	-61
-36	201	-22
-12	267	-4
60	229	9
135	119	5
169	5	-17
141	-49	-34
84	-25	-50
32	50	-64
17	117	-71
36	129	-49
57	81	-29
51	9	-11
7	-37	-6
-56	-37	2
-111	6	-3
-137	47	-12
-151	59	12
-170	33	27
-210	-1	28
-253	-8	15
-255	27	-1
-181	89	-34
-32	131	-48
140	114	-34
271	24	-16
300	-106	-11
223	-225	-23
90	-286	-44
-20	-274	-61
-57	-211	-74
-19	-136	-97
52	-78	-108
101	-41	-114
99	-7	-74
59	38	-23
15	98	-5
5	147	5
29	154	11
64	109	14
77	29	2
55	-50	8
12	-92	21
-23	-82	19
-28	-40	11
-10	-5	16
4	-3	13
-18	-36	-4
-80	-81	-19
-156	-102	-41
-205	-78	-54
-194	-20	-65
-121	43	-68
-15	79	-54
80	78	-19
130	61	-9
129	54	-9
94	78	13
49	122	24
14	158	34
-10	152	29
-34	89	6
-61	-11	-27
-96	-115	-68
-125	-182	-84
-134	-199	-103
-119	-171	-102
-77	-122	-63
-19	-77	-27
40	-40	0
86	-8	16
112	31	9
116	80	-11
101	130	-29
71	162	-35
38	157	-30
6	109	-22
-27	29	-17
-60	-57	-17
-97	-130	2
-123	-163	16
-126	-148	11
-94	-88	1
-29	4	-5
45	104	-20
95	194	-46
85	254	-51
14	272	-49
-93	241	-45
-182	165	-44
-211	45	-41
-165	-105	-12
-69	-261	0
21	-395	-6
65	-478	-7
48	-482	-8
-4	-408	4
-50	-269	1
-53	-109	-28
-10	35	-37
54	134	-37
110	181	-58
136	186	-71
141	166	-41
148	143	-10
171	122	-30
205	108	-50
225	95	-43
207	84	-26
148	77	5
72	70	25
14	62	35
-5	48	26
4	33	-2
6	22	-21
-40	22	-63
-150	39	-105
-285	62	-116
-389	77	-88
-402	63	-49
-303	22	6
-113	-30	55
98	-62	66
260	-49	66
330	8	34
302	80	6
211	119	-27
90	92	-55
-29	-8	-69
-128	-145	-70
-200	-263	-70
-234	-309	-43
-218	-261	-8
-144	-140	-21
-23	6	-25
113	127	5
226	194	37
280	209	22
263	190	18
192	165	-29
98	140	-75
16	112	-46
-35	67	-37
-66	-4	-67
-89	-94	-105
-129	-189	-96
-191	-270	-42
-264	-326	0
-329	-353	20
-347	-349	24
-304	-304	-3
-195	-213	-7
-47	-80	-10
107	81	-26
226	236	-26
271	341	-11
240	364	-25
148	298	-35
26	159	-27
-88	-5	-35
-165	-143	-39
-190	-227	-44
-161	-241	-40
-83	-198	-20
36	-126	2
171	-48	5
291	13	15
360	51	-4
350	69	-15
261	78	-29
119	88	-40
-17	108	-1
-100	138	21
-110	168	26
-63	178	-9
-5	153	-33
21	90	-45
3	2	-64
-41	-81	-90
-74	-129	-96
-68	-131	-61
-33	-90	-24
1	-35	5
-3	8	-11
-56	23	-16
-135	14	-18
-194	5	-30
-194	14	-33
-133	49	-45
-40	98	-51
42	135	-42
81	137	-18
72	101	-3
37	40	22
13	-24	33
16	-62	34
44	-69	30
84	-47	1
116	-13	-13
131	12	-19
128	16	-21
104	-3	-34
54	-38	-83
-14	-78	-103
-87	-108	-60
-139	-120	-32
-145	-109	-16
-98	-75	4
-16	-27	2
48	23	1
51	57	4
-25	69	-15
-157	53	-24
-281	13	-17
-339	-38	-37
-300	-90	-38
-183	-133	-17
-34	-162	13
95	-168	25
183	-153	16
239	-115	-11
290	-60	-41
346	-3	-40
394	47	-36
383	80	-48
275	94	-41
75	99	-17
-177	106	-7
-405	126	3
-530	147	-2
-515	147	2
-377	99	0
-175	-2	-32
24	-140	-56
169	-264	-82
234	-322	-81
236	-270	-79
198	-114	-74
145	94	-44
91	272	-31
42	350	-55
-1	291	-75
-36	128	-66
-65	-75	-34
-89	-233	2
-108	-297	31
-120	-260	58
-125	-162	43
-117	-53	8
-91	29	-25
-48	75	-44
6	101	-46
64	128	-38
118	165	-12
164	201	2
198	219	-6
216	208	-13
212	165	-1
183	110	11
130	57	1
63	21	5
0	2	18
-45	-7	4
-71	-6	-18
-84	-1	-44
-95	12	-63
-113	24	-70
-134	23	-77
-151	-6	-67
-151	-71	-86
-130	-155	-84
-96	-233	-43
-57	-265	-46
-29	-248	-21
-12	-177	-7
-4	-89	-23
5	-19	-13
17	15	6
34	12	41
50	0	47
69	0	48
93	22	22
120	56	-14
155	77	-7
190	67	6
216	26	24
222	-22	25
199	-45	-6
152	-19	-35
86	58	-45
10	153	-59
-74	223	-85
-159	231	-88
-246	162	-63
-319	30	-26
-375	-124	-9
-392	-259	-4
-375	-340	0
-308	-352	-16
-194	-305	-40
-44	-216	-36
123	-114	-30
278	-17	-13
383	62	18
406	118	32
325	158	22
163	183	-48
-42	205	-104
-232	219	-112
-351	221	-85
-375	198	-11
-315	139	37
-203	49	47
-85	-61	1
11	-168	-29
74	-240	-17
109	-254	-40
133	-208	-58
154	-116	-83
169	-3	-86
171	100	-83
156	171	-91
126	203	-65
86	193	-44
44	147	-17
1	70	-18
-41	-24	-17
-81	-124	-15
-112	-208	-17
-130	-260	-5
-125	-264	5
-94	-226	-2
-38	-153	-14
36	-64	2
116	22	11
190	99	7
239	164	-3
250	218	-7
221	261	3
151	279	10
57	261	5
-40	202	-17
-117	109	-10
-163	0	12
-178	-99	1
-170	-167	-9
-158	-195	-18
-145	-183	-19
-136	-148	3
-122	-97	-10
-94	-46	-46
-40	-4	-64
35	24	-71
127	31	-58
221	17	-40
291	-18	-20
322	-60	8
291	-98	24
198	-105	37
64	-72	48
-70	-4	42
-166	83	11
-191	159	-55
-150	195	-101
-67	174	-101
8	98	-80
44	-5	-50
26	-104	-19
-28	-158	-32
-85	-149	-53
-120	-84	-64
-130	9	-90
-129	82	-86
-134	100	-70
-150	39	-48
-161	-83	-26
-138	-225	-18
-67	-330	-2
38	-354	13
131	-282	33
161	-139	36
95	24	36
-55	158	51
-231	233	33
-348	251	3
-352	241	-37
-239	233	-62
-61	237	-82
101	232	-95
180	193	-85
158	101	-72
66	-26	-52
-22	-145	-38
-47	-213	-21
13	-205	-15
130	-143	-6
245	-72	5
311	-35	5
300	-41	29
230	-62	32
144	-57	-8
87	3	5
72	106	27
96	213	18
131	267	7
143	248	-17
123	177	-12
67	97	-35
-6	49	-53
-80	35	-37
-136	27	-41
-168	-24	-50
-178	-137	-59
-170	-286	-46
-151	-409	-46
-121	-441	-46
-91	-352	-44
-58	-173	-33
-30	30	-11
-11	188	-17
-5	261	-22
-12	249	-38
-26	187	-33
-37	110	-9
-34	38	12
-15	-29	19
20	-92	13
56	-148	1
81	-183	0
85	-177	32
66	-131	13
36	-60	-45
8	5	-62
-5	44	-54
-5	54	-36
0	48	-30
2	52	-25
-14	76	-18
-42	114	-21
-77	149	-30
-102	159	-50
-108	136	-63
-89	85	-56
-49	19	-43
-3	-47	-21
42	-103	-9
80	-141	-6
101	-162	1
104	-159	-11
85	-138	-21
40	-106	-13
-22	-74	-17
-98	-47	-27
-170	-27	-40
-223	-4	-50
-247	29	-67
-236	71	-79
-199	106	-60
-142	117	-59
-76	90	-49
-4	34	-21
65	-21	-6
127	-46	7
171	-29	38
184	22	52
171	72	23
138	98	12
109	83	10
104	51	-9
136	39	-26
201	64	-25
271	120	-14
317	170	-24
302	170	-33
216	92	-37
74	-45	-43
-96	-192	-50
-256	-292	-70
-366	-309	-59
-407	-249	-43
-366	-155	-32
-262	-71	-11
-126	-24	-12
8	-5	-17
109	13	-13
151	56	-5
132	121	-15
68	182	-32
-10	199	-36
-80	153	-39
-115	56	-19
-113	-54	-1
-80	-131	-9
-31	-158	-16
15	-134	-12
48	-100	-5
60	-87	-7
56	-109	-19
35	-153	-28
10	-182	-41
-19	-166	-20
-39	-91	22
-44	21	49
-28	138	53
13	227	34
78	265	9
151	262	-39
210	227	-54
234	174	-42
201	110	-32
115	43	-43
-3	-21	-59
-119	-76	-50
-195	-105	-57
-222	-102	-60
-199	-69	-66
-157	-25	-48
-123	8	-27
-113	17	-2
-118	-2	19
-118	-27	12
-92	-36	-16
-37	-11	-47
28	43	-64
78	99	-93
97	123	-85
82	88	-38
52	-7	1
30	-133	41
28	-242	66
42	-289	47
57	-257	13
62	-159	-27
52	-37	-59
41	61	-80
36	106	-88
41	103	-70
50	79	-53
49	68	-35
34	97	-23
9	153	-38
-14	201	-47
-22	197	-47
-13	119	-41
2	-21	-40
17	-177	-56
31	-294	-50
52	-333	-19
86	-288	0
116	-191	23
113	-84	33
36	1	49
-118	50	65
-318	83	48
-470	117	18
-489	164	-29
-337	211	-48
-50	237	-56
262	213	-78
470	138	-47
494	35	-13
351	-60	28
138	-112	31
-21	-112	2
-61	-71	-18
-2	-26	-40
66	-3	-43
44	-13	-50
-99	-45	-51
-314	-77	-55
-480	-88	-56
-496	-72	-42
-343	-46	-21
-88	-23	-9
150	-13	4
265	-12	18
228	-5	18
90	13	-12
-56	40	-39
-136	53	-34
-124	26	-17
-51	-43	-3
31	-144	-6
91	-229	10
125	-249	21
151	-175	16
182	-19	-13
212	166	-52
218	311	-79
184	353	-92
107	277	-69
14	106	-57
-63	-89	-35
-107	-243	-19
-117	-306	-16
-110	-268	-4
-105	-166	1
-105	-43	-4
-97	52	-9
-70	104	-12
-19	116	-14
44	116	-27
98	127	-26
124	156	-8
124	191	-36
106	205	-80
83	179	-87
58	110	-48
29	15	-8
-8	-76	-2
-56	-133	0
-96	-145	-11
-115	-121	-38
-102	-77	-80
-67	-32	-94
-34	1	-96
-19	26	-65
-29	45	4
-49	62	42
-55	76	48
-31	81	32
18	74	22
65	62	9
75	57	4
29	59	-11
-62	68	-15
-166	65	-12
-236	30	-31
-240	-42	-25
-170	-143	-26
-52	-238	-42
77	-295	-70
183	-288	-61
245	-225	-37
265	-125	-42
253	-28	-33
221	39	-10
181	70	-9
135	75	-19
81	76	-5
17	85	11
-49	103	20
-109	117	22
-147	109	8
-159	69	-12
-148	3	-18
-134	-68	-8
-136	-120	-5
-162	-135	-9
-209	-113	-18
-248	-70	-41
-250	-29	-80
-191	-12	-90
-72	-25	-79
80	-65	-77
229	-114	-62
334	-151	-47
373	-158	-2
350	-126	20
283	-58	12
192	32	19
97	127	15
8	203	13
-70	241	-17
-133	230	-50
-172	171	-52
-180	82	-34
-163	-21	-21
-133	-113	-23
-109	-179	-12
-100	-206	3
-102	-190	-3
-101	-134	-26
-74	-50	-14
-6	43	-32
103	117	-68
234	150	-74
354	130	-87
429	64	-84
428	-13	-50
331	-66	-7
139	-68	30
-117	-19	32
-389	57	19
-610	125	16
-719	153	-4
-688	132	-23
-526	81	-44
-287	26	-77
-44	-12	-62
142	-25	-35
252	-23	-6
291	-22	24
292	-30	22
285	-41	9
280	-45	-13
270	-28	-44
245	6	-66
211	45	-46
172	68	-32
147	67	-22
122	41	-7
79	6	-10
-8	-23	-7
-137	-35	-6
-276	-29	9
-371	-15	22
-372	-5	25
-279	-15	13
-133	-40	-27
-5	-77	-59
52	-110	-76
27	-126	-80
-38	-122	-66
-81	-93	-57
-58	-53	-38
23	-13	-21
120	21	3
175	45	40
167	66	34
107	86	11
49	103	-2
35	107	-20
70	98	-43
127	71	-64
156	38	-69
121	18	-42
28	20	-33
-86	47	-26
-170	77	-46
-190	76	-66
-145	20	-41
-63	-93	-32
15	-225	-4
64	-326	26
72	-340	26
51	-250	-19
18	-83	-59
-10	101	-42
-19	224	-26
-10	243	-20
16	155	-8
42	15	-12
60	-114	-10
58	-171	7
35	-144	-2
-4	-60	-16
-45	29	-19
-76	79	-28
-88	74	-36
-83	33	-20
-68	0	-32
-50	6	-54
-35	56	-45
-22	129	-32
-12	183	-34
-6	186	-32
-5	127	1
-11	32	8
-21	-67	12
-32	-136	0
-41	-154	-39
-38	-126	-53
-23	-70	-59
6	-6	-53
41	50	-48
77	88	-47
94	101	-36
85	89	-7
50	53	0
3	7	-16
-36	-41	-20
-44	-76	-27
-10	-93	-12
47	-97	11
100	-100	8
113	-115	14
77	-145	15
1	-179	14
-74	-199	19
-119	-192	-8
-123	-159	-40
-94	-108	-77
-57	-60	-101
-30	-23	-102
-10	5	-106
15	34	-91
56	77	-33
101	127	24
125	171	40
100	192	39
19	174	12
-95	121	-7
-195	57	-31
-239	6	-53
-212	-24	-38
-139	-32	-8
-63	-35	19
-15	-39	23
-4	-43	7
-8	-33	-21
-1	8	-45
33	80	-55
86	160	-56
131	215	-25
143	221	1
121	171	11
82	93	11
51	23	7
44	-9	8
62	7	-12
84	49	-33
94	88	-51
85	95	-52
62	64	-56
35	9	-62
9	-49	-46
-20	-91	-44
-54	-114	-43
-91	-122	-23
-110	-124	10
-92	-119	13
-30	-102	4
58	-72	14
139	-32	8
178	4	-5
151	22	-26
68	14	-48
-44	-21	-69
-154	-64	-56
-233	-104	-26
-272	-127	-9
-271	-130	0
-234	-117	-1
-166	-87	-4
-72	-43	-10
22	7	-18
90	51	-48
109	79	-56
75	71	-42
6	34	-44
-50	-21	-54
-63	-75	-63
-22	-109	-72
47	-123	-80
100	-121	-59
101	-118	-47
43	-111	-32
-38	-92	-6
-95	-48	32
-92	27	69
-26	114	78
68	183	67
143	202	29
165	160	-2
130	77	-30
64	-13	-64
4	-69	-88
-29	-78	-58
-30	-45	-27
-14	0	-4
6	39	7
21	59	-30
39	66	-42
70	70	-65
114	71	-62
155	64	-64
167	35	-69
126	-12	-40
27	-61	-22
-111	-88	1
-249	-68	3
-344	-11	-9
-364	65	-19
-302	119	-11
-180	126	-22
-34	88	-41
94	26	-38
175	-22	-15
202	-37	29
184	-13	36
148	29	24
119	65	-4
104	79	-17
100	65	-10
85	39	-18
45	12	-13
-15	-4	-19
-78	-13	-28
-108	-15	-41
-88	-16	-42
-26	-19	-34
42	-25	-48
79	-40	-51
53	-64	-27
-26	-106	-8
-118	-153	-19
-185	-190	-21
-202	-198	2
-180	-163	13
-151	-93	0
-141	-3	-26
-149	78	-35
-143	129	-27
-91	139	-14
22	119	-7
163	81	12
279	38	29
314	5	-4
257	-16	-57
140	-29	-59
26	-41	-80
-33	-61	-112
-28	-95	-89
11	-137	-71
38	-173	-60
20	-177	-52
-37	-130	-47
-98	-32	-36
-130	93	-22
-124	198	-29
-91	238	-50
-65	194	-31
-63	81	-14
-74	-46	-6
-71	-131	1
-32	-144	16
40	-94	35
119	-23	32
167	24	32
164	22	31
118	-13	33
63	-40	3
29	-26	-26
28	40	-30
46	129	-37
58	197	-30
51	206	-30
28	154	-58
13	68	-72
24	-3	-56
64	-27	-26
111	0	-10
135	58	5
115	104	16
57	110	-4
-15	68	-12
-77	-5	-4
-111	-82	14
-127	-144	19
-142	-183	12
-170	-199	-8
-207	-198	-30
-232	-173	-48
-221	-117	-46
-164	-27	-33
-79	85	-58
4	191	-72
49	256	-82
38	244	-114
-23	154	-113
-107	-8	-76
-175	-198	-40
-195	-373	4
-154	-485	23
-62	-510	15
50	-444	5
154	-304	-8
211	-122	-11
210	56	-15
154	190	-18
67	261	-17
-12	269	-15
-52	237	-12
-43	195	-5
4	165	4
55	147	3
80	130	16
66	97	21
20	41	9
-20	-19	12
-27	-59	1
12	-59	-20
83	-20	-38
151	35	-71
183	72	-97
159	70	-99
89	33	-66
-5	-11	-32
-97	-31	-19
-172	-15	-3
-221	24	14
-243	54	10
-237	48	-6
-195	-1	-37
-115	-68	-57
-12	-124	-40
86	-142	-34
156	-123	-26
180	-81	-17
166	-35	-27
136	5	-38
117	48	-45
122	101	-30
140	165	-10
149	215	2
128	233	5
81	193	-1
20	106	-6
-26	7	-10
-37	-69	-3
-15	-102	-5
29	-96	-30
72	-79	-40
98	-74	-9
98	-90	-3
68	-103	-14
13	-89	-13
-66	-31	-22
-156	51	-34
-235	124	-46
-275	153	-38
-256	115	-34
-176	34	-36
-62	-54	-32
40	-116	-49
85	-135	-53
47	-125	-8
-52	-110	15
-170	-108	32
-241	-113	22
-234	-108	-12
-148	-75	-18
-21	-13	-32
91	56	-24
156	106	-2
171	114	1
165	88	1
166	50	-21
194	31	-35
228	35	-49
237	50	-63
189	48	-55
79	12	-48
-60	-52	-34
-191	-122	-35
-272	-160	-48
-295	-154	-43
-277	-111	-56
-246	-58	-76
-221	-19	-52
-202	1	-20
-178	16	4
-133	43	18
-66	87	9
10	128	-15
86	135	-57
154	85	-75
209	-16	-59
252	-144	-25
271	-249	-4
258	-303	4
199	-294	38
102	-240	64
-5	-168	55
-85	-97	25
-107	-34	-6
-69	26	-49
5	90	-85
93	155	-91
169	213	-88
229	256	-66
273	274	-23
292	267	0
263	237	4
159	183	-12
-32	116	-23
-273	41	-14
-493	-28	0
-618	-75	24
-601	-94	14
-455	-86	24
-255	-64	32
-81	-44	-1
14	-28	-36
35	-13	-57
26	14	-68
44	53	-83
110	92	-74
203	104	-67
279	76	-68
291	5	-68
237	-86	-53
139	-157	-25
42	-183	-12
-27	-156	6
-64	-99	22
-92	-40	14
-123	0	-15
-155	15	-27
-163	26	-16
-125	43	-5
-35	71	25
79	97	36
176	104	7
223	85	-3
206	49	-25
140	16	-59
63	-2	-70
1	-3	-63
-34	-1	-63
-51	-12	-59
-61	-42	-35
-70	-88	-27
-69	-131	-27
-46	-168	-11
5	-188	9
84	-189	5
166	-166	0
225	-102	0
233	9	-17
178	162	-25
61	319	-20
-88	427	-15
-235	428	-15
-335	305	-15
-356	93	-22
-291	-142	-43
-159	-320	-55
-5	-393	-55
115	-364	-37
167	-273	-15
144	-175	1
69	-105	9
-16	-71	10
-74	-50	-4
-90	-21	-16
-69	30	-28
-29	88	-40
13	130	-24
54	138	-17
97	114	-19
144	72	-20
190	34	-14
203	11	4
157	0	9
39	-6	2
-135	-8	-6
-321	-1	-2
-450	28	-15
-459	83	-51
-337	154	-62
-110	213	-54
147	229	-33
346	186	-14
423	98	-18
360	2	-19
203	-60	-36
24	-62	-62
-104	-14	-35
-141	41	-2
-96	58	-12
-8	4	-20
67	-108	-20
99	-235	-46
81	-316	-47
31	-317	-35
-23	-241	-32
-65	-131	-37
-93	-44	-42
-110	-11	-30
-122	-25	-25
-130	-44	-16
-130	-28	-5
-121	36	4
-106	130	2
-91	200	-1
-85	205	-1
-84	131	-38
-78	10	-47
-53	-109	-33
-5	-180	-32
62	-182	-30
132	-134	-50
188	-67	-87
226	-17	-105
248	10	-80
268	24	-56
285	39	-24
287	70	-16
245	113	-9
133	159	12
-46	191	16
-258	201	16
-436	181	-22
-523	121	-33
-481	21	-21
-329	-113	-2
-132	-254	-1
40	-368	-15
142	-407	-15
172	-344	6
171	-187	33
182	20	38
226	213	53
278	337	59
290	365	46
221	319	0
72	236	-47
-107	157	-79
-244	99	-113
-285	50	-126
-226	-11	-110
-110	-105	-81
-11	-217	-51
25	-314	-7
-8	-353	0
-78	-311	-2
-130	-201	-5
-128	-64	-6
-70	49	4
17	112	4
99	120	8
151	99	-11
170	85	-28
156	95	-21
118	126	-18
62	158	-19
-7	168	-17
-79	149	-36
-131	97	-57
-152	34	-42
-135	-32	-6
-94	-86	6
-47	-124	-5
-8	-136	-15
20	-113	-33
50	-55	-59
90	25	-72
129	103	-77
150	145	-54
127	127	-25
66	52	-5
-20	-47	13
-95	-134	4
-130	-170	-21
-115	-149	-40
-62	-92	-34
3	-39	-6
65	-18	25
124	-32	23
175	-61	10
216	-79	18
219	-66	-3
162	-26	-24
33	23	-30
-124	59	-31
-252	80	-32
-285	83	-49
-210	81	-71
-68	71	-93
52	46	-82
78	-5	-32
-10	-81	-18
-159	-158	-18
-274	-200	-24
-277	-179	-30
-148	-98	-21
52	11	-30
228	92	-31
300	110	-28
245	65	-23
111	-5	11
-31	-47	10
-124	-29	-5
-156	53	-10
-144	159	-15
-122	233	-4
-99	244	-14
-69	193	-40
-28	103	-31
29	11	-5
76	-57	-10
87	-100	-27
61	-125	-28
22	-141	-27
5	-147	-25
34	-133	-12
99	-99	2
158	-45	4
170	3	4
118	27	30
26	22	51
-58	-2	32
-91	-27	-7
-64	-37	-52
-11	-27	-72
32	-4	-103
35	15	-132
-1	24	-97
-48	27	-24
-79	34	12
-81	43	20
-62	53	5
-41	50	-15
-25	22	-32
-5	-21	-62
24	-57	-80
71	-61	-71
116	-28	-66
133	28	-46
106	75	6
36	76	15
-48	30	7
-115	-42	2
-137	-88	-8
-118	-71	-13
-74	10	-32
-30	118	-46
-2	194	-27
9	189	-26
12	96	-26
19	-44	-8
29	-166	-4
46	-208	1
62	-154	-15
75	-37	-12
77	81	-10
62	138	-20
26	114	-21
-26	20	-35
-78	-94	-19
-106	-180	-19
-97	-211	-22
-59	-186	-30
-22	-122	-42
