File Name: not saved
Channel 2: 'Channel 2', 31710 values, raw ADC, no filters.
Channel 3: 'Channel 3', 31710 values, raw ADC, no filters.
Channel 4: 'Channel 4', 31710 values, raw ADC, no filters.

-137	-116	98
-135	-55	72
-111	-18	40
-65	-6	31
-10	-9	-8
51	-6	-40
106	16	-86
140	58	-96
151	109	-48
139	143	-29
107	143	-128
63	103	-183
15	34	-138
-32	-40	-133
-77	-97	-77
-115	-118	-22
-141	-101	5
-153	-55	32
-143	1	24
-112	51	49
-60	80	80
-1	77	70
57	50	60
104	10	23
131	-24	-27
138	-35	-34
122	-14	48
91	30	116
48	71	138
2	84	170
-44	50	154
-85	-17	71
-112	-96	-69
-127	-143	-201
-126	-138	-239
-109	-91	-257
-78	-20	-339
-35	34	-328
12	56	-173
57	51	-2
90	41	76
110	47	62
112	71	46
98	100	-32
74	102	-104
38	63	-69
0	-11	34
-42	-91	64
-80	-144	22
-108	-154	13
-124	-125	47
-121	-81	40
-102	-45	-76
-64	-30	-112
-18	-24	-57
29	-11	22
71	21	70
100	72	37
113	122	-60
107	150	-83
90	134	-74
60	80	-89
23	0	9
-15	-82	49
-51	-140	119
-81	-162	178
-101	-138	137
-104	-80	65
-93	2	13
-65	84	-24
-27	142	-84
18	161	-49
64	131	-107
102	65	-151
127	-11	-124
132	-69	-133
120	-88	-117
89	-67	-68
43	-26	7
-4	3	20
-52	-1	-11
-88	-45	-27
-111	-113	10
-120	-167	-22
-117	-181	-92
-102	-142	-101
-77	-66	-117
-38	15	-112
8	76	-70
56	100	-7
94	98	3
118	85	5
118	79	-4
100	82	19
65	84	72
24	67	46
-18	27	49
-56	-26	72
-87	-76	23
-111	-103	-55
-121	-99	-20
-118	-70	19
-100	-35	7
-65	-7	28
-21	12	50
27	28	70
71	49	77
107	77	11
125	103	-138
123	114	-211
102	101	-282
61	61	-290
13	3	-96
-37	-55	-42
-81	-103	-11
-107	-129	89
-119	-136	61
-112	-126	47
-92	-104	54
-62	-71	105
-28	-30	134
11	21	113
46	77	47
74	128	-70
91	165	-61
94	183	37
86	180	86
69	156	22
48	110	-179
24	47	-255
-6	-32	-119
-35	-120	-27
-66	-197	22
-90	-248	20
-103	-249	-38
-96	-199	-78
-70	-109	-138
-32	-2	-111
10	85	-93
44	137	-39
69	145	59
78	127	33
79	99	-15
71	70	-68
57	41	-98
37	1	-88
6	-58	-121
-33	-129	-182
-77	-185	-100
-115	-203	24
-135	-173	16
-130	-103	15
-99	-29	125
-49	22	176
8	35	131
61	30	77
102	31	6
127	62	-1
136	123	-33
131	181	-66
111	199	-75
80	155	-36
34	62	24
-21	-41	15
-71	-116	21
-115	-136	4
-138	-114	-70
-141	-77	-79
-128	-52	-24
-100	-51	-5
-64	-58	47
-20	-48	46
27	-7	-32
75	55	-91
115	117	-99
139	149	-98
138	136	-142
111	91	-142
65	31	-108
7	-18	-30
-48	-55	43
-95	-80	52
-126	-101	29
-140	-121	-27
-136	-132	-55
-113	-123	-40
-74	-85	-43
-21	-24	-11
35	42	14
86	96	27
122	125	-14
136	129	-71
131	115	7
107	93	57
71	62	138
28	23	186
-14	-23	150
-56	-70	222
-93	-111	182
-120	-133	-23
-133	-129	-284
-129	-105	-437
-107	-66	-395
-69	-27	-357
-22	12	-256
30	51	-84
78	88	58
115	121	105
135	136	59
137	126	5
118	82	-48
82	13	-57
28	-63	-80
-30	-126	-50
-90	-153	32
-140	-137	65
-172	-82	87
-178	-8	87
-154	62	69
-102	104	100
-31	99	105
44	51	83
109	-22	49
151	-87	20
165	-108	10
153	-69	-102
123	16	-123
86	110	-64
47	159	-45
8	129	-26
-29	22	-63
-68	-119	-80
-104	-235	-90
-131	-272	-109
-142	-218	-105
-133	-103	-46
-101	13	-19
-52	85	-6
4	103	22
58	84	20
104	68	13
132	83	12
141	123	40
129	160	37
98	158	12
51	106	-113
-1	19	-254
-54	-64	-163
-101	-119	42
-135	-127	115
-151	-109	60
-148	-83	-33
-123	-66	-88
-82	-60	-68
-28	-44	-96
26	-8	-46
76	45	-23
107	98	26
121	126	134
116	115	101
97	71	45
67	21	-45
35	-19	-99
-2	-36	-38
-39	-39	60
-74	-45	67
-99	-59	17
-110	-82	-48
-105	-94	-100
-80	-83	-140
-41	-43	-115
2	8	7
42	53	63
75	77	116
95	72	119
101	59	24
97	43	-94
79	37	-135
47	31	-173
6	16	-235
-41	-14	-254
-85	-59	-251
-118	-106	-88
-133	-137	21
-128	-143	90
-107	-121	175
-74	-78	184
-32	-21	151
11	32	108
54	75	28
91	95	-63
119	91	-106
131	65	-152
122	36	-206
95	15	-228
54	11	-114
7	19	10
-37	20	82
-75	-3	103
-100	-58	94
-112	-129	72
-111	-176	65
-97	-168	59
-67	-92	18
-28	25	-24
18	135	-81
66	191	-127
105	171	-150
127	102	-114
132	23	-62
114	-14	-3
78	6	12
27	62	28
-28	114	13
-82	113	-27
-123	47	-7
-145	-65	9
-148	-176	29
-128	-238	23
-91	-222	38
-41	-124	49
14	11	48
66	139	46
115	211	81
148	208	130
159	131	152
147	25	104
110	-64	-108
56	-108	-207
-4	-92	-278
-59	-47	-369
-101	-13	-357
-125	-22	-282
-132	-71	-138
-126	-133	-39
-108	-161	79
-79	-127	130
-38	-41	152
9	65	150
58	141	115
99	162	44
121	131	0
122	79	-24
101	35	-135
65	18	-122
23	16	-55
-18	4	-30
-56	-31	-28
-92	-88	-36
-119	-137	-74
-134	-159	-90
-131	-139	-74
-111	-87	-20
-74	-22	106
-26	33	56
21	74	-70
65	98	-88
97	110	-75
117	109	-49
124	88	-25
114	43	0
86	-11	49
42	-57	104
-7	-83	118
-58	-81	109
-96	-69	61
-113	-66	22
-114	-82	4
-100	-105	-84
-77	-111	-202
-47	-82	-193
-13	-16	-123
25	59	-49
67	113	63
104	126	52
129	102	46
135	70	36
122	51	-27
90	56	-78
44	63	-135
-6	49	-59
-56	4	10
-97	-62	-24
-121	-116	-3
-124	-130	-5
-103	-100	3
-63	-46	26
-15	3	-35
28	30	-78
62	39	-42
82	48	-37
91	71	-38
91	103	-2
82	120	6
63	100	62
32	39	43
-10	-38	-25
-56	-101	-81
-100	-121	-122
-126	-101	-67
-137	-65	-3
-126	-41	-43
-101	-40	-42
-61	-52	3
-16	-48	-14
31	-13	-67
75	49	-101
107	109	-22
125	137	-8
121	119	-8
100	65	54
63	7	46
19	-37	24
-24	-53	0
-67	-57	21
-103	-68	-3
-129	-91	-86
-141	-117	-65
-133	-126	-17
-103	-104	42
-55	-46	72
0	26	99
53	102	126
93	166	80
114	213	-23
121	238	-59
115	228	-26
102	168	-97
78	47	-181
44	-110	-275
-2	-257	-257
-52	-342	-120
-101	-325	-15
-136	-224	104
-144	-86	163
-126	17	127
-85	45	20
-34	12	-78
17	-33	-92
57	-34	-104
86	29	-185
104	129	-227
111	203	-189
109	197	-106
93	109	-46
61	-18	99
15	-117	150
-38	-143	-30
-89	-99	-106
-125	-25	-104
-141	20	-79
-135	16	15
-108	-27	80
-67	-63	56
-20	-62	24
30	-15	-16
75	51	-39
107	99	-23
123	106	-57
120	81	-27
97	50	86
60	38	129
22	41	113
-14	41	86
-41	11	53
-60	-48	0
-80	-113	-42
-93	-137	-44
-102	-99	-108
-94	-7	-76
-66	90	-13
-20	138	-4
37	114	39
90	34	-9
125	-45	-25
132	-76	-3
117	-36	-21
85	37	-11
46	85	-9
7	63	-63
-34	-26	-106
-71	-138	-62
-108	-210	1
-134	-202	30
-142	-121	13
-125	-23	-42
-83	39	-72
-27	41	-61
32	7	-72
78	-17	-40
107	6	8
119	71	8
117	142	-21
102	166	-62
76	119	-66
39	24	34
-8	-70	143
-60	-121	152
-109	-113	170
-147	-72	102
-163	-38	-41
-159	-35	-169
-130	-54	-214
-88	-68	-217
-30	-48	-288
34	10	-211
95	78	-109
145	126	-124
174	130	-112
175	102	-37
153	61	45
106	32	91
48	21	183
-17	14	242
-75	-2	210
-121	-26	103
-152	-36	-40
-163	-13	-76
-152	41	-58
-118	99	-56
-68	112	-148
-7	50	-238
53	-76	-176
105	-208	-201
138	-274	-325
148	-232	-185
132	-96	63
100	60	93
55	155	111
9	131	82
-34	13	30
-71	-133	-36
-101	-227	-92
-118	-217	-6
-122	-124	38
-109	-4	75
-82	72	65
-39	85	40
9	50	1
52	19	6
86	29	22
101	81	-23
101	137	-12
87	156	-18
65	118	-31
40	40	3
9	-34	65
-24	-70	91
-60	-62	119
-95	-33	111
-119	-13	12
-125	-21	-82
-108	-46	-170
-71	-63	-267
-22	-47	-249
27	-1	-139
65	57	-10
88	99	87
96	109	116
94	96	136
85	72	140
74	53	103
54	32	33
25	-1	-52
-17	-56	-138
-65	-122	-207
-108	-173	-236
-134	-184	-185
-132	-144	-54
-104	-77	104
-58	-9	140
-5	29	95
39	37	8
74	33	-41
94	43	-96
104	79	-247
101	122	-211
87	147	-24
58	123	112
17	56	178
-31	-26	130
-80	-92	-47
-114	-114	-215
-129	-102	-256
-120	-78	-158
-95	-64	-40
-58	-65	9
-15	-60	80
32	-28	99
81	35	98
124	106	102
157	150	4
165	141	-25
144	83	54
96	9	125
27	-44	162
-42	-54	29
-98	-36	-157
-132	-17	-214
-142	-26	-262
-135	-63	-227
-119	-103	-190
-94	-113	-150
-60	-76	-13
-16	-8	87
36	58	245
89	93	290
129	89	211
145	77	102
133	83	-96
99	119	-292
49	161	-382
0	166	-301
-44	99	-190
-82	-37	-90
-112	-195	-4
-138	-308	-3
-151	-322	11
-148	-241	54
-118	-105	96
-67	15	162
-4	71	186
57	59	115
105	16	36
130	-6	7
133	17	22
122	79	15
102	133	-117
76	140	-204
42	88	-109
1	-7	-20
-44	-96	-4
-89	-140	65
-119	-129	140
-128	-82	112
-114	-31	32
-78	3	-51
-33	16	-92
12	27	-189
48	51	-331
74	90	-201
89	123	-72
96	127	-48
96	93	-41
83	27	-56
53	-40	-6
10	-86	56
-44	-98	96
-96	-85	61
-136	-66	57
-153	-55	41
-143	-50	1
-112	-38	-55
-63	-7	-60
-8	39	9
44	85	15
89	101	-28
120	80	-23
133	24	51
130	-32	37
109	-65	-13
74	-62	-81
30	-33	-91
-17	-6	-70
-56	-2	-102
-89	-27	-17
-105	-64	38
-109	-90	19
-97	-85	4
-71	-50	-30
-36	-6	-65
6	30	-116
49	47	-123
85	50	-66
107	57	69
114	71	225
102	92	272
72	100	234
34	85	115
-10	42	-25
-48	-12	-170
-81	-59	-307
-103	-89	-360
-113	-94	-336
-114	-88	-262
-103	-79	-131
-82	-71	-43
-49	-57	-34
-7	-27	51
37	19	175
81	74	253
113	115	231
130	129	191
127	110	124
106	76	22
69	37	-45
20	7	-190
-31	-16	-231
-84	-44	-128
-124	-77	-134
-150	-106	-153
-157	-111	-121
-141	-76	-56
-108	-3	-28
-56	78	-9
3	126	35
67	111	-11
122	34	14
157	-66	39
167	-138	91
145	-142	101
101	-76	40
41	17	57
-16	79	-30
-64	66	-129
-100	-14	-150
-122	-119	-147
-135	-190	-49
-136	-187	106
-121	-116	129
-85	-15	142
-25	65	84
42	99	-1
107	94	-59
153	80	-144
169	85	-168
151	106	-204
113	125	-161
60	110	-203
4	54	-270
-49	-17	-118
-99	-72	-13
-133	-84	26
-153	-62	109
-148	-37	130
-118	-46	155
-70	-96	110
-12	-150	-5
40	-161	-27
86	-97	-18
113	26	22
125	155	36
124	225	32
110	200	85
86	98	104
48	-24	57
5	-102	-24
-45	-110	-120
-91	-66	-142
-124	-20	-59
-141	-8	-65
-137	-36	-55
-113	-78	-13
-71	-85	-1
-20	-42	5
32	35	-55
80	110	-19
110	143	48
122	127	114
114	82	84
92	44	-108
56	35	-264
14	45	-248
-28	49	-109
-69	18	8
-100	-55	52
-118	-147	77
-119	-213	79
-105	-223	24
-77	-169	-35
-39	-68	-85
3	38	-43
46	121	-44
85	162	-16
114	168	83
127	142	49
120	106	-60
94	62	-135
49	13	-97
-3	-38	-44
-58	-91	-29
-105	-134	29
-134	-162	85
-148	-166	57
-135	-144	69
-105	-100	38
-53	-36	-9
7	35	-63
67	100	-143
115	143	-147
140	157	-193
143	138	-248
124	97	-273
91	48	-193
51	1	-78
9	-34	-56
-32	-62	-30
-75	-87	7
-110	-106	32
-136	-119	40
-144	-120	97
-132	-106	110
-101	-78	87
-58	-44	49
-15	-11	34
27	21	62
58	48	78
85	76	152
102	101	169
107	122	123
104	129	23
82	120	-14
48	93	-38
3	51	-156
-42	3	-235
-83	-48	-248
-112	-94	-121
-123	-120	-62
-115	-127	5
-83	-103	104
-32	-60	139
30	-6	155
93	41	124
135	77	112
151	101	-8
133	119	-197
97	136	-326
52	138	-260
14	108	-104
-14	23	-41
-39	-106	-7
-63	-244	19
-91	-334	37
-116	-332	19
-128	-231	-54
-116	-70	-82
-82	77	8
-32	153	84
20	139	69
61	70	79
89	6	97
104	-7	2
105	37	-55
99	103	-40
80	137	-63
48	110	-92
5	30	-128
-45	-59	-210
-92	-118	-106
-126	-122	58
-140	-90	4
-135	-50	-24
-110	-32	-43
-72	-33	-74
-27	-32	-40
25	-9	-64
72	44	-103
109	106	-64
127	143	-10
127	136	42
105	85	64
66	20	90
20	-34	85
-31	-61	-12
-77	-67	-64
-112	-67	-33
-130	-72	-83
-129	-86	-52
-108	-88	100
-70	-70	107
-29	-28	105
15	26	62
50	71	-130
82	97	-273
104	101	-302
118	95	-256
119	81	-144
102	63	-24
63	35	63
11	-9	78
-50	-63	5
-102	-114	-25
-135	-141	-17
-145	-136	13
-135	-100	48
-108	-46	34
-70	2	50
-23	36	91
29	52	125
84	56	104
132	50	40
163	43	-63
171	35	-130
154	29	-102
115	27	-43
65	24	39
12	18	69
-35	4	68
-78	-20	24
-112	-48	-47
-135	-72	-34
-141	-82	30
-128	-71	-38
-95	-50	-197
-47	-24	-189
3	1	-88
44	30	-63
71	64	-32
83	106	-8
83	137	-15
76	142	-7
61	100	-17
36	16	2
1	-85	14
-46	-166	5
-93	-192	-13
-130	-165	-47
-145	-103	-58
-133	-44	-68
-97	-13	-33
-46	-6	30
8	-11	49
58	2	48
102	37	-10
132	85	-67
149	119	29
145	123	140
121	100	151
77	62	150
20	34	44
-37	18	-100
-84	4	-162
-112	-27	-196
-124	-80	-287
-120	-135	-324
-105	-171	-294
-82	-157	-130
-46	-96	39
-4	-9	63
42	63	108
85	96	-2
108	91	-98
109	65	-84
90	49	-92
58	49	-30
20	56	122
-12	43	170
-43	-5	49
-72	-82	-36
-100	-155	-46
-123	-186	-45
-130	-160	-105
-111	-87	-38
-63	-2	101
3	61	119
72	88	101
128	83	13
158	74	-63
160	78	-90
139	98	-102
106	115	-61
64	109	-2
18	83	17
-33	48	32
-90	33	-4
-139	43	-72
-170	60	-63
-173	51	-45
-150	-9	26
-102	-111	32
-44	-214	-5
11	-256	-51
58	-206	-134
98	-84	-103
127	51	-46
145	125	34
147	110	95
128	25	93
88	-66	82
33	-111	54
-23	-86	37
-74	-28	-17
-109	6	-86
-130	-19	-167
-135	-92	-222
-128	-154	-176
-103	-151	-144
-58	-61	-76
0	76	32
61	191	42
114	228	56
139	174	39
132	72	13
99	-15	35
49	-39	42
0	-7	45
-40	37	41
-66	52	42
-83	14	-11
-91	-55	-48
-92	-114	-95
-87	-125	-115
-71	-84	-54
-47	-16	-36
-14	44	-30
23	75	-81
59	81	-68
91	77	19
113	81	49
119	89	87
106	85	93
74	54	49
27	-5	43
-27	-70	-23
-79	-120	-179
-118	-135	-234
-138	-119	-195
-139	-93	-72
-125	-76	-35
-97	-72	-26
-57	-72	34
-10	-55	43
39	-12	142
87	51	82
120	110	-105
132	140	-201
122	134	-205
91	98	-102
45	51	-11
0	10	32
-38	-24	14
-66	-59	51
-86	-97	55
-94	-136	3
-97	-160	22
-89	-152	-23
-68	-106	-62
-36	-32	-83
10	41	-117
58	96	-106
102	114	3
127	106	155
132	89	123
117	70	82
81	59	47
34	45	-95
-15	23	-150
-61	-9	-139
-98	-43	-82
-121	-69	-35
-126	-81	-37
-116	-80	-90
-90	-72	-130
-55	-61	-10
-18	-44	110
18	-14	118
50	31	80
80	77	12
97	105	-41
103	97	-62
89	56	-46
56	-3	-22
13	-47	32
-31	-60	97
-64	-43	163
-80	-14	194
-76	-4	118
-60	-21	7
-42	-54	-136
-25	-76	-226
-7	-57	-247
16	-2	-269
42	72	-129
74	128	-30
96	142	-69
102	112	-105
84	60	-153
48	13	-110
4	-18	-47
-40	-33	19
-76	-55	29
-101	-90	70
-116	-133	181
-122	-161	213
-113	-154	184
-91	-105	149
-50	-29	60
-1	45	-57
50	95	-132
91	110	-173
115	103	-173
121	95	-186
111	101	-130
90	123	-63
62	145	-8
26	143	-3
-16	99	-11
-59	9	26
-100	-109	26
-125	-226	22
-133	-300	-57
-118	-307	-127
-85	-237	-96
-40	-114	-69
4	21	-122
42	128	-151
72	174	-55
87	165	32
91	116	46
83	63	63
65	26	147
41	5	179
13	-15	104
-19	-48	53
-54	-91	6
-87	-128	-56
-112	-137	-160
-122	-108	-278
-113	-53	-167
-88	-1	2
-44	25	15
3	22	24
51	8	-5
90	12	-1
120	46	25
136	98	21
137	140	64
120	139	84
81	94	111
27	21	152
-37	-39	142
-96	-62	135
-131	-49	125
-136	-22	38
-106	-12	-192
-50	-28	-412
11	-61	-435
56	-81	-375
75	-60	-267
65	2	-181
35	84	-70
7	147	102
-7	166	159
-3	136	110
12	74	77
20	-2	64
7	-78	11
-30	-142	-54
-79	-196	-25
-120	-228	-8
-132	-223	-19
-109	-169	33
-56	-75	22
5	29	0
57	112	-21
95	143	-16
109	130	-12
115	93	-45
117	67	-30
109	69	31
91	90	65
54	104	19
5	84	-10
-50	24	18
-94	-51	8
-117	-111	-33
-119	-130	-88
-103	-112	-180
-79	-72	-144
-53	-42	-84
-28	-28	-71
5	-24	29
42	-11	170
80	29	196
109	88	98
118	143	112
105	164	133
70	133	-55
25	58	-278
-20	-40	-345
-63	-127	-332
-97	-184	-294
-125	-198	-118
-138	-180	-10
-136	-142	-1
-113	-95	87
-68	-47	61
-14	2	54
44	46	112
89	85	119
114	110	152
120	119	167
110	113	94
93	92	-32
68	61	-30
39	23	-44
0	-19	-213
-46	-63	-286
-94	-102	-227
-133	-127	-111
-153	-133	-59
-149	-115	-53
-114	-78	-52
-60	-28	-39
6	21	-32
71	64	-24
123	98	9
155	117	-1
158	127	48
132	122	108
86	106	177
29	77	213
-26	41	159
-70	-1	84
-97	-44	-33
-107	-84	-87
-101	-115	-47
-92	-129	-60
-78	-121	-86
-60	-86	-70
-39	-29	-118
-10	37	-168
24	99	-172
60	142	-98
93	166	-10
111	166	1
116	147	26
101	105	-31
71	37	-84
28	-52	-16
-19	-151	26
-63	-225	56
-98	-249	69
-117	-207	89
-119	-117	72
-101	-21	12
-68	43	-42
-26	50	-39
21	15	-144
63	-26	-292
98	-32	-203
119	8	-118
123	68	-65
107	112	-22
72	99	-32
25	34	6
-28	-51	48
-77	-110	85
-115	-116	91
-132	-75	112
-134	-22	173
-117	8	249
-84	5	271
-37	-13	210
17	-14	138
71	29	-22
115	101	-314
137	169	-535
136	191	-471
113	155	-269
74	72	-124
28	-17	-53
-20	-77	-16
-61	-97	8
-101	-90	-7
-132	-84	-13
-150	-94	26
-152	-115	48
-129	-129	-11
-90	-112	-48
-36	-63	-44
20	5	-37
72	68	31
111	106	116
134	111	121
140	97	110
130	77	53
102	57	-54
58	38	-99
6	9	-170
-47	-28	-204
-94	-71	-121
-125	-105	-20
-138	-116	81
-132	-104	170
-110	-72	222
-75	-37	206
-29	-6	131
18	16	37
67	31	-141
104	46	-282
124	62	-384
123	76	-378
102	75	-164
68	61	-15
34	34	45
8	0	161
-11	-32	228
-21	-56	161
-33	-67	71
-54	-66	38
-81	-49	3
-105	-17	-98
-113	23	-163
-93	66	-134
-42	94	-87
31	98	-10
102	78	3
151	43	-74
162	11	-81
132	-11	-15
75	-21	49
5	-33	54
-58	-56	-13
-108	-98	-16
-138	-142	36
-150	-170	32
-139	-165	-27
-109	-121	-104
-55	-55	-101
7	9	-41
65	56	56
104	83	115
111	97	55
95	110	-5
64	128	-30
41	136	-46
32	119	-63
30	70	-69
22	-5	-158
-11	-81	-243
-64	-135	-112
-127	-153	-30
-172	-140	-43
-178	-110	24
-144	-79	50
-80	-48	49
-12	-6	31
44	51	10
84	123	-4
107	183	-15
127	203	-91
140	168	-98
142	80	14
120	-23	10
71	-105	-14
4	-135	41
-61	-119	57
-108	-81	-39
-126	-56	-105
-120	-63	-99
-101	-89	-32
-79	-107	5
-53	-87	-10
-22	-24	50
19	62	71
68	135	52
115	166	37
143	150	3
140	102	-42
111	53	-90
60	23	-102
5	10	-58
-44	-1	-21
-83	-28	-1
-111	-74	41
-131	-126	61
-137	-160	20
-130	-159	-9
-103	-119	-55
-57	-55	-138
1	9	-221
60	64	-225
110	110	-129
139	153	-49
142	197	-46
123	233	-105
85	229	-50
39	164	48
-10	33	60
-52	-135	41
-83	-288	49
-101	-371	57
-107	-347	32
-102	-232	59
-85	-70	96
-56	72	104
-19	152	58
27	158	29
68	115	35
100	64	-16
111	31	-18
104	24	-70
77	27	-140
40	19	-96
2	-6	-95
-36	-43	-139
-68	-74	-88
-96	-89	1
-114	-85	-71
-118	-70	-107
-105	-57	-50
-72	-43	-32
-27	-21	37
26	14	72
72	61	35
104	104	13
119	126	-62
115	116	-167
101	82	-167
77	38	-52
47	1	74
8	-20	128
-36	-33	120
-82	-49	84
-121	-72	24
-144	-98	-45
-147	-112	-50
-123	-102	21
-86	-63	53
-37	-11	109
15	41	163
61	81	98
102	101	18
132	109	-202
148	108	-457
140	103	-412
114	85	-276
66	51	-275
5	0	-120
-53	-60	143
-103	-115	237
-132	-149	242
-141	-154	205
-130	-136	110
-104	-102	13
-69	-59	-90
-27	-15	-157
15	28	-198
57	65	-148
93	93	-52
114	103	-104
119	95	-103
105	68	-86
75	31	-33
31	-6	87
-15	-43	108
-57	-77	107
-94	-105	95
-119	-120	24
-131	-117	-62
-130	-90	-26
-114	-37	30
-80	29	87
-29	94	51
27	138	-42
85	154	-56
128	138	-187
150	103	-202
144	59	-100
117	12	-16
79	-31	65
32	-69	84
-12	-98	50
-51	-113	-6
-86	-113	-17
-108	-99	-39
-116	-78	-27
-102	-54	-28
-68	-33	-34
-20	-8	13
30	27	37
69	74	24
93	127	-41
96	168	-86
86	175	-62
65	141	-16
43	70	24
19	-19	15
-6	-98	-19
-36	-141	-14
-64	-147	-8
-83	-117	8
-87	-78	71
-76	-46	56
-56	-30	-40
-36	-24	-111
-23	-16	-142
-17	1	-58
-10	31	72
7	61	216
38	81	176
77	83	58
104	66	-36
106	40	-228
72	14	-320
13	-6	-362
-55	-21	-236
-109	-36	-128
-133	-53	-108
-126	-71	-75
-103	-82	-36
-72	-81	52
-41	-62	55
-11	-35	149
26	-1	229
68	29	221
107	53	107
132	70	-17
128	77	-105
100	71	-192
51	48	-130
1	11	-72
-42	-35	-100
-71	-80	-126
-93	-108	-98
-107	-115	-124
-115	-100	-78
-110	-67	43
-87	-24	63
-44	27	37
12	85	-24
69	147	-32
113	193	6
135	205	-6
135	163	-3
117	70	33
84	-46	72
37	-140	128
-17	-167	128
-75	-120	93
-125	-34	46
-159	28	-49
-163	19	-119
-137	-70	-213
-89	-196	-277
-31	-276	-172
24	-251	-82
67	-107	-8
99	93	36
118	259	38
128	318	84
128	251	70
115	111	9
88	-26	-52
50	-98	-69
3	-96	-48
-42	-59	-13
-82	-39	-17
-109	-63	-18
-121	-113	22
-117	-147	26
-96	-123	78
-59	-42	120
-12	59	49
38	134	10
78	151	24
101	119	-27
104	72	-46
87	51	-59
59	68	-44
29	101	47
1	113	11
-28	74	-112
-56	-13	-138
-87	-117	-50
-115	-192	-25
-135	-211	-38
-135	-171	-60
-111	-94	-143
-62	-16	-159
2	42	-134
69	74	-107
121	87	30
151	95	160
152	102	120
132	105	72
96	92	5
52	60	-123
6	11	-207
-42	-43	-145
-89	-90	-66
-128	-121	2
-154	-131	90
-156	-127	97
-132	-109	77
-85	-81	2
-25	-40	-116
36	8	-257
85	56	-328
115	94	-306
126	106	-189
119	91	43
96	51	107
61	7	175
19	-30	206
-26	-47	143
-70	-47	144
-108	-47	38
-130	-54	-44
-136	-81	-84
-121	-109	-57
-88	-123	-37
-41	-103	-30
12	-45	3
65	33	12
109	105	26
133	147	33
138	147	35
121	115	-36
90	70	-53
51	35	-63
8	10	-51
-33	-11	21
-71	-41	48
-105	-80	122
-130	-117	179
-139	-134	70
-125	-113	-70
-90	-60	-178
-35	2	-241
24	48	-176
79	62	-88
115	49	28
128	31	65
122	28	-24
99	41	-107
66	63	-171
29	68	-162
-12	40	-156
-49	-13	-79
-79	-69	-33
-96	-105	-55
-97	-108	4
-83	-83	42
-60	-50	160
-38	-25	222
-21	-7	161
-5	18	147
15	64	113
46	128	18
86	187	-93
123	209	-124
140	171	-30
125	88	16
74	-17	-156
-3	-100	-265
-81	-139	-189
-138	-133	-104
-167	-109	-155
-165	-92	-126
-142	-87	16
-108	-86	62
-65	-65	121
-16	-21	31
41	38	-39
105	89	43
161	105	107
193	88	112
192	52	18
156	27	-43
97	22	-105
27	27	-121
-39	20	-213
-97	-20	-209
-139	-86	-101
-166	-152	-71
-172	-181	49
-152	-153	53
-110	-80	19
-50	7	-20
10	66	-40
59	87	24
90	74	64
101	57	49
97	55	32
86	71	24
69	88	39
44	80	78
8	41	26
-36	-18	-19
-80	-72	-38
-113	-106	-102
-124	-108	-114
-111	-96	-16
-81	-84	54
-39	-75	74
3	-64	32
42	-35	-78
76	17	-127
102	86	-101
118	144	-109
117	166	-70
101	139	-8
66	75	-20
20	-4	21
-30	-75	16
-77	-118	37
-112	-134	66
-133	-132	28
-135	-121	-13
-117	-103	-123
-81	-72	-174
-29	-32	-161
28	14	-125
82	58	-48
121	93	-3
142	113	49
141	127	147
126	138	215
96	152	233
56	154	144
14	132	17
-30	76	-87
-68	-16	-183
-101	-123	-188
-120	-210	-75
-128	-246	91
-126	-217	120
-111	-131	65
-80	-22	-23
-32	75	-127
27	127	-203
87	135	-339
128	110	-365
138	77	-196
116	46	-147
69	20	-103
16	-11	34
-30	-59	76
-62	-116	72
-86	-166	26
-104	-185	46
-116	-162	58
-121	-109	38
-106	-46	42
-67	0	60
-12	23	85
46	33	83
92	45	120
115	76	45
113	113	-80
98	138	-97
78	127	-161
52	80	-190
27	6	-107
-8	-64	-42
-47	-106	-1
-87	-110	-9
-109	-85	-12
-109	-53	-19
-87	-28	-43
-48	-13	-18
-8	0	-15
26	23	-21
50	55	-56
70	89	-69
89	112	8
102	115	53
107	97	61
97	63	43
75	27	55
40	-9	107
3	-44	26
-33	-76	-59
-68	-96	-137
-102	-101	-89
-136	-89	-32
-158	-59	-78
-157	-31	-63
-123	-11	-65
-59	-6	-45
20	-5	-47
91	4	-17
132	29	15
139	71	58
115	106	56
74	116	32
31	84	35
-7	19	18
-41	-53	22
-75	-105	-10
-105	-117	-4
-125	-97	21
-126	-61	16
-102	-35	-8
-55	-29	-64
1	-34	-88
51	-32	-91
88	-5	-151
105	48	-151
106	112	-24
100	158	113
87	162	149
71	122	87
48	51	49
18	-20	34
-17	-68	-58
-54	-84	-205
-87	-76	-131
-108	-66	-36
-111	-72	-135
-98	-96	-133
-63	-114	-61
-17	-105	-54
33	-54	-68
78	27	-52
103	108	-86
110	156	-140
95	145	-104
66	88	-6
33	6	91
-5	-58	120
-40	-90	130
-75	-89	81
-103	-76	6
-124	-75	-67
-129	-86	-172
-113	-99	-155
-80	-92	-66
-31	-51	-44
20	12	44
66	77	37
100	116	17
114	120	44
113	94	56
97	56	-21
67	25	-151
29	0	-136
-17	-21	-151
-62	-50	-83
-102	-82	-63
-128	-106	-27
-134	-104	50
-118	-70	39
-84	-17	65
-36	35	28
17	61	17
64	54	43
103	30	61
125	11	53
132	18	30
122	49	8
95	88	-13
54	110	7
6	105	13
-45	74	-17
-91	36	-70
-118	7	-102
-127	-17	-42
-116	-45	-18
-89	-96	-66
-52	-163	-66
-15	-222	-44
21	-230	-23
54	-171	-15
83	-52	43
107	84	107
123	180	136
124	200	142
107	142	113
69	45	60
18	-39	-21
-39	-83	-119
-91	-79	-209
-130	-54	-225
-152	-36	-165
-150	-37	-96
-126	-48	-173
-85	-45	-172
-29	-17	-100
26	28	-119
75	67	-15
104	81	64
113	69	70
100	48	87
79	39	61
52	50	-16
27	68	-112
4	68	-167
-24	33	-123
-56	-37	-6
-91	-113	50
-116	-159	109
-123	-152	178
-105	-95	164
-62	-19	64
-7	45	5
46	83	2
90	90	-117
115	86	-142
123	82	-198
117	79	-219
99	66	-209
68	35	-123
28	-12	118
-20	-65	167
-65	-105	150
-104	-120	72
-126	-114	74
-130	-99	-31
-124	-84	-111
-105	-67	-103
-79	-46	-66
-40	-9	-27
10	41	-88
65	94	8
116	130	-6
144	135	16
143	110	-39
110	66	-168
54	24	-111
-5	-13	-100
-55	-39	-89
-88	-65	-57
-102	-95	-70
-101	-126	6
-92	-150	61
-80	-145	47
-65	-110	81
-49	-45	57
-24	31	58
8	100	40
53	142	7
105	150	20
150	130	23
172	94	4
158	56	-22
103	26	16
19	3	-6
-66	-15	-16
-133	-35	-25
-163	-60	-88
-155	-92	-102
-124	-121	-119
-86	-136	-62
-52	-126	31
-22	-82	74
11	-5	70
51	85	55
101	162	32
143	197	2
172	177	-59
172	106	-170
144	15	-166
89	-66	-30
16	-109	1
-64	-111	2
-141	-88	20
-195	-64	-49
-217	-60	-139
-197	-76	-165
-139	-90	-77
-60	-81	-35
16	-37	-40
71	32	26
100	100	69
101	139	51
93	138	13
83	104	0
74	56	17
59	15	-4
31	-10	-58
-11	-28	-94
-60	-53	-105
-102	-85	-9
-122	-119	17
-116	-136	29
-91	-123	119
-54	-79	130
-15	-15	180
22	41	100
58	82	-43
93	98	-149
119	101	-303
131	99	-349
118	95	-332
84	81	-207
34	49	-62
-20	-2	48
-65	-62	169
-98	-112	207
-113	-135	190
-117	-126	93
-108	-89	-12
-90	-39	-42
-58	13	-91
-19	66	-128
25	120	-215
66	170	-231
97	201	-50
111	192	2
110	127	54
92	17	92
60	-106	82
19	-195	80
-26	-216	51
-68	-171	36
-99	-94	-43
-112	-39	-51
-108	-43	-54
-86	-106	-43
-56	-182	74
-23	-213	135
10	-162	149
44	-36	35
78	110	-186
107	215	-190
129	233	-74
132	171	-61
117	72	-40
81	-12	-118
29	-48	-201
-29	-43	-155
-87	-23	-124
-136	-17	-43
-172	-31	19
-182	-55	1
-164	-66	2
-116	-51	-61
-47	-19	-63
25	15	26
85	39	98
117	53	129
128	71	110
123	98	95
111	127	63
101	138	-9
80	112	-66
41	45	-35
-20	-41	-45
-91	-116	-44
-156	-154	-43
-191	-147	-28
-184	-114	2
-137	-79	-22
-70	-57	13
-3	-42	33
51	-17	33
90	28	9
115	93	-41
133	150	-84
139	180	-68
131	162	-86
99	104	-122
46	28	-59
-18	-42	-44
-75	-90	-35
-115	-118	29
-132	-127	60
-128	-127	112
-109	-113	194
-80	-80	200
-43	-31	109
1	28	-3
48	79	-96
89	106	-277
117	108	-400
123	93	-352
107	71	-243
76	50	-47
36	31	43
-6	3	37
-45	-36	60
-79	-85	81
-104	-124	155
-119	-142	135
-119	-130	106
-101	-92	113
-68	-42	8
-25	8	-175
19	53	-253
57	97	-176
83	139	-171
97	168	-230
101	169	-218
95	120	-31
80	23	136
51	-101	158
11	-206	222
-41	-254	276
-94	-230	290
-134	-150	201
-150	-58	28
-134	6	-111
-88	24	-238
-25	11	-431
39	1	-512
91	13	-316
120	55	-121
131	99	-35
123	119	21
107	99	51
86	49	120
55	0	115
14	-31	98
-34	-34	79
-80	-29	18
-117	-34	-33
-134	-58	-70
-132	-90	-9
-109	-101	-7
-74	-70	-31
-31	1	19
16	85	50
62	147	36
103	160	-16
128	120	-40
130	55	-52
101	-4	-50
46	-34	-48
-21	-34	-44
-86	-20	17
-126	-18	50
-139	-38	49
-123	-76	79
-93	-112	94
-60	-123	32
-34	-100	-53
-15	-46	-69
-2	19	-33
14	75	-56
34	112	-46
61	123	-1
86	120	-11
107	104	-77
110	81	-116
93	49	-16
54	6	65
1	-42	98
-54	-90	78
-103	-120	-9
-130	-129	-39
-136	-109	-5
-122	-68	-80
-96	-19	-246
-63	28	-225
-23	57	-105
21	64	-98
72	47	-101
122	15	-64
159	-16	-24
172	-32	22
151	-21	71
104	13	1
40	57	-91
-20	85	-70
-64	77	-33
-88	24	28
-95	-60	33
-94	-143	23
-88	-192	-4
-79	-188	-39
-60	-127	-34
-26	-38	-31
17	49	-15
63	109	-13
101	131	11
121	122	68
118	99	118
93	71	86
51	42	-4
3	11	-95
-47	-29	-102
-95	-76	-111
-131	-119	-154
-151	-141	-97
-150	-125	-97
-125	-68	10
-84	17	58
-31	103	-6
22	158	37
70	157	2
107	102	-11
129	16	-39
137	-61	-28
128	-93	-37
102	-69	-8
57	-9	98
6	43	99
-48	52	116
-96	0	21
-125	-93	-93
-138	-173	-147
-129	-192	-126
-108	-134	-35
-70	-18	-36
-25	102	-76
24	171	-112
75	166	-125
115	101	-93
141	18	5
143	-34	37
121	-37	49
78	-7	22
19	24	-40
-44	22	-2
-103	-18	20
-147	-82	11
-172	-130	-40
-169	-142	-107
-137	-112	-111
-87	-54	-34
-24	4	26
35	53	5
84	88	-12
115	115	1
128	135	62
130	140	118
120	121	201
99	68	335
64	-6	320
20	-81	149
-31	-126	-112
-80	-131	-315
-111	-101	-431
-122	-61	-621
-112	-39	-518
-89	-42	-209
-55	-57	-86
-22	-56	-15
14	-23	69
54	43	98
90	117	86
121	168	104
132	168	93
123	119	144
89	46	142
39	-23	120
-13	-67	109
-59	-84	97
-95	-87	21
-118	-85	-186
-130	-89	-257
-130	-90	-287
-115	-79	-182
-81	-50	-67
-31	-7	-36
24	38	81
74	80	112
107	108	69
119	129	-27
112	136	-68
93	125	-53
63	91	-45
29	28	-8
-10	-50	14
-49	-127	20
-81	-179	52
-103	-190	35
-109	-163	-19
-104	-110	-3
-88	-54	54
-68	-8	50
-43	22	14
-11	44	1
31	65	-43
79	86	-111
120	103	-108
141	106	-25
130	94	-2
90	64	8
30	30	53
-28	0	41
-70	-19	-53
-91	-23	-131
-88	-19	-176
-72	-15	-134
-56	-22	-56
-42	-41	-62
-32	-66	-16
-15	-87	24
12	-83	112
51	-47	139
94	11	142
127	72	170
141	112	78
125	108	-6
82	63	-81
14	-1	-144
-56	-59	-193
-117	-95	-229
-162	-103	-245
-180	-96	-168
-177	-94	-16
-151	-100	76
-103	-101	141
-42	-81	84
26	-24	7
86	57	0
127	139	-31
138	186	-72
124	174	-193
92	115	-185
52	28	-105
17	-49	-81
-15	-99	8
-44	-112	2
-77	-104	14
-105	-93	26
-121	-84	-68
-117	-78	-102
-86	-62	-67
-35	-33	45
21	11	48
71	57	-38
106	96	-57
122	120	-71
122	127	-71
109	121	-7
82	99	84
43	59	82
-6	3	39
-59	-62	13
-106	-119	-15
-134	-153	-26
-140	-150	20
-125	-115	65
-93	-66	54
-53	-22	12
-8	5	14
34	21	24
74	36	-36
107	67	-41
125	117	-16
126	169	-70
107	204	-132
69	197	-137
21	138	-80
-30	34	-14
-75	-85	-42
-111	-187	-12
-130	-241	36
-130	-227	56
-110	-160	86
-70	-68	44
-18	7	37
39	37	15
85	22	-10
113	-15	8
122	-31	18
115	-3	38
99	66	25
80	138	-38
55	171	-111
25	142	-83
-16	59	-40
-65	-31	-64
-112	-88	-113
-139	-91	-93
-139	-61	-28
-107	-42	-22
-54	-57	-50
4	-105	-94
50	-137	-134
77	-117	-98
85	-28	-81
78	94	-60
69	186	65
58	197	142
49	121	95
32	4	105
4	-94	134
-32	-122	-5
-70	-88	-101
-101	-28	-111
-117	3	-64
-113	-17	-126
-95	-66	-265
-67	-105	-219
-37	-91	-144
-8	-24	-111
23	60	-71
52	116	-98
81	118	-7
102	72	139
105	13	155
88	-22	138
48	-25	20
-2	-9	-38
-55	-1	-17
-95	-18	-7
-115	-52	41
-114	-83	37
-94	-85	22
-65	-57	-8
-31	-13	-24
8	27	-95
49	46	-194
87	51	-130
117	52	-17
129	63	-23
120	81	-17
93	91	37
49	74	42
2	26	61
-42	-42	64
-81	-110	58
-108	-150	72
-129	-152	70
-135	-120	60
-123	-66	72
-92	-11	76
-38	39	-32
27	72	-130
93	93	-157
144	100	-148
172	92	-90
172	76	-58
147	51	-70
105	29	-68
52	9	-6
1	-7	-28
-52	-24	-48
-95	-48	-9
-127	-75	-36
-145	-101	-8
-145	-117	19
-125	-112	16
-88	-82	9
-41	-26	-9
7	43	1
49	114	-1
82	168	22
104	189	82
111	170	99
109	114	101
91	34	34
58	-47	-121
14	-106	-222
-39	-130	-190
-88	-119	-132
-125	-93	-129
-139	-67	-111
-132	-62	-35
-104	-76	3
-65	-88	-40
-21	-78	-82
22	-35	-90
58	32	-167
86	96	-236
101	131	-40
101	122	177
89	79	161
62	18	87
31	-31	119
-11	-56	174
-53	-63	118
-96	-64	11
-130	-74	-100
-152	-88	-197
-151	-98	-236
-121	-87	-249
-68	-49	-189
2	7	-92
69	63	-4
121	104	53
148	121	-7
144	118	0
122	105	50
87	82	71
49	53	93
7	13	66
-38	-40	0
-83	-94	-50
-123	-135	21
-143	-149	69
-139	-133	43
-107	-95	-16
-51	-45	-19
13	4	1
71	51	-78
111	92	-102
132	124	-34
134	142	21
123	131	59
103	91	61
71	25	45
30	-41	43
-20	-92	-23
-71	-105	-113
-118	-84	-124
-143	-43	-75
-148	1	-58
-130	30	-22
-94	38	-4
-47	26	-95
4	-2	-173
55	-36	-157
100	-64	-48
135	-71	20
151	-48	38
144	4	2
117	65	-5
72	109	12
21	108	34
-28	56	63
-69	-27	67
-102	-108	53
-120	-151	-4
-125	-145	-26
-116	-103	-46
-91	-51	-30
-51	-12	-9
-3	14	-26
45	34	-12
88	67	28
113	111	57
120	150	82
110	162	-4
81	131	-168
42	67	-201
-3	-5	-145
-50	-60	-135
-94	-88	-78
-125	-92	51
-141	-89	-16
-138	-94	-94
-117	-99	-43
-81	-96	-14
-35	-66	-35
12	-15	-56
54	47	-21
91	96	27
113	110	57
121	96	-62
107	58	-159
77	18	-48
29	-16	70
-24	-45	66
-75	-72	45
-111	-103	-53
-126	-127	-111
-125	-137	-66
-111	-121	-32
-85	-79	-37
-51	-24	-67
-12	32	-19
29	74	13
74	101	45
109	113	11
132	122	-34
136	127	-43
118	119	-18
86	92	-89
44	37	-91
0	-29	10
-43	-92	-21
-82	-124	26
-113	-118	-18
-130	-85	-43
-128	-45	49
-105	-29	76
-61	-41	112
-7	-71	100
48	-89	18
94	-66	-89
121	-1	-97
130	84	-15
121	148	3
99	158	6
64	106	37
20	18	0
-30	-66	-65
-80	-114	-88
-117	-113	-60
-138	-83	-35
-132	-49	-22
-104	-32	-69
-56	-29	-85
-3	-21	-70
46	9	-23
85	61	80
102	117	87
104	150	41
92	138	-13
70	92	-6
47	29	-12
21	-23	-92
-10	-50	-167
-47	-60	-195
-87	-67	-114
-126	-81	-34
-152	-95	-10
-153	-95	30
-125	-67	8
-70	-13	-11
-3	43	6
60	77	-2
105	70	-96
125	40	-159
123	10	-167
107	4	-57
90	28	143
74	62	139
59	76	86
36	45	80
1	-20	-3
-47	-90	-49
-102	-137	24
-148	-138	15
-170	-107	-36
-160	-60	-101
-115	-21	-135
-42	4	-104
36	26	-30
100	55	44
135	95	-40
135	128	-75
107	137	46
66	112	124
25	59	57
-10	2	37
-38	-44	13
-60	-70	-57
-83	-87	-113
-99	-102	-86
-103	-120	0
-89	-126	-13
-56	-103	-25
-11	-46	-57
39	33	-58
78	103	-5
102	139	4
110	130	-37
100	94	-38
80	53	-48
49	28	-66
13	17	-8
-28	-1	24
-66	-45	-22
-95	-108	-80
-111	-167	-88
-112	-178	-78
-101	-122	-59
-78	-7	-40
-43	120	-31
0	206	-1
52	211	98
102	136	142
141	19	152
156	-86	204
139	-133	186
96	-111	70
36	-43	-144
-27	29	-272
-81	59	-185
-116	34	-193
-139	-41	-298
-147	-130	-149
-141	-198	-35
-123	-214	-57
-89	-173	-20
-40	-91	-82
16	4	-74
70	80	-37
113	121	-22
135	127	38
136	110	69
122	89	43
97	69	-16
65	55	-32
27	35	-9
-17	8	46
-65	-30	150
-110	-64	215
-140	-87	130
-148	-81	-30
-124	-44	-162
-76	7	-194
-15	58	-176
44	88	-130
92	85	16
122	58	112
131	24	119
128	3	143
111	5	21
81	24	-235
38	40	-303
-16	30	-193
-74	-16	-57
-126	-90	46
-160	-160	77
-166	-198	89
-144	-181	48
-100	-113	28
-45	-21	-4
10	64	-66
54	120	-121
89	143	-166
110	139	-103
120	124	-47
118	103	19
102	70	65
75	23	91
32	-39	123
-14	-98	114
-61	-135	103
-101	-134	80
-123	-100	33
-126	-55	1
-111	-18	-47
-83	-6	-154
-44	-8	-177
-5	-8	-160
31	13	-130
66	55	-67
94	102	-50
118	127	-3
128	114	5
119	63	-47
85	-1	-75
25	-54	-64
-50	-84	-28
-126	-87	36
-177	-75	100
-191	-61	74
-162	-49	-30
-103	-35	-136
-31	-13	-147
32	13	-138
75	35	-86
101	43	15
113	36	29
120	27	17
122	24	9
113	35	4
87	49	30
38	50	42
-23	24	49
-88	-30	129
-136	-92	172
-156	-136	100
-148	-144	12
-116	-116	-162
-75	-71	-294
-33	-27	-297
6	3	-279
41	24	-133
76	48	-6
109	83	54
132	120	87
141	142	54
128	134	98
93	91	127
41	27	132
-16	-33	45
-69	-77	-54
-108	-92	53
-130	-89	22
-136	-74	-80
-125	-58	-90
-98	-40	-141
-55	-16	-131
-2	12	-125
53	40	-144
99	55	-159
127	57	-166
131	45	-76
111	34	21
74	31	53
27	35	90
-18	37	87
-56	19	113
-86	-25	87
-104	-89	65
-112	-145	106
-108	-173	44
-92	-154	14
-60	-93	-71
-18	-13	-209
30	60	-241
75	103	-159
106	111	-36
117	96	-7
105	67	-39
75	41	-46
31	22	-11
-18	8	14
-65	-12	31
-103	-33	26
-128	-49	47
-138	-55	65
-129	-42	0
-102	-23	-65
-60	-4	-93
-8	-6	-103
44	-27	-88
92	-54	-25
128	-68	-70
151	-46	-63
159	10	5
150	79	35
123	122	105
80	113	87
22	43	69
-41	-56	32
-97	-137	4
-136	-167	-21
-152	-127	-115
-142	-49	-170
-117	25	-124
-80	58	-39
-39	41	-12
0	4	11
39	-20	47
76	0	56
107	59	35
122	127	17
117	166	-19
90	152	-40
44	96	-74
-6	23	-68
-53	-36	-17
-88	-70	-9
-110	-85	-23
-116	-99	16
-113	-121	64
-98	-138	-30
-67	-131	-201
-26	-87	-282
23	-8	-244
66	77	-183
98	132	-68
105	142	125
91	115	252
64	72	278
35	41	259
13	35	182
-3	33	28
-16	16	-165
-34	-34	-279
-59	-107	-209
-85	-174	-41
-100	-202	45
-96	-174	-4
-65	-100	-42
-16	-8	21
39	65	45
89	105	-41
119	110	-93
124	99	-104
109	81	-103
75	61	-154
34	39	-147
-12	2	-101
-56	-43	-121
-95	-92	-68
-126	-123	-2
-143	-133	68
-142	-118	26
-122	-87	18
-83	-48	44
-29	-7	-3
29	33	-4
82	76	49
121	117	99
139	148	84
138	159	36
120	139	21
88	93	63
49	27	17
5	-41	-82
-38	-98	-77
-81	-131	-54
-115	-137	-80
-137	-121	-44
-140	-87	-30
-123	-46	-72
-85	-6	-125
-32	28	-208
23	51	-132
74	63	24
111	62	147
128	57	190
128	45	103
109	36	21
74	29	-43
28	20	-112
-22	11	-105
-68	-4	-54
-104	-25	-85
-120	-52	-96
-117	-80	-116
-93	-99	-107
-55	-103	-25
-8	-80	-24
40	-33	48
80	28	196
106	85	204
115	122	182
105	128	81
80	105	-124
44	62	-226
5	15	-219
-34	-25	-111
-65	-56	24
-93	-71	140
-115	-66	158
-126	-39	111
-125	8	105
-105	59	49
-64	93	-81
-10	85	-252
48	29	-287
98	-45	-208
128	-103	-161
132	-105	-89
117	-47	-17
85	36	87
44	88	110
0	62	49
-46	-37	-62
-91	-166	-155
-124	-251	-143
-141	-249	-126
-135	-163	-50
-107	-42	84
-60	43	178
-7	64	200
46	32	108
89	4	-40
121	20	-62
140	93	-151
148	183	-206
139	228	-144
115	190	-123
75	82	-49
22	-42	27
-34	-124	76
-88	-131	101
-125	-86	87
-147	-30	32
-152	-7	-19
-136	-25	-45
-108	-56	-74
-67	-70	-76
-21	-46	-32
24	7	-40
64	53	-36
93	76	13
107	64	19
106	43	-18
91	35	-107
61	45	-118
20	60	-13
-28	55	32
-78	17	42
-116	-48	60
-137	-113	85
-133	-152	68
-104	-148	12
-59	-108	-25
-7	-52	-137
42	1	-147
82	43	-101
107	77	-96
121	101	-12
120	111	1
106	101	10
79	64	14
40	13	-52
-4	-38	-58
-48	-70	-32
-85	-76	34
-107	-61	117
-116	-45	179
-109	-39	180
-89	-41	129
-54	-42	53
-13	-23	-105
31	18	-297
70	70	-398
97	116	-324
107	133	-163
99	118	-4
77	77	53
46	25	74
10	-21	222
-29	-53	312
-68	-72	238
-104	-85	147
-130	-86	98
-137	-80	-65
-124	-61	-412
-90	-38	-550
-40	-14	-353
10	5	-248
57	14	-114
96	15	21
123	12	19
141	11	112
147	16	173
132	27	225
99	35	196
46	33	124
-13	16	29
-66	-15	-41
-106	-53	-98
-122	-84	-129
-120	-93	-60
-106	-71	-133
-81	-29	-129
-47	18	-88
-7	51	-142
33	64	-143
65	64	-111
85	63	7
83	68	63
66	74	42
40	61	38
14	15	53
-11	-62	85
-35	-149	97
-61	-204	46
-90	-200	-44
-111	-141	-28
-117	-54	-54
-98	15	-102
-55	41	-78
-3	28	-48
48	5	84
86	13	90
105	61	-49
111	131	-188
109	180	-218
100	174	-145
80	106	-38
42	8	59
-12	-68	49
-75	-93	47
-128	-56	1
-158	0	-18
-152	31	-46
-121	9	-50
-70	-63	0
-19	-141	-6
28	-179	-11
65	-143	-42
96	-43	13
116	77	53
124	165	105
118	181	212
95	130	273
59	41	263
20	-38	160
-20	-77	12
-56	-69	-93
-88	-37	-185
-113	-14	-312
-128	-13	-291
-126	-34	-249
-102	-52	-175
-55	-46	-70
4	-11	-5
61	45	12
105	96	-89
124	123	-151
121	120	-102
100	96	-61
66	58	-103
27	13	-36
-18	-34	8
-66	-87	-11
-117	-131	27
-159	-151	104
-180	-131	161
-169	-75	93
-125	-6	-11
-56	37	-40
22	33	-9
96	-11	3
150	-62	-52
175	-78	-91
175	-30	-21
158	60	49
125	148	57
89	177	32
45	125	-36
0	12	-108
-47	-104	-121
-95	-171	-105
-133	-166	-43
-160	-106	53
-164	-39	90
-143	-2	14
-102	-4	-76
-44	-22	-72
15	-21	-61
69	18	-81
105	86	-110
120	145	-95
111	165	-52
83	130	-22
42	55	28
-1	-27	69
-43	-92	84
-77	-123	42
-101	-130	-11
-110	-124	-55
-105	-113	-68
-85	-92	-56
-52	-57	-104
-11	-9	-90
34	43	1
74	84	21
106	104	55
122	103	100
124	92	65
110	81	61
81	68	4
36	50	-80
-19	17	-89
-72	-29	-92
-120	-80	-84
-148	-113	-16
-153	-117	57
-130	-92	84
-89	-48	19
-32	-4	-57
29	31	-101
85	59	-151
130	86	-115
157	113	-49
159	130	-33
136	129	-97
92	97	-144
34	43	-37
-30	-13	76
-86	-54	125
-124	-69	113
-144	-70	70
-141	-76	60
-122	-102	-33
-88	-142	-137
-50	-176	-197
-12	-174	-289
18	-124	-187
40	-38	76
56	49	145
65	106	181
74	118	194
80	97	86
83	69	-9
74	59	-111
49	66	-150
11	71	-51
-39	48	26
-85	-9	71
-113	-89	111
-118	-155	16
-103	-170	-104
-69	-125	-215
-27	-39	-189
14	48	-53
53	104	-34
87	113	-25
113	88	-13
123	55	-20
117	36	20
91	37	87
46	40	152
-2	30	125
-50	-4	1
-89	-56	-124
-113	-104	-231
-125	-126	-328
-124	-114	-315
-111	-78	-141
-81	-32	-13
-37	6	72
15	32	79
65	54	64
105	76	124
124	102	112
121	116	87
99	109	64
60	66	-5
16	-1	-115
-30	-76	-151
-76	-133	-89
-111	-154	-30
-130	-133	-2
-128	-77	-12
-109	-2	-54
-71	70	-103
-31	125	-72
11	142	-44
50	116	-18
83	48	54
111	-39	31
128	-113	62
132	-144	106
121	-113	44
89	-38	138
41	37	121
-17	68	-32
-71	32	-113
-118	-55	-139
-147	-144	-108
-156	-182	-127
-139	-141	-97
-101	-40	-80
-49	68	-81
13	134	-52
69	135	-49
114	88	-66
136	37	-43
135	15	57
113	35	47
72	71	-38
27	90	5
-21	71	75
-62	13	90
-95	-53	-1
-114	-105	-18
-115	-124	72
-102	-115	45
-72	-87	0
-35	-49	-79
8	-6	-157
50	44	-183
85	93	-114
111	124	18
121	127	87
116	97	67
94	46	86
56	-2	130
11	-29	4
-38	-39	-161
-81	-42	-261
-113	-55	-291
-130	-87	-250
-130	-119	-63
-115	-132	57
-83	-106	36
-40	-45	61
7	28	59
50	84	14
85	103	-25
104	89	-30
106	64	-42
97	45	-38
75	43	-19
46	45	-49
8	35	-8
-34	-1	94
-76	-57	82
-111	-116	75
-129	-152	44
-128	-157	-26
-105	-129	-61
-68	-86	-90
-24	-38	-87
18	8	-106
52	50	-114
81	92	-23
100	123	38
111	134	17
107	118	5
88	76	0
50	20	-30
0	-28	-50
-52	-58	-46
-100	-70	-66
-126	-80	-22
-126	-94	17
-102	-114	2
-58	-126	37
-7	-112	46
46	-60	14
89	18	7
118	98	39
130	150	77
123	154	63
103	122	-48
69	71	-135
33	30	-106
-8	10	-89
-43	5	-67
-72	2	-42
-96	-12	-3
-108	-37	77
-113	-64	50
-105	-77	-24
-89	-65	-70
-59	-31	-52
-24	20	-26
12	76	-32
49	123	-7
77	150	16
95	144	4
99	99	-113
86	13	-153
57	-87	-95
14	-170	-79
-34	-202	-87
-80	-176	-9
-107	-106	78
-111	-33	36
-93	5	62
-60	-2	56
-24	-35	-54
10	-61	-182
36	-49	-229
59	3	-144
78	68	-57
94	110	34
99	105	61
88	56	-51
61	-4	-179
19	-44	-178
-28	-46	-96
-74	-12	28
-107	31	78
-125	62	58
-129	65	36
-117	43	-3
-91	0	0
-48	-56	33
4	-112	85
58	-152	119
104	-152	91
128	-101	40
132	-2	-6
117	108	-44
89	185	-50
54	183	-26
15	103	1
-26	-21	22
-71	-130	-49
-112	-171	-126
-143	-138	-65
-151	-61	17
-134	4	30
-97	22	25
-46	-2	-7
4	-35	-86
49	-34	-112
84	20	-131
109	101	-89
128	165	-6
132	171	49
122	117	79
90	31	53
42	-40	41
-17	-70	36
-68	-62	60
-106	-41	42
-122	-38	-14
-116	-60	-100
-93	-89	-128
-57	-90	-51
-20	-47	-41
19	31	-66
54	112	-15
81	158	102
98	150	124
103	98	32
95	29	-113
74	-20	-169
41	-39	-105
-1	-33	-105
-48	-26	-63
-92	-38	-35
-123	-76	-27
-134	-119	46
-121	-151	32
-86	-149	-23
-36	-103	-18
17	-29	-16
64	51	-7
96	114	-36
111	149	-128
107	149	-168
86	121	-77
52	82	-8
12	37	65
-29	-2	166
-67	-40	135
-99	-76	42
-120	-107	-135
-130	-133	-229
-129	-144	-243
-113	-135	-295
-83	-101	-294
-37	-48	-223
14	13	-85
65	63	-19
106	89	-24
128	85	-1
130	53	65
115	13	121
86	-22	179
52	-37	191
16	-33	225
-22	-21	268
-55	-12	221
-85	-20	152
-103	-40	-5
-108	-60	-145
-95	-61	-198
-65	-36	-169
-24	11	-127
23	66	-135
66	104	-90
101	117	-35
117	102	3
115	70	4
94	41	2
59	20	-32
14	5	-59
-32	-15	-47
-76	-42	-55
-109	-78	-27
-132	-109	-1
-137	-125	42
-125	-120	81
-92	-90	72
-46	-47	28
9	1	-45
61	47	-89
104	89	-107
132	127	-102
139	166	-31
132	197	63
113	208	53
84	186	46
44	117	54
-3	1	27
-55	-135	22
-108	-259	13
-145	-322	19
-160	-305	6
-147	-209	-23
-107	-72	-58
-54	49	-108
0	118	-171
44	117	-151
75	77	-68
93	38	-51
102	37	-30
104	72	22
94	113	48
68	118	10
27	58	-48
-24	-47	-90
-77	-157	-116
-114	-215	-130
-133	-200	-117
-129	-127	-53
-104	-39	57
-65	23	166
-20	43	139
28	34	46
71	30	-8
107	54	-39
129	103	-106
132	150	-137
115	170	-117
81	150	-48
36	100	100
-11	47	152
-54	8	158
-89	-25	118
-110	-67	-70
-117	-130	-247
-110	-202	-227
-87	-249	-179
-55	-235	-218
-15	-147	-194
28	-11	-145
68	118	-82
99	183	-94
115	169	-153
111	92	-63
87	4	43
45	-48	63
-4	-50	76
-54	-25	69
-98	-8	126
-127	-22	133
-141	-61	19
-139	-91	-59
-121	-82	-17
-86	-32	34
-35	32	24
21	72	65
77	67	7
119	26	-48
140	-15	-70
141	-21	-70
126	15	103
100	70	216
65	105	207
27	91	91
-19	30	-43
-69	-47	-127
-119	-102	-209
-158	-117	-245
-172	-100	-189
-156	-77	-62
-111	-62	7
-47	-54	-3
21	-34	-11
79	17	6
119	89	25
138	154	34
135	171	71
113	124	130
79	33	113
35	-56	29
-10	-103	-82
-50	-93	-160
-79	-47	-172
-92	-7	-126
-90	-4	3
-77	-36	39
-56	-66	4
-33	-58	-4
-5	3	-8
27	94	15
62	171	35
96	194	49
118	158	36
121	89	-41
102	31	-144
60	6	-125
8	7	-88
-45	-4	-89
-90	-59	10
-121	-160	62
-137	-268	111
-137	-320	49
-122	-281	-88
-91	-154	-108
-41	10	-111
14	138	-71
70	191	-49
116	166	-67
140	110	-57
142	70	54
124	75	91
93	105	-15
51	125	-78
8	96	-82
-39	12	-92
-87	-92	-234
-127	-173	-193
-154	-196	28
-159	-170	103
-140	-117	89
-100	-68	-8
-45	-42	5
11	-27	24
60	-2	-142
94	43	-295
115	98	-234
117	134	-22
104	130	68
72	79	125
31	5	65
-16	-64	-60
-61	-100	-66
-96	-101	-48
-116	-83	-16
-117	-64	4
-106	-59	36
-82	-56	-3
-48	-41	-52
-8	2	-52
35	65	57
77	130	155
110	169	78
128	164	43
126	121	11
105	56	-35
65	-1	-47
16	-34	16
-34	-44	70
-77	-44	71
-107	-53	144
-120	-83	191
-116	-130	163
-96	-174	22
-60	-188	-145
-15	-158	-218
36	-82	-274
86	17	-353
128	109	-279
154	161	-60
156	160	14
133	112	13
92	43	-60
35	-18	-126
-24	-55	-56
-78	-66	-4
-114	-66	25
-130	-66	25
-125	-70	49
-106	-74	87
-77	-60	128
-42	-28	138
-10	21	107
21	71	122
47	106	130
69	122	91
86	116	-23
94	105	-139
86	96	-166
59	93	-207
14	88	-273
-44	71	-182
-102	33	-98
-145	-27	-47
-161	-95	37
-148	-155	71
-112	-184	87
-63	-176	35
-19	-125	-47
22	-50	-181
57	27	-209
87	85	-141
113	108	-24
128	96	69
128	61	38
106	25	56
65	3	64
14	-5	39
-36	-8	22
-75	-20	-2
-101	-43	-38
-114	-72	24
-116	-92	48
-104	-84	26
-78	-52	-18
-36	-7	-147
18	27	-155
70	40	-123
111	35	-59
128	29	-15
124	45	31
102	86	86
70	138	53
39	169	0
7	150	-71
-25	79	-79
-57	-28	-40
-91	-124	17
-118	-177	-5
-132	-171	-83
-124	-127	-90
-94	-81	-147
-43	-60	-110
15	-77	45
68	-102	77
107	-105	31
120	-61	40
113	21	85
89	108	89
54	153	-5
18	129	-154
-18	51	-295
-52	-45	-176
-88	-115	39
-113	-131	49
-125	-102	75
-114	-52	105
-83	-16	110
-32	2	38
23	7	-50
67	27	-164
97	69	-223
105	123	-172
100	165	-95
87	165	37
72	121	113
52	48	110
26	-21	55
-7	-66	66
-46	-79	119
-83	-72	96
-109	-63	-70
-120	-63	-192
-113	-66	-92
-95	-61	-69
-64	-44	-117
-30	-12	-185
10	20	-211
51	40	6
87	51	138
111	52	143
117	53	199
103	55	194
67	51	79
25	31	-137
-20	-12	-259
-60	-64	-257
-91	-117	-200
-112	-142	-88
-121	-137	-23
-115	-103	5
-89	-50	59
-44	4	50
12	56	-54
69	101	-109
113	137	-40
130	161	20
121	162	62
92	138	149
52	85	189
12	14	200
-22	-63	147
-53	-130	60
-78	-173	-70
-100	-183	-253
-117	-159	-345
-119	-105	-292
-105	-38	-151
-68	23	-48
-18	61	-24
42	62	-23
95	35	-5
129	3	-18
140	-12	-19
125	8	65
97	48	165
58	85	183
20	86	147
-15	34	23
-50	-48	-160
-87	-130	-231
-123	-169	-245
-148	-150	-227
-150	-86	-157
-119	-11	-62
-60	43	26
12	71	72
82	85	100
129	110	95
150	157	63
143	206	41
121	221	27
91	168	-26
57	49	-107
18	-98	-130
-30	-215	-42
-81	-260	66
-126	-223	141
-153	-137	155
-151	-58	69
-117	-20	-32
-61	-26	-116
-2	-39	-112
52	-24	-7
90	34	84
109	119	101
111	183	66
101	192	-23
80	136	-161
46	47	-153
8	-30	34
-37	-66	110
-83	-57	-7
-119	-30	-227
-144	-15	-332
-151	-31	-276
-138	-65	-196
-107	-99	-82
-63	-108	-3
-15	-90	30
32	-58	74
69	-29	87
98	-9	13
111	7	-54
116	28	-81
107	56	-84
85	80	-104
51	80	-85
6	48	31
-42	-8	74
-85	-66	85
-113	-103	65
-119	-108	43
-103	-88	66
-67	-59	56
-22	-39	65
24	-25	57
62	-8	28
91	22	-32
106	64	-82
105	104	-32
91	122	100
65	106	159
32	61	79
-5	9	-36
-37	-31	-130
-63	-47	-152
-80	-43	-147
-85	-41	-164
-83	-46	-173
-71	-62	-183
-55	-74	-175
-27	-64	-34
8	-26	-3
48	32	-25
86	88	49
112	120	68
123	121	101
114	96	32
89	57	-44
49	20	-38
2	-11	-8
-48	-41	53
-95	-72	85
-128	-105	117
-145	-125	116
-137	-118	27
-106	-84	-103
-55	-23	-153
2	43	-117
56	98	-127
96	124	-118
116	124	-18
116	106	45
99	78	94
67	51	87
32	32	-71
-7	17	-183
-42	0	-65
-71	-21	57
-96	-45	65
-112	-68	45
-127	-79	-111
-134	-66	-162
-132	-34	-176
-107	6	-238
-56	38	-201
16	39	-112
91	3	43
149	-53	110
169	-105	70
144	-117	12
90	-86	51
26	-24	114
-24	29	63
-52	36	7
-65	-9	-32
-74	-88	-74
-88	-153	-82
-101	-166	-67
-108	-118	-70
-92	-33	-101
-51	45	-58
2	90	-7
54	91	-13
92	76	21
111	70	-18
116	86	-25
115	114	74
109	123	122
93	96	144
59	31	143
6	-42	115
-55	-99	84
-108	-118	-5
-136	-104	-124
-130	-76	-176
-101	-50	-163
-58	-31	-142
-21	-2	-102
8	49	-37
33	120	13
57	186	60
86	210	110
111	171	41
123	76	-57
111	-41	-134
76	-133	-180
21	-168	-118
-35	-147	-78
-79	-100	-53
-101	-61	11
-100	-55	33
-84	-72	-28
-59	-89	-105
-33	-74	-129
-8	-22	-72
16	49	-68
40	110	-55
65	134	4
85	116	40
93	72	95
82	27	142
47	4	187
-3	4	129
-60	15	59
-108	16	-44
-134	-3	-135
-134	-43	-132
-113	-94	-116
-81	-130	-54
-44	-141	-4
-12	-115	-6
21	-56	-13
56	17	-5
94	86	-7
126	128	2
139	135	-4
128	107	29
85	60	104
20	6	125
-50	-39	113
-110	-71	36
-144	-98	-75
-154	-120	-155
-139	-136	-307
-108	-133	-345
-70	-104	-243
-27	-45	-241
18	28	-205
58	93	-36
92	129	87
114	127	38
120	101	3
110	67	-12
88	41	16
56	28	-50
17	15	-166
-27	-9	-103
-68	-48	-10
-107	-92	75
-130	-125	32
-135	-136	51
-118	-123	94
-81	-97	31
-27	-62	70
27	-27	32
77	16	0
112	66	31
131	119	14
133	159	-12
121	166	-29
93	135	-15
51	77	7
1	12	39
-52	-36	76
-101	-53	130
-133	-44	156
-141	-24	107
-127	-8	54
-93	-5	3
-43	-15	-69
10	-29	-151
59	-43	-222
98	-45	-232
122	-36	-198
129	-9	-72
121	28	134
98	64	201
60	81	155
16	61	51
-34	7	-125
-80	-68	-243
-117	-133	-282
-138	-159	-189
-140	-131	-10
-124	-65	93
-93	8	5
-52	65	-58
-7	93	13
38	99	31
79	93	18
110	85	-18
125	76	-43
123	50	-25
100	13	-30
58	-33	1
8	-66	68
-42	-79	97
-81	-66	120
-105	-49	126
-109	-44	87
-101	-56	35
-82	-77	-27
-53	-81	-150
-22	-56	-406
12	-5	-488
46	51	-361
74	89	-275
89	93	-141
86	65	8
68	26	124
36	-7	120
3	-28	111
-29	-39	69
-52	-48	33
-68	-56	21
-79	-62	-70
-82	-56	-16
-80	-41	104
-68	-23	82
-46	-10	28
-14	0	-18
24	16	-72
62	50	-72
96	105	28
117	161	116
125	183	36
116	156	-15
91	76	-21
48	-27	-17
-7	-113	-26
-63	-147	-2
-112	-128	26
-140	-87	12
-144	-53	24
-123	-51	10
-85	-71	-11
-38	-89	-95
8	-78	-144
46	-27	-98
76	43	-35
96	106	13
107	135	83
111	125	159
101	86	107
78	38	-1
37	-7	-109
-13	-43	-124
-65	-67	-132
-112	-86	-176
-142	-89	-156
-150	-77	-90
-133	-48	-90
-98	-18	-107
-48	1	-74
5	2	-17
54	-13	100
94	-19	133
116	2	138
121	58	119
107	134	69
86	191	21
53	191	-74
17	115	-70
-19	-17	55
-56	-163	85
-90	-259	24
-114	-267	-13
-123	-194	-129
-115	-75	-309
-88	33	-360
-45	86	-239
2	79	-119
46	36	-41
79	0	20
100	-3	24
106	27	34
100	65	55
84	82	108
53	59	170
16	7	123
-29	-47	66
-70	-81	24
-104	-84	-97
-120	-67	-230
-112	-47	-126
-84	-34	-49
-36	-23	-147
18	-1	-224
69	34	-166
110	78	4
123	106	76
111	106	169
72	71	192
24	21	129
-23	-22	57
-53	-40	-31
-64	-34	-76
-62	-22	-83
-58	-24	-18
-64	-45	66
-81	-78	16
-98	-93	-107
-101	-72	-113
-80	-15	-74
-34	63	-66
24	136	20
78	180	56
117	183	70
133	155	92
131	99	43
118	27	39
94	-48	1
59	-118	-28
7	-167	-82
-54	-182	-130
-118	-155	-112
-165	-102	-51
-175	-42	24
-145	-4	69
-84	4	94
-10	-10	54
58	-22	-4
104	-6	-62
120	40	-76
116	101	-48
99	142	-95
75	143	-153
44	99	-85
9	33	12
-29	-22	-26
-66	-47	-59
-94	-39	-46
-110	-27	-95
-106	-33	-143
-91	-75	-206
-64	-137	-260
-32	-183	-137
4	-184	68
41	-122	122
77	-19	158
104	86	133
115	150	24
107	150	-26
82	93	4
41	14	-1
-3	-50	-58
-48	-79	-48
-87	-72	36
-118	-50	133
-134	-38	65
-133	-42	-65
-111	-54	-181
-67	-54	-214
-12	-29	-186
48	23	-164
96	85	-68
124	127	69
130	138	92
117	117	57
94	80	81
63	44	40
32	25	-17
-5	15	-98
-45	1	-100
-85	-33	-74
-118	-87	-55
-135	-145	39
-132	-182	89
-106	-174	130
-62	-113	102
-11	-20	41
42	81	-16
88	155	-32
121	190	22
137	188	68
132	163	186
111	134	266
75	106	168
27	76	24
-22	25	-184
-67	-46	-387
-107	-131	-435
-135	-204	-368
-150	-240	-169
-145	-225	-33
-117	-162	80
-67	-80	121
-1	-6	-10
65	38	-70
121	53	-72
151	55	41
150	56	80
127	65	68
90	74	65
48	68	20
8	43	13
-31	-2	-75
-68	-51	-144
-106	-90	-151
-134	-104	-60
-151	-100	-46
-143	-85	-72
-113	-67	-58
-63	-53	-27
-4	-32	41
53	0	55
103	48	69
133	102	86
145	145	93
139	158	16
115	135	-60
75	81	-49
23	11	-26
-36	-49	-62
-92	-92	-101
-135	-109	-112
-156	-104	-53
-151	-87	22
-118	-60	13
-69	-30	22
-12	5	10
41	41	-40
87	77	-80
116	100	-28
125	105	-47
119	93	-27
95	61	-15
59	21	-91
16	-25	-128
-28	-66	-178
-68	-95	-82
-100	-104	-17
-120	-86	-15
-128	-45	-18
-121	4	12
-98	39	108
-57	40	106
-6	5	31
49	-50	-16
98	-91	-4
125	-86	-33
131	-23	2
113	74	97
76	154	75
30	170	49
-15	100	7
-56	-28	-21
-89	-159	-46
-111	-229	-123
-118	-204	-157
-107	-107	-177
-76	14	-178
-29	92	-140
25	98	-79
77	43	1
110	-19	26
120	-38	8
106	7	17
82	96	-3
50	169	-34
24	178	-36
0	106	-15
-22	-20	53
-45	-143	87
-66	-212	70
-79	-203	-10
-77	-134	-27
-61	-48	-81
-42	11	-147
-27	30	-3
-22	20	45
-26	10	89
-21	23	91
3	61	34
48	108	50
99	135	70
132	128	80
125	85	24
69	23	13
-12	-37	2
-95	-79	20
-145	-97	8
-156	-100	-93
-132	-89	-161
-89	-68	-75
-48	-38	69
-13	0	-56
23	39	-205
64	72	-242
107	90	-206
140	90	-45
148	79	-30
121	58	-82
70	39	-61
11	18	-107
-38	-8	-160
-66	-44	-97
-85	-82	-16
-95	-110	36
-110	-122	90
-120	-109	84
-118	-80	36
-91	-41	-84
-37	-7	-215
26	20	-162
86	45	24
124	76	254
136	114	362
125	149	240
103	164	77
72	140	-87
36	72	-197
-5	-27	-302
-51	-131	-284
-96	-205	-197
-128	-230	-154
-141	-199	-40
-131	-133	-21
-104	-63	0
-62	-13	6
-17	6	46
29	8	77
74	6	38
110	20	32
133	50	18
136	88	58
115	114	55
66	116	85
4	97	95
-62	63	18
-116	30	-34
-145	-1	-84
-151	-41	-108
-132	-97	-96
-101	-166	-42
-62	-222	24
-22	-233	95
19	-173	120
62	-46	130
104	105	115
139	230	47
163	275	52
164	235	-8
138	134	-109
89	29	-106
28	-42	-147
-35	-69	-196
-87	-72	-245
-120	-85	-227
-139	-114	-68
-139	-151	15
-126	-161	39
-97	-120	74
-56	-34	76
-4	65	79
49	135	65
96	155	12
126	130	-43
135	93	-9
122	72	-46
91	74	-206
49	80	-284
0	59	-151
-46	4	67
-85	-77	137
-115	-141	87
-125	-161	34
-116	-124	40
-89	-52	69
-50	15	151
-5	50	123
36	45	-15
70	25	-83
96	15	-208
107	29	-362
104	65	-378
84	98	-333
48	103	-247
1	64	-60
-52	-5	86
-97	-84	204
-126	-149	238
-134	-183	179
-122	-184	86
-97	-155	-65
-60	-101	-103
-20	-34	-13
25	37	24
67	97	38
104	132	57
127	138	-57
130	119	-82
111	83	-8
69	43	-14
18	8	30
-36	-28	53
-83	-63	32
-115	-101	-8
-131	-128	-9
-130	-133	-27
-113	-109	-147
-81	-56	-126
-35	3	-97
20	47	-145
77	66	-124
123	63	-52
151	57	51
152	62	72
129	83	43
86	102	-33
34	101	-141
-15	60	-131
-53	-8	-19
-80	-82	47
-96	-131	58
-101	-138	92
-98	-111	85
-87	-69	42
-67	-41	-7
-44	-30	-23
-21	-24	-9
-1	-3	-36
16	45	-27
35	110	34
61	161	0
95	166	-25
122	116	27
130	30	20
105	-55	-23
47	-105	12
-36	-110	47
-117	-81	51
-172	-53	27
-186	-48	11
-159	-64	37
-103	-86	4
-36	-77	-16
24	-29	-79
72	48	-155
107	124	-125
124	166	-117
126	161	-113
107	119	-108
72	70	-127
25	32	-64
-25	8	-7
-70	-12	-53
-104	-44	-151
-121	-87	-108
-128	-122	-21
-120	-123	-1
-99	-81	-13
-60	-12	-33
-5	41	-25
59	43	-88
121	-11	-61
162	-91	-50
172	-135	-33
156	-109	135
115	-13	213
64	99	160
16	155	93
-25	119	74
-63	0	-11
-97	-134	-192
-126	-213	-255
-143	-195	-218
-138	-99	-127
-108	9	-41
-57	70	-19
2	60	-12
54	12	5
92	-20	59
111	6	75
117	86	61
111	171	32
96	206	13
69	162	-13
28	57	-101
-23	-56	-142
-77	-127	-80
-121	-137	-6
-143	-103	31
-142	-58	22
-120	-35	-7
-86	-31	46
-41	-26	126
9	4	164
62	57	128
111	113	62
147	140	-47
154	124	-150
129	75	-182
78	18	-167
12	-19	-97
-49	-32	-41
-93	-36	11
-115	-53	-30
-121	-93	-96
-117	-138	-67
-109	-164	1
-95	-145	26
-67	-85	5
-25	-5	14
23	61	-1
71	92	0
106	91	21
121	77	31
114	69	4
94	75	-17
63	77	26
27	59	125
-12	13	112
-53	-47	-15
-89	-102	-45
-113	-122	-69
-114	-106	-106
-94	-66	-193
-57	-25	-245
-13	-1	-193
25	7	-129
54	13	-40
70	35	47
80	79	49
85	124	-30
85	149	6
78	128	43
58	60	50
28	-35	127
-13	-123	171
-56	-171	119
-93	-170	22
-116	-121	-211
-119	-60	-442
-107	-8	-387
-80	16	-260
-42	18	-157
-4	10	-140
36	9	-123
69	23	-41
96	48	-6
107	71	39
104	78	79
83	62	87
46	29	104
2	-13	110
-48	-49	68
-91	-71	79
-121	-70	96
-133	-49	42
-126	-15	38
-101	18	60
-61	30	68
-16	12	71
34	-35	20
80	-90	60
115	-119	74
138	-98	5
144	-22	-52
136	80	-101
112	158	-80
79	174	-81
34	115	-93
-15	7	-59
-67	-99	-15
-117	-150	-17
-153	-131	12
-173	-62	7
-167	7	-57
-133	43	-103
-77	38	-117
-4	10	-77
65	-4	-66
121	15	-34
150	61	18
150	103	65
121	109	51
78	70	36
28	4	11
-19	-57	-92
-56	-90	-82
-88	-89	-30
-109	-71	-35
-123	-59	27
-123	-61	127
-106	-66	130
-69	-52	99
-19	-11	63
36	51	38
89	110	32
125	139	-3
142	133	-124
142	98	-215
125	55	-247
97	20	-253
54	-2	-238
4	-27	-302
-55	-62	-222
-117	-109	-33
-164	-153	51
-187	-169	39
-176	-148	-31
-134	-90	53
-68	-18	130
5	43	116
67	84	65
111	96	61
130	94	89
127	87	-50
110	79	-164
79	62	-170
39	28	-94
-5	-18	18
-49	-72	16
-89	-117	-129
-115	-140	-260
-122	-136	-155
-110	-111	-5
-87	-71	28
-58	-23	84
-32	29	78
-12	85	85
10	126	87
36	143	-7
68	124	7
100	72	8
117	10	-52
111	-44	-37
74	-69	5
17	-66	-7
-44	-53	-4
-90	-47	30
-110	-60	77
-104	-77	126
-80	-80	113
-46	-51	49
-13	3	-54
19	68	-112
50	119	-104
80	137	-103
102	126	-48
116	93	-18
115	52	8
100	8	19
70	-38	-9
34	-84	-15
-10	-119	-42
-53	-133	-25
-94	-120	-20
-125	-86	-11
-134	-46	49
-123	-19	64
-88	-8	64
-37	-2	57
16	19	45
63	64	39
95	124	-39
110	170	-134
111	174	-153
94	131	-172
66	53	-279
28	-23	-256
-17	-72	-119
-60	-86	-28
-97	-81	82
-120	-76	139
-126	-84	141
-117	-98	123
-91	-96	130
-54	-62	151
-10	3	172
40	81	99
86	141	-127
120	165	-341
133	143	-507
123	96	-500
92	39	-336
42	-12	-178
-12	-55	-27
-67	-99	60
-114	-143	55
-147	-184	-12
-162	-204	-44
-157	-192	-12
-133	-144	68
-94	-69	89
-43	11	72
11	77	61
62	115	51
107	124	-4
137	109	-59
150	85	16
137	63	127
102	57	94
51	67	100
0	80	188
-40	76	137
-58	31	42
-56	-54	-69
-44	-162	-116
-33	-246	-49
-29	-261	-40
-25	-190	-90
-14	-54	-28
14	93	0
55	190	16
96	202	40
115	140	-70
105	52	-139
67	-10	-145
15	-21	-62
-34	4	39
-69	29	49
-92	17	9
-105	-36	-89
-117	-101	-129
-122	-137	-60
-117	-123	-5
-93	-65	-12
-51	3	-91
0	46	-154
44	53	-118
80	39	-96
97	27	-24
100	37	37
96	65	-42
85	85	-62
65	75	26
40	26	64
8	-36	96
-24	-88	140
-54	-102	178
-80	-82	195
-98	-43	181
-111	-11	149
-112	1	81
-96	8	-1
-53	21	-213
11	49	-301
80	88	-261
133	115	-368
151	108	-283
130	63	-188
78	0	-120
16	-54	-24
-34	-72	-24
-67	-50	-19
-86	-5	36
-98	34	224
-109	41	300
-114	10	294
-101	-42	209
-61	-89	132
-2	-108	44
64	-92	-110
117	-47	-279
148	3	-357
152	40	-344
138	50	-251
115	34	-145
77	-1	-184
24	-48	-106
-51	-94	-42
-136	-129	36
-209	-144	102
-242	-135	91
-218	-98	51
-149	-41	52
-54	19	90
23	71	79
66	100	57
77	108	10
75	100	7
85	92	-6
112	89	5
150	89	19
170	81	-9
151	53	-6
87	5	-14
-4	-55	-37
-94	-109	-80
-161	-137	-121
-188	-138	-35
-180	-116	11
-144	-84	-2
-95	-51	35
-35	-21	38
30	15	87
91	61	120
138	119	126
161	180	119
152	225	14
119	241	-110
74	213	-171
30	145	-160
-7	43	-197
-39	-72	-209
-74	-179	-125
-111	-253	-18
-142	-269	129
-157	-227	150
-136	-141	76
-86	-42	-8
-12	33	-72
58	74	-58
109	79	-72
134	72	-6
135	76	62
123	99	20
106	126	-46
84	132	-154
46	98	-180
-1	21	-230
-62	-71	-203
-122	-151	-3
-161	-190	77
-170	-185	98
-149	-153	21
-109	-110	-90
-61	-70	-145
-20	-32	-163
13	11	-81
44	62	33
74	115	121
99	150	180
113	158	187
107	129	130
80	79	94
33	17	-8
-19	-36	-130
-66	-79	-164
-99	-112	-316
-113	-136	-341
-113	-154	-194
-101	-154	-91
-78	-136	11
-43	-97	0
0	-43	31
49	13	92
96	65	74
128	105	79
140	134	89
127	152	125
95	153	100
45	135	32
-5	91	51
-53	26	59
-93	-48	-16
-117	-110	-54
-125	-139	-69
-114	-127	-83
-86	-80	-72
-42	-16	-85
8	36	-56
54	53	34
93	34	63
113	-6	-40
119	-40	-40
109	-42	13
91	-8	-30
68	43	-78
38	80	-60
5	72	-52
-34	19	-62
-76	-59	-5
-115	-119	22
-140	-129	20
-141	-82	-14
-117	1	-37
-68	76	-58
-9	112	-41
54	101	21
110	66	14
151	38	63
175	35	149
172	55	196
141	75	150
75	68	-15
-16	26	-138
-115	-33	-139
-191	-85	-105
-227	-102	-176
-211	-89	-270
-157	-64	-309
-93	-51	-270
-42	-62	-131
-17	-85	-80
-6	-93	-101
9	-64	-61
44	1	24
100	80	135
152	137	233
175	150	275
154	121	281
89	71	225
4	33	69
-69	17	-138
-115	19	-230
-128	13	-292
-119	-22	-364
-102	-84	-245
-84	-152	-75
-61	-186	11
-30	-163	-34
14	-85	-81
63	17	-24
110	95	3
139	117	-8
144	80	103
127	8	191
93	-56	161
49	-84	77
3	-67	2
-45	-32	4
-91	-10	-47
-126	-21	-49
-149	-59	-97
-150	-97	-129
-126	-107	-39
-84	-68	-51
-28	3	-49
29	78	-50
77	123	-74
105	127	-44
107	95	-40
94	50	-21
66	21	32
33	11	52
4	13	37
-23	7	38
-45	-14	79
-67	-43	74
-87	-67	36
-97	-67	53
-92	-46	82
-62	-10	100
-11	22	46
52	39	-36
115	45	-43
159	56	-21
171	79	-55
152	112	-106
107	137	-268
44	138	-282
-20	104	-19
-78	42	-17
-118	-28	4
-142	-90	70
-153	-140	36
-152	-179	-25
-141	-212	-221
-118	-232	-246
-79	-216	-141
-23	-153	-25
43	-41	66
107	87	77
156	185	54
175	215	82
163	177	21
124	97	-56
75	19	-88
26	-19	-84
-18	-19	-27
-54	-9	-1
-92	-23	80
-124	-70	90
-148	-127	124
-154	-152	121
-130	-114	34
-79	-21	-38
-8	84	-100
63	147	-113
120	142	-120
151	88	-165
151	30	-215
125	12	-179
85	38	-131
35	79	-128
-15	79	-81
-63	13	20
-103	-101	37
-126	-204	95
-126	-241	152
-103	-187	84
-55	-77	87
-3	33	133
41	89	113
62	79	64
59	38	-17
42	19	-105
28	43	-165
27	100	-173
38	143	-118
50	129	-33
44	51	52
9	-57	45
-47	-142	25
-104	-168	-9
-139	-132	-84
-140	-71	-98
-108	-29	-123
-59	-21	-112
-14	-36	-13
21	-36	110
45	4	200
69	84	235
98	171	149
126	225	17
141	217	-44
133	150	-66
100	54	-167
41	-36	-333
-22	-98	-341
-77	-126	-157
-117	-135	-35
-139	-135	-18
-142	-137	-20
-130	-135	1
-101	-121	81
-51	-89	87
8	-40	37
68	12	-44
115	58	-115
136	88	-52
126	99	63
92	94	139
48	78	161
8	57	84
-22	33	11
-40	7	0
-58	-31	-124
-78	-75	-218
-101	-123	-251
-119	-160	-209
-120	-170	-52
-96	-142	-25
-46	-76	-64
17	9	-38
78	90	-7
120	147	-5
136	171	24
130	171	57
111	160	95
88	138	101
63	104	81
34	45	110
-8	-41	101
-62	-143	4
-120	-228	-58
-170	-260	-72
-189	-222	-141
-172	-125	-195
-117	-11	-163
-42	81	-128
35	128	-55
98	139	57
136	138	10
151	143	-71
144	150	-49
122	135	34
87	74	108
42	-35	130
-7	-153	91
-58	-230	32
-101	-227	-11
-128	-151	-20
-134	-48	20
-120	21	29
-90	27	-28
-49	-14	-120
-5	-54	-211
39	-45	-277
75	22	-218
101	117	-79
111	181	59
104	174	136
82	103	155
48	2	173
12	-70	170
-28	-92	172
-63	-69	107
-95	-40	7
-116	-38	-91
-122	-61	-151
-113	-90	-154
-84	-85	-165
-42	-36	-246
9	40	-272
56	106	-142
91	127	-81
111	103	-30
114	49	-39
106	6	-15
86	-11	4
56	-4	-35
18	3	31
-28	-13	15
-75	-52	72
-118	-101	81
-145	-128	63
-152	-115	19
-133	-59	-62
-91	18	-112
-31	88	-161
34	132	-86
89	140	51
128	121	95
141	86	91
130	52	100
103	27	16
65	6	2
29	-15	-91
-7	-44	-147
-39	-82	-156
-74	-124	-261
-111	-160	-170
-143	-168	-83
-161	-148	-14
-149	-97	94
-102	-36	138
-26	13	177
65	37	147
151	39	111
208	35	60
223	43	-26
195	71	-116
130	103	-181
46	116	-151
-40	88	-90
-111	20	-16
-156	-60	-47
-167	-122	-32
-151	-137	51
-119	-109	42
-81	-55	86
-47	-11	86
-20	14	70
8	21	42
40	29	43
81	57	151
119	99	108
145	138	-20
144	150	-70
113	120	-64
56	60	-36
-10	-10	-97
-69	-62	-335
-116	-95	-371
-141	-106	-126
-151	-110	-81
-144	-115	-67
-120	-113	-21
-80	-94	78
-22	-47	169
42	17	91
99	81	7
136	122	-172
144	127	-289
130	104	-238
98	66	-64
56	32	60
15	9	152
-28	-11	235
-68	-34	229
-104	-63	217
-127	-90	49
-131	-98	-74
-112	-80	-75
-72	-41	-149
-28	2	-198
14	24	-177
44	20	-127
66	1	-111
84	-14	-168
99	4	-198
113	60	-108
114	135	22
95	193	129
50	189	116
-14	106	99
-80	-35	130
-126	-189	91
-144	-296	18
-134	-305	-26
-101	-217	38
-61	-70	60
-26	70	-4
5	143	4
32	128	-67
57	46	-122
83	-44	-124
101	-87	-205
105	-62	-232
93	11	-80
64	78	-35
25	90	-105
-15	35	-20
-50	-58	23
-77	-138	51
-91	-160	36
-92	-108	29
-83	-21	27
-67	58	22
-44	92	43
-17	76	22
14	40	53
48	19	57
81	33	64
106	70	84
113	106	63
99	110	56
59	71	87
5	9	57
-53	-54	-82
-100	-93	-173
-121	-105	-165
-120	-94	-87
-99	-78	-153
-67	-60	-210
-32	-39	-150
3	-11	-71
38	29	-15
71	68	-3
97	99	24
109	106	-17
104	90	4
80	64	56
44	32	34
6	5	34
-26	-23	43
-51	-54	46
-69	-89	70
-89	-118	72
-108	-127	32
-123	-109	-79
-125	-64	-140
-105	-9	-137
-60	44	-195
2	84	-248
68	104	-241
120	116	-143
148	118	1
144	111	151
117	81	202
74	24	155
26	-52	72
-23	-130	-34
-63	-178	-102
-91	-176	-129
-100	-129	-151
-84	-58	-149
-52	5	-84
-13	39	10
13	40	11
21	29	-21
12	26	24
-3	46	76
-3	85	127
17	119	140
55	125	155
89	92	81
95	25	27
63	-52	-44
-3	-112	-183
-72	-137	-167
-126	-122	-158
-141	-78	-118
-122	-26	-65
-81	14	-68
-35	27	-109
3	15	-151
36	-11	-64
63	-34	28
89	-33	48
105	-8	54
105	39	97
85	82	64
46	99	13
4	74	26
-35	11	55
-58	-65	102
-70	-131	93
-80	-157	81
-88	-139	16
-94	-88	-110
-91	-27	-147
-70	21	-96
-30	50	-101
22	64	-238
72	79	-241
107	100	-100
115	129	-26
98	147	113
59	127	154
13	61	16
-29	-48	-84
-62	-167	-77
-82	-254	-151
-88	-272	-196
-82	-215	1
-68	-107	42
-47	8	38
-18	82	58
17	102	-8
57	80	-18
90	53	7
114	52	47
117	85	47
101	131	25
71	158	5
35	137	18
6	72	-1
-18	-11	-42
-36	-81	-88
-53	-117	-97
-75	-118	-42
-94	-102	-5
-106	-84	15
-99	-68	11
-70	-46	27
-22	-8	39
34	44	18
86	100	-21
120	131	-60
132	127	-67
122	88	-50
96	36	-7
54	-6	52
4	-30	104
-54	-36	137
-110	-45	101
-156	-66	-79
-180	-106	-278
-177	-141	-387
-143	-152	-306
-89	-124	-97
-23	-62	68
37	13	124
84	78	65
111	116	22
119	126	-35
115	117	-101
100	97	-70
76	72	-21
44	37	56
4	-6	147
-36	-57	161
-75	-106	150
-100	-131	111
-110	-129	84
-105	-97	85
-85	-50	56
-51	0	-110
-14	43	-323
28	76	-292
68	103	-132
101	119	-189
119	119	-420
120	93	-437
99	40	-167
58	-31	16
7	-103	39
-46	-151	69
-91	-166	32
-118	-149	38
-127	-116	48
-122	-82	41
-105	-52	101
-85	-29	155
-60	1	225
-32	35	232
1	72	125
36	100	-56
78	114	-95
114	116	-48
136	113	-140
139	113	-140
118	107	-70
75	85	-64
21	30	-83
-34	-49	-132
-77	-133	-40
-101	-186	51
-104	-185	113
-88	-131	173
-60	-48	151
-28	29	123
4	77	19
32	93	-170
57	89	-246
79	88	-84
98	93	16
107	96	28
106	83	20
86	50	-88
44	11	-137
-11	-25	-122
-72	-47	-93
-128	-69	-71
-164	-106	-53
-168	-166	-21
-138	-224	20
-82	-242	-18
-8	-188	-62
56	-55	34
100	105	106
111	231	94
94	260	106
57	188	151
24	57	150
6	-58	59
0	-105	32
-1	-76	131
-14	-9	106
-46	31	-63
-91	15	-213
-128	-45	-246
-136	-106	-172
-109	-118	-105
-52	-71	-68
11	12	-94
61	85	-135
91	108	-282
98	85	-348
97	39	-209
92	9	-48
86	7	104
67	22	124
33	25	33
-15	-4	-45
-68	-57	-83
-107	-112	-149
-121	-134	-100
-111	-115	4
-86	-64	46
-54	-13	112
-25	18	104
4	27	91
39	29	108
76	41	95
111	72	76
130	108	14
123	127	-8
87	117	23
30	84	35
-28	36	79
-78	-3	100
-104	-36	71
-107	-67	32
-91	-110	-11
-64	-159	-92
-36	-189	-153
-8	-177	-136
16	-107	-138
39	2	-135
60	108	-176
77	171	-199
86	171	-135
83	118	-64
65	50	-4
30	5	5
-17	-7	-23
-70	-3	23
-120	-14	80
-148	-58	109
-153	-126	71
-130	-183	19
-89	-189	19
-37	-133	-3
12	-37	-26
53	57	-105
86	111	-109
113	114	-67
133	84	-19
143	54	63
140	50	99
119	71	161
77	94	124
21	88	37
-40	47	-53
-92	-20	-58
-127	-84	-38
-143	-121	-96
-140	-125	-118
-121	-104	-130
-91	-76	-183
-50	-45	-306
0	-17	-230
49	20	-112
96	63	-4
127	104	141
133	126	158
120	118	79
87	81	-90
45	28	-62
2	-17	22
-40	-48	4
-77	-62	31
-109	-71	55
-128	-82	52
-133	-88	65
-113	-84	60
-70	-56	-55
-12	-11	-78
45	40	-49
91	79	-63
116	92	-91
115	78	-162
97	49	-165
68	23	-38
34	3	52
-1	-12	32
-42	-26	-9
-85	-49	4
-125	-70	52
-149	-83	10
-149	-75	-52
-123	-49	-96
-76	-23	-39
-16	-9	-38
42	-15	-90
86	-26	9
113	-25	4
123	4	-35
119	59	-42
105	114	-26
79	145	-13
43	130	4
-1	72	32
-45	-4	22
-81	-71	32
-99	-113	-5
-95	-127	-43
-72	-124	-62
-41	-115	-82
-11	-95	-83
8	-59	-59
20	0	-40
25	74	4
36	141	45
54	186	31
77	190	30
90	162	41
81	110	28
44	52	-24
-16	-13	-51
-85	-92	-44
-139	-178	-18
-163	-257	-24
-152	-292	-57
-116	-262	-39
-70	-166	16
-30	-34	41
4	77	40
34	133	77
69	127	100
109	94	99
145	79	87
162	109	112
147	171	106
100	225	-93
35	215	-248
-27	127	-208
-74	-13	-235
-98	-152	-259
-106	-235	-202
-107	-241	-105
-104	-186	-120
-93	-111	-111
-62	-46	55
-11	-6	55
53	19	20
115	46	40
155	82	53
160	114	78
131	127	137
85	109	187
36	65	20
-6	8	-236
-40	-43	-323
-71	-81	-270
-104	-109	-253
-134	-126	-198
-152	-138	-47
-148	-134	86
-119	-109	128
-68	-57	33
-11	13	-4
42	82	-20
86	131	-11
117	150	86
135	132	114
138	93	65
121	39	34
78	-13	48
12	-55	46
-63	-84	33
-133	-98	56
-175	-100	59
-181	-93	56
-151	-84	13
-103	-74	-124
-52	-62	-181
-10	-42	-167
20	-11	-163
48	33	-145
76	83	-92
104	123	22
127	141	91
131	127	119
111	84	117
68	19	108
16	-46	58
-34	-96	1
-67	-120	-53
-83	-109	-97
-81	-70	-33
-67	-17	-22
-51	32	-44
-28	64	-71
-4	71	-71
22	55	-102
46	35	-79
65	23	91
78	29	154
78	45	161
69	57	121
51	49	53
21	15	-78
-20	-34	-283
-68	-82	-398
-113	-105	-213
-141	-98	-9
-140	-70	61
-114	-41	69
-63	-26	-5
-6	-21	-52
43	-18	-233
82	3	-317
100	45	-230
107	95	-135
100	124	-23
82	110	35
51	52	82
13	-30	121
-26	-102	119
-59	-137	160
-79	-126	192
-84	-87	181
-81	-47	169
-71	-26	72
-60	-21	-8
-40	-16	15
-11	7	45
34	55	-36
81	115	-186
117	157	-229
131	161	-166
114	123	-59
77	64	-20
29	10	-90
-14	-24	-173
-46	-40	-278
-64	-54	-241
-76	-82	-58
-85	-128	43
-92	-173	169
-99	-188	238
-100	-155	205
-92	-71	107
-69	35	-42
-29	137	-131
23	206	-195
81	230	-112
125	207	71
141	149	70
121	63	26
68	-38	-48
1	-137	-165
-60	-214	-116
-99	-238	-118
-106	-205	-70
-92	-130	55
-72	-46	98
-55	10	118
-41	22	101
-22	1	32
8	-16	-63
49	3	-58
91	62	-14
120	139	-40
120	192	-85
98	186	-74
61	118	-15
26	17	22
-1	-76	41
-22	-127	64
-45	-133	76
-76	-112	46
-110	-88	7
-137	-74	-48
-140	-66	-109
-112	-52	-150
-54	-19	-205
17	30	-190
83	81	-116
128	116	-39
144	128	74
139	117	129
116	90	118
83	51	65
39	9	3
-11	-39	-23
-62	-83	-84
-109	-113	-114
-137	-118	-102
-142	-90	-60
-122	-40	22
-84	14	46
-37	52	32
4	67	45
32	60	46
50	46	-37
58	36	-43
62	33	7
69	33	15
78	25	32
82	6	7
72	-19	16
44	-39	4
2	-44	-21
-51	-37	-38
-96	-27	-179
-116	-32	-308
-105	-52	-272
-70	-76	-173
-23	-86	-52
22	-62	11
52	-4	-42
72	69	-28
82	120	35
88	125	30
84	77	2
67	-5	24
32	-84	6
-20	-126	1
-74	-122	35
-119	-92	63
-142	-59	17
-143	-51	-3
-125	-69	39
-95	-87	36
-57	-81	-29
-11	-30	-103
40	51	-81
93	138	-108
135	194	-116
156	195	-97
150	150	-74
115	79	-49
66	9	6
15	-41	11
-31	-68	-15
-67	-82	-16
-100	-90	23
-126	-99	107
-144	-103	97
-145	-96	123
-124	-75	131
-79	-41	103
-16	-3	27
46	34	-49
100	71	-82
132	101	-162
144	122	-167
139	126	-131
123	109	-96
93	68	32
48	8	27
-6	-53	-31
-70	-105	-4
-125	-129	-17
-160	-127	-47
-166	-105	-44
-139	-72	-18
-89	-40	-38
-26	-13	-32
30	12	-14
75	38	6
101	66	24
110	97	22
106	130	18
90	160	7
66	174	5
33	165	-15
-3	115	-19
-40	21	-47
-74	-103	-54
-96	-227	21
-107	-311	62
-101	-315	56
-81	-235	45
-44	-92	37
0	59	0
50	166	-83
101	197	-201
139	159	-188
163	89	-108
159	32	-96
127	16	-48
66	31	13
-13	48	104
-97	41	71
-167	-4	-49
-203	-63	-88
-199	-111	-123
-158	-121	-80
-95	-96	37
-28	-55	97
20	-20	116
49	-2	135
65	8	144
79	29	8
97	66	-187
116	110	-187
122	128	-284
106	101	-393
59	26	-279
-4	-69	-127
-69	-148	-23
-116	-178	19
-136	-156	76
-134	-105	57
-117	-57	40
-95	-34	41
-65	-28	60
-30	-20	55
16	12	8
65	65	19
107	121	-55
128	150	-77
123	131	-82
97	72	-54
59	-4	-79
19	-66	-162
-20	-99	-107
-55	-102	-42
-90	-91	54
-116	-84	81
-125	-82	93
-110	-79	113
-69	-58	98
-13	-14	77
41	49	37
82	113	38
102	150	-2
107	155	-76
109	127	-100
107	86	-13
99	50	51
71	28	39
20	15	14
-47	-2	-12
-115	-36	-18
-162	-87	-19
-175	-140	-29
-153	-176	-30
-112	-176	-19
-65	-131	-25
-28	-60	-23
3	18	-70
33	84	-111
70	121	-98
115	132	-55
151	119	-24
171	92	-13
156	53	-7
113	14	-9
49	-21	36
-20	-46	42
-78	-54	59
-115	-55	81
-130	-50	106
-127	-53	108
-109	-61	41
-78	-62	-2
-39	-43	-35
6	7	-37
51	77	-65
90	142	-223
111	174	-351
114	158	-278
97	97	-121
62	13	-46
18	-59	3
-31	-100	161
-78	-103	242
-113	-85	152
-133	-62	66
-134	-49	-83
-115	-49	-120
-77	-54	-145
-25	-55	-164
30	-44	-54
84	-23	-72
120	6	-86
133	34	-189
121	54	-245
90	62	-158
41	53	-44
-7	28	70
-45	-11	140
-76	-52	178
-92	-85	109
-103	-101	12
-111	-100	-113
-115	-91	-160
-109	-78	-157
-85	-63	-176
-42	-44	-76
15	-12	20
72	36	36
114	93	27
133	136	48
128	150	-64
105	122	-141
70	67	66
34	6	108
-4	-41	49
-42	-59	41
-83	-56	11
-115	-43	-4
-132	-36	-8
-127	-40	34
-99	-46	21
-53	-45	-27
1	-23	-23
48	16	-9
86	64	-8
115	100	-6
136	112	-27
154	93	1
159	40	43
140	-26	25
93	-88	28
11	-123	12
-85	-124	-6
-176	-99	0
-226	-62	-6
-223	-39	-10
-165	-34	1
-77	-44	14
12	-45	8
76	-16	15
100	43	-4
95	119	-31
77	174	-40
66	187	-56
66	149	-92
72	82	-160
68	20	-121
42	-16	-15
-4	-24	9
-63	-25	-24
-115	-39	-76
-142	-75	-121
-142	-113	-96
-113	-127	-3
-69	-102	45
-22	-35	84
21	40	167
60	98	138
92	116	43
113	102	25
124	72	39
118	55	-54
96	53	-219
55	51	-224
6	36	-173
-46	-7	-158
-95	-70	-22
-127	-133	60
-147	-173	-109
-147	-174	-257
-129	-149	-186
-98	-108	-30
-54	-69	95
-3	-37	42
52	-3	-70
100	33	-113
134	76	-158
148	106	-170
135	117	-127
100	97	-106
47	53	-23
-9	3	102
-60	-41	108
-96	-68	127
-114	-89	129
-116	-105	85
-103	-120	-11
-80	-123	-85
-48	-98	-22
-12	-39	94
30	43	152
72	123	104
109	169	-4
131	165	-88
133	120	-114
119	65	-90
85	29	7
37	26	69
-16	37	87
-69	33	53
-115	-11	-6
-148	-91	-35
-156	-177	-70
-141	-229	-72
-105	-212	-31
-53	-134	-15
1	-24	-50
53	72	-52
95	124	-21
123	131	19
132	106	57
121	78	17
87	57	-36
33	45	0
-28	27	11
-83	-7	-44
-117	-50	-66
-124	-90	-65
-111	-108	-58
-82	-98	-62
-54	-67	-100
-25	-29	-109
2	5	-33
37	34	72
81	63	127
123	98	105
155	127	72
158	143	40
131	135	-75
79	92	-130
16	31	-82
-35	-31	-67
-77	-78	-47
-100	-99	-31
-116	-99	-34
-125	-91	-53
-124	-79	-89
-105	-63	-84
-67	-40	-161
-16	-7	-246
39	30	-179
82	62	-68
101	76	97
99	63	213
81	37	192
56	5	210
29	-22	180
1	-43	98
-34	-58	-53
-72	-78	-171
-111	-101	-249
-136	-119	-403
-138	-123	-339
-118	-102	-194
-76	-58	-100
-26	-5	-2
27	45	-5
75	78	37
117	93	87
155	91	103
181	84	87
188	75	86
164	62	122
107	43	109
18	12	80
-85	-27	37
-176	-69	-9
-237	-100	-76
-253	-112	-132
-225	-98	-116
-165	-60	-8
-93	-7	19
-26	55	-16
28	108	-3
69	144	-10
106	156	-25
137	141	-43
159	110	-67
162	65	-67
135	16	-23
83	-41	1
14	-105	20
-50	-173	22
-99	-230	31
-121	-257	84
-120	-237	134
-104	-165	162
-79	-59	87
-45	51	2
-1	132	-83
46	170	-153
97	168	-190
130	142	-215
139	118	-156
122	98	-189
84	76	-208
39	38	-96
-5	-16	-26
-42	-74	51
-72	-116	106
-101	-123	123
-118	-97	96
-122	-51	18
-100	-9	-6
-55	16	-20
5	30	-33
64	41	-22
107	63	46
129	95	91
126	121	120
109	126	88
85	101	-88
54	53	-157
22	-2	-112
-16	-46	-138
-58	-78	-257
-99	-98	-256
-130	-118	-95
-147	-140	0
-144	-157	20
-126	-155	-18
-93	-122	37
-47	-62	104
1	6	91
48	67	68
87	103	-34
109	112	-105
113	97	-186
98	70	-205
68	40	-56
31	7	35
-7	-29	79
-45	-64	97
-81	-93	84
-107	-107	84
-124	-105	49
-126	-87	24
-108	-59	-84
-72	-29	-267
-22	2	-360
33	37	-207
84	72	3
119	105	67
134	122	87
127	114	69
98	80	108
54	30	95
4	-13	77
-44	-35	78
-83	-28	57
-105	-11	30
-111	-1	-28
-101	-18	-38
-79	-61	-87
-50	-111	-98
-16	-129	-90
17	-89	-34
48	8	48
78	127	51
103	215	48
123	224	15
132	142	-20
127	-1	-3
99	-143	7
44	-223	-40
-24	-209	-137
-98	-122	-120
-156	-15	7
-180	57	53
-164	67	-10
-115	31	-120
-48	-14	-161
16	-27	-229
66	6	-207
104	60	-45
127	102	24
140	102	79
140	61	124
115	10	133
62	-26	142
-17	-32	86
-94	-21	-12
-149	-18	-70
-161	-41	-137
-133	-84	-223
-88	-122	-185
-47	-126	-87
-33	-85	22
-37	-15	109
-43	56	97
-27	100	147
20	106	125
84	92	-53
139	71	-104
159	61	-113
136	54	-38
78	40	-6
14	5	-65
-38	-45	-42
-69	-94	-108
-81	-124	-153
-86	-122	-179
-87	-99	-24
-86	-65	112
-76	-40	53
-50	-21	37
-20	1	-25
14	35	-23
40	87	33
60	142	80
75	174	104
89	161	56
97	98	-15
89	2	-121
56	-93	-253
-2	-154	-246
-69	-171	-92
-129	-144	-31
-159	-104	-178
-149	-70	-192
-107	-54	-75
-48	-52	-21
7	-41	89
51	-12	130
82	40	142
101	96	123
113	134	65
114	137	22
102	102	-47
70	46	-43
27	-11	-13
-24	-54	18
-74	-79	43
-111	-92	5
-134	-99	-36
-139	-106	-106
-131	-104	-145
-105	-87	-99
-65	-48	-58
-16	4	2
37	56	-9
86	100	-15
124	126	29
143	139	-34
148	138	-7
134	128	40
104	106	16
62	68	-15
12	22	-35
-40	-31	9
-89	-77	56
-118	-110	83
-126	-127	132
-114	-130	155
-84	-121	102
-44	-96	-21
-3	-54	-150
34	4	-227
66	66	-320
89	114	-265
102	130	-107
101	106	-14
84	59	9
52	6	-47
7	-33	-17
-42	-52	44
-91	-56	66
-126	-62	38
-143	-72	-45
-139	-78	-84
-112	-65	-88
-64	-26	-20
-6	30	137
55	84	276
109	106	350
144	92	297
156	55	4
143	24	-296
110	21	-432
56	41	-518
-6	63	-387
-71	55	-194
-130	-3	-128
-172	-93	45
-188	-185	116
-173	-235	127
-133	-225	116
-79	-161	53
-23	-70	52
22	16	9
53	88	18
75	140	-36
92	174	-81
106	180	24
116	145	111
114	66	155
92	-45	150
50	-150	149
-3	-205	150
-54	-184	70
-92	-103	-56
-104	-8	-180
-92	52	-295
-57	52	-436
-12	9	-437
37	-33	-219
84	-31	10
111	25	119
111	111	95
80	181	30
21	195	-31
-42	149	-86
-89	61	-121
-100	-29	-88
-79	-99	24
-44	-143	101
-24	-165	126
-36	-175	122
-75	-164	104
-113	-127	48
-120	-62	-13
-81	14	-1
2	77	-33
94	106	-71
162	100	-70
184	78	-114
164	63	-111
116	69	-38
62	86	0
15	85	22
-27	51	77
-65	-16	48
-98	-88	-28
-117	-131	-65
-115	-126	-55
-94	-79	-2
-59	-19	34
-30	30	69
-8	49	102
11	49	141
35	48	152
72	56	87
113	72	-19
141	84	-136
140	80	-228
103	56	-215
38	23	-104
-29	-11	-70
-80	-38	-76
-108	-62	-20
-118	-94	40
-123	-126	121
-124	-153	145
-118	-149	78
-94	-106	-29
-42	-31	-47
26	51	-49
100	109	-225
152	125	-399
169	98	-333
145	51	-96
94	13	-14
32	-5	117
-31	-2	152
-84	2	5
-122	-9	-92
-142	-46	-190
-140	-99	-187
-118	-148	-97
-80	-174	39
-36	-163	112
2	-114	137
32	-41	103
56	37	10
79	103	-32
100	143	5
117	150	-1
117	132	-104
99	99	-89
61	61	-35
14	26	-76
-31	-9	1
-65	-44	38
-89	-87	-65
-107	-125	-96
-122	-151	-115
-130	-147	-82
-123	-111	-12
-92	-51	24
-35	15	77
34	68	103
101	101	100
145	112	97
159	114	90
144	111	94
113	105	78
74	89	68
31	57	24
-10	12	-48
-52	-34	-78
-89	-70	-125
-112	-86	-149
-113	-83	-117
-89	-69	-97
-46	-56	-83
4	-42	-62
41	-22	-23
58	10	0
51	51	7
33	93	34
16	117	22
13	114	-28
22	84	-94
35	35	-124
39	-13	-114
21	-55	-69
-20	-89	-21
-76	-114	-8
-125	-133	10
-156	-136	13
-153	-118	33
-117	-74	52
-58	-14	37
10	45	22
71	87	-10
118	101	-21
140	95	-25
139	80	0
119	67	64
82	57	185
37	43	285
-5	17	254
-40	-23	112
-64	-64	-147
-79	-94	-309
-82	-98	-387
-77	-78	-430
-64	-41	-447
-46	-9	-351
-22	10	-14
7	19	174
36	26	185
64	45	78
85	77	-30
90	106	-25
78	119	-36
45	94	-11
1	33	-53
-52	-54	-30
-100	-141	55
-132	-204	64
-141	-226	60
-128	-200	30
-96	-142	-25
-48	-68	-10
2	1	-29
52	55	-174
93	91	-222
118	106	-243
126	112	-126
115	108	-20
87	103	-71
48	93	4
7	79	28
-34	55	91
-65	11	116
-88	-56	77
-95	-142	46
-85	-224	37
-62	-265	124
-29	-243	111
4	-144	107
32	1	140
52	147	137
66	238	64
82	248	-34
94	181	-90
104	84	-162
99	5	-254
70	-25	-238
18	-13	-176
-47	7	-78
-107	-1	24
-148	-50	25
-156	-117	49
-134	-162	19
-97	-154	-25
-54	-90	-41
-16	0	-29
16	74	2
41	104	-11
65	93	5
83	68	32
86	54	52
78	64	53
56	82	55
28	81	26
-3	43	-44
-31	-19	-48
-57	-83	-30
-81	-120	12
-92	-115	46
-87	-82	3
-56	-36	-6
-6	-4	-17
52	14	-112
102	26	-234
123	43	-206
110	71	-88
71	98	-58
25	110	-45
-6	93	-103
-16	50	-90
-12	-2	87
-10	-49	127
-24	-79	81
-61	-94	116
-109	-99	112
-148	-101	77
-154	-96	-21
-122	-75	-134
-63	-36	-157
1	15	-207
52	58	-254
82	77	-181
89	59	-31
83	18	-9
72	-20	-42
62	-30	-51
50	-5	-163
33	35	-207
11	56	-71
-14	29	61
-39	-52	135
-61	-154	155
-83	-227	29
-98	-221	-22
-103	-133	20
-87	1	28
-43	120	-98
22	169	-131
92	136	36
144	53	49
159	-15	53
133	-28	-15
83	18	-97
26	85	-40
-18	110	-7
-45	62	-7
-62	-47	-3
-79	-160	84
-97	-219	149
-107	-189	115
-97	-88	62
-58	28	13
0	105	-26
58	119	-59
96	93	-88
104	64	-88
86	66	-71
58	96	-57
34	121	-17
18	114	3
3	62	-21
-21	-14	-47
-55	-82	-56
-95	-110	-46
-122	-102	-46
-128	-81	-8
-108	-66	8
-70	-69	-2
-25	-68	-15
18	-40	-5
55	22	56
90	104	69
117	162	86
133	171	76
132	122	24
111	46	-31
78	-16	-78
37	-38	-72
6	-25	-91
-22	-7	-115
-44	-15	-42
-75	-56	72
-111	-107	156
-142	-135	76
-153	-115	-3
-126	-48	-44
-63	29	-144
18	83	-149
92	88	-211
130	59	-265
128	24	-251
92	7	-147
46	16	-20
6	35	60
-22	39	128
-46	15	123
-71	-33	135
-100	-86	95
-125	-119	-96
-129	-127	-283
-107	-118	-289
-57	-97	-168
-2	-76	1
47	-47	78
81	-7	19
96	40	13
104	86	-31
105	109	-55
101	103	29
81	65	2
40	20	-43
-18	-16	-112
-80	-39	-232
-125	-53	-201
-143	-80	-89
-129	-117	30
-89	-153	155
-38	-156	145
15	-99	111
65	9	123
105	137	71
126	227	-13
124	240	-33
94	171	10
42	59	42
-8	-43	30
-42	-94	-19
-46	-83	-30
-31	-41	-43
-20	-11	-81
-34	-25	-91
-83	-78	-22
-143	-135	32
-187	-162	25
-178	-130	59
-110	-53	32
-2	41	26
107	117	31
186	155	16
214	158	44
198	140	27
158	121	8
111	104	-24
69	83	-55
26	49	-77
-22	-2	-76
-78	-59	-30
-129	-110	3
-161	-136	21
-164	-129	14
-139	-86	-16
-94	-16	-6
-42	66	26
7	139	9
50	183	-26
90	182	-9
121	129	6
140	43	3
140	-43	-46
114	-102	-208
67	-115	-267
9	-95	-255
-47	-70	-246
-93	-77	-151
-120	-118	-60
-130	-176	2
-126	-211	-20
-107	-188	11
-72	-106	105
-26	7	158
29	105	216
81	155	210
115	150	135
126	114	67
113	79	-54
79	63	-340
34	60	-463
-12	43	-457
-56	-4	-325
-92	-80	-68
-119	-154	-54
-131	-192	52
-129	-174	110
-105	-108	116
-65	-29	164
-21	29	120
22	51	131
54	47	62
78	41	2
90	49	-40
96	80	-75
94	113	-79
79	130	-78
49	120	-31
3	83	-42
-46	27	-63
-91	-36	-55
-116	-100	-67
-114	-162	8
-90	-209	87
-50	-224	56
-8	-190	59
30	-101	75
59	20	87
80	135	51
91	206	-56
91	211	-84
82	164	-82
62	92	-44
36	32	-17
11	-2	-9
-13	-20	6
-30	-45	-4
-43	-86	33
-50	-130	74
-58	-153	123
-64	-130	112
-65	-66	39
-59	17	-47
-38	83	-145
-4	108	-196
41	98	-194
87	76	-112
117	70	-24
120	89	-2
91	113	6
39	114	42
-22	70	64
-72	-13	52
-108	-106	3
-122	-170	-84
-127	-184	-113
-130	-151	-117
-126	-93	-123
-111	-36	32
-69	8	106
-1	42	37
85	80	118
166	121	85
216	154	0
228	160	-121
194	124	-207
129	56	-28
51	-21	108
-24	-76	49
-90	-97	-44
-136	-87	-46
-160	-70	-83
-160	-68	-178
-136	-83	-211
-100	-98	-211
-59	-94	-102
-22	-60	138
8	-3	213
36	56	161
61	92	10
90	97	-252
107	77	-438
106	45	-468
82	19	-215
33	-3	-116
-25	-26	-44
-79	-61	90
-113	-102	82
-124	-136	144
-115	-149	130
-95	-131	138
-66	-90	107
-34	-40	59
4	2	24
47	31	-12
87	50	-24
117	70	-13
130	93	32
121	114	2
96	121	9
56	101	32
8	56	24
-43	-3	-29
-92	-62	-52
-133	-104	-75
-156	-122	-95
-155	-117	-61
-125	-96	15
-78	-62	94
-20	-25	24
31	16	-52
71	55	-55
97	88	-15
113	112	-3
117	122	12
111	119	16
91	99	-7
58	62	-8
16	10	-16
-30	-51	3
-69	-112	0
-95	-158	4
-101	-169	-8
-88	-142	-10
-54	-85	26
-6	-16	29
51	45	30
106	84	32
141	98	29
145	99	42
116	98	30
59	102	-22
2	105	-77
-44	96	-110
-64	65	-98
-65	10	-109
-66	-57	-118
-80	-116	-113
-112	-147	-131
-148	-141	-123
-168	-102	-77
-154	-48	-85
-101	-2	-118
-25	27	-131
56	32	-50
116	26	32
152	21	47
163	31	135
159	56	145
148	85	138
128	101	83
91	83	-17
32	32	-18
-44	-40	-68
-123	-114	-215
-187	-162	-312
-211	-169	-201
-190	-135	-70
-128	-76	20
-48	-8	-35
29	48	-76
84	85	-41
107	100	-91
111	93	-18
99	72	14
89	39	16
76	0	29
56	-40	10
19	-76	32
-37	-95	4
-105	-100	9
-172	-91	17
-205	-78	7
-199	-65	40
-152	-57	71
-77	-54	26
8	-44	6
81	-23	-2
130	16	-79
159	64	-76
164	114	11
151	147	45
123	149	-15
81	115	-75
26	52	-91
-30	-19	-95
-78	-79	-54
-110	-109	6
-123	-109	20
-117	-86	-24
-100	-50	11
-72	-15	60
-40	22	38
2	56	39
47	95	13
94	127	10
132	141	22
153	127	-36
151	81	-63
124	20	-12
81	-33	8
26	-60	-37
-28	-61	-69
-79	-53	-74
-117	-53	-51
-141	-79	-45
-152	-112	-50
-141	-127	-53
-113	-100	-105
-69	-23	-111
-14	77	-65
44	161	5
96	190	77
128	161	123
137	95	103
121	26	57
81	-15	25
31	-37	-33
-19	-58	-2
-61	-101	24
-92	-160	-25
-110	-208	-64
-120	-215	-66
-122	-163	-39
-111	-69	-119
-83	24	-186
-33	81	-205
36	85	-195
110	60	-84
171	41	78
198	51	224
178	84	190
110	106	104
16	88	-4
-75	21	-123
-136	-67	-265
-153	-137	-335
-130	-159	-195
-92	-134	-67
-60	-89	-9
-51	-51	3
-60	-37	-5
-67	-32	-39
-54	-14	-85
-14	34	-67
46	101	4
104	157	61
138	171	91
137	139	100
107	76	81
66	12	85
22	-29	106
-16	-42	134
-49	-39	166
-79	-40	196
-99	-52	160
-100	-66	-51
-69	-66	-242
-11	-41	-298
61	2	-222
121	49	-116
144	75	-77
120	77	-56
62	62	-85
-3	45	-85
-47	35	-98
-55	29	-68
-37	21	25
-16	1	77
-16	-29	100
-49	-60	79
-102	-84	47
-151	-90	-16
-164	-90	-74
-135	-87	-113
-71	-84	-128
0	-69	-96
59	-33	-38
96	29	22
111	104	29
124	162	35
133	171	26
135	124	13
119	34	7
72	-59	-7
7	-122	-7
-68	-133	-2
-125	-106	63
-150	-62	111
-140	-33	75
-108	-26	6
-70	-24	-10
-33	-16	4
3	16	-91
44	60	-168
89	100	-60
128	115	118
150	102	222
140	74	50
104	45	-249
49	28	-341
-5	13	-292
-50	-12	-278
-83	-56	-279
-102	-116	-145
-118	-165	-9
-126	-182	116
-122	-153	175
-100	-92	158
-56	-22	187
-4	28	119
46	50	61
86	54	24
105	53	-76
110	63	-206
101	76	-301
85	77	-248
56	53	-149
15	4	-80
-35	-53	-17
-87	-98	76
-130	-111	103
-158	-92	68
-158	-55	63
-133	-21	52
-86	0	96
-24	16	49
42	33	40
104	63	129
150	99	151
170	126	100
159	127	69
124	97	36
76	49	-36
27	1	-142
-11	-29	-238
-36	-41	-266
-55	-45	-316
-72	-60	-201
-96	-90	-7
-120	-116	-8
-136	-118	-59
-135	-77	-89
-107	-1	-69
-48	80	3
26	124	49
101	110	53
153	47	42
167	-31	-4
139	-80	18
78	-78	63
7	-34	9
-58	12	19
-99	21	32
-117	-20	22
-117	-92	22
-110	-149	-9
-99	-150	-19
-77	-79	6
-35	41	20
28	162	-15
110	236	-7
187	235	-55
237	170	-83
234	77	-19
178	-4	14
81	-45	55
-27	-49	36
-115	-34	17
-166	-32	60
-173	-56	44
-151	-105	-12
-113	-152	-39
-83	-166	-39
-62	-133	-4
-48	-59	2
-28	27	-125
6	97	-211
50	122	-147
97	104	-139
126	64	-182
128	29	-217
102	15	-192
56	16	-52
10	17	22
-28	1	48
-53	-39	80
-76	-86	20
-96	-120	7
-118	-122	80
-133	-96	151
-125	-53	183
-90	-13	110
-28	14	17
44	30	-88
107	43	-178
144	63	-125
143	82	-50
115	91	-13
69	81	-27
23	45	-54
-19	0	-74
-50	-40	-74
-77	-61	-86
-97	-66	-80
-107	-61	-10
-104	-53	30
-83	-45	58
-47	-32	63
-3	-8	24
44	28	-86
82	61	-161
107	79	-184
117	68	-227
111	37	-183
90	5	-65
57	-13	52
16	-4	175
-31	12	280
-75	14	267
-107	-17	171
-125	-79	60
-125	-145	-77
-107	-183	-209
-72	-162	-227
-25	-88	-75
31	14	30
85	105	9
132	154	-68
158	161	-156
157	139	-181
124	117	-114
66	102	-3
-4	89	25
-67	60	48
-109	4	76
-123	-74	47
-115	-151	24
-97	-195	54
-81	-189	100
-69	-138	85
-57	-65	47
-35	3	32
3	52	4
52	78	-46
97	90	-79
118	99	-71
110	104	1
77	100	16
33	77	-13
-1	35	-18
-22	-16	-67
-34	-62	-139
-49	-96	-140
-74	-111	-97
-100	-114	-61
-117	-109	16
-107	-97	40
-67	-74	28
-5	-35	16
61	18	-19
111	71	4
140	112	-20
144	127	-19
131	116	12
101	84	-25
58	43	27
4	5	-30
-56	-31	-233
-108	-63	-215
-141	-96	-36
-148	-120	-31
-132	-131	-81
-105	-121	-50
-79	-86	-80
-54	-35	-134
-26	20	-109
11	64	-51
58	89	-43
104	95	-6
135	85	23
133	68	80
103	51	163
51	35	181
-3	16	118
-45	-6	43
-75	-34	-65
-94	-64	-183
-110	-92	-206
-121	-109	-176
-117	-107	-27
-93	-82	93
-46	-28	135
14	48	113
71	126	65
115	183	6
138	194	-156
149	148	-193
147	51	-96
137	-56	68
113	-143	217
74	-175	196
18	-150	64
-42	-92	-69
-92	-37	-141
-124	-18	-206
-132	-35	-192
-125	-68	-160
-107	-83	-67
-83	-57	70
-49	2	81
-6	71	-2
38	115	-131
78	120	-150
94	93	-97
85	58	-2
53	41	64
12	43	62
-26	49	64
-54	32	28
-74	-17	26
-88	-87	49
-97	-149	59
-96	-166	35
-80	-129	-1
-43	-46	-28
8	43	-3
64	110	40
107	135	-23
127	123	-117
128	93	-90
111	66	15
90	49	-11
63	37	-105
36	20	-108
5	-13	-71
-30	-55	-79
-68	-96	-139
-108	-122	-144
-141	-125	-123
-166	-113	-135
-168	-89	-70
-139	-62	-12
-82	-34	7
-3	-2	98
78	34	91
136	70	87
156	93	139
136	98	154
94	81	164
44	49	89
9	21	7
-14	1	-85
-34	-7	-160
-59	-12	-171
-89	-22	-189
-112	-43	-136
-110	-69	-77
-77	-87	-109
-18	-86	-92
47	-59	-86
96	-16	-22
116	34	46
112	79	29
92	104	60
71	110	46
49	96	37
27	60	10
-6	7	-21
-47	-59	-21
-87	-127	24
-111	-179	63
-109	-192	-6
-85	-166	-30
-43	-99	-62
-1	-16	-133
29	59	-114
48	104	-48
54	117	-9
54	109	3
51	92	-16
44	81	-36
36	78	-7
23	70	16
4	54	76
-21	17	86
-52	-33	53
-88	-91	43
-118	-134	-16
-134	-153	-62
-130	-140	-113
-97	-96	-153
-47	-30	-117
11	40	-78
62	95	-91
99	120	-65
120	110	-2
127	72	54
123	30	121
106	2	151
76	-2	185
31	8	200
-23	15	120
-72	-2	21
-109	-44	-157
-123	-93	-283
-115	-125	-187
-90	-113	-9
-54	-60	21
-15	12	-151
25	72	-324
61	96	-443
96	80	-320
117	39	-90
120	3	54
100	-13	97
61	-5	26
11	7	33
-41	5	-40
-81	-16	-125
-109	-55	-104
-121	-96	-32
-118	-121	64
-105	-124	112
-80	-103	101
-46	-64	95
-4	-8	106
37	55	107
78	119	138
105	168	101
118	183	29
114	156	-12
92	89	-40
58	3	-33
15	-70	14
-30	-112	105
-71	-113	147
-102	-85	111
-113	-51	69
-106	-30	-2
-80	-24	-114
-42	-27	-244
1	-21	-331
40	3	-218
71	38	-64
94	76	-88
104	94	-96
106	90	-55
96	65	-51
72	34	-53
32	10	-12
-23	-6	57
-89	-21	26
-152	-43	-17
-194	-78	-62
-206	-119	-30
-180	-149	-9
-124	-152	-89
-54	-121	-74
10	-62	-23
57	7	25
89	67	-28
111	103	-58
135	110	-18
159	100	-1
170	84	69
156	71	86
103	61	22
13	48	-36
-88	17	-37
-170	-31	21
-210	-90	89
-198	-137	127
-144	-152	145
-76	-121	137
-12	-53	97
35	28	5
69	92	-125
99	117	-223
129	104	-272
155	74	-282
163	47	-235
144	38	-94
100	41	26
36	37	-4
-24	6	-31
-72	-51	-15
-107	-114	0
-129	-153	-10
-141	-144	-9
-148	-96	46
-139	-32	53
-107	17	-21
-49	32	-147
20	20	-239
86	6	-215
128	18	-86
138	61	28
118	121	67
83	163	122
41	156	129
3	94	64
-34	-9	52
-69	-115	108
-101	-194	111
-123	-223	65
-124	-195	93
-100	-130	111
-50	-42	-16
11	40	-140
69	102	-82
111	128	-51
131	125	-150
126	100	-233
104	67	-114
69	40	-24
31	21	-75
-6	5	-87
-39	-23	-110
-67	-61	-17
-91	-105	60
-109	-139	41
-120	-144	13
-122	-115	-30
-111	-56	-5
-84	7	-68
-42	56	-128
10	79	-85
57	72	-75
95	51	-15
113	26	39
110	8	-5
94	-4	-12
65	-11	54
38	-14	104
8	-18	107
-20	-22	-23
-47	-27	-180
-75	-36	-64
-91	-45	122
-93	-52	164
-76	-46	152
-40	-24	96
5	16	57
52	64	-38
90	109	-202
114	139	-298
117	147	-282
102	130	-176
70	99	-105
29	53	-44
-17	-2	-1
-63	-60	88
-102	-116	155
-132	-153	100
-144	-157	51
-137	-122	-71
-113	-57	-141
-69	15	-142
-18	68	-89
37	88	-19
89	67	3
125	29	42
148	-5	70
154	-13	136
151	4	120
135	32	31
105	50	5
55	37	-3
-17	-2	-81
-107	-56	-205
-191	-104	-189
-248	-130	-112
-252	-129	-67
-197	-109	119
-101	-78	249
4	-38	238
83	7	132
118	58	-49
113	107	-128
88	140	-225
69	145	-271
66	115	-210
70	57	-104
62	-6	6
25	-54	-1
-36	-77	8
-100	-71	91
-141	-53	138
-141	-37	32
-106	-31	-12
-50	-35	-62
-2	-38	-178
32	-32	-132
52	-14	-108
69	13	-119
91	39	-106
111	58	-130
120	64	-127
101	56	-98
57	33	-135
-3	-2	-109
-63	-47	11
-107	-91	74
-130	-122	112
-133	-133	141
-125	-117	108
-106	-79	30
-76	-29	-13
-32	20	29
23	58	39
76	82	47
116	90	72
132	89	90
125	83	94
97	68	24
60	51	-36
22	23	-71
-18	-4	-87
-52	-35	-58
-84	-58	-8
-102	-72	52
-104	-78	67
-83	-69	36
-41	-48	-86
7	-17	-201
54	19	-192
86	54	-95
96	83	-58
86	98	-105
63	103	-43
39	97	44
18	81	97
5	53	84
-6	14	22
-21	-37	1
-45	-92	-55
-81	-133	-167
-118	-154	-211
-143	-150	-98
-141	-128	8
-110	-102	13
-49	-71	15
21	-35	-11
82	22	-10
120	102	16
133	187	24
130	241	101
116	231	158
95	139	181
64	-7	169
20	-152	87
-36	-237	-70
-95	-230	-182
-137	-150	-140
-152	-52	-106
-132	10	-99
-87	6	-200
-35	-37	-287
10	-72	-215
41	-51	-143
68	30	-15
97	138	87
129	214	126
155	213	147
155	138	147
116	27	112
37	-62	84
-59	-99	66
-147	-83	-3
-194	-48	-62
-191	-35	-182
-154	-56	-307
-103	-100	-244
-60	-126	-195
-36	-112	-176
-19	-55	-64
7	24	-22
50	91	74
110	124	171
159	121	161
176	97	128
151	67	52
88	41	-10
12	15	-64
-52	-19	-125
-93	-59	-158
-108	-99	-114
-111	-122	-68
-111	-119	-10
-111	-94	107
-100	-54	135
-68	-13	75
-15	25	44
49	59	-12
107	95	-30
142	122	-21
149	132	-18
127	119	-10
91	78	-11
49	19	-77
8	-38	-147
-36	-79	-162
-79	-98	-215
-117	-103	-145
-143	-103	-4
-148	-104	52
-127	-93	27
-87	-63	-11
-37	-8	-15
12	57	-54
54	105	-38
89	110	-3
115	68	26
133	3	51
141	-49	56
131	-56	45
98	-21	20
43	28	26
-30	56	48
-105	34	85
-169	-25	56
-203	-93	24
-195	-124	-19
-147	-104	-86
-68	-47	-122
17	15	-78
90	48	-1
132	49	-13
142	39	-27
130	43	-19
107	77	-12
90	117	-7
71	138	6
48	110	107
11	38	191
-40	-49	160
-95	-108	29
-138	-113	-134
-153	-74	-159
-136	-19	-241
-95	11	-353
-44	2	-295
8	-32	-194
49	-57	-128
81	-47	-27
103	-1	134
113	59	155
111	96	94
92	86	3
59	33	-131
15	-36	-219
-32	-92	-180
-76	-114	-43
-115	-105	104
-141	-81	242
-156	-56	263
-148	-38	216
-112	-19	108
-52	11	-4
20	51	-50
87	96	-135
132	122	-200
147	118	-320
129	76	-289
98	10	-202
58	-53	-210
22	-98	-110
-15	-107	-35
-53	-93	46
-93	-67	34
-126	-51	72
-141	-51	177
-134	-61	150
-102	-69	132
-54	-56	83
0	-20	-23
48	39	-58
89	101	-11
120	142	-18
139	155	-39
148	132	-40
135	93	-66
100	49	-4
43	18	89
-24	0	91
-91	-13	54
-141	-28	45
-166	-53	35
-162	-84	-7
-130	-106	-96
-75	-102	-222
-3	-62	-176
67	8	-65
122	89	-41
145	145	-8
131	153	-25
85	95	-39
28	-6	-14
-21	-114	3
-46	-186	14
-50	-192	29
-44	-141	3
-47	-63	-24
-67	-7	-36
-100	-2	-44
-126	-44	-27
-128	-100	-32
-97	-120	-10
-39	-84	16
28	4	55
85	105	108
123	174	102
138	190	32
139	157	-77
129	106	-66
107	64	-4
71	45	-34
14	31	-132
-47	6	-205
-106	-40	-171
-140	-94	-64
-143	-125	40
-116	-113	56
-71	-58	31
-27	16	0
14	76	29
46	104	74
78	97	102
106	77	130
128	62	-32
133	58	-193
116	49	-252
77	20	-205
20	-33	-124
-37	-98	-100
-87	-144	-12
-120	-153	-44
-137	-122	-152
-142	-75	-172
-131	-40	-97
-104	-33	1
-60	-50	70
-8	-64	116
44	-55	139
87	-10	134
109	52	69
111	103	12
99	119	-56
76	93	-35
46	41	17
13	-11	22
-24	-42	60
-62	-50	39
-95	-46	-13
-119	-44	-140
-125	-53	-169
-112	-62	-84
-82	-61	-64
-38	-36	-80
12	11	-129
65	64	-141
111	109	-55
147	128	-22
163	121	-23
159	92	-49
128	49	-16
76	4	119
6	-45	57
-77	-91	34
-151	-129	36
-204	-151	-11
-224	-149	-2
-198	-120	3
-137	-74	38
-55	-22	76
22	28	136
78	68	89
106	104	70
111	131	54
109	150	-21
104	147	-105
98	114	-184
81	57	-215
44	-17	-248
-10	-82	-184
-68	-123	-154
-114	-131	-103
-133	-119	-30
-120	-103	-12
-87	-89	46
-46	-76	70
-8	-48	79
29	8	65
69	97	33
110	195	9
147	271	-6
159	291	-15
134	237	-4
77	120	15
0	-28	18
-68	-166	19
-107	-258	-50
-110	-287	-93
-91	-256	14
-75	-188	91
-74	-108	105
-89	-40	106
-105	0	19
-97	16	-43
-51	18	-99
20	24	-144
95	41	-110
145	74	-47
159	110	31
135	132	68
90	130	95
42	96	130
3	43	39
-31	-16	-115
-63	-61	-282
-96	-90	-333
-122	-98	-242
-129	-94	-198
-111	-83	-98
-65	-60	2
-8	-25	-51
49	23	11
92	76	96
115	115	23
121	129	24
111	108	37
91	61	40
57	4	-39
16	-44	-118
-34	-74	-88
-79	-88	-13
-113	-94	122
-130	-103	224
-128	-115	164
-111	-122	60
-83	-109	-19
-48	-69	-196
-6	-8	-340
41	58	-260
85	109	-65
121	132	44
136	128	60
127	105	44
94	74	65
45	41	60
-6	13	34
-53	-18	6
-89	-53	-51
-114	-88	-147
-126	-113	-154
-126	-117	-104
-108	-102	-89
-74	-68	-65
-26	-31	-69
26	6	-18
68	37	-25
96	68	-51
104	106	-66
99	142	-41
86	162	82
69	145	152
49	80	159
20	-26	130
-16	-136	64
-61	-209	-39
-100	-213	-65
-119	-147	-34
-108	-46	-13
-63	35	-5
2	63	-32
70	32	-51
118	-21	-62
133	-48	-45
117	-12	42
81	72	144
41	165	144
10	204	29
-14	161	-92
-36	49	-142
-69	-78	-192
-113	-162	-190
-156	-175	-79
-176	-127	36
-165	-62	92
-119	-21	54
-53	-17	1
10	-32	-37
57	-30	-43
84	10	12
96	85	5
102	164	-94
109	207	-151
111	199	-96
99	138	-55
68	51	-20
23	-34	67
-26	-100	124
-67	-142	121
-95	-163	106
-108	-163	32
-111	-145	-74
-105	-112	-91
-87	-67	-127
-49	-24	-209
4	10	-211
61	30	-130
110	46	16
135	63	87
133	84	34
110	99	-43
76	92	-86
39	55	-44
0	-4	28
-41	-64	98
-88	-104	83
-129	-103	45
-157	-68	46
-152	-19	-9
-113	20	-81
-52	30	-234
18	15	-345
74	-13	-218
106	-31	-57
114	-27	57
106	4	74
91	44	37
71	78	94
50	84	121
20	55	168
-17	1	129
-57	-64	34
-93	-118	-88
-115	-139	-248
-123	-122	-300
-115	-72	-333
-95	-12	-299
-64	40	-109
-26	70	20
17	71	24
62	62	6
99	49	-3
119	48	93
117	52	155
96	52	130
58	34	159
19	-5	176
-16	-54	184
-40	-97	130
-54	-112	37
-65	-96	-72
-71	-55	-140
-76	-12	-92
-70	19	-97
-50	30	-136
-16	30	-97
31	33	-67
76	46	-75
107	68	-19
113	86	33
93	83	46
54	54	104
14	4	71
-18	-49	-27
-35	-89	-34
-44	-105	-44
-58	-100	-57
-86	-84	-91
-122	-64	-138
-155	-48	-139
-157	-27	-67
-119	0	21
-36	41	94
62	90	141
154	129	106
206	149	86
205	137	54
161	110	-26
88	85	-153
9	78	-198
-59	89	-137
-108	90	-85
-139	46	-64
-151	-62	-53
-139	-221	-33
-111	-371	2
-67	-434	39
-16	-361	36
32	-160	69
70	91	22
100	283	-145
121	336	-275
131	233	-295
127	38	-176
101	-137	-21
54	-208	97
-6	-159	175
-68	-46	233
-112	41	278
-130	42	222
-123	-34	52
-96	-124	-159
-65	-153	-233
-36	-86	-103
-7	45	11
24	169	-26
59	219	-167
95	183	-207
120	101	-167
127	33	-168
111	20	-81
76	50	-18
27	80	-47
-29	58	-41
-86	-23	32
-130	-131	95
-163	-208	98
-168	-209	2
-145	-141	-75
-99	-44	-54
-38	32	-72
19	59	-25
63	50	34
91	38	65
105	54	96
113	99	112
115	142	118
110	145	101
86	90	35
41	-6	-75
-20	-106	-78
-82	-164	-105
-129	-167	-168
-149	-122	-174
-139	-65	-120
-110	-26	-10
-70	-11	16
-33	-13	15
5	-8	-13
42	10	-48
79	39	-21
113	68	-36
132	83	-85
132	77	-79
107	56	-17
66	29	42
16	1	57
-34	-22	46
-75	-42	-19
-105	-60	-28
-118	-66	26
-116	-62	18
-95	-45	12
-57	-21	14
-8	6	24
41	31	24
82	59	100
107	95	126
113	132	6
105	162	-31
87	158	-119
65	110	-252
40	21	-282
12	-84	-234
-20	-164	-93
-53	-198	22
-87	-176	13
-116	-124	13
-136	-78	19
-140	-57	1
-125	-64	46
-89	-69	101
-36	-49	125
22	11	106
75	91	91
111	157	86
121	171	21
106	131	-147
74	56	-215
28	-19	-139
-20	-63	-82
-65	-77	-24
-102	-70	-123
-123	-68	-147
-126	-80	-128
-106	-91	-173
-65	-84	-98
-13	-40	-52
43	32	86
95	115	176
131	177	242
147	193	332
137	162	271
107	96	77
58	17	-176
2	-55	-282
-54	-111	-349
-99	-142	-365
-125	-153	-215
-133	-140	-34
-123	-115	87
-103	-83	103
-74	-52	64
-38	-29	79
6	-7	56
53	24	22
98	77	-64
130	143	-278
143	204	-268
135	222	-95
107	171	-43
71	51	-11
28	-102	34
-15	-234	81
-57	-290	65
-97	-257	-1
-129	-159	-32
-147	-51	-35
-142	15	-7
-115	18	-16
-70	-18	-25
-16	-49	32
34	-35	43
75	32	49
103	121	59
117	191	70
120	203	93
111	159	99
90	87	140
53	22	130
9	-11	21
-41	-21	-72
-85	-25	-139
-115	-44	-204
-128	-71	-192
-119	-92	-112
-94	-81	-34
-51	-38	-44
-1	13	-79
51	47	-122
94	44	-122
118	15	-38
120	-14	-11
101	-14	24
68	17	21
29	53	24
-10	63	69
-44	21	15
-77	-59	-31
-102	-143	-27
-120	-184	-60
-124	-163	-38
-110	-96	0
-79	-12	32
-34	47	142
14	71	137
58	71	37
94	71	-99
115	87	-247
122	109	-215
113	119	-103
85	97	-67
38	42	26
-18	-25	-5
-71	-82	-126
-114	-105	-66
-135	-101	16
-134	-88	52
-114	-81	86
-84	-83	102
-43	-80	72
0	-52	30
47	7	-4
92	83	-30
124	149	-42
137	171	15
123	149	10
87	88	-96
36	15	-198
-17	-42	-303
-63	-80	-328
-96	-102	-210
-116	-119	-18
-124	-135	52
-119	-138	81
-99	-117	54
-64	-60	19
-19	18	1
32	96	-44
79	141	34
111	143	61
130	106	40
132	49	49
119	1	9
96	-24	12
58	-26	83
14	-17	134
-32	-14	161
-71	-29	74
-93	-60	-81
-95	-92	-179
-83	-110	-210
-68	-99	-197
-57	-60	-113
-51	-2	10
-38	56	33
-3	97	46
51	110	22
116	100	47
162	77	108
162	57	79
105	47	59
7	45	-56
-97	38	-188
-175	13	-190
-198	-34	-88
-176	-93	-21
-131	-142	-17
-91	-157	-18
-62	-127	-65
-41	-66	-111
-13	4	-160
36	51	-93
100	67	-7
159	50	49
192	23	95
186	11	56
148	17	29
91	38	-48
33	47	-60
-26	28	-26
-80	-24	-7
-133	-92	40
-175	-144	7
-191	-157	-45
-169	-125	-51
-108	-62	-38
-25	3	-7
52	56	26
105	94	104
123	129	142
121	169	102
111	210	65
105	225	48
97	187	-32
77	83	-122
32	-64	-245
-31	-207	-341
-95	-291	-273
-141	-283	-176
-153	-204	10
-132	-94	172
-93	-11	203
-49	17	121
-11	-2	-83
23	-28	-155
57	-18	-189
93	40	-238
122	124	-111
134	190	43
121	198	104
81	140	35
24	44	5
-30	-46	-18
-71	-101	-55
-97	-116	-10
-107	-106	-16
-108	-97	-13
-103	-95	-4
-88	-92	30
-61	-64	56
-20	-9	55
28	63	72
75	123	76
109	143	64
123	119	10
118	68	-127
91	21	-170
52	1	-40
9	11	29
-35	26	53
-72	22	79
-100	-15	80
-112	-75	57
-109	-123	-14
-89	-136	-75
-58	-100	-95
-24	-32	-70
10	37	-71
42	84	-81
67	96	-56
86	85	-182
94	70	-297
87	62	-186
66	56	-64
34	37	-117
-7	-7	-138
-47	-80	-22
-79	-158	98
-95	-214	114
-92	-223	54
-76	-177	38
-48	-95	8
-24	-6	10
-5	58	19
6	92	26
10	94	39
18	85	60
32	81	93
58	82	100
83	85	119
90	68	127
64	32	103
7	-23	50
-68	-81	-33
-139	-119	-140
-177	-125	-172
-170	-96	-193
-125	-46	-197
-63	3	-127
-2	38	-177
48	51	-205
83	49	-129
111	43	-50
131	46	-41
143	59	-48
136	78	-3
105	88	21
57	78	46
3	45	-10
-40	-6	37
-67	-63	123
-79	-114	56
-83	-143	-4
-87	-150	-32
-87	-132	15
-79	-96	-1
-47	-45	-21
5	13	-14
69	67	-27
127	112	-5
156	138	-42
150	138	-62
105	116	-65
38	79	-48
-33	35	-32
-88	-5	-28
-118	-39	0
-121	-68	25
-102	-97	70
-77	-120	152
-53	-129	246
-39	-115	281
-33	-72	175
-26	-5	5
-8	71	-121
22	137	-284
63	174	-335
101	174	-273
120	144	-187
110	88	3
77	18	104
25	-50	66
-27	-110	-5
-69	-145	-61
-97	-153	-106
-111	-130	-124
-113	-88	-44
-103	-42	-50
-82	-8	-127
-46	6	-33
0	6	13
48	4	-75
91	13	-95
119	36	-116
128	63	-164
119	79	-133
96	67	-21
60	30	91
19	-22	82
-26	-68	74
-72	-97	84
-115	-104	12
-147	-97	-11
-162	-86	52
-156	-66	115
-125	-34	77
-72	19	6
-7	89	-4
63	153	-59
121	183	-100
158	155	-118
164	77	-173
141	-28	-168
100	-110	-88
48	-141	-47
-1	-116	-10
-48	-61	40
-86	-24	59
-117	-28	62
-139	-70	51
-145	-117	53
-130	-126	25
-89	-81	12
-28	9	-2
41	102	-10
103	160	-11
142	168	-10
158	142	-1
149	110	-32
122	95	0
87	89	34
47	65	10
5	5	10
-39	-90	14
-77	-185	-32
-103	-233	-121
-109	-209	-102
-102	-123	-9
-87	-21	32
-70	55	-12
-55	80	-119
-34	64	-131
-1	46	-77
46	53	24
97	93	69
130	131	85
128	141	121
85	99	54
13	23	-28
-57	-52	-108
-104	-98	-172
-113	-100	-214
-97	-77	-147
-69	-50	-83
-51	-38	-55
-42	-34	11
-31	-23	-31
-5	4	-53
38	38	-67
88	58	-99
124	48	-122
132	14	-38
109	-19	116
66	-24	117
22	3	53
-14	41	40
-43	51	-6
-69	8	-53
-97	-83	43
-121	-174	81
-129	-213	7
-111	-171	-79
-65	-62	-178
-3	56	-198
55	131	-115
95	132	-65
109	81	-105
97	19	-53
75	-10	62
49	5	104
21	35	87
-6	45	54
-35	11	37
-63	-59	38
-86	-127	-40
-94	-159	-131
-88	-135	-62
-71	-79	-34
-49	-21	-27
-30	13	-36
-10	19	-58
15	20	51
47	37	60
85	78	26
115	121	31
127	147	-32
107	129	-67
62	75	-49
-3	7	-10
-67	-46	29
-115	-69	52
-137	-71	89
-135	-69	81
-116	-76	46
-86	-85	-17
-48	-80	-88
-5	-46	-170
46	17	-231
100	86	-83
148	134	14
175	140	24
182	106	39
162	58	-21
121	20	-40
68	5	-72
6	2	-49
-59	-6	-63
-127	-39	-105
-184	-94	-77
-216	-142	-44
-213	-164	-30
-169	-135	-15
-96	-69	-5
-8	8	-2
63	68	32
110	99	10
130	106	43
128	105	70
120	113	37
106	123	-18
84	120	-52
44	82	-75
-9	1	-59
-70	-100	55
-125	-194	141
-156	-241	149
-156	-225	98
-128	-154	-27
-86	-59	-186
-38	22	-302
7	69	-306
48	78	-194
86	66	-18
115	57	133
136	64	186
140	84	188
126	98	161
97	90	-1
58	49	-190
16	-13	-331
-29	-81	-343
-76	-127	-136
-123	-142	-36
-163	-124	-44
-178	-85	-85
-162	-40	-116
-107	0	-6
-30	29	45
44	50	72
93	65	64
105	71	80
89	70	115
58	57	48
33	33	32
17	4	85
6	-24	163
-12	-44	173
-45	-57	136
-86	-63	60
-118	-63	-56
-126	-54	-165
-102	-34	-265
-51	-5	-317
10	29	-222
63	55	-108
101	66	-90
122	56	-72
129	34	-64
126	11	1
109	-3	-2
79	-4	-3
30	-3	28
-23	-10	24
-77	-35	37
-118	-71	-15
-140	-104	-26
-143	-112	4
-126	-83	87
-97	-26	96
-50	39	47
7	83	32
65	91	14
117	68	34
148	32	20
154	13	-20
136	20	-88
107	49	-136
72	77	-109
41	77	-37
8	38	20
-36	-30	74
-88	-98	87
-142	-143	26
-180	-142	-23
-184	-105	-90
-149	-45	-127
-80	15	-113
-3	61	-49
65	96	55
106	119	97
121	135	78
119	136	95
111	112	85
99	56	-9
75	-20	-147
35	-91	-311
-25	-135	-408
-95	-143	-319
-153	-125	-178
-182	-101	-30
-166	-87	119
-113	-88	121
-40	-87	71
25	-63	47
70	-6	68
87	68	33
83	136	-76
74	168	-151
66	147	-69
65	91	-3
60	23	-32
41	-29	-32
2	-56	-22
-51	-67	35
-104	-76	58
-139	-93	69
-139	-109	77
-111	-111	115
-61	-86	119
-10	-33	52
32	29	12
62	81	38
82	106	3
96	109	-88
104	96	-66
104	85	-72
89	76	-120
53	60	-151
6	31	-185
-44	-22	-163
-88	-88	-138
-112	-148	-176
-118	-178	-122
-105	-170	-54
-76	-127	3
-32	-64	57
18	-4	67
66	42	72
97	71	47
100	93	43
77	108	36
37	117	8
5	122	-65
-10	117	-118
-7	105	-86
-2	85	4
-13	54	84
-46	2	69
-92	-76	62
-129	-168	115
-136	-256	166
-107	-295	126
-49	-260	62
10	-148	84
56	11	39
85	158	-126
99	244	-234
113	244	-245
129	180	-203
137	91	-145
122	22	-81
81	-13	-61
11	-24	-66
-63	-35	-31
-124	-64	17
-156	-104	91
-154	-127	169
-128	-120	191
-85	-80	107
-35	-28	5
17	7	-30
66	17	-124
107	14	-225
137	20	-260
147	51	-247
133	97	-195
101	127	-126
52	114	-24
-4	49	49
-64	-37	103
-121	-113	112
-166	-141	104
-187	-120	70
-177	-72	29
-134	-27	45
-74	-4	13
-8	5	-45
46	15	-12
84	42	-23
104	84	-144
111	120	-126
113	129	-5
107	101	19
90	47	2
55	-12	-109
5	-60	-209
-48	-90	-188
-97	-111	-110
-123	-128	-49
-128	-144	-36
-117	-144	2
-95	-122	57
-70	-71	78
-42	-6	103
-11	53	158
30	95	143
78	109	90
119	108	19
143	102	-38
136	95	-87
100	81	-169
40	50	-124
-22	4	49
-74	-54	144
-105	-100	95
-113	-117	-34
-105	-102	-130
-84	-64	-189
-54	-24	-261
-21	6	-147
18	20	108
58	27	221
96	36	185
117	51	70
123	70	-84
110	79	-197
81	69	-210
41	40	-137
-2	2	-43
-48	-37	76
-92	-70	132
-126	-92	101
-144	-102	77
-141	-98	-3
-111	-78	-58
-57	-38	-68
7	16	-47
71	77	-43
125	130	-129
156	161	-135
162	158	-97
144	120	-69
99	55	-46
36	-22	-45
-38	-97	-11
-113	-148	21
-170	-169	12
-200	-157	28
-195	-123	49
-163	-81	57
-114	-46	68
-62	-30	36
-19	-26	-27
19	-23	-39
53	-4	3
95	31	-8
135	80	-48
167	125	-137
178	148	-160
159	138	-123
113	101	-68
49	45	19
-14	-8	-21
-68	-50	13
-104	-77	47
-123	-89	31
-126	-88	51
-116	-78	-21
-91	-61	-90
-50	-37	-94
-3	-10	-86
46	18	-75
85	39	-30
105	56	31
106	63	155
87	64	255
60	59	230
25	49	151
-8	30	-33
-42	1	-294
-76	-36	-376
-103	-78	-240
-121	-111	-111
-120	-127	-47
-102	-119	-9
-66	-83	-60
-20	-28	-64
30	33	-8
76	83	2
106	110	-45
123	113	-117
120	98	-40
101	75	-18
66	49	-71
23	21	-54
-26	-17	-53
-74	-66	1
-112	-124	90
-142	-174	156
-153	-192	159
-142	-170	104
-111	-105	46
-60	-18	-12
1	62	8
61	118	69
111	139	48
142	138	14
157	128	40
152	122	11
136	115	-160
107	101	-312
65	67	-352
10	15	-301
-53	-46	-194
-118	-102	-72
-168	-136	16
-185	-151	87
-168	-149	147
-115	-135	137
-38	-115	111
37	-76	70
95	-16	27
118	66	16
110	150	-19
79	213	13
42	228	93
16	188	45
2	100	-38
-2	-12	-126
-10	-116	-142
-24	-192	-112
-49	-227	-100
-75	-222	26
-85	-183	68
-79	-118	-35
-55	-45	-102
-28	26	-71
-2	83	-49
14	119	-76
29	131	-48
51	123	-52
81	104	-31
107	74	51
111	37	65
81	-6	83
13	-50	87
-71	-88	21
-140	-109	-30
-174	-106	-67
-160	-85	-106
-115	-54	-59
-59	-26	10
-10	-8	78
27	9	144
61	29	178
97	64	143
136	108	66
163	145	65
165	158	43
135	132	-116
77	74	-289
12	-2	-286
-47	-69	-204
-87	-116	-273
-112	-131	-350
-126	-127	-265
-133	-116	-139
-132	-101	-2
-113	-82	112
-75	-54	147
-17	-15	127
42	32	85
95	74	40
123	97	-30
127	99	-41
109	81	16
75	57	13
33	37	-46
-14	19	-63
-59	-1	16
-100	-35	41
-124	-80	-47
-128	-128	-103
-111	-157	-80
-77	-153	-59
-31	-105	-46
13	-29	4
55	48	18
91	105	22
119	125	-55
135	113	-179
137	85	-169
119	56	-90
82	37	-11
29	18	39
-28	-7	76
-80	-49	125
-120	-99	177
-147	-141	213
-158	-157	230
-155	-131	186
-130	-68	123
-89	18	52
-28	101	-44
42	159	-162
109	181	-175
156	168	-172
172	129	-287
157	79	-320
115	29	-172
63	-14	19
10	-47	110
-36	-72	135
-75	-95	10
-106	-112	-150
-128	-122	-135
-137	-112	-34
-126	-77	-46
-98	-14	-105
-52	61	-59
4	121	20
56	139	33
97	101	22
121	22	53
127	-64	96
117	-116	108
89	-109	47
50	-54	56
0	14	57
-48	46	-44
-89	23	-124
-115	-45	-109
-118	-116	-49
-106	-139	22
-78	-94	108
-43	3	78
-4	106	18
36	170	1
83	166	-51
129	114	-64
169	48	-54
193	9	-79
188	3	-81
144	14	-100
60	12	-118
-48	-24	-163
-162	-88	-270
-253	-152	-289
-290	-184	-186
-269	-170	-20
-195	-118	52
-101	-53	44
-12	-4	91
44	26	115
66	46	95
69	70	57
78	108	39
102	144	56
135	160	-10
158	132	-43
143	64	-56
82	-24	-55
-8	-103	14
-104	-143	12
-168	-143	5
-187	-114	-43
-162	-81	-109
-111	-60	-172
-58	-51	-151
-13	-41	-89
23	-15	-28
57	30	65
89	83	59
114	121	77
127	130	65
120	110	38
93	72	6
51	34	-76
4	3	-107
-42	-22	-119
-83	-55	-57
-115	-94	1
-134	-132	44
-133	-151	109
-107	-127	123
-55	-62	101
11	27	56
74	108	-15
121	154	-68
143	151	-100
142	109	-105
127	54	-26
102	12	61
71	-6	102
36	-5	106
-4	-2	55
-46	-10	16
-87	-39	-23
-116	-78	-97
-128	-111	-126
-120	-120	-155
-97	-96	-145
-60	-43	-65
-15	20	7
33	76	67
81	106	80
114	106	74
128	91	83
116	68	0
84	52	-133
34	43	-226
-20	34	-312
-67	13	-302
-105	-30	-173
-127	-83	-46
-134	-131	75
-125	-161	133
-100	-155	170
-62	-120	225
-19	-64	168
23	-7	6
58	43	-153
81	81	-236
94	106	-276
97	119	-169
92	115	-24
78	96	13
50	57	24
12	6	49
-37	-50	-12
-84	-106	-88
-117	-149	-107
-130	-171	-121
-121	-170	-57
-93	-137	-47
-50	-80	6
-4	-4	38
44	66	-72
86	115	-86
121	129	-36
137	113	-21
130	76	-47
100	38	-80
46	12	-19
-16	-4	76
-81	-18	129
-126	-41	138
-150	-75	95
-143	-105	52
-111	-114	-14
-62	-92	-13
-7	-41	24
42	19	-4
75	62	32
85	78	5
70	67	-30
44	48	-28
19	39	-39
9	46	-36
16	64	-34
32	71	8
42	55	51
29	10	63
-13	-48	35
-71	-97	19
-122	-120	-4
-147	-110	-35
-130	-76	0
-82	-29	19
-13	17	-79
53	56	-150
105	92	-127
139	123	-131
156	148	-121
154	157	-81
132	139	-87
89	96	-11
23	24	107
-50	-50	140
-112	-113	127
-145	-141	68
-148	-135	-15
-125	-103	-131
-93	-62	-241
-62	-32	-223
-36	-17	-54
-8	-17	-5
30	-18	-93
77	-13	-41
121	0	-10
143	15	-35
134	20	-24
97	13	-94
44	-5	-38
0	-23	72
-32	-36	94
-51	-40	93
-68	-44	1
-89	-53	-50
-104	-66	-136
-103	-80	-171
-71	-72	-65
-10	-41	63
68	14	174
132	76	138
159	120	94
135	137	84
69	123	69
-11	93	-3
-76	61	-135
-101	33	-207
-88	9	-195
-52	-22	-139
-22	-62	-158
-21	-108	-231
-45	-140	-186
-79	-148	-93
-85	-123	-64
-46	-74	-51
31	-16	-38
106	35	8
133	71	43
91	96	104
-1	110	201
-87	119	252
-107	123	213
-46	118	105
63	98	-17
132	60	-117
103	14	-168
-48	-42	-130
-248	-92	-46
-402	-126	4
-428	-134	-25
-307	-113	-71
-101	-65	-31
89	-8	-40
190	36	-50
191	48	-53
138	24	-22
97	-23	20
105	-65	21
148	-83	63
180	-64	29
154	-21	42
68	21	33
-40	40	24
-121	26	122
-141	-11	116
-104	-54	0
-45	-85	-113
1	-95	-142
20	-85	-95
24	-55	-142
37	-17	-205
74	31	-103
122	79	-41
162	114	-13
165	123	51
132	103	54
79	59	64
21	7	38
-24	-32	-142
-60	-52	-266
-92	-56	-166
-120	-54	-24
-141	-60	20
-140	-69	-6
-112	-71	-19
-56	-48	2
8	2	22
62	70	-2
98	131	20
111	164	81
111	157	75
98	113	60
76	56	58
39	2	8
-12	-40	-65
-67	-70	-134
-117	-97	-168
-143	-119	-131
-148	-135	-79
-128	-134	-54
-99	-110	-86
-65	-64	-126
-29	-9	-112
9	41	-27
54	80	90
99	97	135
131	103	114
140	98	103
125	85	130
90	64	141
42	30	85
0	-12	16
-44	-56	-26
-83	-90	-83
-116	-105	-228
-137	-101	-260
-139	-82	-175
-113	-53	-181
-64	-21	-93
-11	14	31
32	50	94
51	82	76
52	103	28
50	105	0
56	84	-62
74	43	-171
86	-7	-208
77	-51	-168
27	-84	-114
-48	-99	22
-123	-104	60
-167	-105	69
-162	-101	87
-119	-89	52
-58	-54	33
-9	5	-3
22	80	-20
42	150	24
69	191	143
109	186	245
155	128	292
187	44	246
190	-38	123
154	-92	-6
91	-103	-206
22	-83	-352
-40	-54	-376
-97	-45	-337
-148	-62	-194
-192	-97	-69
-223	-120	-55
-216	-108	-48
-161	-52	0
-60	31	82
56	109	100
151	151	126
195	143	202
176	93	147
121	29	53
53	-20	-57
3	-36	-141
-24	-28	-204
-39	-13	-311
-56	-13	-265
-85	-39	-144
-113	-80	-103
-125	-114	-6
-109	-119	79
-62	-91	104
-3	-36	96
54	23	83
93	66	66
113	88	-19
119	89	-81
117	83	-101
107	68	-75
84	53	-45
40	27	-48
-24	-13	-2
-96	-61	81
-159	-108	111
-197	-136	59
-199	-135	-23
-166	-108	-23
-103	-59	-9
-25	-6	-89
52	43	-136
115	88	-85
151	124	-18
158	150	-63
138	158	-53
106	136	-37
65	84	-56
29	8	1
-3	-67	8
-33	-116	-6
-61	-117	1
-85	-81	66
-93	-29	79
-85	1	37
-61	-9	-63
-38	-56	-163
-25	-103	-138
-23	-114	-30
-23	-65	82
-8	31	102
30	134	128
85	198	120
132	191	125
143	122	52
107	23	-136
30	-62	-228
-54	-111	-229
-119	-121	-252
-142	-113	-205
-126	-106	-82
-93	-105	-40
-60	-99	51
-33	-66	40
-4	2	74
36	96	99
94	190	0
154	244	-46
184	239	-63
167	163	-10
98	39	44
-4	-94	150
-101	-198	182
-158	-241	145
-165	-214	32
-130	-137	-103
-85	-49	-207
-52	7	-253
-46	15	-115
-54	-19	-33
-53	-58	50
-27	-67	145
29	-24	166
98	56	108
151	134	-54
169	171	-136
144	147	-178
90	78	-171
28	0	-114
-23	-48	-95
-57	-55	-71
-81	-41	-36
-96	-31	-79
-109	-49	-107
-113	-86	-11
-98	-117	-7
-60	-111	-4
-4	-60	-36
51	15	-48
90	85	-54
101	117	-96
84	106	-40
53	65	4
23	23	41
4	-3	44
-7	-15	49
-19	-22	-17
-37	-39	-67
-69	-63	19
-100	-85	161
-120	-85	186
-114	-60	135
-79	-19	85
-21	24	-63
42	50	-236
93	62	-294
122	65	-155
126	74	-72
115	90	-5
94	100	82
68	91	83
39	47	51
1	-20	-30
-42	-89	-31
-89	-128	-36
-124	-124	-65
-140	-83	-45
-130	-23	-14
-97	19	39
-47	29	100
7	7	86
54	-26	76
92	-44	78
117	-32	-46
127	10	-213
123	63	-257
106	103	-209
75	105	-179
34	61	-91
-11	-6	30
-54	-79	61
-91	-122	91
-112	-126	53
-116	-88	1
-100	-31	-43
-72	15	-56
-40	36	-38
-15	26	-56
0	2	-52
8	-13	-18
19	0	29
40	42	25
69	91	65
97	122	95
104	113	116
81	62	128
25	-13	55
-41	-81	-53
-97	-119	-107
-129	-121	-57
-134	-96	-51
-121	-61	-2
-107	-34	28
-89	-16	-47
-60	-2	-142
-14	17	-165
55	44	-92
131	77	-140
190	102	-108
206	110	8
172	92	13
97	50	22
5	-8	-22
-78	-77	-52
-134	-135	-35
-162	-175	-89
-165	-184	-143
-148	-160	-170
-116	-106	-74
-70	-39	43
-16	21	38
39	66	-42
86	88	-132
117	93	-10
130	90	49
124	88	-11
107	83	-72
83	65	-21
46	34	133
6	-12	159
-39	-59	180
-79	-94	84
-107	-102	-21
-115	-84	-56
-105	-47	-44
-79	-5	-24
-40	29	-137
2	55	-181
48	68	-147
89	72	-72
121	68	37
139	53	75
136	33	34
111	10	-3
65	-8	-43
6	-21	-61
-62	-33	-44
-128	-50	19
-178	-72	80
-203	-92	83
-191	-93	69
-148	-60	7
-76	-2	-56
4	61	-84
74	104	-70
122	104	-69
143	64	-41
145	10	-43
133	-22	-36
116	-13	-16
94	27	-47
65	67	-51
32	68	-62
-10	16	28
-53	-71	114
-98	-153	74
-133	-185	-49
-159	-157	-82
-165	-84	-94
-147	-7	-138
-99	42	-121
-30	52	-81
46	43	19
116	43	43
161	70	78
172	114	75
151	149	60
106	144	93
44	89	119
-25	3	126
-91	-84	82
-140	-136	75
-162	-142	59
-144	-111	52
-96	-61	6
-31	-19	-170
24	7	-267
52	18	-303
50	21	-317
34	26	-287
27	31	-397
39	35	-331
66	32	-94
88	20	59
80	-1	166
34	-29	149
-38	-56	104
-110	-83	71
-156	-101	76
-162	-109	32
-135	-104	-43
-93	-84	-105
-47	-51	-211
-5	-13	-186
37	24	-51
85	59	97
135	85	178
176	103	192
195	112	130
179	112	-68
127	101	-169
52	74	-98
-31	34	17
-104	-12	128
-153	-60	180
-176	-97	164
-169	-119	91
-140	-119	-4
-98	-99	-72
-55	-55	-143
-15	3	-133
24	69	-97
60	134	-138
98	180	-123
127	191	-57
141	153	-31
132	69	-18
94	-41	0
36	-148	5
-26	-215	15
-78	-223	39
-111	-168	61
-126	-82	57
-129	-1	34
-125	38	18
-110	22	10
-80	-29	-35
-27	-81	-124
37	-96	-145
107	-57	-130
159	24	-92
178	118	29
163	182	134
118	192	199
60	140	155
-3	51	63
-55	-47	-42
-95	-125	-176
-117	-162	-235
-116	-153	-226
-93	-106	-88
-52	-41	44
-10	26	34
20	74	-23
32	96	-4
26	95	76
16	79	89
16	66	40
35	65	-26
60	80	-20
80	95	-65
69	96	-118
25	64	-61
-43	-3	-62
-111	-92	-111
-153	-178	-120
-157	-229	-81
-124	-229	-48
-76	-177	-84
-29	-95	-113
10	-13	-70
39	47	2
66	76	49
98	80	24
125	77	-65
140	81	12
133	91	134
104	96	91
52	83	-63
-2	38	-256
-54	-24	-265
-99	-87	-226
-128	-127	-162
-147	-131	-51
-147	-106	53
-126	-62	143
-85	-25	150
-26	0	85
34	12	29
89	23	33
122	41	57
133	68	80
124	96	76
101	112	70
67	109	50
27	86	-2
-15	47	-54
-57	3	-97
-90	-45	-117
-108	-90	-48
-108	-127	38
-90	-143	71
-57	-131	49
-18	-89	52
24	-21	74
63	47	-13
96	97	-134
114	110	-192
115	89	-223
92	46	-215
48	3	-68
-12	-27	2
-70	-44	32
-119	-55	52
-149	-68	-2
-152	-85	-17
-137	-97	-18
-110	-93	0
-75	-65	40
-32	-23	76
11	24	37
54	59	19
94	80	-27
119	87	-60
127	92	-75
114	105	-117
89	123	-66
57	137	-15
24	134	-16
-3	106	-95
-29	53	-118
-55	-18	-74
-83	-95	-12
-102	-167	106
-106	-218	119
-90	-240	61
-50	-218	28
2	-153	-6
57	-53	19
102	57	104
132	147	158
147	188	150
148	170	83
139	109	-5
118	32	-166
81	-29	-345
21	-56	-341
-57	-59	-172
-143	-55	-34
-218	-61	74
-260	-80	30
-255	-97	-166
