File Name: not saved
Channel 2: 'Channel 2', 31510 values, raw ADC, no filters.
Channel 3: 'Channel 3', 31510 values, raw ADC, no filters.
Channel 4: 'Channel 4', 31510 values, raw ADC, no filters.

262	90	75
288	55	75
353	32	84
454	20	98
536	28	69
531	57	-6
404	114	-96
180	192	-143
-75	265	-188
-277	308	-181
-385	287	-104
-383	199	-45
-305	59	-20
-183	-92	-34
-54	-215	-59
65	-280	-58
154	-272	-35
200	-204	-14
189	-93	9
121	27	1
11	129	-35
-104	193	-66
-187	201	-72
-205	162	-40
-148	95	-6
-31	29	21
98	-16	31
196	-31	28
216	-28	12
148	-23	-23
1	-28	-53
-177	-41	-44
-332	-45	-9
-412	-27	0
-390	21	3
-274	85	5
-98	137	-1
92	153	-5
253	118	-32
363	44	-72
407	-45	-64
388	-125	-12
302	-172	15
159	-182	24
-33	-163	18
-233	-125	-3
-385	-84	-25
-409	-49	-50
-264	-30	-60
29	-22	-34
383	-28	-8
669	-31	-15
740	-27	-11
548	-4	8
123	31	7
-407	61	-10
-873	70	-22
-1146	36	-32
-1168	-31	-48
-976	-116	-64
-645	-187	-72
-263	-219	-75
104	-209	-57
432	-175	-30
681	-144	-2
819	-134	33
778	-142	56
539	-145	21
139	-113	-24
-306	-36	-59
-645	68	-105
-743	160	-104
-569	197	-82
-206	165	-57
180	90	-24
429	24	-1
462	13	18
320	80	52
126	191	99
4	287	96
12	309	33
116	227	-21
236	65	-84
285	-109	-160
250	-223	-172
164	-230	-105
92	-135	-30
68	7	26
89	125	51
113	171	35
99	138	18
32	59	-5
-68	-19	-23
-163	-60	-63
-226	-61	-99
-241	-45	-66
-211	-40	-20
-151	-57	22
-68	-85	53
16	-94	68
86	-61	59
121	9	47
111	91	6
68	150	-51
24	161	-76
5	127	-84
19	79	-114
50	45	-111
65	53	-86
40	91	-65
-22	132	11
-92	143	78
-134	108	76
-140	25	5
-119	-78	-79
-102	-164	-153
-99	-204	-163
-93	-179	-112
-49	-95	-49
69	20	9
269	119	44
506	158	82
728	110	115
837	-16	118
779	-178	46
523	-307	-30
81	-340	-92
-489	-261	-155
-1032	-102	-174
-1365	64	-109
-1255	154	-12
-1146	124	22
-523	-11	29
252	-179	-2
930	-304	-24
1255	-326	-44
1151	-250	-44
685	-124	3
40	-15	12
-563	31	0
-923	17	-16
-1000	-19	-24
-826	-29	-38
-518	11	-35
-202	86	-20
34	157	-28
167	174	-21
226	132	-16
268	49	3
341	-28	20
454	-50	13
553	0	-8
558	106	-25
395	215	-34
87	278	-40
-271	255	-22
-518	150	30
-535	-2	68
-308	-145	61
40	-234	30
325	-244	-5
386	-182	-31
196	-85	-49
-125	5	-62
-387	53	-58
-450	53	-43
-287	23	-53
-7	-9	-78
226	-9	-84
311	32	-86
248	98	-74
131	161	-55
58	188	-36
78	170	-8
149	112	15
190	48	-6
151	-1	-44
38	-23	-53
-70	-23	-58
-113	-22	-44
-67	-30	-12
18	-47	3
62	-52	0
16	-29	-11
-112	30	-11
-243	115	9
-300	191	45
-233	229	65
-70	207	52
109	133	22
222	32	-18
221	-66	-67
121	-136	-127
-24	-169	-143
-133	-166	-89
-159	-144	-52
-97	-121	-27
9	-111	5
98	-120	7
115	-144	3
43	-174	-19
-71	-185	-43
-151	-167	-55
-115	-114	-60
64	-38	-59
341	38	-51
584	91	-29
660	106	-17
476	92	-9
64	55	-13
-458	12	-8
-889	-33	-1
-1107	-81	-12
-1067	-129	-26
-855	-175	-34
-581	-196	-24
-347	-186	-24
-159	-142	-27
24	-89	-21
256	-49	12
523	-32	45
736	-27	46
800	0	32
660	70	26
363	180	26
44	286	-8
-172	329	-43
-237	272	-54
-202	124	-27
-169	-41	11
-207	-150	-22
-303	-149	-71
-358	-45	-69
-289	95	-62
-72	191	-58
202	194	-46
421	120	-21
491	27	6
423	-21	12
311	2	17
253	65	25
284	106	20
346	76	9
342	-26	-37
209	-147	-79
-26	-216	-92
-258	-189	-82
-375	-81	-49
-339	48	-28
-198	123	5
-59	110	15
2	27	-21
-24	-67	-44
-74	-113	-51
-64	-87	-56
44	-8	-48
225	70	-24
397	106	-19
481	93	-16
432	51	-23
258	18	-52
0	12	-32
-291	36	13
-546	67	56
-706	92	98
-719	101	70
-572	96	6
-296	83	-48
15	51	-116
263	-3	-147
388	-82	-92
399	-159	-38
373	-202	-20
389	-188	1
470	-119	-4
545	-37	-40
506	7	-58
287	-20	-58
-86	-101	-36
-489	-190	-48
-758	-229	-68
-805	-186	-38
-659	-79	-12
-459	43	-25
-331	128	-57
-337	148	-67
-422	109	-51
-470	29	-16
-387	-65	4
-167	-177	14
111	-296	26
354	-402	31
493	-453	28
539	-403	9
519	-245	1
452	-16	-7
321	195	-7
104	308	22
-181	284	42
-437	166	37
-548	40	24
-431	-8	6
-123	52	-22
241	182	-45
484	298	-50
521	338	-44
373	287	-40
179	198	-31
60	135	-18
66	138	-4
132	192	10
143	237	7
41	218	9
-132	119	7
-256	-29	-20
-224	-164	-77
-28	-233	-97
234	-224	-106
396	-162	-123
365	-88	-119
162	-32	-84
-83	0	-39
-222	16	-17
-182	26	-14
-14	27	-16
142	10	-27
171	-28	-57
31	-80	-60
-194	-123	-33
-383	-141	-11
-428	-129	-11
-314	-102	2
-121	-72	12
42	-48	20
97	-22	43
43	27	57
-54	106	95
-105	206	90
-50	292	20
97	328	-34
280	301	-86
429	215	-144
475	105	-149
409	-5	-75
257	-97	22
62	-174	95
-129	-248	104
-286	-316	34
-403	-362	-27
-459	-356	-66
-459	-286	-107
-380	-158	-108
-204	-11	-97
60	103	-65
371	150	-15
656	134	34
800	88	38
715	47	-24
373	41	-79
-151	59	-84
-720	68	-66
-1129	41	-58
-1227	-32	-36
-1107	-127	-36
-744	-216	-21
-339	-271	1
-24	-291	6
156	-294	19
244	-289	14
332	-272	12
470	-215	14
636	-99	15
736	77	24
681	274	53
446	428	70
119	489	45
-170	435	14
-304	301	-20
-253	138	-88
-82	2	-134
89	-86	-151
166	-123	-129
122	-129	-87
4	-116	-101
-110	-84	-123
-153	-30	-102
-104	43	-51
12	122	5
149	179	63
254	201	86
297	189	52
250	159	7
119	123	-36
-76	86	-74
-272	35	-118
-415	-45	-130
-448	-148	-86
-374	-250	0
-232	-314	64
-101	-312	100
-36	-242	127
-49	-133	130
-96	-29	93
-110	40	-2
-44	65	-78
101	64	-144
262	58	-187
380	64	-138
406	76	-64
354	80	-22
269	63	-4
192	28	12
130	-4	16
61	-14	35
-52	11	46
-201	65	36
-337	129	29
-390	183	-5
-314	213	-46
-124	215	-61
93	187	-63
245	126	-76
276	35	-71
208	-85	-60
117	-213	-46
99	-321	-19
195	-373	-11
375	-348	-5
563	-247	8
656	-92	4
583	78	-4
328	224	-26
-68	313	-28
-539	328	23
-968	261	66
-1235	115	65
-1250	-81	34
-1026	-289	4
-564	-453	-32
-26	-516	-51
419	-453	-54
647	-283	-55
632	-74	-32
459	104	-35
269	193	-37
159	193	-42
147	143	-65
169	109	-67
157	125	-69
91	180	-68
21	225	-56
16	204	-59
97	106	-68
212	-37	-71
257	-153	-75
151	-182	-57
-92	-113	0
-379	15	43
-566	124	52
-572	161	59
-406	110	74
-166	8	90
34	-86	91
106	-133	69
46	-125	13
-88	-94	-54
-226	-74	-102
-308	-90	-177
-308	-127	-224
-218	-153	-154
-67	-138	-52
103	-74	-23
239	18	-23
287	103	-25
234	145	-16
111	127	-4
-10	58	-6
-61	-30	-1
-23	-102	-2
69	-127	7
140	-93	14
147	-9	15
89	88	11
27	163	-5
25	178	-27
95	126	-40
188	28	-41
225	-70	-40
159	-125	-20
18	-109	-5
-119	-30	-3
-172	68	-11
-122	138	-24
-24	144	-26
30	91	-28
-7	12	-20
-115	-43	-16
-214	-40	-15
-227	15	-20
-129	87	-22
28	127	-23
162	109	-19
236	41	1
270	-30	-11
334	-58	-17
469	-13	-30
636	93	-31
736	213	-31
636	295	-9
290	307	39
-237	247	50
-772	141	41
-1145	16	-7
-1231	-115	-46
-1036	-249	-88
-667	-378	-127
-251	-487	-148
105	-539	-145
339	-498	-103
454	-368	-56
462	-170	-7
380	37	19
224	198	12
23	287	2
-176	311	10
-308	298	10
-333	267	-5
-243	221	-4
-61	132	-8
166	-11	17
380	-200	33
558	-387	7
648	-498	-5
626	-492	-25
459	-362	-63
143	-161	-96
-279	34	-101
-688	158	-72
-962	177	-8
-986	112	78
-744	7	140
-331	-82	152
99	-125	93
405	-116	-1
502	-67	-82
429	-6	-166
280	51	-208
160	97	-139
99	129	-50
69	158	-8
15	190	-12
-89	225	-54
-205	257	-84
-257	273	-83
-185	257	-56
-1	201	-37
204	115	-15
326	17	17
299	-63	49
151	-111	56
-11	-122	51
-66	-106	45
37	-77	39
245	-47	33
439	-23	8
470	-1	-11
269	12	-39
-125	11	-70
-565	-18	-92
-896	-69	-102
-964	-133	-78
-740	-177	-68
-291	-171	-65
221	-105	-21
634	4	6
800	117	4
684	193	34
346	204	48
-82	153	20
-442	64	-28
-607	-26	-82
-554	-93	-111
-331	-126	-100
-46	-133	-37
184	-118	63
302	-90	151
314	-36	155
273	40	85
242	131	-25
258	215	-158
306	261	-215
342	244	-202
311	168	-160
175	56	-90
-36	-54	-30
-285	-127	1
-485	-159	17
-589	-165	21
-568	-170	13
-436	-192	13
-237	-219	9
-24	-230	-2
158	-191	-14
272	-100	-17
317	20	-32
297	127	-41
238	182	-47
164	170	-43
102	110	-22
64	39	14
58	-11	79
76	-27	103
93	-18	87
96	-1	49
69	14	-18
19	30	-94
-42	53	-131
-96	81	-100
-121	97	-50
-115	85	-14
-72	34	-28
-3	-36	-69
85	-103	-65
163	-138	-44
202	-135	-33
166	-119	-4
35	-111	4
-153	-127	-28
-333	-152	-54
-409	-155	-63
-321	-119	-53
-102	-53	-8
136	2	49
245	20	55
120	-7	33
-213	-46	4
-595	-49	-14
-816	13	-6
-742	123	-9
-390	223	-25
62	253	-49
373	192	-68
394	77	-76
152	-32	-70
-163	-78	-81
-344	-55	-76
-258	-11	-23
30	1	44
344	-51	134
503	-135	181
439	-188	138
253	-157	48
87	-39	-70
71	109	-187
198	215	-265
359	236	-240
425	174	-105
346	91	-2
187	47	22
63	74	27
72	132	11
191	174	-16
318	144	-30
321	41	-27
135	-87	-8
-180	-185	13
-505	-207	24
-689	-157	-15
-668	-69	-43
-463	10	-43
-189	58	-64
51	78	-62
175	85	-40
183	93	-23
113	95	-24
29	77	-20
-20	23	-34
-16	-54	-45
30	-130	-27
92	-174	-9
140	-166	11
162	-116	17
156	-45	18
130	18	-4
97	64	-12
52	97	1
-2	121	7
-79	142	2
-168	153	-11
-247	135	-2
-277	84	8
-223	4	5
-74	-81	-1
143	-149	8
366	-174	3
531	-162	-21
565	-126	-35
439	-96	-72
170	-94	-90
-198	-130	-79
-584	-200	-74
-886	-274	-55
-1020	-326	-22
-934	-325	20
-639	-265	51
-210	-167	59
237	-55	63
590	28	60
743	66	-8
681	67	-80
439	62	-114
89	85	-163
-272	149	-181
-552	239	-120
-697	308	-38
-659	313	-11
-450	235	5
-120	101	-4
234	-29	-13
503	-99	-6
599	-77	-13
498	16	-5
257	127	-28
-22	200	-40
-227	199	-25
-303	131	-30
-250	32	-30
-136	-51	-23
-24	-98	-5
42	-106	4
65	-92	5
72	-72	12
93	-56	-10
147	-34	-43
221	4	-58
302	51	-38
373	96	10
419	118	41
418	106	68
350	68	83
203	18	64
-8	-21	-2
-235	-40	-60
-412	-42	-95
-478	-41	-136
-411	-44	-136
-251	-54	-105
-71	-61	-43
48	-53	-2
81	-28	4
49	13	4
15	55	-5
31	90	7
110	114	37
216	131	49
287	155	22
285	175	-3
216	188	-30
121	162	-62
49	80	-90
28	-54	-84
36	-218	-77
36	-362	-71
-10	-441	-30
-112	-422	-24
-242	-319	-41
-353	-174	-48
-399	-44	-25
-355	24	1
-224	25	16
-36	-15	10
165	-51	-8
314	-48	-19
363	3	-28
280	82	-26
87	142	-25
-164	164	-7
-377	132	0
-486	78	-3
-468	24	-27
-351	-9	-47
-199	-24	-32
-62	-37	-27
49	-58	-38
151	-85	-48
262	-95	-55
354	-77	-34
363	-35	20
216	3	95
-95	2	180
-503	-52	196
-839	-140	104
-953	-210	-23
-779	-210	-134
-377	-127	-228
99	9	-262
439	134	-176
560	190	-58
454	160	7
248	83	41
81	22	19
45	30	-23
135	112	-38
273	222	-45
379	298	-50
401	298	-32
357	224	-12
280	123	-14
206	40	-14
131	-4	-16
51	-27	-15
-42	-59	-14
-130	-123	-23
-174	-196	-36
-156	-237	-28
-81	-199	3
12	-78	14
78	86	10
100	223	-6
90	271	-53
82	211	-83
95	72	-79
123	-88	-70
140	-209	-59
115	-264	-56
49	-259	-25
-28	-214	9
-76	-156	7
-67	-91	8
-18	-20	8
33	63	-16
42	149	-43
-4	225	-23
-86	268	30
-148	261	102
-148	209	143
-65	112	87
74	-4	-24
219	-123	-112
320	-222	-176
343	-280	-202
299	-288	-168
205	-246	-102
99	-165	-50
-13	-67	-8
-149	18	46
-325	72	93
-569	89	87
-822	77	57
-1016	58	14
-1036	48	-48
-829	51	-69
-392	56	-82
151	41	-51
665	-5	5
971	-82	52
1007	-160	49
794	-207	16
446	-194	-25
81	-128	-82
-190	-33	-101
-344	45	-86
-386	70	-51
-353	40	-44
-273	-22	-40
-162	-68	-21
-39	-66	13
58	-9	32
102	81	10
82	161	-19
25	202	-41
-18	195	-43
1	156	-46
86	105	-42
196	63	-20
270	35	8
262	13	7
171	-11	-10
27	-37	-7
-110	-62	-3
-215	-88	-28
-277	-105	-40
-302	-114	-20
-285	-109	-10
-218	-77	-5
-90	-15	1
78	69	3
234	152	-8
314	199	-20
287	189	-34
172	123	-40
49	35	-31
-7	-35	-24
55	-58	-8
214	-36	11
396	5	5
496	31	-21
453	24	-18
245	-7	-10
-92	-36	-35
-470	-36	-80
-794	-6	-100
-983	33	-91
-983	55	-95
-797	38	-63
-493	-5	-7
-169	-53	14
74	-78	47
174	-70	91
154	-43	63
81	-22	13
46	-25	-25
102	-45	-85
233	-61	-157
383	-48	-192
488	-5	-118
527	37	-18
503	38	32
436	-34	48
326	-166	24
139	-306	-2
-147	-378	-21
-493	-330	-19
-809	-175	5
-953	23	19
-853	169	14
-524	193	4
-102	93	-12
262	-64	-15
444	-187	-20
458	-199	-42
396	-91	-42
366	81	-27
407	237	-22
451	317	-39
397	319	-76
189	274	-122
-120	230	-131
-390	196	-96
-481	150	-42
-350	57	12
-84	-90	22
163	-253	25
254	-356	31
172	-346	16
19	-215	-14
-64	-22	-44
22	145	-26
257	215	20
526	185	64
665	96	87
566	20	83
224	5	40
-255	41	-33
-720	89	-84
-1002	100	-114
-1006	61	-111
-743	3	-77
-333	-39	-65
69	-36	-38
288	-4	-17
269	17	-21
58	-11	-17
-189	-92	17
-312	-190	43
-229	-246	61
24	-209	104
302	-86	86
481	88	30
493	243	-21
393	318	-96
283	287	-176
242	168	-186
266	6	-139
276	-139	-141
195	-224	-121
9	-227	-48
-206	-168	-6
-350	-81	11
-350	-12	49
-219	9	97
-50	-17	62
71	-60	-2
110	-81	-34
105	-50	-100
117	32	-155
179	132	-128
261	206	-51
283	221	23
195	175	54
6	106	54
-198	53	65
-315	48	78
-285	81	38
-139	110	-7
19	89	-31
81	-9	-60
-2	-178	-74
-187	-365	-50
-369	-501	-33
-428	-530	-43
-318	-432	-44
-67	-237	-46
214	-12	-35
419	169	-20
451	247	-32
300	215	-50
18	103	-49
-296	-21	-36
-547	-98	-22
-651	-96	7
-589	-30	32
-393	47	32
-139	85	37
94	61	22
241	1	10
287	-45	9
266	-27	12
232	74	15
230	215	-8
265	341	-54
299	390	-89
275	342	-92
172	226	-71
20	88	-49
-118	-28	-45
-169	-112	-52
-98	-175	-65
67	-245	-71
250	-316	-63
373	-368	-46
375	-354	-33
266	-250	-14
77	-69	-3
-133	131	6
-321	282	10
-435	330	8
-453	267	32
-363	135	36
-183	1	29
36	-92	22
216	-125	3
288	-126	-16
214	-129	-41
26	-153	-31
-193	-186	-14
-345	-195	9
-374	-152	69
-282	-52	151
-137	64	181
-12	154	108
52	182	-18
62	150	-187
69	99	-340
120	72	-381
219	95	-284
336	154	-115
404	202	-19
383	197	26
262	119	56
87	-7	26
-98	-129	29
-232	-198	16
-300	-195	5
-300	-138	4
-247	-67	-39
-148	-24	-78
-2	-18	-91
192	-39	-65
401	-57	-40
562	-50	-23
588	-18	-3
410	25	57
18	60	64
-474	76	-4
-927	68	-19
-1145	52	-15
-1050	40	-17
-680	33	-15
-181	30	-26
265	23	-23
506	18	-8
534	17	-2
446	32	16
383	66	21
431	109	21
566	141	4
679	137	-25
639	80	-25
399	-31	-36
11	-171	-55
-390	-299	-60
-684	-368	-55
-787	-339	-36
-714	-218	-11
-529	-35	2
-304	139	-23
-105	236	-49
24	206	-47
67	53	-41
30	-166	-32
-47	-364	-26
-85	-456	-12
-6	-390	5
226	-182	20
547	103	30
825	366	31
908	524	19
707	522	3
275	369	-1
-241	113	-25
-676	-163	-22
-896	-387	16
-905	-500	26
-775	-492	-10
-595	-383	-85
-392	-218	-131
-167	-56	-156
111	67	-154
397	138	-74
600	168	-1
625	181	29
439	195	51
125	218	32
-153	236	0
-266	235	-7
-169	203	17
52	143	19
257	74	-55
325	6	-99
245	-42	-62
94	-71	-31
-27	-81	-51
-55	-71	-74
-18	-42	-59
28	8	-46
31	68	-25
-2	123	29
-22	153	53
11	143	21
92	98	-21
163	34	-84
161	-24	-134
64	-62	-106
-83	-78	-35
-197	-79	20
-221	-80	49
-142	-87	63
-25	-93	63
67	-83	35
96	-51	8
76	5	-9
60	72	-23
91	135	-62
179	182	-100
276	205	-96
331	205	-81
288	179	-58
143	124	-35
-83	40	-8
-335	-62	16
-558	-159	7
-695	-223	-8
-705	-226	-32
-580	-166	-43
-341	-66	-24
-32	32	-14
273	88	5
527	85	18
665	31	22
671	-39	16
537	-90	5
288	-95	-5
-31	-63	-12
-343	-29	-7
-579	-30	-35
-682	-101	-74
-654	-235	-92
-561	-404	-77
-469	-547	-51
-424	-615	-40
-410	-572	-40
-357	-424	-17
-204	-211	15
49	15	23
328	205	39
506	336	44
536	408	15
428	434	-16
299	429	-15
262	389	5
346	301	16
469	169	28
465	9	-2
242	-135	-63
-160	-213	-116
-568	-198	-165
-773	-107	-160
-664	13	-116
-288	101	-87
141	124	-69
430	95	-62
462	51	-66
306	44	-43
117	89	6
46	164	38
130	218	38
279	213	21
358	144	24
287	41	38
96	-46	51
-110	-88	54
-209	-78	49
-162	-44	51
-12	-20	29
149	-12	4
249	-11	-28
270	12	-46
240	65	-51
184	138	-55
105	188	-47
-18	174	-23
-175	90	5
-319	-43	-6
-352	-171	-43
-221	-246	-72
45	-243	-92
323	-175	-100
435	-89	-102
280	-20	-80
-124	11	-57
-595	15	-42
-923	17	-10
-953	39	13
-697	84	1
-296	137	-30
32	181	-16
154	200	12
59	200	37
-118	187	57
-210	166	48
-108	128	9
172	51	-46
498	-69	-83
736	-230	-81
769	-393	-48
600	-516	-42
301	-565	-63
-13	-538	-65
-276	-456	-21
-431	-352	9
-480	-251	21
-432	-160	56
-300	-74	53
-108	12	-15
107	87	-91
302	131	-126
422	131	-155
431	90	-158
314	35	-70
89	6	24
-212	20	78
-518	72	133
-770	127	149
-872	149	113
-775	123	40
-480	76	-38
-56	45	-106
383	66	-142
693	145	-117
805	244	-81
723	313	-45
522	316	-14
292	251	-2
102	152	-18
-51	58	-45
-181	-4	-60
-300	-41	-45
-378	-72	-8
-369	-116	0
-248	-163	-4
-54	-185	-6
140	-160	-2
245	-78	2
234	28	-3
139	118	-4
56	155	-9
50	139	-28
130	96	-39
237	61	-30
287	55	-15
240	66	-5
113	65	11
-15	21	10
-85	-60	3
-74	-152	-7
-18	-205	-19
26	-189	-15
28	-106	-10
-2	10	-41
-18	114	-78
4	166	-71
56	158	-57
94	100	-46
85	27	-51
32	-44	-39
-17	-95	9
-4	-121	26
82	-122	33
193	-98	47
234	-55	26
132	-2	-47
-115	43	-93
-439	74	-93
-700	82	-140
-812	85	-171
-740	103	-123
-532	138	-56
-275	171	59
-44	164	143
143	74	149
288	-109	105
404	-345	46
467	-555	-5
439	-653	-74
309	-590	-101
96	-391	-90
-134	-133	-92
-291	80	-105
-338	171	-93
-285	135	-100
-197	24	-89
-130	-75	-30
-110	-99	-21
-104	-37	-35
-68	67	-26
17	150	-22
130	168	-31
216	119	-20
241	49	13
193	3	24
111	12	35
46	65	60
25	131	63
30	178	70
26	189	60
-14	171	44
-79	137	4
-129	99	-42
-114	58	-63
-19	4	-79
139	-51	-57
297	-97	-13
396	-105	44
395	-65	87
297	10	60
125	89	-11
-63	135	-65
-231	136	-135
-331	101	-207
-350	60	-181
-291	42	-91
-191	51	5
-86	71	60
-14	68	69
22	35	46
43	-21	-3
90	-72	-52
188	-98	-94
322	-94	-108
447	-84	-108
495	-92	-88
419	-127	-41
230	-173	-1
-19	-184	29
-253	-135	46
-404	-32	49
-455	84	30
-423	154	4
-345	138	-19
-250	47	-11
-142	-63	4
-7	-126	15
152	-102	11
310	-2	-7
406	115	-41
392	189	-82
250	190	-89
24	136	-91
-205	77	-63
-347	45	-43
-361	43	-33
-271	18	-22
-155	-77	-8
-89	-252	33
-115	-452	40
-213	-580	-3
-310	-557	-49
-337	-368	-60
-269	-82	-71
-143	179	-80
-23	313	-34
26	290	2
7	161	-7
-29	24	-27
-10	-34	-35
113	3	10
306	98	47
481	170	53
523	168	57
381	85	14
89	-40	-27
-226	-147	-72
-436	-196	-97
-450	-185	-93
-277	-130	-80
-27	-55	-30
183	23	4
280	101	26
270	178	22
229	240	7
224	269	-17
279	264	-14
346	227	-10
358	171	-24
260	115	-8
80	62	14
-111	-3	11
-230	-86	-32
-237	-183	-70
-168	-260	-86
-91	-280	-98
-61	-224	-97
-86	-104	-77
-119	27	-40
-108	113	-4
-27	120	13
95	60	5
198	-12	-1
234	-40	5
193	5	12
109	105	8
27	201	5
-18	236	11
-34	180	-5
-47	56	-32
-70	-85	-33
-92	-189	-31
-75	-230	-39
13	-212	-52
163	-160	-75
339	-97	-76
452	-24	-23
446	58	26
280	152	53
-12	237	91
-375	279	95
-698	252	15
-904	148	-116
-929	-4	-213
-768	-163	-219
-472	-282	-161
-139	-345	-109
130	-348	-55
249	-310	-15
206	-243	-9
56	-155	8
-96	-57	5
-162	35	14
-103	96	57
37	106	81
167	64	98
206	0	119
130	-41	102
-2	-23	34
-101	69	-39
-83	201	-113
61	317	-176
261	365	-168
409	313	-98
415	170	-4
262	-34	77
3	-248	123
-247	-425	106
-392	-519	48
-381	-502	-21
-231	-368	-106
-12	-140	-138
182	113	-113
291	313	-63
299	393	-32
229	329	-18
139	164	8
82	-21	-21
74	-143	-57
99	-163	-62
107	-97	-64
62	-2	-61
-45	57	-54
-184	61	-36
-287	22	-27
-300	-15	-14
-206	-16	1
-35	25	12
141	85	32
261	122	36
292	122	34
255	84	37
195	34	33
155	-4	8
148	-19	-36
158	-17	-65
151	-11	-84
101	-3	-96
11	6	-83
-103	25	-51
-201	55	-19
-263	85	-8
-279	98	-11
-245	83	-10
-167	49	-5
-55	15	20
80	2	23
212	18	5
312	51	-20
336	74	-61
262	63	-74
87	17	-54
-143	-46	-40
-375	-93	-54
-529	-97	-59
-555	-53	-46
-442	20	-28
-228	88	9
16	123	40
206	108	49
285	51	20
244	-35	-27
105	-127	-86
-71	-210	-151
-221	-272	-134
-300	-304	-38
-280	-305	26
-170	-280	37
9	-242	33
206	-207	1
360	-192	-30
413	-195	-38
328	-192	-26
128	-155	1
-116	-59	18
-312	85	-1
-378	241	-20
-300	353	-24
-133	372	-34
23	290	-20
94	138	-2
54	-22	6
-49	-129	1
-144	-154	-10
-186	-104	-36
-172	-24	-72
-143	39	-58
-141	54	-7
-166	30	32
-172	-7	42
-106	-24	8
46	0	-42
245	55	-74
406	120	-91
470	166	-76
422	179	-26
312	166	10
213	137	37
175	113	52
195	95	48
221	79	30
205	53	2
128	16	-19
14	-28	-36
-94	-62	-37
-166	-72	-63
-193	-54	-107
-189	-19	-136
-156	18	-126
-93	36	-97
6	28	-95
127	-3	-78
216	-39	-51
230	-71	-25
130	-85	-5
-45	-80	3
-215	-61	25
-287	-39	39
-218	-19	38
-43	0	42
161	16	54
295	36	104
322	65	118
254	109	79
140	164	13
19	215	-69
-99	250	-173
-228	241	-245
-363	175	-202
-474	63	-120
-503	-70	-42
-412	-192	3
-204	-274	16
49	-301	42
270	-283	90
397	-248	130
415	-218	96
355	-215	22
250	-235	-47
113	-268	-126
-56	-295	-196
-257	-303	-197
-459	-280	-128
-603	-224	-64
-639	-138	-22
-571	-38	8
-433	59	12
-302	134	4
-211	171	5
-156	168	20
-91	131	25
20	85	8
170	49	15
311	36	32
389	49	30
396	76	13
370	111	4
368	150	4
417	189	1
472	228	-4
452	259	-26
297	269	-26
33	252	-6
-250	197	-19
-415	115	-40
-393	20	-44
-222	-65	-53
-7	-128	-39
127	-158	-20
122	-157	-5
17	-129	0
-90	-86	-19
-112	-33	-34
-35	20	-38
87	68	-41
184	111	-48
201	140	-59
158	153	-49
101	139	-23
81	97	-25
103	27	-50
135	-61	-66
140	-144	-66
113	-196	-53
84	-196	-23
101	-140	1
189	-46	37
321	51	76
415	119	56
396	139	-7
210	115	-50
-119	68	-59
-511	30	-84
-837	17	-60
-999	28	17
-926	49	97
-653	64	120
-279	66	44
52	61	-31
225	51	-118
181	29	-193
-21	-25	-155
-232	-136	-91
-302	-300	-78
-144	-482	-66
190	-612	-31
558	-622	11
753	-482	40
664	-226	16
320	67	-4
-115	300	15
-431	408	29
-470	383	69
-229	274	93
138	143	53
422	32	-15
439	-50	-91
165	-121	-137
-302	-186	-168
-731	-237	-172
-950	-243	-131
-856	-192	-96
-507	-94	-55
-58	7	-12
309	67	14
489	70	28
475	39	32
350	26	24
236	65	3
202	155	-11
250	247	-15
313	283	-23
314	233	-25
226	119	-20
67	-1	-17
-88	-69	-17
-174	-64	-6
-170	-12	10
-100	41	37
-15	55	56
40	27	47
54	-8	39
51	-15	8
56	28	-36
81	101	-63
115	163	-59
133	175	-45
121	136	-56
81	68	-47
33	11	-48
5	-16	-71
6	-11	-62
40	-1	-33
89	-6	22
132	-38	87
147	-74	107
107	-97	89
9	-88	16
-142	-51	-85
-288	-9	-181
-360	22	-211
-281	32	-132
-39	40	-26
306	65	14
600	124	36
688	213	65
458	305	48
-47	365	11
-675	351	-56
-1162	244	-120
-1246	43	-119
-1139	-227	-72
-683	-519	-32
-101	-771	-14
370	-922	-10
617	-927	-7
636	-780	20
543	-516	13
470	-208	-12
486	67	-8
564	252	4
592	332	-6
462	325	-31
136	276	-55
-321	219	-66
-766	170	-46
-1043	119	-22
-1088	53	-21
-921	-19	-32
-647	-80	-50
-389	-96	-54
-194	-55	-10
-46	30	72
106	129	149
311	197	144
526	215	64
669	183	-13
648	128	-77
439	71	-109
132	31	-59
-139	4	24
-253	-21	52
-176	-46	11
20	-68	-64
203	-76	-159
266	-60	-205
199	-24	-188
70	24	-124
-15	65	-40
7	102	-14
117	127	-20
244	143	-40
302	148	-45
268	129	-18
167	81	12
64	8	66
4	-66	109
-16	-123	81
-25	-136	15
-55	-114	-43
-108	-72	-82
-152	-37	-101
-152	-23	-79
-100	-19	-14
-24	-13	22
34	15	24
44	64	8
21	117	-15
6	150	-4
39	148	-5
132	122	-4
240	93	12
306	85	22
269	98	24
119	113	28
-112	101	16
-350	36	-18
-524	-72	-44
-573	-200	-95
-481	-299	-136
-269	-326	-150
3	-283	-95
257	-185	-32
411	-76	-21
435	8	-25
336	44	-38
184	39	-19
70	13	-43
50	-14	-67
109	-24	-45
161	-25	-11
101	-24	20
-125	-38	15
-473	-70	22
-814	-114	16
-989	-154	4
-921	-170	-13
-644	-154	-30
-285	-110	-36
-12	-61	-42
92	-28	-32
41	-27	-40
-56	-55	-32
-92	-88	-6
-20	-91	7
121	-39	21
244	64	45
279	182	65
234	261	68
175	259	53
175	168	21
265	19	-32
392	-110	-87
468	-158	-117
421	-95	-105
253	55	-78
44	222	-57
-113	331	-57
-145	333	-72
-60	235	-81
78	85	-77
180	-47	-59
197	-116	-44
130	-117	-20
27	-79	12
-59	-49	-3
-96	-55	-53
-91	-96	-70
-65	-140	-60
-46	-152	-36
-36	-116	32
-23	-41	112
8	40	152
62	101	155
130	129	110
195	134	1
239	136	-116
251	141	-168
234	145	-147
175	126	-67
93	72	21
-20	-11	48
-137	-95	40
-234	-142	24
-277	-131	-5
-249	-64	-58
-158	20	-101
-42	80	-46
40	81	-13
36	21	-38
-69	-62	-81
-255	-130	-115
-434	-144	-155
-537	-109	-170
-491	-46	-114
-295	2	-58
-10	10	-13
268	-24	3
444	-74	14
456	-102	12
308	-89	12
59	-31	12
-207	41	-7
-410	94	-4
-487	100	15
-418	59	38
-209	0	45
104	-48	37
433	-55	20
688	-18	19
766	43	34
625	99	48
280	122	61
-140	101	47
-509	43	-13
-696	-32	-84
-669	-113	-120
-491	-192	-138
-276	-260	-116
-119	-309	-69
-57	-322	-40
-52	-274	-12
-36	-160	8
30	8	1
141	174	-10
251	287	-14
312	299	-17
311	210	-6
267	72	-2
207	-39	7
137	-70	26
44	-16	13
-67	79	-18
-174	138	-42
-221	110	-48
-159	-1	-48
6	-142	-21
202	-237	26
330	-233	47
321	-134	27
189	3	-27
26	114	-114
-59	156	-184
-19	131	-194
112	83	-154
232	47	-58
245	45	39
126	60	93
-65	64	67
-227	36	18
-282	-16	-5
-229	-62	-60
-120	-78	-94
-28	-49	-89
3	3	-34
-12	54	43
-31	85	67
-16	96	41
40	102	11
116	120	5
184	150	-21
222	174	-51
224	168	-80
178	117	-74
69	35	-34
-104	-43	12
-324	-89	84
-530	-78	113
-634	-27	86
-576	32	38
-357	62	-55
-52	38	-163
239	-31	-193
422	-121	-108
494	-191	0
496	-210	46
503	-163	45
533	-60	-23
535	61	-74
419	156	-97
124	174	-151
-329	98	-141
-804	-61	-107
-1124	-250	-88
-1153	-393	-41
-869	-439	-3
-355	-363	24
198	-209	39
639	-47	41
849	48	16
818	50	11
599	-16	22
276	-89	16
-72	-110	14
-361	-66	15
-529	10	21
-526	63	-5
-363	57	-35
-107	1	-60
102	-60	-83
135	-71	-91
-65	-13	-70
-431	85	-35
-781	174	-36
-909	200	-32
-714	164	-26
-254	98	-12
295	56	-3
692	63	33
796	109	79
636	154	76
365	163	51
167	132	33
144	88	10
260	57	-34
375	51	-58
373	43	-83
216	-1	-82
-13	-106	-68
-189	-236	-35
-217	-332	10
-107	-326	17
54	-203	11
163	-7	-17
172	177	-82
113	268	-158
53	248	-176
44	145	-119
77	36	-22
103	-20	74
71	-8	142
-24	35	152
-137	59	104
-207	34	42
-199	-31	-42
-126	-94	-150
-32	-109	-175
38	-63	-88
82	18	-11
115	91	33
157	127	46
195	118	15
193	90	-5
107	71	-18
-54	77	-33
-248	95	-23
-389	98	-20
-419	67	-45
-333	-5	-40
-189	-95	-34
-44	-173	-61
58	-207	-71
145	-190	-72
260	-126	-64
419	-35	-67
579	56	-78
628	129	-77
475	169	-70
94	173	-51
-412	152	-15
-872	109	-4
-1095	52	-2
-1010	-30	-2
-668	-151	-7
-205	-313	15
204	-497	24
439	-646	21
484	-708	24
374	-628	33
175	-418	10
-66	-133	-15
-313	137	-30
-525	312	-44
-632	358	-38
-589	308	-47
-377	227	-44
-43	171	-35
300	170	-23
547	193	-4
648	198	-8
611	160	-19
494	89	-25
355	31	-38
208	18	-58
36	55	-60
-164	106	-55
-361	118	-25
-465	69	-18
-415	-23	-26
-199	-99	-2
97	-104	8
346	-21	7
446	113	19
373	218	14
216	240	-12
71	157	-22
16	14	-24
32	-119	-40
50	-183	-53
5	-164	-64
-115	-96	-25
-242	-28	63
-298	-2	120
-245	-22	130
-114	-62	66
18	-97	-16
87	-102	-107
84	-86	-182
57	-61	-181
64	-47	-110
124	-38	-39
198	-29	-13
226	-13	5
172	4	5
59	7	2
-50	-13	-35
-102	-48	-49
-87	-80	-37
-47	-78	-59
-38	-31	-51
-79	50	-46
-133	137	-49
-136	201	-39
-49	224	-2
105	207	32
249	168	45
300	112	46
223	49	32
58	-27	-15
-113	-115	-93
-210	-200	-106
-208	-259	-101
-128	-265	-84
-19	-219	-54
91	-130	-36
190	-29	6
283	56	24
345	110	7
324	132	-28
175	135	-38
-102	124	-28
-436	105	-21
-698	83	14
-779	68	31
-637	80	34
-337	121	49
-9	181	61
216	215	74
296	189	87
251	70	108
164	-114	66
109	-301	-43
99	-416	-121
103	-409	-177
63	-301	-226
-32	-159	-197
-152	-58	-126
-233	-31	-46
-226	-50	18
-126	-50	36
16	26	24
123	168	1
140	305	-27
50	340	-66
-113	223	-80
-285	-21	-81
-394	-289	-77
-408	-460	-34
-304	-464	12
-107	-319	66
136	-109	100
366	67	91
541	161	62
608	185	3
563	197	-41
417	237	-57
209	290	-67
-4	301	-56
-168	213	-44
-252	19	-26
-251	-224	-24
-198	-413	-40
-141	-469	-40
-116	-368	-46
-129	-171	-74
-159	30	-76
-161	157	-35
-105	183	13
11	145	63
148	95	55
254	76	28
299	90	-21
266	114	-106
192	116	-147
111	89	-143
58	48	-97
32	18	-67
13	15	-50
-17	27	-42
-66	34	-11
-114	19	34
-139	-17	50
-123	-50	85
-70	-58	78
-8	-27	37
42	32	-4
67	91	-41
74	128	-46
74	130	-34
78	109	-24
85	76	-3
83	47	34
60	20	19
17	-12	-31
-26	-53	-66
-53	-104	-98
-44	-140	-111
0	-150	-97
52	-119	-54
87	-55	-12
71	22	15
1	94	26
-109	145	37
-215	174	57
-274	181	51
-255	174	49
-156	162	44
-15	137	18
116	106	-2
198	63	-24
210	13	-21
175	-51	-4
137	-125	-20
126	-208	-49
136	-296	-58
132	-375	-65
62	-434	-76
-91	-460	-102
-287	-446	-131
-443	-388	-121
-463	-290	-99
-314	-165	-56
-44	-24	-30
237	114	-32
388	227	-27
339	288	-14
97	287	7
-232	222	9
-545	112	-3
-726	3	-2
-765	-69	6
-675	-75	21
-494	-19	52
-260	68	45
-1	135	14
260	143	-40
462	81	-86
555	-29	-113
498	-130	-111
322	-173	-58
93	-125	-24
-76	-5	-3
-121	135	-15
-41	228	-50
95	225	-55
205	122	-49
234	-38	-32
189	-185	-12
124	-254	-9
97	-217	-12
128	-94	-4
196	59	24
254	185	48
266	241	56
229	227	42
166	174	10
107	119	-13
65	84	-38
34	66	-62
-7	50	-63
-58	19	-42
-113	-26	-31
-141	-67	-25
-132	-85	-1
-89	-66	30
-33	-28	62
11	11	87
29	31	65
25	32	8
15	34	-49
13	56	-112
23	106	-173
36	166	-171
34	203	-104
4	189	-24
-63	120	22
-158	27	17
-247	-55	-15
-303	-99	-43
-287	-110	-57
-188	-114	-59
-24	-137	-48
151	-186	-5
279	-227	34
306	-226	42
230	-158	26
85	-46	-31
-60	53	-59
-140	83	-54
-128	9	-55
-46	-140	-38
48	-309	-19
107	-417	15
111	-427	7
77	-343	-23
44	-204	-9
34	-61	-11
17	56	-23
-58	149	-21
-240	221	-8
-503	284	20
-751	333	69
-840	345	101
-669	307	65
-245	219	-34
284	100	-126
705	-15	-198
829	-95	-246
608	-123	-206
151	-106	-90
-311	-67	10
-583	-37	42
-576	-42	31
-357	-88	0
-81	-156	7
105	-211	26
159	-213	47
125	-143	40
104	-11	9
155	142	-16
262	261	-47
366	301	-60
396	257	-70
340	160	-61
245	54	-41
164	-18	-23
126	-49	-4
101	-52	-5
41	-55	-9
-77	-69	-22
-222	-81	-43
-321	-69	-57
-315	-19	-59
-191	62	-38
-17	144	-33
126	191	-40
175	181	-23
133	130	7
60	74	24
22	45	26
49	59	43
117	95	77
174	116	95
172	93	76
106	25	11
15	-63	-57
-50	-133	-88
-63	-160	-80
-33	-141	-61
0	-106	-38
-5	-91	-27
-62	-111	-35
-155	-162	-23
-238	-207	-33
-269	-207	-62
-228	-143	-92
-117	-24	-98
28	106	-82
155	202	-47
226	221	41
206	163	126
104	57	155
-50	-46	121
-204	-110	43
-312	-115	-78
-345	-77	-194
-308	-31	-251
-235	-16	-209
-152	-51	-106
-89	-126	-22
-49	-213	49
-19	-274	77
15	-275	44
67	-212	13
140	-95	-27
234	41	-97
336	164	-151
434	236	-132
506	244	-42
523	196	69
439	116	119
245	45	90
-46	13	16
-391	29	-59
-681	83	-118
-830	132	-153
-783	142	-95
-551	88	6
-214	-13	82
98	-127	119
282	-203	78
280	-205	13
131	-134	-23
-72	-28	-18
-218	60	10
-244	95	10
-148	64	-8
8	-2	-39
138	-56	-70
198	-64	-95
184	-21	-110
151	51	-86
140	112	-52
184	130	-14
273	98	24
366	44	36
435	-3	3
456	-21	-27
419	-13	-33
318	3	-38
155	2	-23
-62	-20	-17
-300	-49	-31
-487	-68	-30
-568	-61	-32
-504	-33	-39
-325	4	-21
-117	29	-10
33	40	-26
75	47	-41
32	61	-46
-31	85	-54
-36	100	-57
36	82	-18
154	21	14
249	-69	20
269	-145	10
216	-170	-8
122	-118	10
35	-11	-2
-33	106	-43
-107	185	-53
-200	193	-51
-312	134	-38
-382	34	-12
-347	-75	14
-181	-173	51
71	-241	75
317	-272	65
446	-256	35
428	-183	-12
299	-69	-57
151	51	-97
71	132	-116
75	143	-89
106	85	-57
82	-7	-50
-52	-79	-46
-275	-101	-12
-501	-76	32
-631	-39	16
-599	-36	-21
-415	-68	-70
-144	-113	-110
121	-118	-151
314	-60	-133
405	47	-23
397	154	41
314	200	66
184	166	31
47	76	-8
-67	-13	-13
-126	-49	-32
-112	-21	-32
-36	43	-5
51	96	-4
91	106	-9
37	77	-18
-111	41	-46
-302	34	-50
-445	57	-60
-468	90	-55
-333	93	-43
-80	51	-31
204	-25	-6
410	-93	10
475	-121	58
383	-95	90
198	-41	61
27	1	7
-42	5	-28
34	-29	-65
215	-66	-82
407	-70	-22
484	-13	44
371	95	64
77	215	22
-303	309	-35
-632	335	-75
-785	284	-100
-727	166	-99
-526	1	-63
-287	-186	22
-121	-368	66
-71	-502	22
-97	-562	-10
-116	-524	-33
-59	-389	-82
74	-188	-94
230	27	-90
340	203	-91
350	305	-70
284	323	-60
201	278	-41
162	198	6
182	105	42
225	15	39
234	-69	5
172	-138	-30
47	-179	-46
-80	-178	-57
-151	-134	-54
-133	-64	-39
-51	1	-24
44	28	-14
90	7	-30
66	-46	-37
-13	-96	-9
-107	-104	0
-173	-56	17
-185	35	77
-130	131	107
-23	198	66
121	211	3
276	179	-69
393	125	-137
431	76	-169
355	41	-121
165	20	-55
-102	0	-41
-366	-28	-16
-561	-58	-27
-624	-78	-47
-555	-71	-40
-390	-37	-48
-186	9	-26
-1	47	-11
127	55	-1
194	32	-9
196	-14	-30
162	-61	-27
107	-87	-27
56	-84	-25
22	-55	-7
8	-19	20
6	11	30
2	28	35
-7	34	28
-16	43	16
2	67	-5
74	110	-9
202	171	8
374	241	13
540	300	21
632	331	23
595	316	13
417	236	3
111	94	-21
-247	-96	-63
-580	-289	-84
-797	-437	-89
-829	-492	-74
-651	-433	-43
-300	-281	-36
134	-90	-43
498	66	-34
665	131	-19
536	87	-34
142	-45	-52
-406	-206	-69
-888	-334	-101
-1146	-390	-102
-1093	-361	-65
-775	-274	-24
-325	-164	15
79	-63	32
333	14	47
409	70	60
382	115	48
350	158	33
379	193	7
459	221	-6
520	231	-10
493	227	-44
350	211	-69
133	186	-81
-76	147	-79
-191	87	-20
-183	6	49
-75	-88	49
65	-161	-4
159	-179	-76
162	-125	-158
64	-15	-209
-86	99	-162
-239	161	-51
-330	127	38
-333	17	91
-248	-116	106
-105	-192	112
45	-166	81
159	-43	22
210	117	-11
206	236	-36
178	259	-31
152	190	-30
148	79	-42
156	-14	-80
151	-51	-123
107	-38	-106
30	-17	-93
-62	-21	-63
-139	-59	-10
-172	-107	23
-159	-125	28
-117	-92	-11
-72	-17	-51
-39	64	-44
-17	120	-36
8	135	-55
49	123	-75
102	110	-83
150	114	-53
169	128	-28
147	135	25
90	118	101
20	77	129
-33	25	104
-60	-15	64
-60	-36	23
-56	-48	-25
-65	-70	-52
-92	-108	-68
-126	-154	-71
-143	-183	-79
-121	-174	-68
-55	-130	-14
33	-75	21
124	-45	49
196	-62	45
254	-118	-9
319	-182	-74
395	-217	-157
462	-211	-211
462	-179	-187
322	-152	-101
18	-149	-13
-404	-160	41
-820	-158	58
-1071	-104	43
-1071	4	6
-825	136	-26
-436	237	-27
-69	268	-11
164	227	4
260	147	6
283	84	-15
330	66	-23
418	89	-31
473	110	-43
373	91	-35
48	22	-4
-447	-71	30
-913	-143	52
-1116	-159	46
-991	-121	-1
-518	-62	-58
100	-23	-101
600	-17	-102
831	-31	-69
759	-27	-30
523	16	-9
290	95	1
179	171	10
192	210	20
248	185	24
261	115	8
193	43	-10
84	7	-25
-3	20	-24
-27	67	-37
1	112	-46
36	125	-46
42	95	-44
21	40	-24
4	-13	-14
28	-40	-2
90	-35	18
162	-10	26
191	23	24
156	47	9
69	57	-2
-25	50	-17
-95	27	-49
-123	-12	-63
-127	-69	-48
-129	-142	-20
-137	-227	-18
-140	-300	-23
-119	-343	-15
-65	-326	-46
-2	-238	-89
46	-83	-102
62	116	-92
56	310	-80
53	451	-71
77	505	-51
121	469	-20
151	352	-26
123	187	-12
20	2	20
-135	-187	-16
-300	-362	-55
-412	-510	-75
-447	-600	-92
-407	-602	-104
-314	-506	-67
-190	-329	9
-56	-122	38
74	63	36
175	183	11
230	233	2
216	233	12
151	219	-6
67	218	-7
5	222	-7
-27	205	-15
-60	145	-18
-141	37	3
-295	-105	42
-468	-249	56
-579	-356	57
-532	-407	44
-300	-379	24
43	-276	-21
352	-115	-68
504	71	-72
444	233	-64
237	324	-54
21	321	-19
-86	241	-1
-53	131	-26
57	51	-36
143	34	-43
133	68	-44
39	109	-33
-69	108	-19
-110	54	-19
-49	-22	-32
77	-66	-29
194	-36	-11
245	59	5
226	174	27
175	247	52
151	238	46
172	161	19
214	60	-22
234	-15	-70
192	-52	-97
97	-68	-92
-22	-100	-72
-113	-157	-57
-156	-222	-27
-149	-254	-5
-120	-224	10
-92	-138	16
-75	-32	43
-64	41	47
-53	66	-7
-40	53	-44
-23	38	-83
-4	53	-138
25	100	-172
72	150	-145
131	164	-97
176	131	-67
172	76	-40
94	36	-6
-52	48	16
-222	104	18
-332	165	20
-329	177	6
-197	115	-12
15	-12	-23
226	-159	-32
342	-272	-17
314	-321	16
159	-301	46
-69	-243	83
-286	-166	87
-425	-89	67
-456	-24	43
-387	22	-33
-257	35	-118
-121	0	-163
-20	-79	-140
27	-174	-49
29	-238	-1
15	-236	22
16	-156	1
46	-37	-25
99	64	-35
135	104	-65
128	77	-60
69	21	-52
-10	-6	-11
-60	34	20
-46	128	-7
35	225	-44
133	256	-58
187	187	-55
150	33	-35
31	-145	12
-107	-281	56
-191	-332	75
-174	-297	65
-69	-208	42
75	-105	-9
190	-5	-68
242	85	-105
238	174	-93
211	254	-45
203	305	-17
226	305	0
269	248	13
314	158	6
331	72	-15
302	28	-56
223	33	-93
78	64	-106
-120	83	-109
-344	59	-88
-539	0	-45
-649	-68	-24
-652	-101	-8
-565	-78	22
-451	-6	29
-375	78	24
-357	131	26
-361	135	21
-314	95	9
-149	41	-9
116	2	-27
405	-9	-32
592	-6	-32
606	-13	-40
439	-46	-44
184	-108	-38
-50	-166	-23
-180	-192	4
-194	-163	66
-140	-87	129
-71	7	127
-11	77	64
55	85	-3
156	27	-85
273	-80	-171
358	-191	-182
342	-271	-106
200	-297	-54
-33	-263	-41
-255	-200	-47
-366	-131	-97
-327	-79	-116
-180	-52	-122
-10	-43	-94
90	-39	-26
104	-29	46
69	-5	127
65	29	130
132	70	48
257	114	-38
385	166	-99
438	222	-143
387	275	-120
242	305	-49
56	283	29
-126	190	72
-270	29	94
-379	-163	79
-451	-330	-6
-481	-412	-64
-459	-375	-111
-374	-229	-129
-233	-27	-104
-71	153	-66
72	257	-21
169	266	13
214	207	43
219	129	53
214	84	37
211	85	5
211	119	-13
196	152	-4
143	154	16
46	123	24
-89	80	24
-218	51	32
-298	50	-4
-282	64	-78
-169	67	-133
15	33	-142
198	-37	-124
319	-123	-102
334	-188	-67
248	-203	-30
107	-171	21
-22	-111	90
-111	-61	138
-147	-44	126
-152	-62	71
-148	-93	18
-150	-102	-33
-150	-74	-80
-127	-2	-96
-79	95	-69
-4	187	-40
76	243	-14
143	236	-16
192	155	-39
216	8	-54
214	-166	-77
180	-315	-91
107	-376	-127
6	-317	-129
-109	-157	-72
-216	40	-24
-310	174	0
-385	177	16
-453	41	44
-496	-162	29
-481	-325	6
-371	-351	5
-160	-222	-7
113	-1	-14
346	193	2
455	261	-1
399	183	-25
230	14	-45
61	-142	-56
4	-202	-60
80	-150	-45
222	-33	-22
300	66	0
222	103	21
-3	83	11
-277	52	-15
-438	66	3
-401	135	30
-185	229	2
89	287	-38
287	272	-60
325	190	-57
232	82	-32
121	3	-7
101	-21	5
221	-2	-5
423	22	-38
605	15	-98
639	-32	-126
472	-107	-116
122	-177	-80
-321	-216	-34
-754	-215	-9
-1043	-184	7
-1133	-131	20
-995	-63	29
-675	11	7
-255	87	-13
141	149	-7
446	178	-32
604	162	-52
653	108	-26
642	35	6
606	-30	68
527	-61	126
354	-55	147
50	-20	103
-343	18	24
-714	35	-59
-911	22	-157
-832	-14	-177
-481	-48	-122
2	-55	-63
444	-27	7
671	23	14
636	57	-39
394	43	-38
68	-31	-53
-217	-141	-78
-377	-234	-64
-389	-254	-50
-281	-181	-32
-105	-47	-24
85	81	-13
226	132	10
273	84	13
205	-40	-3
54	-159	1
-106	-202	-20
-191	-139	-53
-155	-2	-57
-19	134	-50
143	203	-31
241	180	-9
225	95	26
117	8	46
-7	-29	32
-81	-5	-14
-71	51	-59
-5	93	-74
62	88	-87
88	42	-72
61	-6	-18
7	-15	3
-40	39	-3
-58	135	-6
-42	236	-44
-1	284	-76
52	252	-52
113	138	-35
160	-23	-40
175	-183	-45
131	-294	-46
28	-328	-23
-110	-291	14
-235	-206	11
-300	-116	-42
-290	-57	-51
-223	-45	0
-136	-65	52
-66	-89	109
-23	-82	151
0	-26	126
11	70	37
-4	175	-69
-63	258	-162
-174	287	-254
-295	261	-251
-354	187	-122
-274	87	-5
-42	-20	70
271	-118	90
530	-196	57
600	-252	19
425	-276	-21
63	-273	-43
-318	-253	-53
-550	-222	-57
-535	-190	-39
-290	-157	-36
63	-118	-37
357	-64	-23
491	2	-7
439	74	6
285	142	34
107	194	67
-7	233	70
-52	265	32
-63	296	-25
-92	317	-64
-169	305	-106
-277	244	-113
-378	124	-78
-411	-34	-21
-347	-192	11
-195	-301	0
0	-330	-8
183	-278	-14
306	-167	-13
355	-43	2
352	55	8
328	106	-11
312	106	-51
302	75	-71
280	25	-81
219	-17	-68
107	-41	15
-32	-39	76
-162	-18	76
-247	14	31
-274	40	-40
-264	53	-133
-246	53	-241
-231	46	-275
-208	45	-218
-156	45	-100
-57	42	8
67	17	85
175	-36	155
222	-98	172
184	-137	126
104	-116	62
40	-17	4
56	132	-69
166	278	-137
318	358	-124
420	340	-72
389	229	-40
192	75	-18
-122	-77	5
-459	-187	40
-695	-258	54
-743	-300	17
-582	-316	-2
-272	-300	7
104	-233	5
425	-117	-6
614	15	-43
623	116	-58
454	138	-52
157	78	-43
-185	-27	7
-480	-110	42
-617	-125	43
-550	-72	12
-289	1	-40
59	32	-77
358	-11	-106
462	-112	-87
322	-212	-54
13	-248	-34
-300	-190	-11
-453	-59	-4
-359	88	2
-80	199	-18
203	249	-39
302	248	-40
138	224	-16
-218	190	-4
-588	145	-37
-756	71	-50
-633	-32	-35
-287	-145	24
103	-218	49
373	-207	15
430	-112	-12
334	27	-30
205	138	-43
158	162	-55
211	82	-58
301	-54	-61
339	-175	-52
265	-215	-40
111	-162	-31
-38	-51	-7
-110	51	43
-85	106	68
0	109	70
78	100	49
107	121	8
103	188	-28
105	269	-106
151	318	-143
234	285	-136
300	170	-144
292	10	-124
183	-142	-68
6	-243	-18
-178	-286	5
-295	-280	2
-318	-249	-7
-264	-202	0
-192	-136	6
-148	-52	-1
-143	34	-11
-159	99	-39
-148	122	-81
-72	106	-91
66	82	-24
245	88	52
411	143	111
520	232	168
547	290	152
484	275	72
350	170	-20
151	12	-117
-95	-125	-170
-383	-185	-135
-668	-162	-78
-909	-110	-32
-1039	-107	8
-1008	-198	8
-812	-364	-15
-487	-516	-18
-110	-557	-24
214	-436	-33
430	-178	-43
508	116	-41
504	335	-31
462	406	-38
444	341	-34
466	206	-21
517	93	-15
558	50	-16
547	77	-21
461	131	-58
273	162	-94
2	140	-90
-335	66	-68
-675	-38	-32
-937	-161	11
-1057	-282	42
-973	-384	97
-700	-438	144
-316	-407	113
71	-273	54
352	-55	-12
467	183	-81
425	362	-98
301	418	-25
171	338	49
105	174	19
117	5	-67
178	-96	-168
242	-104	-219
271	-41	-200
251	38	-149
186	85	-67
102	83	-26
28	43	-9
-16	4	13
-19	-8	52
12	17	83
50	70	90
65	130	69
25	180	6
-70	202	-21
-208	193	-48
-331	147	-55
-393	65	-25
-370	-39	8
-262	-158	7
-106	-263	-52
49	-337	-65
170	-353	-31
244	-311	-10
275	-218	-35
283	-99	-60
266	10	-53
219	81	-51
130	101	-35
-5	79	-2
-159	39	26
-295	13	37
-371	26	34
-370	74	22
-306	131	16
-215	158	4
-144	130	-24
-104	45	-40
-83	-58	-46
-36	-129	-59
72	-130	-67
251	-56	-44
450	57	-26
590	151	-13
590	183	8
411	142	-22
82	58	-48
-288	-29	-36
-589	-89	-36
-708	-131	-28
-631	-181	-27
-392	-257	-20
-102	-351	-12
169	-407	4
363	-372	26
483	-218	24
551	15	-9
575	244	-90
536	387	-153
393	395	-185
132	299	-137
-210	168	-10
-538	81	83
-743	65	106
-757	95	82
-588	106	16
-325	56	-36
-89	-49	-63
42	-160	-79
56	-211	-38
13	-171	17
-13	-62	27
30	58	-20
132	130	-45
240	127	-48
297	62	-18
279	-14	58
209	-63	95
135	-64	69
101	-24	-9
105	30	-99
116	83	-172
92	119	-170
14	141	-112
-97	151	-57
-186	143	-15
-198	117	19
-111	67	37
42	1	-10
209	-74	-52
302	-136	-58
299	-170	-51
190	-157	-33
36	-92	-12
-96	14	-11
-147	127	-7
-97	195	-16
29	164	-30
181	7	-19
287	-246	-15
288	-512	6
150	-685	16
-109	-677	24
-420	-474	24
-675	-148	7
-762	183	0
-636	400	-2
-336	445	-3
26	339	2
291	168	19
358	12	20
222	-74	8
-16	-93	-24
-221	-82	-70
-269	-74	-119
-162	-78	-145
17	-77	-120
144	-56	-63
144	-21	3
32	7	63
-100	5	85
-136	-24	40
-21	-49	-18
221	-27	-86
495	64	-151
716	201	-140
819	319	-57
810	357	19
701	300	71
506	174	74
206	54	16
-195	-3	-26
-682	11	-76
-1115	56	-93
-1328	68	-77
-1219	7	-59
-991	-114	-25
-450	-236	-4
94	-283	28
475	-227	40
603	-78	22
523	96	-11
354	221	-25
234	251	-27
208	189	-19
256	70	10
295	-53	22
268	-138	33
179	-163	44
83	-121	48
45	-27	9
89	96	-54
175	209	-126
228	265	-139
190	241	-115
55	134	-126
-134	-12	-99
-299	-142	-47
-380	-203	-27
-351	-187	-47
-234	-129	-36
-66	-89	-16
110	-112	15
266	-195	51
369	-296	53
385	-348	61
279	-314	23
41	-210	-9
-308	-87	-26
-676	2	-38
-954	32	-17
-1043	28	6
-896	41	18
-540	99	-1
-85	188	17
343	256	59
620	244	-20
689	141	-116
566	-24	-144
316	-174	-186
30	-248	-211
-193	-228	-175
-295	-151	-93
-246	-81	-2
-77	-58	28
148	-81	7
328	-97	26
394	-54	28
310	63	16
114	226	32
-105	365	63
-262	427	85
-321	387	55
-305	273	16
-274	135	-16
-273	5	-44
-296	-101	-77
-281	-190	-104
-176	-263	-100
24	-308	-55
245	-297	-8
378	-213	17
350	-78	26
179	65	16
-39	162	-6
-169	191	-22
-136	166	-19
34	132	-1
245	131	22
383	168	22
387	211	9
279	212	-11
131	149	-42
7	39	-53
-70	-64	-72
-123	-113	-69
-173	-97	-21
-223	-46	4
-243	-19	2
-201	-43	12
-92	-115	-9
50	-183	-67
170	-191	-75
241	-121	-34
269	0	-9
302	112	-7
374	174	-53
489	174	-84
595	153	-44
618	155	-4
506	197	86
254	254	231
-104	268	232
-503	201	87
-856	47	-57
-1095	-141	-190
-1161	-304	-315
-1026	-405	-323
-708	-448	-168
-275	-474	-22
183	-508	38
547	-543	55
769	-527	1
836	-413	-71
806	-191	-114
723	74	-112
600	290	-64
403	370	-42
102	299	-13
-292	133	37
-692	-20	63
-970	-84	38
-1039	-33	8
-896	88	17
-633	205	19
-389	270	5
-248	274	-6
-214	237	-4
-208	183	3
-139	122	-6
22	43	-38
229	-60	-50
374	-171	-46
399	-252	-35
296	-263	-25
139	-206	-24
17	-111	-28
-13	-28	-42
30	10	-39
91	10	-37
123	7	-16
118	33	9
117	89	15
162	140	7
263	149	-4
392	100	4
482	33	5
484	0	-13
392	42	-32
234	143	-32
53	237	-14
-103	252	12
-215	156	21
-279	-6	47
-285	-154	60
-230	-196	30
-121	-113	-11
19	52	-75
153	218	-143
240	305	-185
261	292	-155
225	210	-104
154	106	-62
81	15	-34
13	-67	-30
-58	-163	10
-139	-280	46
-231	-390	41
-300	-453	10
-321	-436	-32
-280	-345	-47
-191	-228	-20
-95	-137	42
-26	-97	66
8	-79	24
28	-26	-6
78	108	-24
196	313	-50
373	526	-99
575	647	-122
719	607	-106
732	409	-90
565	114	-42
215	-176	16
-262	-384	75
-750	-481	83
-1124	-487	45
-1269	-451	6
-1146	-403	-40
-787	-358	-89
-308	-292	-117
165	-194	-106
498	-62	-71
655	83	-20
653	211	-3
560	301	-18
425	351	-30
269	362	-2
80	335	71
-140	269	144
-350	171	152
-478	40	87
-463	-94	47
-312	-203	-11
-110	-259	-131
38	-256	-215
64	-206	-197
-11	-137	-160
-90	-69	-116
-71	-12	-84
67	35	-68
250	80	-53
340	115	-47
250	131	-18
5	120	-26
-267	80	-30
-404	32	6
-325	-4	28
-86	-14	57
165	0	106
284	19	149
221	30	141
40	25	77
-120	17	-13
-156	27	-119
-47	64	-166
126	120	-124
279	169	-59
350	187	-33
354	163	-35
328	113	-35
295	57	-18
228	23	-4
86	16	-14
-143	17	-23
-404	4	-36
-588	-48	-31
-599	-134	-19
-418	-230	3
-116	-298	32
167	-312	49
333	-260	37
346	-153	16
269	-18	7
205	116	-54
222	225	-91
314	284	-75
404	279	-43
395	196	-27
228	43	-53
-76	-151	-85
-437	-330	-105
-726	-438	-76
-861	-435	-34
-798	-325	-7
-581	-159	26
-281	-8	6
-2	60	-27
196	35	-30
274	-48	-11
258	-125	32
187	-134	59
110	-61	32
50	59	-5
13	168	-42
-16	210	-78
-44	174	-42
-64	83	16
-66	-11	32
-38	-62	17
11	-53	2
56	4	-29
75	84	-68
55	157	-92
23	203	-92
12	215	-48
57	193	-17
172	140	20
324	70	65
459	6	65
520	-30	13
472	-24	-68
314	20	-126
86	75	-145
-164	106	-137
-377	92	-79
-526	37	2
-603	-31	66
-611	-75	63
-566	-69	5
-473	-27	-36
-333	27	-90
-161	56	-150
27	41	-102
196	-7	0
306	-68	62
339	-113	134
306	-130	121
245	-126	44
196	-117	-9
191	-112	-98
223	-111	-177
262	-103	-187
279	-74	-123
261	-21	-53
225	47	1
195	116	35
190	171	63
191	205	49
162	213	17
66	195	46
-96	150	66
-285	74	54
-445	-20	13
-511	-114	-18
-481	-182	-36
-378	-204	-106
-251	-179	-144
-135	-129	-119
-36	-88	-81
66	-83	-34
179	-119	16
271	-175	29
287	-215	-7
170	-211	-30
-80	-165	-48
-375	-102	-78
-595	-55	-98
-626	-45	-86
-442	-55	-38
-122	-53	19
170	-4	64
310	97	103
248	222	122
58	320	106
-118	345	38
-160	298	-74
-36	192	-149
178	71	-164
366	-34	-137
436	-111	-77
373	-160	25
242	-183	109
131	-166	116
93	-102	63
118	6	-30
161	122	-111
183	193	-181
179	177	-170
180	72	-51
198	-67	27
210	-176	41
151	-189	6
-37	-110	-23
-347	11	-17
-679	98	-28
-892	102	-39
-869	32	-42
-602	-56	-36
-193	-97	-25
175	-59	-5
381	33	15
370	122	29
229	155	47
86	126	43
40	68	4
98	43	-35
189	83	-58
234	171	-74
188	254	-61
92	265	-40
17	179	-14
20	16	10
86	-154	8
139	-263	-31
113	-277	-65
-17	-202	-49
-190	-94	-30
-311	-8	8
-295	18	44
-133	-11	12
96	-67	-31
299	-113	-66
396	-119	-127
373	-87	-158
275	-28	-140
154	30	-79
40	72	-4
-61	94	25
-162	101	42
-258	97	50
-321	79	45
-328	39	30
-279	-32	8
-213	-126	-38
-188	-223	-90
-237	-291	-121
-344	-304	-98
-431	-267	-63
-425	-201	-41
-295	-144	1
-75	-123	49
147	-133	99
283	-144	102
312	-117	70
276	-34	3
263	88	-56
336	202	-80
482	262	-93
623	261	-12
639	213	72
462	178	79
117	187	44
-290	240	-26
-614	295	-120
-725	300	-185
-616	225	-153
-361	82	-83
-104	-76	-28
41	-194	-4
45	-246	-6
-30	-242	-2
-66	-213	25
22	-185	30
239	-161	13
495	-118	9
653	-36	3
619	85	-8
375	210	-24
38	294	-17
-267	300	-18
-417	233	-42
-385	124	-57
-232	16	-59
-71	-56	-37
7	-90	-20
-22	-99	1
-119	-98	-5
-206	-95	-7
-217	-76	5
-138	-32	5
-8	36	10
107	115	-14
149	174	-47
85	195	-86
-57	158	-109
-218	72	-101
-333	-48	-66
-345	-183	-39
-253	-308	-31
-92	-395	-3
72	-426	1
187	-377	10
216	-246	60
175	-59	99
107	139	44
50	300	-49
36	372	-84
60	340	-114
117	206	-140
187	16	-116
256	-170	-43
313	-286	-19
330	-288	-45
280	-174	-58
143	15	-42
-69	196	21
-308	283	54
-497	222	67
-572	33	119
-513	-211	166
-339	-408	144
-116	-474	47
100	-393	-59
275	-215	-167
400	-22	-267
486	115	-238
529	174	-113
506	187	0
411	197	78
231	231	50
3	277	-8
-217	298	10
-386	251	11
-473	135	9
-487	-16	-14
-452	-151	-47
-380	-227	-46
-267	-224	-52
-112	-158	-41
80	-49	-23
262	79	7
378	211	24
381	335	24
272	424	19
104	450	-4
-39	394	-32
-95	257	-56
-56	80	-56
23	-98	-41
71	-235	-26
34	-325	-17
-85	-387	-14
-223	-438	-34
-296	-487	-62
-245	-504	-93
-68	-460	-114
184	-328	-89
415	-133	-70
551	72	-51
547	227	-7
421	290	16
230	275	24
57	219	50
-48	174	103
-84	158	134
-104	160	113
-191	147	48
-392	96	-39
-691	8	-118
-961	-93	-156
-1064	-177	-154
-898	-235	-145
-489	-263	-130
30	-273	-86
446	-253	-15
623	-181	14
536	-48	5
317	123	-1
140	278	-6
129	352	-12
269	309	-21
438	170	-20
506	13	-25
422	-90	-14
248	-99	31
95	-50	85
53	-15	108
102	-49	78
147	-150	43
97	-241	20
-57	-237	12
-223	-98	6
-290	130	-45
-207	340	-81
-40	427	-111
71	341	-157
18	150	-175
-202	-41	-122
-458	-134	-50
-589	-105	-9
-508	-7	1
-249	67	-38
33	55	-38
188	-36	-12
162	-150	24
24	-206	98
-96	-173	132
-91	-66	93
35	57	13
189	144	-70
262	171	-144
211	147	-151
80	98	-106
-45	43	-46
-85	-6	-10
-33	-45	-15
54	-62	-28
114	-38	-32
118	28	-39
92	124	-55
72	207	-48
82	228	-41
101	166	-39
102	33	-51
77	-117	-51
61	-240	-20
117	-298	33
270	-294	67
493	-256	49
671	-207	32
693	-161	12
478	-107	11
44	-35	12
-504	55	10
-1002	143	-6
-1310	189	-25
-1262	160	-62
-1121	41	-75
-692	-142	-39
-191	-345	-10
262	-497	35
551	-549	56
636	-474	32
541	-291	-28
360	-50	-103
213	182	-185
194	350	-221
331	431	-140
558	438	-43
754	410	38
786	379	59
588	352	12
162	316	-16
-383	229	-3
-899	74	49
-1213	-137	93
-1235	-355	100
-984	-507	63
-546	-539	-27
-63	-433	-81
288	-232	-100
438	-5	-104
387	170	-100
228	244	-99
72	214	-82
6	120	-65
28	21	-59
82	-37	-65
97	-37	-66
40	8	-62
-58	59	-37
-134	91	-12
-133	89	4
-44	68	7
82	49	-2
181	54	-1
208	84	1
166	121	8
97	145	19
42	140	34
24	110	42
18	66	48
-3	25	52
-56	-2	52
-126	-22	44
-182	-43	14
-190	-70	-15
-145	-97	-27
-67	-104	-32
23	-76	-44
127	-5	-42
252	94	-14
417	197	-6
600	270	-43
740	295	-76
767	260	-84
602	177	-85
244	76	-53
-236	-29	-16
-708	-108	22
-1047	-155	44
-1155	-155	16
-1043	-111	-23
-773	-35	-58
-447	43	-97
-179	77	-89
-32	27	-69
-15	-131	-51
-86	-370	-36
-170	-619	-48
-195	-788	-58
-128	-797	-49
20	-627	-53
187	-322	-62
302	14	-3
312	268	79
216	372	144
75	308	190
-35	135	133
-56	-61	-8
17	-199	-134
136	-240	-223
227	-179	-279
245	-60	-247
206	68	-130
162	171	12
175	230	79
274	250	66
421	250	43
529	248	2
523	252	-10
358	257	-9
81	241	-21
-244	192	-24
-497	106	-9
-621	3	12
-589	-87	30
-439	-130	32
-225	-118	-1
-15	-58	-42
139	13	-90
216	74	-126
222	108	-111
184	118	-30
142	112	77
121	93	129
126	60	95
139	8	20
135	-57	-67
97	-113	-159
26	-133	-181
-47	-102	-136
-96	-32	-41
-97	41	7
-55	76	2
13	56	5
86	-3	4
158	-63	15
228	-80	10
301	-40	0
363	36	1
381	112	15
317	154	16
151	153	4
-102	121	4
-377	85	11
-605	55	5
-720	26	-6
-700	-21	-16
-572	-95	4
-394	-183	9
-231	-257	-18
-110	-280	-28
-40	-242	-35
5	-145	-40
55	-22	-46
135	98	-75
245	193	-99
375	249	-86
498	260	-63
580	213	-43
600	107	-50
537	-54	-64
386	-242	-57
154	-403	-12
-134	-488	40
-435	-460	50
-691	-341	69
-850	-173	87
-861	-23	81
-714	55	47
-437	53	33
-102	6	23
208	-26	-19
396	-2	-31
431	90	-25
334	215	-66
175	318	-150
48	345	-215
3	279	-226
40	142	-167
106	-21	-97
140	-154	-40
117	-225	-4
62	-219	-15
46	-150	-19
114	-40	-19
265	77	-17
413	173	-2
454	228	22
320	225	33
30	168	15
-307	77	4
-539	-17	0
-565	-86	1
-392	-116	-1
-125	-114	10
94	-103	36
154	-98	31
40	-99	-10
-162	-89	-25
-333	-42	-6
-385	39	-8
-291	134	-11
-102	195	-20
104	183	-44
270	102	-67
371	-15	-77
407	-99	-68
383	-109	-46
300	-38	-6
150	65	-4
-45	134	-27
-240	121	-13
-378	27	-7
-408	-97	-24
-331	-185	-16
-188	-184	-7
-32	-95	20
86	41	59
158	170	79
197	252	69
223	279	28
239	261	-39
230	215	-144
186	140	-223
115	21	-193
49	-149	-106
20	-355	-44
36	-546	-10
76	-660	31
82	-648	30
23	-510	18
-109	-281	24
-262	-36	-11
-375	158	-41
-382	261	-48
-264	275	-40
-60	244	-12
172	209	19
373	198	38
488	210	59
486	209	68
371	168	49
160	67	12
-97	-69	-51
-325	-195	-120
-477	-262	-164
-502	-243	-145
-425	-153	-79
-308	-34	-3
-221	59	72
-208	99	96
-248	95	22
-278	77	-60
-225	81	-62
-50	116	-46
205	162	-67
462	183	-56
653	154	-11
716	84	-7
664	3	-31
508	-43	-54
287	-37	-60
-8	10	-49
-350	54	-41
-696	59	-32
-930	15	-46
-962	-55	-64
-735	-104	-72
-300	-98	-71
209	-31	-42
614	65	-12
810	141	16
778	160	39
608	106	47
411	14	32
261	-81	20
142	-135	5
13	-134	-10
-173	-87	-19
-392	-21	-21
-565	27	-3
-611	35	5
-500	-4	-6
-275	-80	-5
-42	-167	-2
104	-237	-21
132	-259	-48
79	-223	-52
15	-130	-48
4	-3	-20
50	125	9
117	225	20
159	274	0
158	265	-23
128	202	-21
102	102	-32
94	-21	-26
85	-139	-36
44	-230	-33
-48	-275	-13
-172	-271	-46
-262	-228	-88
-255	-170	-76
-111	-125	-62
133	-109	-18
395	-110	59
553	-102	56
539	-52	41
341	41	47
28	160	18
-275	259	-23
-463	299	-64
-480	268	-78
-352	187	-72
-168	97	-49
-36	25	-23
-20	-20	-48
-102	-54	-99
-202	-96	-167
-226	-141	-182
-119	-163	-81
86	-129	24
290	-35	49
383	92	7
314	195	-51
132	218	-96
-46	154	-78
-89	35	18
54	-65	87
321	-99	105
544	-49	79
565	45	18
301	123	-67
-184	145	-117
-699	103	-78
-1024	31	-46
-1026	-26	-23
-726	-41	7
-257	-19	13
166	15	13
402	36	0
429	31	-23
328	13	-17
233	-6	1
210	-14	3
239	-15	-16
224	-19	-25
82	-25	-30
-183	-33	-20
-459	-35	6
-616	-32	14
-545	-26	19
-269	-31	9
83	-46	-4
350	-58	-21
439	-52	-38
351	-17	-37
184	32	-37
51	65	-34
16	49	-42
58	-21	-43
120	-119	-12
144	-194	-7
122	-195	-23
87	-110	-20
79	28	-27
106	164	-35
139	240	-42
133	241	-47
67	186	-36
-47	120	-23
-161	71	12
-231	42	49
-234	-1	52
-181	-98	4
-96	-252	-30
7	-426	-31
116	-540	-37
226	-531	-26
311	-381	-14
326	-140	-9
239	93	-32
47	227	-59
-195	214	-71
-410	98	-119
-504	-36	-169
-450	-95	-147
-269	-37	-75
-35	99	-2
160	230	57
266	272	104
268	205	95
187	74	14
49	-36	-71
-111	-59	-149
-279	6	-219
-432	98	-195
-529	132	-90
-535	64	35
-425	-81	116
-213	-219	103
42	-256	71
271	-154	36
411	43	13
434	244	-31
363	350	-83
252	324	-72
158	197	-72
113	49	-81
113	-47	-63
123	-67	-20
107	-41	13
42	-15	24
-59	-25	39
-169	-69	32
-241	-109	28
-241	-116	30
-166	-80	13
-42	-24	0
91	23	-10
190	43	-19
234	45	-9
222	56	-12
180	88	-13
132	136	-31
104	171	-53
94	171	-39
98	130	-14
104	66	33
106	17	58
103	-2	39
92	3	12
74	3	-28
44	-25	-80
8	-85	-82
-25	-154	-35
-40	-192	-5
-28	-183	-17
3	-130	-32
26	-72	-64
2	-49	-99
-94	-78	-89
-253	-149	-91
-434	-225	-82
-565	-272	-80
-598	-269	-70
-511	-227	-52
-347	-173	-27
-165	-129	10
-33	-108	15
21	-90	18
18	-52	12
6	31	-7
36	160	-26
132	300	-35
280	405	-41
430	418	-36
524	321	-12
515	134	20
386	-74	41
153	-218	12
-122	-238	-33
-366	-126	-62
-496	53	-70
-455	207	-40
-237	252	36
77	171	95
385	15	91
545	-130	41
484	-187	-40
222	-145	-111
-139	-50	-169
-452	23	-161
-584	30	-97
-506	-18	-62
-280	-69	-31
-44	-69	-16
94	-8	-20
80	75	-7
-35	116	9
-152	79	8
-177	-18	1
-83	-110	8
81	-128	27
242	-60	41
325	60	33
333	159	29
306	182	28
300	131	-17
336	52	-65
378	12	-63
369	34	-48
260	100	-28
62	147	-15
-168	129	-19
-344	48	-24
-419	-55	-43
-378	-121	-63
-256	-115	-77
-101	-49	-60
52	28	-13
196	70	24
310	70	43
383	43	30
374	32	-2
271	47	-28
72	71	-45
-172	60	-35
-404	-23	-26
-548	-171	-31
-585	-336	-18
-532	-449	-5
-418	-460	31
-285	-379	51
-142	-236	30
22	-98	-12
209	0	-57
413	49	-90
590	82	-125
679	124	-130
632	188	-100
428	252	-60
91	279	-41
-291	250	-38
-617	161	-33
-787	50	-20
-756	-43	-7
-535	-91	-3
-228	-91	13
46	-68	22
189	-53	29
172	-70	34
49	-117	21
-74	-175	-2
-115	-210	-17
-47	-196	-52
77	-129	-84
181	-19	-85
210	103	-78
171	197	-28
132	235	24
155	210	65
258	136	105
396	51	87
482	-11	24
445	-30	-39
265	-11	-93
7	27	-155
-251	53	-172
-428	60	-106
-492	49	-63
-459	43	-48
-366	55	-35
-253	86	-27
-139	120	8
-44	132	32
28	117	53
74	76	47
94	30	4
101	-2	-2
103	-16	-16
113	-25	-49
127	-48	-52
144	-90	-52
158	-140	-59
166	-176	-60
167	-177	-34
148	-137	-9
91	-76	14
-14	-19	65
-159	16	91
-292	32	64
-358	49	17
-306	82	-32
-148	133	-97
57	180	-91
210	178	-8
244	104	49
159	-40	31
17	-217	-24
-92	-376	-81
-103	-460	-149
-17	-456	-171
105	-370	-170
192	-233	-141
205	-86	-83
158	43	-31
103	141	15
91	209	32
140	244	43
233	241	30
325	203	7
393	130	-27
415	41	-58
384	-43	-59
273	-98	-34
55	-110	46
-274	-81	116
-670	-21	125
-1037	40	80
-1235	88	5
-1188	103	-72
-898	91	-131
-459	59	-147
-20	24	-110
288	4	-28
433	3	45
450	25	57
429	55	-1
432	79	-12
459	81	0
447	62	-11
343	34	19
143	6	14
-86	-9	-18
-253	-9	-55
-300	-5	-97
-245	-7	-122
-157	-21	-111
-115	-38	-80
-144	-51	-33
-203	-47	15
-216	-28	27
-134	-7	48
14	3	56
163	-8	45
228	-31	26
181	-52	16
65	-56	2
-36	-39	-9
-64	-15	-16
-12	3	-51
76	0	-75
132	-18	-87
130	-31	-81
90	-19	-57
63	28	-32
91	104	-11
164	187	-10
242	250	-20
276	275	-24
245	259	-43
169	197	-56
81	99	-49
10	-32	-53
-47	-184	-46
-108	-337	-26
-191	-455	-21
-274	-507	-21
-316	-471	-13
-272	-351	1
-136	-179	13
44	-1	24
196	138	43
253	223	53
192	244	35
51	229	17
-96	185	-18
-181	130	-44
-178	74	-50
-106	21	-63
-15	-18	-64
39	-41	-44
32	-48	-14
-21	-52	-36
-82	-63	-66
-111	-89	-79
-83	-120	-94
-10	-136	-106
67	-119	-103
102	-63	-58
70	17	-32
-10	93	-26
-93	137	-25
-112	136	-19
-33	105	4
130	62	47
302	28	94
398	12	123
334	1	85
104	-11	20
-229	-25	18
-558	-31	-7
-773	-14	-79
-794	30	-90
-626	85	-56
-324	116	-49
7	103	-56
265	40	-80
375	-38	-99
331	-93	-77
172	-92	-22
-17	-43	15
-137	6	30
-141	5	22
-32	-77	-27
123	-214	-63
241	-338	-55
252	-374	-23
154	-286	-21
8	-101	-35
-104	100	-30
-120	237	-22
-34	264	-3
105	203	2
226	117	-4
273	71	-13
245	89	-21
175	143	-17
107	177	-15
66	150	5
50	65	42
40	-35	56
24	-95	54
8	-84	22
7	-13	-16
26	76	-56
57	132	-91
84	141	-89
100	105	-72
109	50	-43
126	-4	-39
143	-47	-42
129	-84	-30
41	-109	-32
-144	-118	-59
-392	-97	-52
-605	-44	-23
-683	14	-21
-564	46	-32
-285	26	-33
41	-42	-19
280	-123	-31
363	-167	-55
300	-143	-72
170	-65	-67
63	19	-42
17	59	-11
11	31	17
0	-39	22
-31	-97	13
-47	-87	-7
8	0	0
158	124	38
354	218	87
506	228	138
521	148	141
358	21	93
68	-84	13
-251	-126	-97
-524	-113	-188
-698	-93	-243
-781	-114	-210
-785	-187	-133
-699	-274	-56
-507	-312	24
-221	-248	84
119	-92	104
399	93	65
545	223	-12
535	244	-110
423	162	-172
300	43	-144
226	-44	-99
180	-60	-54
101	-24	-34
-64	15	-34
-289	23	-38
-459	-3	-36
-459	-19	-11
-247	17	2
110	112	13
436	221	6
580	273	16
490	230	30
253	103	33
9	-32	38
-121	-102	30
-129	-65	8
-95	40	-20
-107	132	-38
-199	137	-44
-303	27	-25
-321	-148	-14
-200	-304	-1
21	-362	13
229	-309	20
306	-177	11
222	-32	-7
46	70	-16
-105	112	-30
-140	110	-33
-62	90	-42
51	70	-56
107	50	-40
61	25	-38
-46	-7	-51
-137	-34	-57
-144	-44	-64
-64	-31	-51
49	-1	-27
127	26	-15
136	42	-20
102	45	-25
72	53	-21
93	74	-14
170	108	-1
278	143	9
385	159	12
467	141	16
506	97	8
482	51	-6
346	26	-22
70	33	-33
-341	65	-48
-787	89	-53
-1117	79	-49
-1198	17	-53
-983	-83	-55
-540	-190	-45
-63	-270	-8
266	-300	21
350	-282	90
237	-241	164
66	-198	162
6	-167	101
122	-143	-32
363	-119	-181
599	-78	-282
701	-27	-301
608	18	-230
344	40	-140
0	33	-91
-340	8	-52
-610	-17	-15
-758	-22	28
-774	-5	45
-644	18	24
-389	28	13
-78	18	10
189	-5	9
326	-21	5
291	-10	15
130	27	-8
-47	81	-28
-144	129	-9
-113	157	-5
8	161	0
143	143	-10
216	110	-20
221	56	-13
198	-15	1
214	-95	21
301	-149	35
422	-145	49
506	-67	42
470	65	13
285	194	-38
-16	257	-68
-344	221	-78
-605	103	-76
-714	-30	-48
-654	-110	-23
-455	-100	-11
-189	-23	-19
64	59	-40
234	89	-61
306	48	-63
299	-27	-57
259	-79	-50
236	-57	-14
237	25	-4
245	124	-4
216	170	16
139	125	23
22	3	21
-89	-143	13
-158	-246	-9
-177	-270	-52
-177	-219	-72
-207	-134	-75
-279	-66	-67
-362	-41	-32
-388	-53	19
-299	-68	57
-103	-56	104
137	6	134
320	110	64
381	225	-24
325	309	-95
229	323	-168
170	251	-190
184	103	-129
234	-77	-38
225	-240	15
97	-337	29
-156	-339	-8
-431	-260	-62
-610	-134	-102
-589	-17	-109
-372	49	-58
-30	50	-3
297	4	19
503	-49	22
528	-69	30
398	-36	15
190	44	-6
-3	140	15
-124	214	42
-143	236	62
-99	194	30
-53	95	-30
-74	-36	-79
-203	-171	-129
-413	-280	-147
-635	-337	-108
-751	-329	-70
-684	-254	-55
-431	-127	-26
-77	15	-11
261	134	-5
459	202	9
490	209	12
407	171	18
318	124	29
302	85	22
373	67	9
472	58	-17
498	37	-45
396	-3	-42
172	-53	-9
-97	-89	17
-336	-89	26
-473	-45	18
-509	23	-5
-465	83	-23
-372	109	-32
-247	95	-40
-98	57	-46
65	18	-52
209	-2	-50
291	-4	-43
285	-5	-46
198	-17	-53
69	-43	-62
-37	-72	-66
-82	-87	-57
-54	-69	-28
19	-25	29
105	32	80
170	85	83
206	121	57
206	142	15
166	153	-30
81	162	-62
-38	165	-67
-159	154	-67
-229	119	-48
-202	56	-9
-76	-23	28
99	-108	77
239	-177	68
268	-219	-5
169	-234	-95
-5	-225	-164
-168	-206	-206
-245	-188	-199
-222	-178	-86
-144	-168	64
-92	-144	149
-103	-94	133
-163	-13	49
-211	86	-36
-184	174	-122
-69	224	-162
93	219	-147
222	166	-101
253	88	-30
175	15	2
34	-36	24
-107	-61	32
-191	-79	9
-200	-100	-30
-151	-127	-58
-68	-148	-48
31	-134	-36
140	-80	-28
267	10	22
391	105	82
478	166	99
488	168	84
391	106	31
186	20	-46
-84	-55	-108
-370	-89	-108
-605	-75	-68
-743	-38	-36
-765	-12	-3
-667	-19	-2
-473	-55	-23
-239	-95	-16
-13	-98	-14
151	-46	-25
230	41	-37
234	128	-83
201	164	-100
175	129	-62
181	39	5
221	-51	40
258	-95	18
260	-63	-8
206	18	-19
104	97	-17
-16	116	-16
-115	51	-14
-155	-68	-10
-115	-184	-20
8	-240	-43
206	-198	-59
436	-86	-36
642	51	13
740	151	74
656	183	109
358	148	82
-101	79	7
-618	18	-60
-1020	-11	-135
-1183	-5	-194
-1064	13	-170
-713	22	-90
-263	15	-22
115	-1	24
333	-8	29
366	6	1
280	38	-6
170	72	-25
107	85	-27
115	63	-21
163	14	-28
203	-41	-27
209	-78	-48
180	-76	-55
131	-44	-45
82	-7	-19
33	11	-16
-20	-8	-15
-77	-56	15
-124	-112	39
-135	-140	62
-98	-123	87
-16	-58	78
80	35	20
155	136	-24
189	218	-63
184	265	-93
164	265	-91
147	214	-56
135	112	-10
110	-24	3
50	-169	-26
-47	-278	-70
-168	-322	-108
-269	-286	-129
-321	-190	-119
-308	-83	-66
-239	-6	-5
-135	10	17
-22	-22	26
96	-63	-9
214	-67	-69
328	-8	-85
414	99	-63
431	215	-4
346	286	34
170	282	46
-67	203	58
-299	75	53
-456	-67	45
-516	-191	37
-487	-278	-10
-410	-325	-56
-317	-326	-80
-223	-276	-82
-117	-169	-62
0	-13	-56
111	160	-65
175	305	-56
154	372	-24
42	341	11
-114	224	56
-241	64	76
-266	-82	40
-178	-175	-11
-24	-209	-66
113	-212	-131
171	-214	-157
135	-230	-99
52	-244	-15
-7	-218	45
1	-130	78
75	22	69
164	195	49
222	332	4
216	386	-38
171	349	-35
130	252	-36
123	142	-35
157	62	-34
196	18	-47
202	-9	-55
147	-49	-43
41	-119	-41
-78	-208	-59
-169	-286	-64
-203	-316	-57
-178	-280	-43
-111	-183	-29
-22	-55	-1
70	69	15
162	165	19
241	215	16
300	230	1
312	212	-18
255	174	-24
118	122	-5
-78	59	15
-299	-9	-1
-476	-76	-24
-563	-122	-22
-535	-139	-22
-406	-120	-51
-217	-71	-65
-27	-13	-42
127	39	-27
216	67	-23
240	71	-33
199	62	-53
109	53	-66
-14	51	-80
-130	51	-83
-210	41	-51
-224	11	-26
-164	-36	-8
-59	-87	-4
36	-111	-7
89	-96	-17
81	-40	-21
40	34	38
12	97	103
38	127	149
127	115	123
253	80	40
373	36	-34
446	1	-121
446	-26	-186
358	-59	-204
203	-105	-157
-11	-159	-75
-244	-199	-5
-459	-200	38
-603	-157	34
-636	-82	1
-551	-16	-13
-379	7	-32
-166	-29	-62
31	-100	-56
187	-160	-7
301	-163	49
388	-93	78
446	26	16
451	147	-74
365	221	-121
180	225	-157
-71	171	-149
-319	83	-76
-459	-8	13
-447	-89	71
-295	-149	121
-83	-184	178
89	-183	205
158	-134	161
125	-49	64
47	51	-42
-10	124	-158
-8	144	-252
42	114	-275
106	67	-201
143	56	-94
155	106	-15
171	204	16
223	287	24
317	291	14
401	186	-3
404	0	-3
251	-190	6
-67	-309	9
-480	-312	0
-850	-223	-12
-1039	-101	-20
-962	-11	-16
-636	16	-2
-181	-1	-13
239	-22	-18
483	-5	-6
496	50	18
334	117	16
125	157	-22
-12	144	-32
-24	90	-15
52	21	-3
131	-26	-22
129	-42	-32
31	-31	-34
-107	-14	-35
-205	-8	-16
-197	-14	-25
-93	-27	-36
57	-38	-40
175	-50	-41
223	-63	-23
202	-83	-41
160	-97	-68
136	-88	-72
143	-45	-47
158	23	-22
143	93	-13
85	128	-1
2	109	3
-68	41	8
-91	-38	22
-61	-90	14
-6	-81	-16
36	-15	-60
35	70	-83
-3	135	-72
-54	143	-17
-88	98	62
-80	18	68
-33	-53	14
38	-88	-48
122	-80	-107
223	-37	-176
329	12	-182
423	48	-90
450	57	11
346	43	96
81	11	145
-312	-35	118
-740	-93	60
-1032	-160	-5
-1081	-227	-71
-869	-281	-97
-473	-296	-82
-48	-252	-41
237	-145	-9
325	8	15
252	165	21
135	268	12
82	275	3
133	174	12
245	-3	0
319	-190	-31
294	-305	-45
175	-305	-95
39	-190	-142
-41	-20	-162
-23	128	-152
60	198	-139
133	174	-109
135	106	-42
48	44	12
-79	42	41
-187	95	49
-228	162	60
-202	193	74
-143	153	68
-88	61	41
-48	-35	5
-20	-81	-23
12	-56	-38
38	15	-50
45	83	-49
12	98	-36
-47	49	-20
-101	-33	-1
-99	-98	22
-16	-101	9
121	-31	-24
255	78	-32
321	169	-43
289	198	-52
180	145	-64
51	31	-59
-41	-100	-42
-78	-194	-25
-70	-229	-28
-59	-201	-54
-65	-136	-63
-89	-71	-43
-99	-25	38
-75	-4	129
-18	6	115
46	25	42
84	57	-26
83	98	-91
50	122	-137
23	113	-131
18	66	-49
38	-1	48
56	-54	80
40	-70	63
-18	-41	20
-95	11	-13
-154	52	-41
-153	56	-60
-88	16	-40
19	-39	-24
125	-76	-46
193	-62	-71
210	-1	-48
193	81	-19
172	138	-9
167	135	-15
175	63	-19
179	-46	-24
140	-144	-39
42	-191	-64
-124	-171	-86
-333	-110	-100
-550	-58	-63
-720	-59	11
-794	-125	34
-740	-222	38
-545	-289	16
-240	-270	-47
103	-149	-90
401	35	-98
583	206	-79
602	283	-41
465	237	-5
224	96	8
-43	-62	21
-262	-157	46
-383	-148	43
-390	-60	11
-308	32	-23
-174	61	-51
-32	3	-79
87	-104	-93
182	-185	-72
249	-174	-30
302	-52	-2
333	127	4
326	287	15
263	357	4
145	320	-15
-3	214	-20
-130	104	-30
-183	43	-19
-138	34	-20
-28	49	-39
90	42	-40
140	-3	-30
100	-70	-18
-3	-120	-18
-98	-116	-13
-121	-60	9
-52	18	0
77	76	-46
189	81	-68
234	43	-54
199	-5	-45
123	-28	-24
57	-12	36
34	31	87
44	65	82
48	65	40
18	29	-7
-53	-24	-97
-132	-58	-159
-185	-58	-121
-189	-21	-43
-152	34	5
-99	82	16
-44	106	24
12	110	35
83	96	36
183	68	12
294	32	3
389	-15	-2
429	-71	-35
391	-130	-34
262	-189	-22
61	-243	-6
-205	-300	-9
-506	-351	-50
-785	-383	-107
-970	-368	-125
-979	-282	-85
-768	-126	-65
-379	67	-58
76	235	-57
446	313	-54
606	272	-31
532	142	-5
306	-8	22
58	-110	42
-94	-122	45
-116	-61	21
-46	16	-19
34	57	-47
68	40	-66
47	-14	-89
2	-58	-96
-37	-55	-70
-58	-3	-37
-75	62	-6
-89	105	24
-87	100	26
-30	64	24
105	33	24
302	43	11
493	98	-6
590	168	-41
530	211	-52
317	197	-32
16	128	-20
-277	31	-18
-496	-51	-4
-589	-94	19
-573	-97	26
-480	-76	18
-337	-55	17
-172	-47	11
-10	-51	3
128	-55	4
223	-43	-7
267	-13	-24
276	31	-30
267	72	-30
253	100	-56
228	102	-92
162	76	-126
46	27	-161
-107	-33	-172
-251	-88	-140
-325	-127	-42
-292	-141	75
-169	-129	155
-11	-97	138
116	-52	50
164	-10	-10
143	26	-65
98	47	-121
76	54	-118
100	45	-54
151	30	-8
201	16	-7
221	14	0
216	36	-4
210	83	3
212	152	25
208	228	30
155	298	10
14	336	-13
-209	324	7
-455	243	25
-627	84	13
-654	-135	2
-516	-379	-1
-276	-582	-12
-27	-692	-54
132	-670	-84
175	-535	-79
130	-334	-68
57	-147	-47
8	-26	-62
-7	6	-89
-10	-21	-91
-25	-54	-89
-56	-50	-75
-79	3	-55
-62	88	-40
-1	165	-28
69	206	-2
111	214	13
98	204	32
49	202	39
12	210	26
34	221	12
117	213	-8
206	177	-37
234	123	-51
160	74	-21
16	47	-2
-117	40	-1
-141	32	-16
-22	1	-51
184	-60	-66
359	-130	-26
386	-167	50
212	-141	87
-108	-60	56
-439	45	-14
-639	121	-71
-627	131	-90
-419	84	-105
-100	11	-125
188	-33	-126
346	-31	-86
341	4	-9
191	25	32
-36	-9	13
-250	-109	3
-392	-237	6
-419	-326	-18
-332	-330	-34
-164	-233	-22
25	-77	5
184	74	26
263	164	13
260	174	-3
200	131	-14
133	74	-36
97	40	-23
100	36	2
123	47	37
131	50	101
105	31	120
46	2	68
-5	-17	-17
-18	-2	-91
33	56	-164
132	147	-185
240	257	-129
302	364	-72
288	451	-20
196	488	32
51	445	51
-81	295	61
-153	31	78
-137	-303	55
-51	-633	8
49	-854	-62
88	-900	-113
11	-752	-136
-176	-478	-100
-408	-184	-7
-577	25	39
-589	101	38
-421	63	3
-135	-16	-47
151	-61	-131
320	-32	-194
319	48	-167
178	131	-93
-6	170	-12
-150	148	31
-207	93	44
-197	49	57
-165	51	43
-144	92	-13
-130	136	-59
-81	145	-82
39	106	-96
226	37	-90
416	-20	-76
539	-32	-38
527	10	0
366	85	37
115	153	56
-143	187	53
-330	174	51
-392	126	31
-344	61	20
-223	-8	16
-86	-77	4
20	-138	-35
78	-185	-44
95	-201	-30
78	-181	-43
42	-125	-50
-11	-54	-44
-81	4	-21
-155	36	-6
-200	43	-19
-180	43	-34
-68	62	-26
121	112	-9
328	179	-4
462	240	12
466	265	45
312	240	79
60	174	64
-188	82	-12
-344	-18	-84
-361	-119	-143
-262	-215	-200
-117	-298	-153
8	-348	-41
77	-346	9
93	-277	40
89	-148	39
87	3	-26
91	137	-69
87	210	-72
69	208	-51
45	139	-17
44	42	-5
81	-48	-4
145	-108	-6
196	-127	-17
186	-120	-35
89	-100	-35
-71	-86	-22
-242	-81	-12
-350	-81	10
-361	-71	22
-291	-38	13
-186	24	-14
-98	102	-32
-56	171	-56
-49	201	-70
-47	165	-30
-18	68	13
34	-52	28
89	-151	17
109	-184	2
83	-136	-2
19	-34	-9
-44	76	-22
-67	142	-38
-29	147	-45
59	100	-35
163	43	-11
229	19	23
223	39	45
136	91	36
10	129	-9
-110	123	-63
-162	64	-118
-123	-26	-152
-13	-104	-110
111	-139	-77
180	-125	-31
147	-91	2
9	-75	8
-172	-101	0
-325	-164	-58
-388	-225	-78
-336	-243	-83
-198	-191	-70
-31	-86	-57
111	38	-43
194	134	-17
216	177	-8
200	177	17
175	158	17
160	143	15
165	136	24
181	116	61
190	62	110
164	-27	128
80	-124	95
-60	-184	0
-235	-174	-115
-383	-93	-212
-451	12	-261
-392	93	-222
-226	106	-90
4	59	21
211	-6	54
339	-36	61
365	-5	45
316	70	30
239	143	47
170	166	53
106	118	53
25	23	8
-100	-70	-37
-262	-120	-59
-420	-109	-98
-508	-53	-111
-473	8	-74
-319	50	-19
-96	65	13
110	68	41
242	75	47
275	83	24
242	83	33
199	53	62
184	-2	48
195	-69	0
184	-116	-31
102	-120	-51
-60	-87	-99
-258	-47	-150
-394	-43	-143
-398	-90	-113
-238	-175	-99
18	-246	-60
262	-250	-17
383	-162	0
340	-7	-7
176	149	-16
-2	238	-27
-106	215	-49
-104	94	-60
-35	-69	-58
13	-207	-32
-22	-270	1
-140	-254	5
-277	-182	13
-350	-94	30
-306	-5	38
-156	83	48
34	179	57
184	280	65
258	362	58
262	382	16
242	317	-28
240	174	-27
260	5	-11
285	-140	-28
280	-217	-55
234	-231	-55
156	-207	-64
60	-188	-99
-50	-187	-117
-186	-186	-109
-360	-157	-106
-532	-78	-108
-635	31	-106
-584	127	-85
-347	171	-23
31	144	30
396	80	77
608	29	129
569	35	119
316	100	49
-19	182	-25
-264	224	-91
-342	186	-151
-262	81	-151
-130	-50	-78
-51	-144	-11
-60	-171	41
-115	-134	56
-125	-70	18
-47	-22	13
90	0	20
205	3	4
229	14	9
151	48	14
28	97	33
-51	135	62
-49	138	76
7	108	65
54	59	49
41	27	5
-28	25	-92
-108	48	-183
-134	63	-242
-100	38	-235
-42	-35	-201
-16	-136	-159
-45	-232	-80
-92	-289	-16
-97	-298	22
-20	-273	48
119	-242	38
253	-211	26
309	-181	19
267	-127	3
180	-42	-7
113	60	3
103	150	14
115	186	5
72	154	-4
-76	72	-10
-308	-13	-18
-509	-54	-19
-556	-28	9
-400	55	44
-91	155	48
231	227	37
419	240	12
414	194	-36
268	110	-59
105	14	-48
20	-65	-28
42	-112	28
110	-114	94
133	-72	93
63	-4	26
-78	60	-40
-209	84	-140
-267	41	-249
-228	-60	-251
-140	-181	-170
-70	-261	-87
-64	-252	-40
-115	-149	-27
-172	9	-19
-189	154	11
-142	224	25
-61	203	15
19	124	6
61	43	-14
65	10	-20
51	31	-34
41	76	-57
51	92	-47
66	46	-18
78	-57	18
67	-179	47
37	-263	58
2	-274	51
-22	-198	24
-18	-66	14
22	74	20
95	175	11
179	215	10
244	190	22
254	117	44
186	29	74
46	-49	70
-122	-99	22
-259	-125	-62
-311	-134	-136
-262	-140	-179
-141	-148	-235
-12	-140	-238
77	-110	-178
99	-39	-104
81	60	-30
63	161	-10
82	227	-19
143	227	-10
221	166	-13
280	71	-9
301	-8	13
278	-40	33
214	-17	57
115	38	48
-26	85	32
-210	91	7
-415	47	-4
-585	-27	5
-658	-101	15
-585	-145	22
-377	-144	16
-85	-101	7
190	-29	-8
363	45	-11
391	106	-38
284	135	-68
107	123	-71
-66	76	-59
-178	11	-24
-202	-45	-12
-142	-71	10
-27	-61	64
102	-25	95
204	2	56
244	0	-7
198	-42	-67
67	-107	-143
-106	-165	-180
-272	-187	-197
-360	-170	-179
-329	-127	-101
-182	-89	-11
23	-71	68
215	-77	101
320	-85	89
306	-74	56
202	-36	-1
65	15	-93
-50	59	-164
-101	80	-131
-94	78	-65
-41	68	-25
36	79	-2
135	117	-8
245	171	-1
346	227	9
395	250	8
328	230	19
124	165	18
-170	71	41
-470	-31	54
-645	-125	51
-639	-195	42
-459	-235	-2
-214	-236	-43
-14	-199	-72
63	-127	-61
32	-29	-26
-28	78	-15
-34	174	-6
48	241	3
180	262	-12
288	233	-43
314	153	-89
262	37	-134
182	-89	-141
138	-189	-108
150	-240	-61
180	-227	-30
167	-166	-14
74	-93	14
-81	-37	47
-227	-21	70
-299	-32	49
-270	-49	25
-181	-41	7
-97	-2	-41
-67	50	-72
-95	95	-84
-126	108	-78
-112	92	-54
-28	67	-36
91	60	-16
192	84	1
227	121	4
182	150	-1
89	134	6
-10	65	-2
-91	-47	-3
-147	-170	3
-191	-270	-13
-225	-322	-20
-231	-320	-37
-178	-268	-44
-57	-181	-17
110	-78	-17
274	26	-32
373	115	-23
386	173	-14
314	201	-14
203	197	-21
99	174	-42
29	142	-50
-23	106	-44
-87	66	-24
-178	20	-20
-285	-26	-30
-357	-65	-24
-341	-78	-21
-217	-57	-21
-15	-5	-32
180	53	-20
285	82	-10
251	64	-19
98	-6	-17
-94	-98	-40
-217	-173	-50
-209	-190	-27
-76	-135	4
113	-29	8
262	85	21
302	152	76
228	143	85
90	58	32
-42	-64	-20
-120	-169	-65
-136	-203	-112
-124	-142	-139
-111	-5	-85
-103	159	-5
-88	286	45
-44	325	72
11	259	21
43	106	-40
10	-84	-86
-95	-255	-124
-229	-368	-115
-318	-407	-100
-303	-379	-74
-185	-304	-59
-31	-203	-36
74	-96	16
78	5	78
4	93	112
-68	160	61
-53	202	4
79	225	-55
270	233	-133
432	233	-163
478	221	-118
397	195	-57
236	143	-4
82	67	17
-26	-21	11
-88	-101	-7
-147	-145	-19
-230	-147	-13
-312	-108	-29
-344	-46	-30
-267	17	-14
-90	72	-10
128	110	1
291	124	4
334	109	4
257	62	30
120	-11	48
0	-89	37
-62	-137	19
-78	-134	-15
-84	-75	-36
-110	8	-43
-144	67	-50
-157	68	-32
-122	4	-11
-59	-86	3
-12	-148	20
-23	-135	17
-91	-49	-8
-156	68	-17
-150	162	-40
-36	185	-56
148	136	-48
316	50	-37
371	-23	-25
284	-58	-10
109	-60	18
-59	-53	-14
-139	-68	-69
-108	-108	-89
-13	-149	-85
68	-153	-83
86	-100	-71
49	2	-49
7	119	-36
10	204	-16
62	225	-25
130	169	-72
151	64	-105
94	-52	-76
-35	-144	-22
-178	-184	13
-279	-173	16
-303	-125	-2
-257	-68	-2
-183	-28	4
-121	-21	1
-90	-45	-5
-82	-86	-28
-68	-120	-41
-34	-127	-40
20	-105	-32
77	-58	-18
100	-4	9
80	51	21
23	106	3
-26	162	-3
-33	213	-28
19	241	-38
117	214	-24
210	116	-26
256	-44	-26
239	-222	-14
184	-346	26
132	-362	70
107	-257	116
97	-67	116
41	127	58
-103	250	1
-337	265	-56
-572	188	-99
-705	75	-123
-639	-14	-109
-380	-43	-74
-32	-21	-37
252	20	-6
363	47	8
278	45	-3
89	27	-27
-75	9	-56
-114	1	-92
-29	1	-109
106	-5	-109
203	-21	-70
216	-39	-18
167	-39	28
119	-9	56
123	45	49
175	104	-2
227	136	-85
224	127	-136
150	79	-130
42	17	-20
-37	-32	74
-44	-53	77
7	-47	57
69	-29	9
86	-11	-81
26	2	-157
-79	14	-111
-183	35	-3
-224	70	39
-183	116	27
-84	158	8
28	181	-16
105	171	-37
121	125	-34
79	43	-21
7	-62	-20
-65	-168	-1
-108	-256	37
-110	-299	61
-80	-292	57
-34	-246	22
4	-175	-25
24	-111	-60
25	-72	-74
21	-69	-71
21	-90	-72
27	-113	-70
34	-116	-64
29	-88	-71
9	-32	-60
-28	27	-44
-69	60	-42
-110	45	-26
-154	-21	-19
-201	-120	-8
-249	-211	21
-282	-259	15
-276	-238	1
-211	-158	-9
-94	-44	-24
39	65	-26
145	148	-27
181	197	-21
150	222	-21
82	236	-26
24	244	-15
13	237	-5
44	204	10
88	143	20
99	74	-1
52	14	-6
-35	-15	-5
-120	-11	-25
-156	11	-50
-123	29	-66
-36	27	-58
57	12	-45
124	-2	-42
148	3	-35
147	30	-5
150	69	10
179	104	-4
226	112	-19
256	96	-2
239	60	17
161	21	2
44	-16	-2
-68	-47	-17
-138	-77	-63
-147	-103	-109
-101	-118	-128
-26	-118	-102
48	-92	-21
98	-46	63
109	6	124
74	51	155
-1	84	109
-100	103	0
-181	113	-112
-209	120	-181
-159	116	-206
-44	100	-145
86	65	-34
166	19	52
156	-22	82
56	-45	34
-86	-43	-33
-199	-34	-89
-239	-40	-122
-194	-85	-120
-104	-170	-102
-12	-264	-64
48	-328	-46
74	-313	-28
78	-214	10
69	-66	28
51	71	29
23	140	44
-12	120	58
-29	31	61
-3	-71	61
66	-141	49
145	-153	22
166	-127	1
69	-100	-13
-141	-92	-46
-399	-100	-83
-581	-87	-82
-599	-22	-62
-426	93	-27
-139	223	7
125	305	-6
258	300	-28
225	197	-47
93	47	-87
-28	-92	-122
-46	-173	-116
47	-183	-79
181	-153	-27
252	-114	8
205	-90	13
66	-71	-11
-85	-38	-35
-151	21	-37
-94	104	-52
49	177	-43
194	215	3
268	205	49
245	163	59
162	113	41
78	71	23
36	47	10
35	23	2
44	-14	-12
25	-65	-25
-30	-113	-25
-100	-136	-21
-147	-124	-25
-142	-83	-34
-92	-35	-38
-18	-2	-35
49	5	-25
100	3	-9
135	12	-2
167	43	-12
192	94	-20
190	137	-20
143	154	-25
48	128	-23
-70	75	-21
-166	16	-35
-191	-28	-41
-138	-41	-47
-27	-35	-56
86	-21	-44
138	-10	-27
102	3	-26
-12	25	-17
-150	60	0
-242	104	-6
-242	138	-17
-140	143	-7
25	108	-13
199	39	-19
310	-35	-39
320	-90	-67
216	-104	-54
24	-85	-35
-218	-52	-13
-459	-43	22
-654	-80	56
-762	-163	31
-751	-264	-28
-619	-339	-91
-392	-346	-179
-119	-274	-222
136	-144	-153
326	-9	8
428	84	137
452	108	174
439	84	133
419	47	46
401	47	-19
363	92	-97
285	153	-139
150	174	-112
-18	117	-63
-178	-16	-2
-278	-173	24
-292	-272	16
-236	-258	3
-139	-129	-30
-40	52	-86
36	194	-125
97	225	-108
151	134	-59
199	-21	-32
229	-157	-18
207	-201	1
122	-137	16
-14	-11	35
-149	115	45
-229	177	36
-219	161	26
-125	91	5
2	11	-3
106	-42	-11
147	-56	-28
127	-37	-24
82	-2	-14
52	37	-2
60	79	16
93	118	71
119	154	108
113	173	67
71	170	23
8	141	-42
-46	100	-145
-78	56	-195
-81	16	-196
-65	-22	-157
-43	-63	-80
-20	-102	-11
-10	-121	17
-24	-103	-7
-76	-44	-58
-163	29	-84
-256	78	-82
-313	58	-74
-285	-32	-48
-154	-159	-5
52	-256	34
284	-268	85
483	-182	113
592	-42	87
585	76	43
449	110	-2
175	48	-82
-202	-62	-139
-610	-153	-109
-934	-165	-60
-1035	-90	-35
-844	27	-11
-412	126	18
110	166	48
526	145	38
671	99	-7
537	58	-41
258	40	-64
8	23	-90
-88	-12	-98
-34	-71	-59
58	-133	-6
69	-154	16
-34	-111	34
-168	-19	50
-203	72	43
-64	106	18
195	58	-8
431	-45	-33
488	-133	-60
321	-145	-84
20	-61	-67
-241	77	-30
-328	195	12
-223	227	31
-30	153	37
98	21	28
74	-102	8
-77	-153	-7
-234	-121	-41
-276	-43	-60
-153	28	-62
85	53	-52
328	41	-32
462	25	-22
451	43	-25
314	103	-40
119	174	-50
-80	215	-38
-242	182	-30
-360	78	-36
-425	-59	-34
-434	-170	-26
-390	-215	-3
-311	-188	15
-214	-121	20
-128	-64	2
-46	-52	-23
45	-85	-46
166	-128	-80
302	-144	-108
421	-101	-92
462	0	-35
389	126	7
219	233	14
12	278	5
-159	248	1
-248	153	3
-257	28	-16
-233	-83	-43
-221	-144	-43
-234	-141	-42
-252	-86	-47
-231	-12	-39
-149	35	-28
-25	18	4
88	-72	39
141	-207	40
125	-326	43
68	-372	61
29	-297	41
44	-114	-21
116	111	-81
203	296	-143
251	364	-171
231	301	-147
151	149	-104
54	-11	-60
-20	-105	-11
-57	-110	15
-66	-52	-9
-74	6	-20
-87	21	-28
-100	-16	-30
-85	-56	-14
-30	-51	4
59	23	19
149	143	14
197	240	6
176	251	-11
87	153	-28
-36	-8	0
-156	-160	49
-234	-227	82
-255	-186	107
-224	-78	90
-158	33	20
-82	81	-51
-12	45	-113
37	-41	-128
65	-130	-106
77	-170	-100
82	-144	-66
94	-67	-24
113	26	-8
136	106	-11
151	159	-35
143	171	-15
115	145	0
69	81	-26
25	-9	-66
-6	-99	-90
-10	-157	-68
24	-150	-20
101	-77	22
212	40	37
328	149	19
401	206	-26
371	201	-60
214	149	-62
-43	94	-30
-320	74	10
-511	96	47
-550	137	65
-445	158	54
-285	124	24
-182	28	-23
-211	-116	-49
-357	-277	-68
-533	-421	-81
-621	-521	-87
-571	-553	-84
-393	-498	-67
-173	-351	-55
15	-124	-26
132	127	-3
214	339	-6
299	438	-15
413	403	-39
529	248	-50
592	47	-37
562	-113	-26
438	-177	-24
258	-137	-31
80	-42	-17
-60	45	-3
-159	70	45
-222	22	103
-247	-68	98
-223	-154	35
-132	-189	-43
9	-159	-74
158	-74	-105
255	32	-92
258	122	-16
175	177	36
54	182	51
-37	150	11
-74	97	-41
-61	44	-39
-37	16	-17
-38	13	-20
-62	35	-48
-79	57	-70
-52	66	-61
22	48	-79
115	11	-119
175	-25	-120
170	-37	-67
104	-13	-12
15	32	22
-38	76	16
-33	85	7
12	47	9
52	-28	-5
37	-115	-11
-45	-179	3
-173	-203	20
-281	-181	-1
-328	-124	-14
-287	-53	-15
-176	20	-27
-38	90	-36
80	155	-19
162	209	-16
219	244	-30
280	247	-8
363	206	-3
454	125	-3
502	17	-32
439	-91	-83
232	-171	-93
-106	-208	-80
-486	-196	-59
-785	-158	-51
-886	-108	-40
-758	-70	0
-472	-51	31
-150	-48	30
77	-49	1
149	-44	-50
105	-30	-95
52	-9	-131
89	10	-125
240	27	-59
433	41	19
548	60	67
482	84	76
224	101	58
-125	102	24
-426	77	-2
-562	24	-24
-505	-41	-20
-328	-95	-10
-144	-118	-17
-38	-106	-21
-23	-66	-42
-46	-24	-37
-35	2	-19
42	1	11
163	-21	68
258	-45	93
275	-56	53
212	-45	-4
115	-25	-48
52	-9	-121
63	-17	-159
126	-55	-97
182	-109	-48
170	-158	-32
72	-171	-13
-70	-138	-24
-189	-64	-32
-228	25	-31
-177	104	-38
-82	155	-31
-6	177	-19
15	179	-12
-11	174	-24
-42	164	-21
-36	143	-11
13	102	-14
83	43	17
121	-22	55
101	-67	77
29	-81	60
-51	-54	8
-95	-8	-64
-82	31	-99
-20	45	-99
52	27	-94
115	-6	-91
150	-35	-71
171	-40	-21
184	-20	-25
180	13	-51
144	41	-40
59	51	-12
-62	37	26
-187	5	35
-261	-29	17
-255	-53	5
-180	-61	24
-78	-51	34
-3	-29	-9
15	-4	-52
-10	18	-84
-22	34	-88
36	44	-83
188	61	-91
405	96	-71
608	147	-44
694	201	-19
592	233	-4
295	215	-19
-140	138	-32
-595	11	-29
-928	-127	-18
-1057	-239	24
-952	-290	41
-676	-286	31
-343	-253	21
-64	-218	-2
102	-203	-32
162	-191	-65
172	-160	-67
197	-91	-53
250	7	-35
299	95	-20
292	129	-16
209	86	-28
82	-17	-22
-22	-130	-13
-34	-195	-34
49	-186	-36
170	-112	-38
234	-27	-36
175	16	-14
8	-2	37
-191	-61	72
-319	-110	95
-321	-97	74
-221	-11	7
-85	121	-47
6	244	-111
21	301	-154
-11	278	-137
-32	196	-79
-4	104	-11
63	41	31
127	25	31
138	33	24
90	35	27
18	7	12
-24	-45	-7
3	-96	-57
87	-111	-93
188	-72	-82
245	3	-90
234	84	-77
156	131	-22
44	129	14
-55	89	22
-121	35	28
-143	2	19
-133	-3	-6
-104	15	-13
-71	35	-10
-43	40	-24
-26	31	-38
-16	20	-67
1	25	-100
36	47	-98
103	82	-62
188	106	-3
258	113	24
280	93	13
229	56	-5
113	12	-30
-23	-38	-64
-126	-92	-69
-163	-151	-43
-136	-205	17
-84	-233	49
-58	-218	36
-92	-156	24
-174	-66	11
-262	12	7
-307	45	-14
-279	18	-30
-182	-46	-34
-60	-112	-51
41	-141	-55
93	-130	-46
91	-101	-36
52	-87	-33
13	-110	-38
-9	-155	-44
-8	-183	-40
9	-152	-42
25	-51	-37
33	83	-16
32	191	0
29	224	17
30	177	24
28	89	14
19	26	-4
-7	27	-13
-45	88	-41
-79	153	-53
-84	164	-30
-44	93	0
30	-31	37
107	-142	77
153	-182	69
141	-127	8
85	-22	-52
15	65	-119
-28	82	-196
-31	22	-211
-3	-67	-140
17	-123	-54
4	-101	36
-38	-6	115
-83	106	114
-81	187	90
-17	196	26
88	148	-38
184	81	-68
218	35	-116
178	24	-137
77	36	-118
-30	43	-80
-107	27	-42
-136	-8	30
-131	-50	125
-117	-72	142
-99	-69	91
-74	-45	31
-24	-13	-38
44	13	-123
111	30	-170
133	37	-155
94	31	-102
8	14	-47
-85	-18	-41
-130	-56	-59
-112	-91	-40
-47	-102	-20
15	-85	-13
39	-45	-13
21	-1	-4
-5	28	-2
4	35	-3
71	26	8
172	24	11
258	47	9
269	95	-18
190	148	-20
39	171	-3
-132	142	1
-264	48	24
-340	-83	20
-347	-210	9
-312	-289	16
-249	-292	5
-182	-232	-17
-110	-133	-34
-37	-47	-20
41	2	-5
128	4	-15
216	-18	-18
295	-37	-13
324	-32	-3
270	-4	2
118	29	-27
-106	47	-51
-329	42	-62
-446	21	-63
-389	5	-57
-167	8	-63
124	30	-54
345	53	-39
375	61	-39
201	43	-42
-94	1	-30
-360	-46	-5
-463	-81	-14
-369	-90	-27
-133	-77	-1
109	-45	38
260	-6	79
274	35	125
200	65	127
115	74	35
84	49	-59
111	-5	-130
155	-75	-206
163	-125	-230
106	-127	-169
10	-76	-71
-84	9	0
-131	89	49
-122	124	51
-78	106	26
-28	54	7
5	13	-12
21	18	-23
40	66	-25
78	134	-30
138	177	-33
208	170	-36
267	119	-32
294	54	-49
269	13	-84
190	4	-81
49	16	-63
-133	18	-36
-329	-11	-25
-475	-65	-20
-529	-124	-4
-455	-151	12
-276	-132	53
-52	-78	96
144	-12	112
275	40	100
334	77	43
355	104	-13
370	137	-52
371	178	-74
314	210	-80
156	210	-87
-118	161	-62
-428	67	-22
-669	-56	-27
-740	-179	-24
-603	-286	-3
-339	-361	-34
-74	-395	-71
90	-384	-88
116	-308	-101
64	-170	-109
24	3	-105
56	160	-71
148	244	-39
228	229	-25
219	133	-13
113	23	-9
-37	-38	-3
-148	-17	32
-157	53	85
-76	101	78
30	58	30
87	-87	-11
66	-270	-46
4	-393	-100
-40	-376	-138
-8	-211	-99
94	15	-36
222	194	15
311	237	42
328	141	40
284	-22	23
211	-148	13
141	-168	5
76	-87	-24
2	37	-35
-86	128	-10
-166	150	28
-193	117	46
-139	83	27
-20	89	-7
91	138	-40
114	200	-76
0	223	-99
-227	185	-77
-458	97	-49
-577	1	-21
-513	-66	-1
-295	-94	-16
-12	-91	-35
198	-84	-40
262	-86	-61
192	-96	-81
61	-96	-68
-32	-74	-38
-31	-37	-4
56	0	6
174	15	11
255	9	13
269	-7	6
216	-9	7
128	18	-2
31	70	-1
-52	127	3
-114	162	-9
-143	157	-3
-130	112	5
-77	44	14
2	-23	8
60	-76	-7
64	-105	-8
1	-109	-18
-101	-90	-46
-185	-49	-56
-193	11	-43
-100	80	-51
62	139	-39
233	180	-29
346	181	-35
357	139	-33
262	67	-50
95	-18	-62
-92	-97	-59
-255	-160	-47
-350	-200	-40
-357	-223	-30
-288	-226	-16
-173	-210	-19
-55	-174	-35
17	-111	-38
28	-32	-50
-8	50	-78
-52	106	-83
-65	118	-49
-22	77	5
63	-9	39
160	-108	91
238	-186	134
285	-217	91
314	-196	24
326	-141	-35
314	-69	-107
245	-9	-151
100	40	-140
-117	79	-119
-353	112	-102
-523	138	-60
-565	147	-5
-465	122	52
-271	62	78
-69	-9	49
69	-66	14
122	-76	-6
121	-33	-12
116	39	-19
149	106	-17
204	129	-16
242	104	-18
209	47	-13
86	-2	-27
-89	-13	-46
-258	21	-59
-348	81	-29
-330	128	-2
-218	139	-11
-68	106	-22
63	45	-27
139	-17	-30
150	-57	-44
121	-66	-54
89	-53	-70
72	-32	-66
77	-21	-31
85	-23	-11
79	-40	-7
48	-64	-11
-3	-82	-15
-56	-80	-32
-94	-49	-42
-100	1	-25
-78	58	-9
-32	93	13
21	84	28
84	27	32
159	-58	27
255	-127	20
371	-144	16
476	-90	-12
534	20	-49
484	139	-57
308	223	-36
20	236	-44
-315	185	-33
-598	96	19
-740	6	41
-704	-69	32
-515	-136	-34
-246	-206	-90
4	-287	-125
161	-356	-156
208	-377	-106
163	-315	-29
72	-168	19
-18	25	12
-86	201	-48
-124	296	-104
-138	279	-96
-132	168	-61
-115	16	-30
-90	-117	4
-70	-190	12
-57	-189	22
-47	-129	59
-24	-38	77
34	53	37
128	133	-7
240	189	-10
326	213	-14
342	210	-13
262	179	11
104	135	16
-85	87	6
-239	40	-10
-308	-12	-43
-285	-82	-76
-203	-166	-95
-109	-252	-77
-51	-301	-38
-37	-282	-10
-49	-184	13
-45	-32	9
14	117	-21
130	209	-50
278	213	-86
397	153	-99
428	72	-63
342	28	-30
162	38	-20
-59	74	-19
-237	91	-9
-311	45	-7
-269	-61	-5
-152	-187	4
-25	-270	-2
44	-263	-16
36	-171	-8
-22	-36	8
-69	81	-1
-60	140	-10
17	139	-12
129	110	1
216	93	17
229	108	17
163	145	16
61	170	16
-21	158	5
-40	99	8
-1	19	18
56	-49	-7
71	-84	-48
14	-78	-83
-104	-55	-114
-237	-41	-142
-318	-51	-133
-310	-84	-111
-214	-118	-76
-75	-136	-34
58	-124	-20
140	-88	-11
159	-41	-7
131	2	3
94	29	21
71	39	44
77	31	45
99	11	15
115	-16	-10
103	-38	-33
52	-43	-48
-32	-22	-63
-130	31	-59
-212	104	-47
-248	174	-26
-218	215	0
-128	209	20
5	154	53
136	68	83
228	-18	60
245	-88	2
186	-134	-53
67	-169	-138
-72	-204	-201
-198	-246	-176
-281	-280	-104
-311	-278	-34
-278	-224	20
-181	-116	37
-16	17	37
194	131	37
407	196	22
560	203	15
580	185	12
439	174	-5
172	199	-16
-152	240	16
-431	252	47
-588	190	43
-610	33	5
-537	-178	-40
-428	-371	-76
-335	-460	-123
-256	-421	-154
-174	-277	-143
-66	-105	-104
65	8	-41
182	26	-34
251	-31	-34
255	-92	0
225	-92	16
201	-11	33
216	117	45
266	224	62
310	255	51
306	203	8
239	112	-17
135	41	-46
42	30	-57
-2	70	-26
2	118	21
18	128	57
6	85	45
-59	16	12
-153	-28	-45
-236	-18	-89
-263	41	-109
-232	105	-131
-158	120	-120
-80	63	-88
-22	-46	-46
14	-153	-15
41	-207	-2
69	-189	4
94	-122	19
98	-56	32
74	-35	-11
27	-62	-33
-14	-111	-24
-24	-135	-15
-6	-102	32
25	-18	52
36	84	9
13	158	-56
-28	174	-108
-57	137	-151
-46	70	-169
3	12	-107
62	-17	6
97	-11	68
92	14	91
63	41	69
51	57	9
83	59	-24
145	53	-53
189	38	-59
156	19	-53
27	-8	-31
-160	-45	3
-325	-88	8
-378	-122	13
-297	-138	11
-124	-129	1
40	-96	-19
109	-56	-23
52	-32	-11
-83	-39	-6
-201	-83	-6
-226	-140	-5
-135	-179	4
13	-171	3
141	-101	18
183	15	21
137	147	2
64	251	-22
30	299	-42
72	279	-50
164	209	-43
245	110	-53
262	8	-81
210	-74	-88
139	-120	-106
119	-116	-107
182	-64	-64
284	21	5
332	113	38
219	166	14
-79	154	-9
-497	71	-24
-872	-49	-52
-1064	-161	-53
-964	-212	-28
-619	-195	-8
-169	-129	3
206	-59	-16
400	-31	-23
380	-48	-15
233	-92	-30
82	-114	-40
20	-89	-40
57	-17	-39
129	67	-32
162	117	-44
107	110	-56
0	51	-72
-99	-15	-81
-118	-48	-47
-44	-30	-8
74	28	34
172	83	64
203	98	55
166	62	26
104	-4	11
74	-60	-22
97	-83	-75
144	-63	-76
175	-33	-38
144	-20	-9
59	-40	20
-47	-80	32
-126	-105	13
-150	-90	-4
-120	-28	-20
-59	49	-45
7	110	-63
67	127	-60
122	110	-47
163	88	-64
172	90	-67
124	125	-48
10	170	-19
-153	191	58
-300	165	108
-380	93	113
-358	10	97
-259	-54	60
-139	-85	-11
-61	-92	-118
-50	-98	-161
-80	-115	-137
-94	-129	-157
-53	-105	-135
42	-25	-79
149	96	-24
209	202	41
196	233	38
137	150	35
91	-21	11
104	-204	3
176	-317	0
263	-311	-19
299	-206	-12
241	-71	-15
115	19	5
-8	32	-2
-78	-13	7
-81	-61	35
-71	-59	49
-126	-4	38
-279	75	-11
-491	124	-54
-647	113	-94
-645	48	-116
-448	-34	-124
-127	-95	-124
182	-117	-121
344	-108	-109
316	-86	-82
162	-62	-40
1	-34	5
-60	8	31
-10	60	40
89	105	22
135	111	-14
79	70	-44
-43	-2	-58
-142	-66	-34
-134	-86	-10
-4	-49	-15
186	15	1
334	67	11
368	74	21
288	32	48
159	-27	30
48	-74	1
7	-85	-5
29	-67	-25
82	-44	-54
124	-25	-63
140	-4	-29
117	43	-3
44	131	-11
-89	247	-36
-267	344	-41
-446	358	-2
-540	261	-3
-483	64	-31
-271	-169	-54
16	-353	-75
244	-421	-68
299	-361	-50
163	-218	-18
-72	-68	24
-267	22	53
-311	33	54
-189	-9	41
13	-50	17
172	-41	-33
237	33	-84
219	147	-104
205	249	-91
254	298	-36
360	267	61
445	185	102
406	89	60
216	12	-3
-63	-23	-60
-313	-34	-132
-428	-45	-189
-370	-82	-145
-191	-144	-68
-5	-213	-24
102	-251	-1
102	-229	3
32	-135	19
-48	9	48
-79	162	46
-43	274	44
39	308	53
133	249	34
203	121	-8
211	-36	-47
133	-180	-60
-25	-278	-74
-234	-320	-83
-433	-321	-58
-545	-298	-43
-523	-259	-41
-370	-203	-28
-140	-121	-14
82	-13	-7
234	108	-25
302	210	-52
313	260	-68
299	248	-47
276	182	8
226	97	32
127	24	45
-14	-19	18
-152	-33	-25
-209	-36	-63
-152	-41	-97
-3	-55	-100
139	-71	-110
166	-80	-84
23	-78	-48
-253	-66	-56
-524	-47	-45
-645	-19	-11
-532	19	15
-221	66	23
162	109	24
444	129	41
522	119	59
389	83	52
141	45	28
-86	34	1
-182	58	-18
-120	102	-14
54	126	8
245	98	16
366	12	0
363	-96	-21
238	-178	-55
41	-188	-70
-161	-122	-70
-300	-17	-64
-333	77	-38
-255	115	-25
-107	90	-7
47	26	1
140	-37	1
135	-74	16
38	-85	0
-96	-82	-33
-203	-81	-68
-234	-84	-101
-184	-79	-144
-89	-50	-147
2	0	-64
62	59	15
89	106	46
111	129	24
162	129	-13
239	119	-30
322	114	-23
358	116	-17
314	113	-7
187	94	22
14	50	54
-153	-4	69
-262	-53	46
-288	-83	18
-238	-92	-7
-149	-98	-38
-60	-113	-49
-10	-143	-52
-1	-169	-40
-30	-167	-30
-63	-116	-34
-76	-17	-43
-51	103	-46
3	199	-43
69	228	-60
120	175	-82
138	56	-84
127	-87	-42
96	-201	-11
64	-249	1
34	-214	22
7	-124	-4
-25	-21	-53
-62	47	-70
-87	50	-66
-83	-13	-85
-36	-117	-84
36	-211	-60
98	-259	-32
118	-229	-11
72	-118	-18
-21	40	3
-125	200	24
-189	305	52
-191	317	86
-131	221	72
-47	45	38
24	-143	-5
52	-273	-35
23	-282	-66
-53	-170	-95
-164	18	-78
-276	196	-43
-350	290	-18
-352	265	-19
-258	147	-16
-79	9	3
133	-77	-1
302	-76	-36
368	-6	-55
302	72	-48
147	110	-40
-22	80	-19
-128	7	-4
-134	-60	39
-57	-78	94
47	-36	112
124	35	75
143	96	-5
117	106	-78
78	64	-166
57	-7	-207
65	-72	-149
98	-102	-38
139	-90	30
179	-39	54
210	22	42
215	79	2
184	110	-7
99	115	-28
-37	90	-16
-188	43	-18
-304	-4	-53
-332	-38	-59
-253	-48	-66
-97	-38	-59
80	-20	-39
219	-17	0
297	-38	3
312	-79	-14
294	-118	-7
245	-135	-8
150	-122	-38
-25	-87	-85
-280	-54	-97
-566	-47	-94
-774	-64	-61
-809	-89	-27
-633	-90	-4
-311	-55	30
34	8	34
265	70	22
337	103	12
285	95	-1
212	57	-11
194	28	-22
230	33	-40
261	84	-43
198	158	-16
24	218	1
-198	233	2
-352	190	5
-354	106	10
-205	6	21
12	-81	16
169	-148	4
198	-203	-28
111	-257	-68
-5	-320	-83
-71	-366	-77
-58	-371	-48
7	-305	-32
66	-168	-16
86	3	-12
75	153	-27
77	224	-30
113	193	-36
166	83	-32
194	-46	10
158	-124	74
72	-113	79
-10	-19	22
-28	101	-41
37	187	-71
142	201	-79
211	150	-64
181	86	-27
55	59	-30
-110	99	-36
-226	183	-69
-243	261	-98
-174	284	-56
-83	227	-15
-38	104	10
-71	-40	2
-160	-162	-34
-247	-237	-94
-281	-260	-136
-256	-243	-107
-187	-198	-49
-117	-128	5
-70	-44	24
-46	41	29
-23	103	15
21	118	-21
95	81	-13
174	10	7
234	-50	19
251	-67	49
223	-26	74
164	47	56
99	110	14
46	117	-7
18	51	-34
6	-61	-65
3	-171	-91
-6	-218	-96
-27	-175	-75
-53	-48	-60
-71	116	-50
-63	252	-44
-16	305	-42
75	257	-44
179	127	-37
259	-32	-19
273	-159	-9
198	-210	-2
46	-188	0
-128	-125	21
-267	-81	39
-314	-89	52
-269	-157	46
-166	-238	18
-65	-274	-3
-14	-223	-38
-18	-84	-53
-40	88	-42
-30	223	-18
36	265	-17
147	210	-38
237	109	-16
254	16	8
167	-23	-14
9	-13	-27
-158	14	-31
-260	17	-30
-272	-21	-42
-215	-76	-75
-141	-112	-76
-102	-101	-60
-105	-47	-23
-119	15	36
-97	52	65
-4	50	44
138	27	-13
276	10	-52
342	25	-91
285	66	-122
119	109	-100
-96	121	-47
-269	93	0
-332	40	6
-253	-11	-41
-62	-38	-76
154	-48	-45
313	-53	-27
342	-67	-34
226	-89	-40
1	-89	-40
-236	-50	-30
-392	29	-23
-399	119	-4
-243	178	29
18	174	57
280	106	64
455	11	61
478	-72	24
363	-108	-32
163	-100	-76
-34	-70	-83
-181	-45	-58
-247	-38	-64
-250	-35	-72
-214	-21	-74
-156	9	-64
-81	48	-43
2	77	-13
74	81	26
105	64	43
71	45	35
-19	43	2
-123	57	-17
-193	63	-25
-188	35	-37
-119	-36	-40
-29	-141	-39
26	-238	-59
27	-289	-64
-2	-275	-53
-17	-208	-23
24	-123	53
116	-48	117
211	3	123
253	51	57
215	116	-9
121	201	-75
24	277	-126
-21	301	-123
-12	240	-108
24	87	-66
38	-108	-35
5	-283	-28
-61	-379	-17
-124	-376	-26
-149	-297	-44
-140	-189	-57
-123	-97	-75
-124	-31	-60
-143	20	3
-142	77	34
-81	145	65
55	213	112
222	258	91
346	259	24
373	227	-58
284	179	-118
122	142	-157
-41	127	-141
-151	118	-62
-189	96	-13
-182	47	0
-166	-24	-7
-158	-100	-38
-142	-159	-48
-107	-192	-28
-42	-200	-8
24	-188	10
65	-154	20
67	-92	24
51	1	17
60	111	8
122	213	1
228	270	1
319	265	4
328	199	-8
219	103	-11
24	3	-16
-189	-76	-30
-332	-130	-40
-360	-171	-44
-285	-195	-38
-167	-194	-28
-57	-151	-30
12	-60	-39
57	50	-13
104	142	9
163	168	-13
212	115	-32
206	11	-24
117	-82	-45
-44	-115	-79
-215	-72	-51
-329	14	-15
-333	80	-16
-243	72	-52
-125	-19	-63
-61	-163	-30
-99	-292	8
-214	-356	44
-344	-338	54
-387	-257	57
-300	-149	44
-100	-42	16
135	50	-38
325	136	-99
404	210	-120
372	256	-115
279	247	-104
186	174	-89
132	55	-70
125	-61	-62
135	-122	-48
131	-103	-26
99	-25	6
46	56	27
-6	89	24
-41	50	21
-51	-30	6
-43	-94	2
-20	-91	8
14	-8	-4
54	112	-35
98	211	-36
129	237	-32
129	179	-27
85	71	-13
-2	-38	-14
-108	-104	-21
-201	-120	-30
-248	-99	-22
-233	-70	-1
-160	-51	24
-57	-34	44
44	-11	48
117	35	35
151	96	21
155	156	-6
140	197	-74
130	205	-127
123	180	-151
116	122	-170
86	45	-200
23	-53	-154
-65	-159	-47
-154	-254	32
-201	-304	89
-179	-281	87
-88	-181	61
34	-26	41
133	131	16
166	240	20
118	262	24
19	207	-12
-79	104	-23
-133	-3	-9
-129	-81	-19
-91	-124	-37
-49	-142	-32
-37	-157	-21
-56	-174	-39
-92	-186	-53
-120	-184	-38
-127	-159	-25
-121	-113	-6
-111	-58	19
-103	-3	6
-89	40	5
-64	66	9
-25	67	11
20	40	12
48	-13	-13
50	-78	-40
27	-126	-72
-1	-135	-99
-16	-92	-130
-5	-13	-131
25	67	-100
62	117	-61
104	123	-34
144	105	-11
199	91	-11
260	103	-64
301	132	-90
290	155	-50
198	133	-4
40	63	36
-138	-33	53
-262	-115	64
-291	-144	58
-215	-125	26
-85	-81	4
21	-48	-20
38	-45	-45
-50	-61	-58
-204	-74	-38
-353	-59	-18
-425	-24	-13
-388	10	3
-251	19	20
-65	6	0
115	-6	-39
244	14	-35
302	79	-36
301	163	-47
258	224	-50
201	225	-46
150	168	-26
107	84	-24
78	15	-26
52	-9	-32
25	-6	-13
-2	-8	22
-25	-42	31
-33	-104	15
-25	-151	1
-3	-141	-18
25	-60	-48
50	57	-59
68	152	-62
81	170	-61
101	105	-62
140	6	-54
208	-57	-22
288	-41	24
355	45	93
360	138	161
262	166	158
49	86	59
-242	-75	-43
-547	-247	-121
-748	-348	-202
-784	-342	-241
-627	-246	-208
-341	-123	-149
-20	-44	-54
216	-38	83
317	-91	188
280	-148	215
172	-162	130
60	-110	2
-12	-7	-89
-43	109	-197
-62	203	-254
-89	253	-211
-122	265	-121
-135	244	-38
-101	201	11
-15	125	24
96	19	4
193	-105	3
237	-217	-4
222	-273	-14
155	-245	-11
57	-133	-27
-52	18	-44
-161	147	-36
-251	195	-18
-304	143	5
-300	21	32
-229	-106	43
-87	-179	44
99	-166	40
290	-90	31
451	-3	-15
523	39	-50
474	20	-28
280	-37	-24
-30	-79	-27
-390	-58	-15
-675	28	-5
-779	147	8
-652	231	4
-336	235	-18
38	147	-30
314	7	-34
406	-119	-48
318	-179	-70
148	-152	-68
18	-62	-58
-7	41	-38
44	117	-9
91	139	13
67	120	24
-23	79	21
-111	36	8
-108	4	-21
12	-14	-63
201	-23	-91
342	-27	-81
355	-25	-48
229	-21	-35
41	-17	-30
-105	-21	-18
-134	-32	-12
-58	-47	-17
50	-56	-42
113	-48	-57
91	-25	-36
7	5	-2
-87	34	61
-133	62	126
-120	98	109
-63	145	34
5	200	-38
66	232	-99
111	200	-178
131	78	-202
116	-118	-120
54	-326	-39
-51	-471	-8
-166	-474	5
-243	-332	6
-236	-105	3
-141	113	4
8	237	4
151	244	15
236	174	40
238	104	53
169	89	46
68	141	32
-30	210	15
-110	232	-17
-165	159	-56
-204	1	-68
-229	-188	-72
-244	-348	-63
-255	-433	-43
-266	-441	-39
-276	-393	-47
-267	-312	-77
-217	-207	-116
-108	-80	-137
56	61	-116
245	190	-60
402	268	7
484	261	53
459	177	54
332	47	33
143	-58	-16
-57	-96	-67
-227	-54	-66
-321	29	-33
-325	94	1
-240	100	19
-96	43	24
63	-39	26
179	-98	24
215	-101	5
163	-47	-16
51	27	-28
-67	89	-32
-139	115	-35
-136	115	-43
-63	106	-36
49	104	-9
160	106	43
229	93	94
244	55	91
206	-9	32
136	-70	-41
56	-101	-127
-12	-86	-197
-72	-37	-165
-128	13	-56
-186	43	46
-240	45	86
-267	49	59
-245	81	0
-159	145	-64
-36	215	-144
66	251	-197
97	202	-125
35	68	-45
-79	-106	-13
-172	-252	7
-159	-312	-7
-18	-270	-15
196	-165	3
389	-51	15
459	21	13
373	43	4
181	42	-18
-19	50	-17
-143	79	-11
-162	106	-5
-111	98	20
-63	26	41
-77	-95	58
-154	-223	54
-249	-301	38
-304	-308	10
-290	-252	-11
-218	-177	5
-129	-124	-8
-59	-106	-46
-15	-102	-78
35	-80	-107
124	-16	-116
262	76	-117
407	162	-91
496	207	-56
468	202	-46
302	169	-35
45	136	-45
-215	127	-46
-406	128	-29
-456	110	-18
-375	45	-16
-212	-58	1
-47	-168	7
63	-237	1
90	-232	-4
47	-163	-30
-12	-66	-26
-46	11	-17
-24	49	-2
49	58	30
149	62	43
239	90	35
292	136	-6
302	182	-59
269	197	-95
203	169	-67
111	112	-11
2	48	7
-106	5	21
-191	-19	31
-230	-33	-4
-211	-50	-43
-150	-74	-53
-83	-85	-32
-46	-61	-4
-55	4	6
-93	95	0
-114	177	-15
-88	215	-31
-5	195	-35
98	131	-36
170	55	-22
172	7	16
111	-4	42
24	15	76
-35	37	80
-38	30	10
11	-17	-102
63	-103	-200
82	-208	-252
44	-308	-262
-26	-378	-192
-85	-400	-90
-88	-361	-43
-20	-259	-6
91	-107	32
203	67	49
257	221	84
223	305	123
100	298	155
-72	183	141
-248	-2	69
-375	-207	-13
-425	-376	-112
-415	-460	-213
-380	-444	-240
-357	-333	-185
-361	-169	-98
-369	4	-1
-329	140	61
-201	221	77
18	238	63
273	215	61
486	188	46
575	171	5
521	180	-28
351	193	-47
151	191	-33
-10	153	-27
-88	68	-15
-92	-32	3
-59	-122	-10
-27	-161	-22
-17	-135	-35
-27	-56	-45
-49	43	-60
-71	123	-51
-84	161	-28
-76	150	4
-31	112	37
50	72	48
151	51	42
234	50	8
254	55	-32
200	49	-59
84	25	-71
-29	-13	-44
-86	-46	8
-59	-51	39
25	-23	17
111	30	-5
148	87	-35
110	123	-64
25	127	-80
-57	96	-83
-95	52	-53
-75	12	-40
-12	-16	-44
58	-30	-80
107	-42	-95
117	-61	-78
83	-97	-61
6	-138	-24
-103	-176	-4
-232	-196	7
-344	-196	-4
-406	-190	-27
-386	-191	-17
-287	-215	32
-135	-256	77
18	-292	74
131	-301	53
189	-254	18
198	-149	-38
184	-6	-84
164	135	-101
140	236	-123
109	267	-105
72	227	-30
50	142	21
78	50	44
175	-12	37
313	-25	-10
429	7	-23
438	64	-14
282	119	-33
-30	153	-20
-405	159	1
-704	152	-5
-814	142	-23
-697	138	-26
-410	131	-26
-97	104	-52
117	43	-56
155	-51	-68
44	-153	-72
-124	-228	-70
-242	-245	-64
-251	-202	-29
-161	-125	-19
-31	-47	-3
71	0	2
124	13	-6
150	14	-7
183	32	-9
256	87	11
346	168	26
419	240	23
422	265	22
342	229	5
203	137	-38
48	21	-72
-84	-83	-88
-180	-156	-77
-245	-192	-30
-282	-199	4
-279	-180	6
-209	-133	-16
-65	-60	-47
122	34	-97
288	124	-104
346	181	-63
262	188	-21
65	149	37
-156	94	42
-300	50	41
-308	27	49
-200	-1	49
-60	-68	37
18	-196	-14
-1	-352	-37
-92	-469	-58
-177	-473	-80
-185	-329	-55
-101	-82	-20
36	169	-7
159	316	-14
226	305	-22
237	171	-33
228	12	-44
230	-67	-32
245	-30	-6
248	93	0
195	211	-13
71	241	-48
-84	162	-77
-225	25	-61
-307	-93	-18
-325	-139	24
-300	-119	40
-269	-82	30
-234	-88	32
-179	-145	48
-82	-216	44
64	-235	17
216	-164	-14
328	-17	-49
359	140	-105
324	233	-164
276	229	-190
274	145	-164
337	43	-84
414	-20	-22
419	-23	2
277	13	40
-20	47	53
-401	51	32
-733	25	-6
-914	-6	-36
-895	-23	-30
-714	-20	-30
-472	-15	-7
-258	-26	11
-109	-55	22
-23	-84	11
40	-84	-10
107	-41	-9
175	27	-40
216	88	-56
203	103	-63
150	63	-77
88	-7	-78
69	-67	-75
117	-89	-60
208	-61	-53
301	-9	-53
334	34	-44
288	52	-14
178	50	4
54	51	11
-38	76	26
-70	119	18
-53	164	11
-15	174	15
12	137	5
7	50	0
-25	-60	12
-71	-170	19
-110	-254	21
-123	-301	11
-107	-308	-12
-62	-263	-27
2	-174	-23
71	-44	0
135	100	5
182	214	-5
206	265	-23
212	237	-61
210	156	-88
206	65	-98
206	16	-86
196	19	-66
155	51	-23
58	71	22
-109	41	15
-321	-36	-15
-535	-134	-46
-668	-199	-58
-659	-207	-45
-484	-170	-54
-185	-118	-49
159	-90	-19
422	-90	-21
523	-98	-28
431	-76	-17
194	-13	13
-103	71	55
-347	138	63
-481	147	49
-486	98	4
-393	22	-55
-256	-28	-83
-111	-30	-107
23	7	-58
145	40	39
254	33	86
343	-20	72
389	-83	19
373	-101	-76
288	-43	-201
156	76	-231
16	197	-154
-89	255	-69
-125	215	-15
-93	93	-4
-22	-52	-13
44	-153	-5
68	-174	7
40	-120	11
-19	-33	12
-66	43	3
-60	81	-6
7	79	-3
106	59	-4
179	41	-24
175	36	0
78	37	20
-79	36	16
-231	26	18
-312	-2	2
-292	-42	4
-199	-88	-18
-79	-130	-58
7	-159	-63
34	-164	-48
14	-141	-37
-21	-102	-23
-38	-56	3
-28	-21	29
-3	0	42
16	8	37
20	20	9
18	50	-15
30	92	-40
70	134	-77
128	150	-106
182	125	-105
203	58	-58
182	-29	-37
127	-111	-12
61	-162	-2
9	-171	-16
-23	-144	-18
-34	-96	-48
-35	-46	-57
-33	-7	-35
-29	17	-4
-22	25	26
-10	28	43
5	27	30
23	33	-1
46	48	-14
75	72	-43
98	101	-85
98	118	-116
52	118	-114
-44	94	-111
-172	49	-96
-277	-8	-56
-311	-64	-30
-241	-109	-11
-92	-130	3
68	-117	24
162	-68	32
143	14	29
21	112	25
-138	198	13
-251	243	14
-266	222	-2
-186	133	-32
-67	1	-35
20	-134	-33
34	-230	-16
-22	-254	-4
-94	-205	-14
-126	-101	-24
-78	25	-35
43	139	-39
199	215	-10
334	243	37
419	219	69
439	171	59
414	114	28
339	77	-20
210	63	-69
25	58	-99
-191	31	-112
-402	-54	-68
-523	-201	-13
-502	-384	-13
-344	-540	-8
-123	-608	-28
58	-552	-62
110	-393	-53
19	-196	-35
-138	-31	-16
-246	59	-1
-215	80	16
-40	70	57
205	79	82
405	123	52
476	182	-13
407	215	-85
248	194	-154
75	128	-209
-63	52	-189
-158	10	-98
-224	12	-13
-262	38	39
-262	54	68
-195	35	69
-62	-6	60
106	-33	45
257	-9	14
355	69	-14
391	171	-52
392	243	-68
373	244	-63
334	179	-78
229	87	-67
25	19	-44
-272	-4	-32
-577	1	-31
-784	-3	-23
-805	-49	6
-639	-133	44
-362	-216	60
-102	-247	16
59	-199	-43
102	-89	-70
89	36	-102
95	127	-133
165	158	-107
280	139	-51
373	104	-7
387	78	22
301	66	21
158	56	1
8	28	3
-93	-18	18
-136	-63	13
-139	-88	22
-116	-71	34
-83	-24	25
-35	29	-8
28	60	-24
98	57	-51
158	24	-71
184	-21	-59
178	-63	-43
153	-99	-13
127	-124	5
105	-143	33
71	-149	49
7	-127	29
-109	-87	16
-258	-40	0
-400	-20	-34
-474	-52	-36
-453	-136	-52
-339	-238	-55
-181	-303	-32
-34	-286	-52
54	-178	-53
82	-19	-51
77	131	-79
84	219	-84
131	228	-40
211	185	-12
291	135	-34
326	118	-61
299	128	-99
221	138	-147
132	110	-135
64	31	-32
26	-72	57
2	-157	63
-32	-173	31
-91	-116	11
-158	-8	-6
-201	96	-41
-194	158	-38
-131	168	8
-46	143	47
22	119	75
36	113	82
-4	124	67
-65	127	34
-108	103	-14
-103	45	-55
-58	-27	-76
-4	-88	-82
20	-121	-65
-1	-123	-58
-49	-106	-50
-87	-86	-49
-80	-64	-71
-26	-42	-47
46	-6	-23
93	41	-27
77	85	-38
6	103	-44
-83	70	-34
-137	1	-8
-126	-88	16
-54	-156	32
38	-171	48
98	-122	32
104	-24	5
60	85	-7
13	166	-23
1	189	-21
44	150	-3
129	69	1
211	-12	12
265	-56	12
277	-46	-11
262	16	-30
234	96	-50
190	154	-85
113	155	-95
-16	88	-70
-191	-31	-56
-374	-170	-24
-493	-291	5
-503	-373	14
-394	-403	38
-214	-383	17
-37	-312	-70
77	-196	-151
111	-49	-184
100	100	-200
92	211	-192
118	254	-120
172	211	-32
209	106	52
190	-14	129
101	-104	150
-17	-130	134
-109	-98	107
-125	-29	69
-54	45	20
62	110	-81
166	154	-142
202	178	-115
151	177	-79
30	139	-44
-105	65	-6
-197	-34	13
-210	-127	18
-134	-174	-3
-5	-159	-47
118	-90	-85
175	-6	-104
128	47	-85
-12	48	-67
-203	5	-39
-370	-48	-8
-459	-80	-2
-453	-68	5
-372	-25	24
-253	32	58
-130	83	87
-14	120	102
103	157	84
216	196	31
320	238	12
373	261	-14
360	244	-60
279	174	-74
161	51	-60
49	-94	-34
-26	-230	-31
-61	-318	-37
-76	-340	-37
-83	-291	-42
-81	-192	-48
-57	-78	-55
6	24	-60
94	86	-70
180	102	-75
221	81	-67
208	48	-31
165	23	-2
128	17	7
128	25	24
153	30	18
161	21	1
113	0	-19
3	-19	-50
-139	-17	-69
-261	11	-75
-333	49	-50
-369	65	-31
-392	33	-13
-426	-51	-28
-445	-160	-68
-390	-240	-64
-226	-251	-35
29	-179	0
292	-52	28
445	74	53
425	145	53
254	139	21
39	74	-8
-97	-7	-6
-87	-60	2
46	-60	37
204	-15	83
297	49	55
275	103	-32
171	132	-129
41	141	-164
-63	137	-163
-137	126	-103
-195	106	-8
-250	70	12
-282	21	4
-256	-29	-15
-148	-68	-81
17	-88	-122
178	-93	-99
262	-100	-62
241	-123	-8
134	-163	16
14	-196	7
-71	-198	15
-96	-142	28
-89	-37	46
-87	90	52
-106	194	44
-134	241	34
-136	222	24
-94	150	1
-22	59	-42
41	-23	-57
59	-86	-46
27	-132	-39
-31	-175	-42
-67	-207	-37
-50	-223	-18
18	-196	0
107	-118	-2
183	5	-3
212	147	11
198	256	35
151	301	52
96	256	29
48	139	-17
17	-11	-77
-1	-147	-131
-14	-223	-243
-37	-222	-311
-80	-152	-211
-138	-46	-94
-198	49	19
-225	97	83
-187	81	67
-84	16	49
60	-64	34
202	-115	23
287	-108	8
292	-39	-18
231	64	-30
135	156	-25
39	200	2
-41	180	49
-111	116	68
-182	39	47
-248	-7	22
-282	-13	6
-263	12	-52
-186	40	-97
-76	40	-97
20	6	-85
66	-48	-75
55	-95	-76
27	-103	-45
22	-66	-15
66	4	12
143	77	26
198	121	21
182	117	23
81	64	-2
-81	-17	-24
-239	-100	-26
-342	-154	-31
-370	-170	-34
-342	-150	-32
-281	-111	-9
-209	-72	22
-123	-50	38
-19	-45	29
102	-44	5
219	-35	-16
291	-6	-45
301	36	-82
255	80	-97
188	106	-86
133	104	-52
119	77	-24
135	36	-7
164	3	5
184	-15	-2
188	-16	1
175	-3	6
139	19	-7
69	56	-34
-49	110	-25
-199	177	25
-329	235	12
-378	250	-36
-299	195	-75
-106	63	-100
116	-110	-125
270	-275	-127
285	-372	-60
169	-368	32
-10	-286	103
-139	-177	126
-161	-102	110
-85	-97	36
14	-151	-69
51	-208	-157
-3	-208	-202
-119	-121	-194
-209	36	-116
-206	201	-21
-94	301	18
78	294	48
233	183	21
300	31	-28
262	-93	-38
151	-131	-32
14	-75	-5
-118	40	16
-231	150	30
-332	202	38
-417	179	30
-470	97	0
-459	-4	-31
-369	-90	-48
-206	-145	-67
-16	-176	-77
151	-190	-46
257	-186	-2
288	-151	19
270	-69	7
237	48	-10
214	174	-11
209	262	-22
208	278	-38
196	218	-31
157	117	-20
94	28	-36
23	-9	-35
-40	14	-30
-80	68	-31
-94	114	-22
-84	122	-24
-56	89	-2
-21	39	15
19	-7	13
55	-37	4
87	-57	2
105	-79	12
113	-100	15
105	-113	-14
83	-100	-56
51	-67	-76
8	-34	-66
-37	-34	-6
-80	-89	70
-111	-180	109
-129	-264	100
-130	-286	39
-115	-218	-51
-85	-69	-167
-36	106	-253
35	244	-217
135	313	-122
260	299	-38
383	241	35
472	174	65
478	124	52
371	85	-30
139	37	-93
-173	-33	-100
-516	-127	-99
-786	-222	-64
-926	-288	-38
-899	-309	-2
-724	-278	30
-459	-211	2
-193	-122	-38
34	-31	-62
184	48	-51
279	101	0
341	116	72
387	94	141
406	41	136
372	-10	64
262	-31	-16
92	0	-105
-92	68	-157
-224	144	-113
-245	174	-40
-158	129	-14
-16	19	-8
101	-109	-3
124	-192	7
44	-189	-2
-90	-100	-5
-193	30	33
-201	135	14
-98	178	-9
69	154	-15
231	104	-19
320	68	-2
318	70	-20
251	90	-58
161	84	-86
74	20	-108
-3	-97	-95
-86	-224	-60
-167	-304	-37
-223	-303	-29
-213	-222	-15
-119	-101	15
39	4	28
199	61	22
292	77	17
283	70	12
184	68	-14
49	80	-32
-59	91	-41
-115	85	-47
-123	53	-36
-122	11	-43
-129	-24	-55
-148	-36	-41
-151	-22	-33
-119	-3	-35
-52	8	-26
24	3	-16
81	-7	9
112	-4	32
124	18	39
143	63	37
175	112	20
211	154	-10
225	175	-51
194	183	-80
127	179	-79
44	159	-53
-28	116	-5
-89	41	29
-157	-62	1
-247	-178	-65
-354	-271	-114
-443	-314	-149
-459	-295	-131
-372	-222	-9
-193	-120	108
10	-22	141
172	50	118
239	89	24
219	96	-65
164	77	-104
126	40	-125
127	-7	-123
132	-49	-98
86	-78	-41
-47	-81	-5
-240	-62	-4
-420	-45	-13
-484	-43	-32
-382	-76	-42
-138	-129	-42
154	-181	-34
389	-190	-34
491	-132	-17
460	-8	29
342	154	54
203	298	70
79	372	115
-26	337	116
-133	200	62
-237	2	-4
-321	-191	-78
-351	-312	-148
-303	-321	-164
-194	-223	-125
-70	-60	-71
22	97	-34
67	201	-34
88	225	-27
120	191	-33
191	139	-35
285	106	-21
354	100	-4
344	95	20
239	58	24
65	-25	12
-117	-140	-6
-239	-246	-33
-269	-292	-46
-217	-260	-39
-124	-165	-31
-31	-46	-22
29	51	-18
53	117	-4
57	157	-9
58	194	-47
74	239	-80
103	277	-76
141	282	-43
170	233	-18
165	135	-6
114	13	4
14	-98	-17
-111	-179	-72
-217	-238	-77
-259	-288	-22
-199	-339	30
-48	-371	78
144	-353	112
292	-260	95
325	-98	28
204	85	-43
-30	233	-128
-287	291	-170
-459	262	-125
-473	183	-52
-340	106	11
-132	74	39
33	79	2
75	89	-21
-17	60	-6
-173	-22	12
-291	-145	41
-282	-260	44
-135	-322	29
94	-311	-15
300	-230	-67
407	-108	-93
387	26	-92
276	147	-76
142	235	-44
42	278	-13
-4	266	-8
-11	195	-28
-1	83	-49
9	-42	-63
19	-137	-77
32	-176	-71
40	-153	-40
23	-96	-12
-38	-34	11
-140	-2	24
-255	0	30
-325	-11	32
-311	-9	24
-206	25	-10
-40	82	-44
122	140	-40
234	174	-34
267	174	-13
244	147	16
192	103	42
144	61	45
107	25	-7
68	-13	-70
16	-64	-114
-55	-126	-131
-121	-185	-126
-156	-218	-79
-132	-210	-30
-53	-162	-9
53	-87	-11
147	-17	-28
184	30	-30
149	50	-26
48	53	1
-78	58	13
-178	72	21
-216	92	44
-178	98	53
-88	76	85
3	26	85
46	-34	27
28	-71	-50
-24	-66	-136
-54	-14	-211
-11	60	-219
99	120	-105
214	133	8
241	90	45
114	7	38
-133	-84	-2
-400	-151	-16
-539	-176	-19
-459	-163	-24
-185	-126	-20
156	-86	-12
407	-56	-1
460	-42	17
314	-46	33
81	-57	32
-115	-63	46
-193	-47	57
-156	-1	31
-74	69	-13
-15	142	-30
-5	183	-42
-11	165	-55
7	85	-41
72	-20	-35
160	-103	-65
226	-117	-104
251	-57	-116
245	38	-119
253	113	-128
287	119	-100
317	50	-58
269	-46	-6
94	-103	24
-210	-77	22
-545	30	20
-781	160	5
-812	229	-3
-630	192	-16
-310	53	6
1	-116	26
200	-237	32
245	-248	47
188	-149	28
109	3	8
78	134	-14
106	190	-13
155	166	48
184	98	82
172	38	66
142	13	39
123	11	-47
125	-4	-153
132	-74	-197
104	-199	-209
20	-348	-211
-106	-451	-176
-213	-452	-109
-248	-334	-33
-188	-139	10
-64	62	0
48	195	-9
89	219	8
39	153	-3
-64	53	-16
-161	-11	30
-204	0	59
-191	75	61
-152	174	53
-119	247	38
-93	256	8
-42	209	-37
64	135	-54
216	77	-40
355	47	4
397	43	49
287	41	64
48	22	41
-215	-18	29
-383	-69	1
-378	-113	-63
-214	-141	-103
14	-154	-115
191	-162	-89
251	-163	-38
205	-148	-10
121	-103	2
57	-25	2
38	72	-26
32	162	-65
5	215	-85
-53	218	-93
-109	183	-115
-112	136	-120
-45	104	-76
60	86	-23
133	71	24
126	35	56
38	-34	57
-72	-118	45
-121	-185	47
-69	-203	35
58	-176	1
184	-127	-8
245	-99	-24
216	-110	-43
140	-151	-60
74	-175	-72
42	-137	-47
23	-24	-48
-35	136	-50
-159	277	-46
-304	336	-38
-388	288	7
-325	161	61
-124	15	91
122	-89	56
253	-123	10
169	-103	-28
-111	-71	-88
-434	-69	-85
-611	-115	-57
-513	-189	-48
-173	-254	-32
234	-274	-75
496	-229	-131
495	-125	-119
258	7	-48
-57	116	17
-264	166	26
-269	134	4
-102	29	-31
100	-109	-43
216	-224	-31
182	-260	-21
39	-202	-16
-120	-68	-9
-209	91	-1
-207	209	3
-133	257	26
-27	238	46
78	191	56
171	155	47
245	153	26
286	171	-7
269	179	-37
192	149	-64
84	81	-81
0	4	-80
-11	-51	-76
51	-61	-57
131	-33	-45
154	-1	-35
59	10	-30
-125	-8	-32
-321	-36	-21
-422	-46	-27
-361	-19	-34
-167	31	-23
67	68	-5
227	60	34
242	-6	72
127	-103	80
-28	-183	45
-134	-203	9
-135	-152	-27
-52	-56	-62
47	36	-56
98	88	-41
75	84	-32
14	53	-58
-26	34	-101
2	57	-118
102	121	-105
234	199	-56
329	249	15
344	243	76
268	174	80
125	67	56
-40	-42	-4
-175	-130	-117
-252	-182	-193
-256	-205	-150
-207	-216	-94
-136	-232	-64
-89	-254	-17
-88	-270	-4
-134	-269	-5
-193	-234	-10
-214	-167	6
-164	-82	32
-45	-3	37
78	45	39
135	55	20
80	31	1
-76	-4	-18
-260	-31	-50
-375	-40	-44
-360	-43	-10
-224	-57	3
-35	-92	-17
122	-133	-27
188	-145	-25
171	-93	1
118	36	13
89	215	24
104	382	60
141	469	45
167	438	14
140	301	-30
68	106	-75
-20	-76	-84
-80	-192	-89
-93	-230	-69
-63	-199	-66
-14	-134	-64
32	-54	-46
74	25	-49
117	98	-63
183	158	-72
273	187	-78
366	178	-65
432	134	-36
423	77	-12
319	33	16
114	22	37
-139	38	51
-387	57	57
-550	53	22
-581	12	-13
-481	-51	-25
-302	-120	-25
-109	-169	-17
21	-191	-1
69	-198	12
64	-195	22
61	-183	45
106	-147	42
192	-74	15
269	27	-34
270	127	-76
167	183	-116
-12	171	-160
-174	104	-159
-241	20	-130
-172	-31	-92
-13	-21	-45
133	37	11
172	98	22
66	117	7
-126	80	21
-304	15	52
-361	-34	60
-267	-32	24
-59	19	-38
166	78	-104
338	98	-112
423	57	-57
446	-24	-14
438	-93	29
407	-107	99
314	-55	87
113	16	39
-211	41	31
-588	-31	21
-880	-196	-8
-969	-393	-64
-787	-530	-91
-397	-527	-104
42	-378	-112
358	-131	-92
439	113	-70
306	275	-49
62	323	-21
-133	275	-3
-191	193	-16
-117	122	-16
12	82	1
101	45	-3
94	-14	-13
11	-111	-15
-76	-217	-23
-103	-276	-30
-46	-245	-41
58	-112	-40
162	77	-24
221	244	-18
226	331	-7
212	305	9
212	205	2
245	90	-18
300	21	-44
346	26	-74
352	85	-84
301	154	-70
191	186	-25
30	160	29
-164	84	84
-360	-17	107
-516	-116	89
-589	-189	32
-545	-222	-60
-388	-200	-137
-168	-125	-177
44	-9	-138
181	114	-48
216	198	3
172	199	45
106	108	33
67	-43	6
77	-188	-4
111	-264	-30
128	-240	-18
100	-135	-15
21	-12	-17
-77	65	-15
-154	64	-19
-185	6	-35
-163	-63	-52
-102	-90	-44
-22	-54	-25
58	20	3
127	99	24
174	142	19
193	148	-7
184	132	-11
158	126	3
136	142	15
136	170	-5
159	188	-65
183	168	-85
172	104	-83
109	5	-26
-3	-103	44
-127	-195	52
-214	-256	22
-239	-273	-32
-212	-253	-78
-183	-201	-120
-202	-139	-114
-285	-90	-78
-400	-71	-39
-470	-97	-11
-443	-149	-27
-307	-199	-25
-114	-213	-24
52	-178	-34
120	-103	-43
83	-21	-34
2	28	-16
-38	31	3
30	2	-9
195	-22	-43
388	-2	-35
495	77	-30
446	200	-3
253	325	18
1	406	26
-189	408	18
-217	334	-11
-65	206	-2
189	68	20
419	-36	43
503	-90	63
373	-90	47
58	-66	0
-342	-52	-40
-699	-69	-53
-889	-127	-85
-865	-196	-106
-634	-238	-87
-281	-219	-91
94	-135	-128
387	-13	-177
536	100	-151
537	153	-63
429	133	2
273	63	40
124	-8	33
18	-41	16
-44	-19	14
-77	32	8
-91	70	-12
-95	64	-15
-83	4	-8
-54	-78	-4
-10	-144	25
35	-161	45
70	-120	44
93	-44	17
101	35	-11
107	89	-32
110	104	-69
110	77	-81
94	21	-67
58	-43	-37
13	-100	2
-25	-127	22
-34	-121	22
-8	-77	9
35	-12	-27
74	54	-67
82	102	-60
61	120	-6
28	119	63
10	114	106
25	116	104
67	128	60
107	137	-35
101	135	-107
24	113	-117
-119	91	-106
-277	80	-75
-387	90	-69
-387	112	-54
-259	115	-40
-42	70	-50
167	-37	-45
275	-182	-60
216	-319	-66
10	-388	-66
-245	-353	-60
-411	-226	-47
-397	-44	-21
-198	124	24
88	227	87
306	239	133
340	174	112
166	66	25
-112	-53	-58
-344	-163	-123
-392	-259	-197
-235	-334	-171
54	-372	-58
324	-345	35
459	-234	69
411	-46	45
216	177	0
-29	365	-19
-247	453	-32
-389	413	-57
-434	261	-55
-389	62	-32
-262	-124	-17
-77	-254	-27
131	-316	-27
288	-330	-7
337	-318	-5
245	-287	-28
48	-234	-45
-166	-144	-55
-303	-21	-55
-304	121	-42
-178	250	-45
12	336	-24
184	366	22
288	343	57
328	275	68
326	181	49
313	75	21
287	-24	-25
228	-100	-88
111	-142	-101
-53	-151	-76
-226	-140	-56
-336	-131	-44
-340	-137	-13
-235	-147	22
-67	-130	18
104	-64	-3
212	56	-10
248	199	-12
222	309	-51
172	336	-79
132	265	-85
107	128	-100
87	-20	-96
52	-123	-75
1	-164	-38
-65	-154	3
-125	-134	42
-159	-126	75
-157	-130	60
-121	-124	22
-75	-83	10
-33	-1	1
-17	98	14
-21	178	77
-30	211	138
-18	202	145
38	165	116
144	135	45
273	124	-80
378	130	-211
406	130	-273
328	110	-243
155	65	-211
-65	11	-151
-285	-30	-81
-445	-54	-33
-545	-67	8
-588	-100	9
-595	-166	10
-572	-268	16
-502	-379	14
-361	-451	14
-151	-446	22
100	-352	22
337	-196	16
506	-34	-14
590	80	-17
565	112	-12
446	77	-20
241	12	0
-30	-32	-12
-331	-22	-57
-572	35	-82
-669	108	-58
-546	151	-3
-222	141	32
186	85	51
495	17	40
565	-19	0
365	-3	-56
1	58	-106
-328	124	-135
-459	153	-131
