1.8130986469549266,4.408001527318866,3.257351222030402
2.701966400213787,6.415459022079364,6.658607578450926
7.887762205831194,7.520542397154022,9.320372309557156
12.734093903708644,7.2162066136593985,10.327530536297644
16.12676036173537,5.429964226831436,8.784236169910157
17.114965788396457,2.583430702470186,4.236364394427485
15.215390125287254,0.59232231380791,2.797517930959182
10.631365439740772,3.4054468402866247,10.894396595891578
4.323705799278648,5.479215787557631,18.35401718964279
2.1693125013533607,6.835109290513412,23.72980709441625
7.140697578576073,7.755220118997906,26.017234801579058
9.174661728386473,8.505949978917885,24.672402163948124
7.503978275339123,9.138873561998572,19.411225472266096
2.405211408208569,9.64555223460173,10.39050844910377
4.552455061210555,10.177163622901372,1.4044044683133146
10.91328927536259,10.896205540191579,14.539032158782245
14.086165853023886,11.805935682568489,27.537544705061762
12.063992924403323,12.637267454336163,38.930793727377136
4.070385957566725,12.656795599218617,47.45013452751505
9.18948732139608,10.752370928726256,52.17021006654409
25.675470230562876,5.855530090137239,52.48240144748329
42.41350825565823,2.4332595597185196,47.95929830065297
56.07615414178471,13.283395912328832,38.52243069168094
63.54464219499837,24.563760092176206,24.76947394133348
62.4516544071564,33.34002829277964,7.773486000121514
51.68167828507345,36.82385511028562,11.16767610897475
31.75639441830892,33.40237446045114,30.399855821602777
5.028395183630061,23.25144495515995,47.878937093307854
24.489323607848064,8.327174432171649,61.62737159804171
51.75528369170074,8.19203660787194,70.19966938090786
71.77683398125224,22.724660797523654,72.65843800635105
80.88423565094793,32.07042342745437,68.70320333582583
77.77734759857665,33.9968926580863,58.99520970374391
63.95019667347588,27.623065849762252,44.835277956621596
43.252669010784835,13.676537119256933,27.520323442998503
20.691661532338905,5.433745014699541,8.337849389268053
0.9006175193433468,25.898334786265952,11.048191247070832
13.13169242126668,43.26559797869108,28.691602944435
20.586964419589087,53.60574217114471,42.83480332994396
22.48841923940241,54.72058675240363,52.31671444057183
20.78587309875236,46.872096102578666,56.793890618533304
17.348391352112117,32.6122293360222,56.59289007699893
13.341475956360672,15.718879369824204,52.46110531662661
9.192115376002077,0.28438774360616825,45.46459500118925
4.956925318834556,13.334359711514777,36.61163530210428
0.7147976741140594,23.206184337450495,26.370999029016463
3.2841408749555088,30.97149705440405,14.845717780757953
6.785432610748732,37.93912479096003,2.3831048588073047
9.807355950670312,44.732083080175094,10.196351413130806
12.677223903668455,51.01481007884398,21.84488694553873
15.691253840328859,55.887034599638156,31.47120616439252
18.56012631936892,58.53569995965913,37.912513366953625
20.019247684051575,58.63575826716517,40.19792251254144
17.982445991355537,56.21974427287126,38.076305542800156
10.324803653920984,51.18981546363672,32.159035251834766
4.013274886491699,42.95680336109048,23.683825049201115
24.164332183333453,30.635639562002044,14.262532185201646
47.19077172509909,13.827671064707461,5.609356304193048
68.7912496648387,6.480866692852924,0.7361943713256852
84.57282467309638,27.566749403348922,3.659586967602407
91.31578733728945,45.56781309795618,2.8077875488149813
87.7081125115342,56.8775289674957,1.1638562330651279
74.32877698217698,59.67016684482756,6.791009217044658
53.05659923101275,54.74016228452744,12.30301046276133
26.341722008471056,45.152211587444256,16.024405869690437
3.293909793603795,34.88993336803376,16.656741207507594
33.37625931017243,27.232526721925865,13.499278006211036
61.34762803156573,23.658927120643124,6.459315702088257
84.51001149877622,23.77125402930919,4.056239553172697
100.26419309561429,26.09204677839416,17.170598739742246
106.63750789386509,29.11045738906975,31.509720752807137
102.87951209946743,31.94836907289792,45.231340906061035
89.80481855325056,34.33097126124825,56.26664774718104
69.68189218521168,36.04384170503152,62.64786554645725
45.70297124245343,36.38217669031243,62.89246787678277
21.258533761206465,34.05142832361291,56.4948625413877
0.7263927174027569,27.629173770015104,44.064818874637915
18.19842082441095,16.295040132010534,27.186564208944954
30.092220959353078,0.3965435266872367,8.239135291437382
36.3002447003448,18.471346200652164,10.135100069364231
37.61012903144129,37.88974027971567,25.737775989590922
35.62622641408375,55.27203299440519,37.297336747384186
32.61578189244504,68.435459188441,44.50457427265403
31.13826206756874,75.88265589416584,47.74681006258917
33.39529576910496,76.81924568211173,47.85001938804699
40.43743813814185,71.08092314459724,45.690884177014965
51.52429790828982,59.089622437732885,41.877233128544894
63.97765681785278,41.87134817483652,36.716956916296496
73.71632359903145,21.058408487242083,30.326146976229506
76.40231938685343,1.2231803706594284,22.795675027490756
68.84330226408926,22.56769342798491,14.25967751169863
50.11483488988819,40.54608917000334,4.999635271419034
21.958515977127263,52.953326179595344,4.494062177926506
11.67300014484122,58.03275300015032,13.67816656610299
45.70488249596623,54.71666867030509,22.058623563208087
75.23037906134704,42.900707320691126,29.282115095782856
96.526885049935,23.704790225613433,35.17977345552617
107.5088665699153,0.45260810979897204,39.61896187084719
107.65749469947579,26.145494524695085,42.2464542506779
97.66826553956987,49.57290376078975,42.25840631590151
79.09982872458106,67.3593814056072,38.567770879989695
54.18850619024726,77.23213256168937,30.256740840620182
25.75397780591058,78.2838669283072,16.971229313079924
2.997005683340906,70.77230950288832,0.6765294980818739
28.887197985852154,55.64677499088784,20.865904724486658
49.35517725953616,34.11265020456551,40.716306336172615
62.988983518522936,7.482911667143019,56.954018783294664
69.72611714748298,22.646617817143245,66.9385953307896
70.55537843132214,54.072433829817854,69.31790528740156
66.82245365921041,83.8165065688766,64.02546841598529
59.4932049160842,108.33359590019174,51.945877335497215
48.761227105653425,124.07441847702812,34.52219474100388
34.203606629094644,128.23446410164345,13.462099865078681
15.399463479196893,119.43081978319763,9.458659254465205
7.323278521842485,98.05973778636043,32.43783115335882
32.41284030103121,66.24026016649535,53.462664849275676
57.13260867281628,27.423419436235392,70.15577558858992
78.0946982042126,14.160665045409214,80.03345503673769
92.06001137573556,54.07791441320065,81.16760829534462
96.67259354390671,88.20499313326556,72.78610784895244
90.88641992154037,113.13645668647614,55.51956867265478
75.05093347695014,126.49680655278263,31.40708516923222
50.749414425061524,127.191518734178,3.738731087265901
20.51360163109524,115.61133451516599,23.53851464266059
12.50140508815491,93.73040836250357,46.94266348392519
44.8471647099472,64.97829893180719,64.28969929572405
73.12001067220515,33.795350921553265,74.4949972766413
94.32271052859518,4.849182928683184,76.96727843091348
106.2175599378439,17.95097752912509,71.5509092450459
107.61645915844325,32.354776843668674,58.81620664841957
98.57680486587098,38.27503332303603,40.117785873281186
80.47831376070428,37.65237118259669,17.487960035936354
55.95233532791109,33.685239311628145,6.457002225691079
28.620866671906956,29.739664057984207,28.705698742455365
2.598328595579943,28.3610798866534,46.37114689388155
18.233276927390616,30.73451978729247,57.406925242673
31.041310223707157,36.70344692434807,60.96236295470495
34.69742124624063,45.17551333554114,57.396886116083714
30.01753514672317,54.62738228572879,48.20985776345672
19.46056328430601,63.45432185159643,35.67765080392587
6.37470209025291,70.10279807738813,22.243875207891005
5.916193320831579,73.14529169397727,9.881343651661373
15.071791602546494,71.75911627047847,0.48686025590419035
19.97209133359877,65.77697568713975,8.864608047867529
20.382376438745073,55.416526467308685,15.465944211045587
16.76659512228471,41.48399742970159,20.357400983389415
10.049008623171705,25.45072024691974,23.546454169188063
1.4325214077130155,9.2674164676204,25.077583779696702
7.70400094786851,5.055044859310178,25.003335795637824
15.903714502014605,15.930288102632483,23.398084990460863
20.275043754872534,19.81366906338727,2.0813977016957645
28.249035058628394,17.860586344099648,2.945680214863809
34.09947646742576,12.24414629409033,3.648988070322436
35.67605179883933,3.7381852588907774,4.047586557897898
31.102755086855776,6.42132883627197,4.231952660006995
19.209276345028822,17.023183382473224,4.384020854962811
0.05309389416823693,27.164417677786208,4.541874059926361
25.343351981734575,36.221327371736706,4.593773502202451
53.90793561346364,43.57544197733737,4.315363582319979
81.89162369613096,48.369739359219174,3.2481279275775345
104.94507369818496,49.5085295036725,0.7715435408316986
118.92678683318022,45.97000754115691,3.5376611660717394
120.5305939021973,37.36985965445903,9.617401100863837
107.97662557290533,24.630124240516345,16.87297602227328
81.58736214618085,10.077339809658227,24.32106030617926
43.762979952503386,3.5038911641201422,30.73103137109749
1.4226778997434921,14.07632252229313,34.64489585411512
48.77701083544571,21.12359519540744,34.52276442013607
92.76815074925655,25.74492005852367,29.235298530847267
128.28936183784958,29.85589394683861,18.535374778843984
151.3732913256893,35.02403809881098,3.0932573367508853
159.81198000705405,41.59940057245354,15.499668172957879
153.44305510426068,48.531857490144986,34.54400571146124
134.0632691109253,54.02429274895393,50.653500769182024
104.94347360983566,56.550183452510424,60.92816409977964
70.08523407817204,55.62062039561955,63.83550070489161
33.50404274884895,51.864555276717695,59.25469404582867
1.2779125358218553,46.383088687436604,48.166522916071244
31.445815167717534,39.84513184076499,32.391689399705314
54.905223505188395,31.92202831128544,14.120281389182223
70.26981384043765,21.491617588301644,4.633839846496388
76.94339710630138,7.535030180194298,22.13601135058045
75.27232211450914,9.805907021016695,36.946028502678296
66.62371225027225,28.65577185296902,48.066182820255406
53.259737234743504,45.75718552651442,54.916755787134186
37.972172411894164,57.63158813849253,57.40071390065507
23.58579891885743,61.94983854209473,56.05332888145247
12.503786951165646,58.41632361591636,51.76632056368204
6.392458755901482,48.7417904751942,45.26798903210624
6.00396532229583,35.78841469850978,37.02936876044922
11.078372081214207,22.425626430418188,27.49052576159928
20.300868028180417,10.732087326063855,16.95682975147239
31.38609263727822,1.8835387471873892,5.374062387065526
41.39997616728027,3.4065325256426098,7.483620552379379
47.3891631091749,4.389242044567925,21.5734170302789
47.203467976863365,0.20506712803630395,36.30720368429768
40.181498607710154,9.618603968304406,50.670717294382996
27.38302309792112,24.380714074356757,63.41732982219194
11.232461171865113,41.69244424083559,73.08311037841337
5.284964056034739,57.67237889773355,78.166355176723
19.484434428621245,67.90671649293088,77.51009905528966
29.54114886901701,68.80370753989948,70.65580637171668
34.6139871301642,58.74777137384769,57.9752118635935
34.645096602086795,38.594749411882844,40.51168420441575
30.12637203331624,11.37529640562991,19.761398048222276
22.049904916182186,18.564533337107413,2.4721410130898622
12.000150481900153,46.58915191337117,24.24723988645989
2.1548223517362293,68.65335579158209,43.754432785618
5.041847385271348,81.8956891224964,59.459482291531565
7.543995805281058,84.986838126901,70.02928261291461
4.4290292510628495,78.30107590658207,74.39811463668315
3.7012354453894067,63.88042968607512,72.19677777823118
14.896494872425162,45.09496264663005,64.22214267594312
26.577827850454188,25.94277542448521,52.28646473978406
36.43689677511006,10.118663521648573,38.57008187637348
43.03482684630423,0.130145439414484,25.147107138704236
45.872976968501234,3.21203371924251,13.590108063853913
45.04159571684159,0.7088616820790888,4.529252567135895
40.77606703101606,5.804803252947511,2.360693085827081
33.27890840032268,14.20260840101525,7.803858535724885
22.901102450068336,22.63814066658166,12.33845482349849
10.46078955404869,29.74900729970128,16.111096870757567
2.6198937237763245,34.54234434941986,18.90954189861288
14.547783152485653,36.1913788337162,20.410476011023135
23.696929063606696,34.00214376655305,20.557346460361888
29.163859747712543,27.63044687578086,19.69917912564652
31.00518661877077,17.378149996515905,18.49409081774567
30.029843471994205,4.315985551184363,17.693828546473956
27.323889864497353,9.945190882920961,17.945838385842308
23.80096801628416,23.793150715595505,19.6443333702319
19.999999874397993,36.18521527172165,22.668908745362693
16.180887314103586,46.909857414721,26.275590811166662
12.558233244941574,56.345695735690995,29.204468719315663
9.463781032360295,64.83354054227694,29.92927826029614
7.325245378779744,72.01885766783303,27.233336079166808
6.512840610870711,76.56738504469133,20.746599145725657
7.217494123413183,76.50152998075502,11.078320262323336
9.43852894709221,70.0494530674439,0.34584325475679617
13.033076929746189,56.56889769092796,11.704557656356894
17.721580886087022,37.067980958738055,21.377443476898353
22.96253465595712,14.057580010918185,28.347681107361527
27.766389089010122,9.20938200700634,32.139218058053366
30.661081892184836,29.720749665750994,32.6859701169951
29.952696116592175,45.39844272735566,30.48338325042785
24.239297357641984,55.21144704455201,26.594031113927173
12.97791523816098,58.79851774376493,22.289998755034606
3.1921826897160623,55.98654981310129,18.592002065650856
22.561189876194693,46.6236799198187,15.928341564321181
42.798705915810146,30.904301295550646,14.125016439262694
61.47700162715913,9.994864036417829,12.609710833850986
76.42330823541974,13.509013079227765,10.591729075847397
85.80574390364663,35.72872302089888,7.281829510674516
88.10413821661767,52.33486863657152,2.283810135497158
82.20257063261391,59.761057600434256,3.9989053722427017
67.70264796161244,56.28765979808091,10.422343483021853
45.3431241144165,42.51599203582292,15.64946142116972
17.224926345266397,21.070101162642665,18.635256790093187
13.414684336477437,4.233889553832655,18.884647074898478
42.87379713460618,29.32552238175728,16.79391606749057
67.81539276758303,50.57610926063467,13.791180070481325
85.84973219305509,65.15399467053719,11.634889253230696
95.62974470559475,71.18061031710282,11.466394139946345
96.54471710836425,67.87733760537623,13.605261737309844
88.37226495334171,55.76486465191846,17.809785365403027
71.27006066588356,36.78839271175827,23.35208051455424
46.21434835390445,14.154538275806912,28.972825258858425
15.591639027110372,8.220326686979186,33.00491127471073
16.575262007757786,26.527908951403532,33.71761585277096
45.133823392871086,37.85576060012119,29.854049034255198
65.00744581250004,40.654635214672226,21.050631866211177
72.6504008781039,34.78870065854951,7.908473830665776
67.11223060028763,21.30955635989509,8.041035428845783
50.242508399650355,2.181268240118275,24.538322199931883
26.00173475380499,19.919032856307243,39.20440423600241
0.7164143760959688,41.75224003115174,50.27115799583035
25.21210192569585,59.79017528974597,56.83033515923655
43.705822311364884,70.75168280093521,58.542531614913806
53.619195058013766,72.31139524865641,55.477137951980346
53.63114809753388,63.71019849125957,48.05986711177773
43.76549381370842,45.96166236125082,36.63363423260064
25.537506482889267,21.5261114952401,21.273664068506772
1.97405721203741,6.3877694680153425,2.5061393582333182
22.72999643959768,34.5442817221119,17.855583072835934
44.0376846241885,60.094757639719525,36.895135072680276
58.18333983369018,80.63351645286454,51.69454511993255
63.11466799877109,94.10911194927903,60.21909738128392
58.85601442475882,98.88090848788367,61.53609791597235
47.167179001588046,94.09000300748819,55.75870259374921
30.704939877029837,80.19123489150955,43.86462184455502
12.122945200947198,59.2680217629919,27.447795271302958
6.478151729494022,34.79705043801163,8.494151744528054
23.584078787486515,10.815673811277595,10.891315348348785
38.105982346389254,9.41671073365164,28.521006936944804
49.30402926443519,24.127079265142914,42.212688977658374
56.71644008481989,32.89867282647327,50.278810573181474
60.15346226837419,36.3667177760085,52.026963667199055
59.78521621947559,35.65264035260933,47.89994487822892
56.18655538494699,31.8610978459434,39.33030269992784
50.24309721974408,25.876557566173915,28.61057809688899
42.939412868665386,18.471031270968513,18.39557995244557
24.446068459577862,0.8675705218893106,2.165577846936461
19.001330602347387,7.7099380279536085,3.402838016354003
6.851187132568959,15.72992706201611,4.361282914501855
10.982684882933855,23.489751591985044,4.69834642761752
31.923664161398044,29.07811196377635,4.1580242558451666
52.46173035901164,30.450266879312135,2.729551084290601
69.00922903585611,25.93937355512948,0.7389842396545762
78.65033544259714,14.8282865341872,1.3354106286428287
79.49649278536435,2.0818877996019514,3.1378158405195533
70.67668799067863,22.21554436508355,4.595636988473072
52.14697908259573,41.46479692498694,5.918127759638331
24.602067370714632,54.91830127254882,7.490240754943445
10.243107393373988,58.057788801402495,9.539808363015412
49.08205721252017,48.545851356171134,11.748737177333867
86.89121440039548,27.62484877045966,13.321794051961927
117.75664020154467,0.21573341612602276,13.396706374267973
136.17887902560543,28.620216557415862,11.40373877301189
138.43124167657578,51.10458204494574,7.293936840394245
123.58538674722884,62.959977847686105,1.636668407539069
93.62562747174786,62.29913208949632,4.533801033691148
52.720182435714094,50.05845353094688,10.200674755345057
6.05039184146221,29.27522418448888,14.726959931879698
41.28194872308291,3.9772835029900038,17.783243576822
84.77073061371809,21.65738589520047,19.19969618715905
120.49349751278439,43.75282163382314,18.89355137948584
144.9034902623154,58.93497239784759,16.805410065514227
154.88967788150046,64.61580060128611,12.987184187519949
148.38140105118634,59.62062582563992,7.821109378780479
125.24148008977555,44.856161395454215,2.065358404145017
87.93323361440754,23.573269383902353,3.3083054365154783
41.437305888914935,0.7748118104185511,7.331595827504523
7.758451389552142,18.27197157788801,9.459115475524047
53.23350912203689,29.83653207947448,9.888517395103165
90.10950235477421,32.98066205063321,9.451830331612506
115.8069283091147,29.574488949915875,9.440204582683824
129.87864605090635,23.075728959240227,11.208301469716087
133.21613054389871,16.7342294034142,15.389743886322103
127.20153456115558,12.153543942054137,21.287011170174505
113.28513746533757,8.948801553112807,26.863636693857263
93.06621763714833,5.550347611876982,29.452665257419852
68.58718550580231,0.521379921569242,26.736174180177727
42.42350484338503,6.448903642111024,17.39210593295573
17.314340453350617,14.398196340065304,1.5824215467636797
4.553896136667638,21.721963990745884,18.67924189667751
22.206753362400253,27.027491969653212,39.87097207230116
36.06621340247147,29.5818924676303,57.91269047222106
47.514736549013094,29.143102791065257,69.09701774862936
58.06676649711945,25.478060665652905,70.94768653137069
68.59161465609411,18.071696132363854,62.87039581179045
78.9701849101406,6.35677914715104,46.19135141288385
88.29132744949807,9.647124410225087,23.678356542233814
95.38503153571904,28.755326061034047,1.135369343243718
99.3462904434141,48.58267348423298,24.633261183355113
99.77157201122903,66.19293922265504,43.700942166271304
96.64296941820736,79.07916462560688,56.10117629468403
90.03682438623238,85.89825280181905,60.66882509662633
79.91286196141195,86.55316021623442,57.616948009945595
66.12805147337836,81.65065898697172,48.655801765228176
48.6576536520076,71.78669550803157,36.49879606493177
27.876636030140773,57.17705904609446,24.167933372647706
4.718966474192849,37.8709895512714,14.287529202137463
19.39782152203621,14.357215470935639,8.319326853508334
42.85134083057203,11.917245663513688,6.163048367952439
64.14620749005834,38.531272441082805,6.40143810395105
82.14399591098912,62.64358683261048,7.037062879163388
96.0879931264293,81.79054194229252,6.286441256823118
105.4411511213478,94.4625618762634,3.107762183820284
109.6790478113364,100.17711631643344,2.5616574806407955
108.19813984295276,99.13544767398666,9.925627051371999
100.45194641105458,91.82788664626777,17.76615453661148
86.30769380715888,78.9090265064919,24.842002423164452
66.4845527868785,61.41858420597999,30.20226730479811
42.83588045516098,41.127281940531034,33.59268539100692
18.244330501101025,20.639867707681468,35.3924696835617
3.920835109383429,3.0432678039681145,35.978435369810825
20.640895825633443,8.845115077426003,35.47468288584099
30.085055685616933,13.321982251202904,33.82344932117479
32.10050206138497,10.347283651199643,30.669241065592693
28.15970460530445,1.6091474413643954,25.35643369164253
20.823556991328793,9.851132383966105,17.162956947664643
12.984314326303448,20.281719927920157,5.845012917650739
7.178201207397471,25.941294927192946,7.7537345291999555
5.141587395256476,23.798884694917877,21.754457615468716
7.635988394577909,12.189972410271194,33.80271058669364
14.422763058969673,8.645994200615,41.591092989614964
24.291778536063514,36.332155815933056,43.38357976451086
35.17106996814223,66.61610338269179,38.74521813915666
44.40224513928662,94.20459906830138,29.01236645604294
49.269272373768885,113.9970929848124,16.705971499282846
47.711172719501285,122.29478302257671,4.362007164773203
38.96751768652726,117.53102111098406,6.132918423289039
23.892859609122304,100.28043360396319,13.504559964396071
4.775239285101223,72.68734779105739,16.907681720033896
15.285220030325988,37.70401388798463,16.106494293655924
33.162527069814246,1.4718522109450334,11.60188111519848
46.347219229764896,41.56089540800721,4.301422518102162
53.26367963909244,79.11818319578668,4.699452575435648
53.27827378345832,110.55087284101143,13.96322557199149
46.577660775666665,132.4759589367028,21.677088814319898
34.096676932166794,142.3675987932988,26.094838211533926
17.507931480045265,139.18529403724756,26.254292118456746
0.8690482929655691,123.61923876753082,22.32157161372028
18.3814969043221,97.78363012620908,15.279101430438848
32.573241433133006,64.5427630865415,6.480329100211322
41.75250293369817,26.8652503722003,2.6031369741131987
45.34424920570147,12.466094786488226,10.828201950359556
43.838681570529054,50.7332641540849,17.90654315505879
38.37165766756255,85.01809546679979,24.06237727590414
30.207763452177442,112.19542559606809,29.078907160633477
20.428015059432905,129.4278382665245,32.01587347600108
9.945977083097278,135.01733507624104,31.679212322708796
0.2508876641871565,129.15587116393826,27.25105864013212
8.887970519910668,114.11429177074612,18.715751242307782
14.46992219281343,93.65906692805252,7.11990578174267
15.67269937419691,71.8944094526248,5.18713437026374
11.8594615114051,52.05459118623608,14.978221945510304
3.437251367676556,35.769325727871355,19.25689906728385
8.150114294777433,23.043542905352222,16.29066628948874
20.808795522496574,12.80587623768999,6.495946240543257
32.3650923170388,3.63649939132074,7.446331954132483
41.04308929509805,5.6811666348760985,21.795236610646835
45.68264393924177,15.947272468479923,33.08977476694514
45.710493082695876,27.582399978675863,38.69320259797342
40.97789306890143,40.68667521411965,37.02069561014754
31.61077417483712,54.99445393355766,27.755649303330852
17.97604822400703,69.77206815049139,11.805522153313072
0.7478354947881384,83.78967262893359,8.910997269485051
18.99500129755526,95.4918440519021,31.694997010530482
39.706477635120585,103.37539517147286,53.335580765897596
59.42305867104178,106.40096245438886,70.41038264391246
75.96733135365407,104.2235789225383,79.81809181188129
87.27909307535306,97.1384571867431,79.53558621246914
91.80872444509023,85.79759835571848,69.30818734643238
88.87813035497008,70.90113884844041,50.87202711946274
78.87214557553985,53.05935036825712,27.426815361210295
63.149679262015276,32.89119305510369,2.7749523009080725
43.670621310783496,11.263132004267874,19.538125446419933
22.485668347835933,10.560948248381631,37.119057399950535
1.3206014376082686,31.028879438394263,49.14103311356416
18.5722796588448,48.65140027725775,55.8272336683814
36.25205024402259,62.43826017195273,57.71048965522522
50.782311190333246,72.17963549592626,55.4769495433424
61.23968943130109,77.96913012081248,50.02796438247174
66.98101250144353,79.98908037428063,42.37571702622132
67.84538058368983,78.74821490277483,33.53615589972302
64.30457390868632,74.90798227951237,24.462320833547093
57.462073025985404,69.155953017301,16.070225901206385
48.82367469260633,62.146641476722785,9.145861623736131
39.8952397999167,54.47812790864131,4.074637813243451
31.777946028972906,46.66017053509721,0.7909494355449264
0.7487848583292974,0.3493404651877268,4.4270302110152375
3.6359080015027514,7.238112662421214,8.436647428286609
7.093971988563027,14.553891957514386,12.240156112927979
10.615017555202783,20.664881208936823,14.476277427545869
13.655340311199364,25.107459133548236,13.854480336858806
15.679354500087781,27.563885724976977,9.458620723874922
16.163784475380112,27.421425270348433,1.0818270487392445
14.618530502100047,23.577452439494362,10.391366092704214
10.644984892550463,14.857495943011577,22.93866334107124
4.056160221738571,0.8541805496858434,33.77419366434329
4.992196379176772,17.19120048872123,39.989072685932506
15.90956586187488,35.89240111463926,39.3633537999835
27.604117236786454,50.118609975448514,31.134043804167128
38.449607839436005,54.99953120759739,16.178363817799767
46.542557072708014,48.46114546012726,3.2947978387924497
50.27038807809309,32.01728678111874,23.998112900800237
48.66017161610629,10.027702401447726,42.0819460058238
41.422258175781764,11.935071298544152,54.031449873093884
28.92192903834442,29.338160393558304,57.45253380859926
12.064482544047104,40.04689218068513,51.49808708616616
7.750958277441965,44.33713513640321,36.83968742827223
28.59388055630581,43.89975652119944,15.530240057963002
48.05658078380535,40.40443620594659,9.249240795551016
63.45238003472906,34.74656241733617,33.81119100601443
72.24204660613954,27.240890133344916,54.43385886988699
72.6161483332391,18.444622960907164,67.77160002911955
64.01145680045556,9.845988722187341,71.58987525392106
47.36702358418362,3.6386183178157663,65.31414808299346
24.973391168744985,1.641991923444282,50.0520690813288
0.04433016421473886,3.9523244696854034,28.295099531710722
24.40836797837507,8.30208102970167,3.4845867826537873
45.2895467896891,10.757253218429309,20.6452322824545
60.62513927123291,7.477373676164269,40.98602613496404
69.12399170994804,3.3592204858168535,55.66023996502045
70.10937466367749,20.542717300940236,63.890581602413114
63.40571699746337,40.28627120475754,65.59144702452772
49.39469864268824,57.8671890737526,61.04224426262996
29.193675647346392,69.52362876501424,50.68912131201609
4.787038447968859,73.61972177225444,35.32380978655845
21.070720247140518,70.65917790304795,16.478324114097113
45.26582928168241,62.43063964194075,3.505923046198934
64.91463574810635,50.99952306062362,21.775463638202865
77.87144756780341,38.14736323133019,35.386383023574986
82.95687472527186,25.373371868407734,41.88789840331725
79.8521965941079,14.103416569056085,40.04914719014042
68.82705482102195,5.618790516045362,30.429660466936788
50.55044123512471,0.5600732481477764,15.42921740164729
26.145654506855145,1.6551064223241452,1.4067119906747452
2.505552247194819,2.950327954980272,16.494439251721264
32.449861722197,5.915755309478673,27.183360222552103
59.65040407062854,12.565694731398843,32.263147948323706
79.47687061851343,23.215909270556804,31.709529065369363
87.6994447079246,36.182758465285055,26.035777445503903
81.67267186570703,48.54216855936548,15.989860323735282
61.28187358898801,57.523612921685434,2.554392221250845
29.31553396219011,61.71989850523991,12.878998212882655
8.923708105994372,61.44118986082975,28.305940801186214
46.68081668968952,58.12870627991162,41.44628090078122
77.14298289274072,53.33453233885912,50.324070681084756
94.7603110253559,47.99761650473954,53.59167405321279
96.18915582485906,42.45319057276675,50.8204604249668
80.72514812257054,36.987808941478995,42.6149077544703
50.23975554531706,32.343299743831864,30.532909985148834
8.756262871430643,29.631918214068694,16.77773683759892
38.16547236923452,29.58494351218019,3.4024229926892122
84.14878357954004,31.63626193585282,8.29067725050677
122.80705155277536,33.568116451549876,17.706447175599816
148.62843227546912,32.1349427030087,24.640496042313035
157.8807033009624,24.45055064635283,28.976716356165138
149.36194855270787,9.419272681540882,30.576015378362065
124.72642441587024,11.573613686684528,29.28553363319936
88.16918698319029,35.08536762102934,25.03562666860561
45.47845802001763,56.88533771828917,18.071814295316965
2.702297519567524,73.3706739278533,9.136436175316073
35.145783661719435,82.45510788668825,0.6593401526680704
64.8773688237454,83.68607173480719,10.128876387738087
85.20985536411168,77.81897901430474,17.989442067474467
96.29673538624859,66.28342572058891,22.895016929632593
99.07105240970824,50.8669702202175,23.828886361230364
94.78186166728366,33.62690549262679,20.2683376261968
84.90803164231717,16.80549867599393,12.08114667001004
71.32822503689431,2.5509075609919867,0.5754777828296406
56.4285219351307,7.518277252912587,17.024302239347413
42.87046678437361,12.662642799906992,35.63543443092697
33.022094647638426,13.071296909443603,53.930411740945786
28.302680860811616,9.564601242813612,68.87975694271393
28.77074481495648,3.1521446642088744,77.26804289975769
33.207708641767596,5.213508417877809,76.50561937468093
39.62982232717818,14.550731806506672,65.4122267095576
45.900756997162,23.583378883033518,44.660631890525366
50.14135210573777,30.595322227755286,16.61600567996967
50.8043577059431,33.65989415717484,15.229562327494591
46.55535823716832,31.219381651458495,46.7211235915408
36.2726626865988,22.711793792861062,73.7076488717672
19.358823480559387,8.873656387712789,92.82599372713192
3.716590186969447,8.473837140757247,102.1212736363218
30.9605586831352,27.00411733991846,101.3085086653313
58.88374903472364,44.46603630807257,91.39572083840811
83.2013583365006,58.988655647310175,74.14723066578705
100.00493745246939,69.07699798786118,51.86149652163689
106.934236993327,73.4827156269321,27.28300614477772
103.83459603055279,71.22680370896633,3.1779002697923646
92.61361177170707,61.87480536607679,18.262033175072546
76.4338063489393,45.87737446437451,35.64077967615686
58.643436711484846,24.725177606861486,48.37285403340057
41.90271686971174,0.7650721760665263,56.43866335335514
27.823850668562596,23.275186574312254,59.95896249915592
17.085972236087493,44.79533411922724,59.0518604475448
9.769230465579556,61.59797356464116,53.89014597724776
5.646484879779834,71.88716145195195,45.05658826435326
4.2506910002199625,74.21036149680221,33.83787926626716
4.775482290463046,67.58324943182902,21.94284464428333
6.011747169538035,51.85797776562681,11.198269714089019
6.460043544048636,28.16969591093047,3.3187113833626074
4.6722366771489465,0.8759377574610787,0.5658496462619006
0.2766945558942342,31.525037743147635,0.3668004449397573
8.435679012174486,59.65182428597494,2.869327923684399
18.93632191678582,81.63202881041302,7.349252547126055
30.268269881789717,94.91570753028178,11.125918707971103
40.75481311465672,98.15730276440266,12.565973837164847
49.04225641063431,91.04874567647919,10.582341270134235
54.38768366737771,74.16579520549661,4.751696108397178
56.66081287227249,49.05757427491056,4.595652106654177
56.13725281204881,18.486273477011014,16.43004694142353
53.23670943370817,13.543417931183031,29.113310496683326
48.38175787115254,42.307425298466725,40.632034612698526
42.035042294626436,63.455831697810446,49.056125377287884
34.83872427523947,74.27574956491645,52.922047324227655
27.723649499946294,74.51472023315715,51.58073124860379
21.830744116877124,66.30554495565586,45.36183637456163
18.217914334580392,53.21754837161341,35.40991265102969
17.464978436282436,38.943324162181476,23.485635417092993
19.33336224862237,26.25925417144202,11.606918574251319
22.670544282715635,16.67525855401948,1.4283806465484665
25.62972159016661,10.736995741287894,6.232233606668622
26.11145869238305,8.540975068271283,11.40074078456634
22.28166957531979,9.974618146663724,14.615346177558326
13.013310223010713,14.504316367768228,16.50222845803627
1.840284879001838,20.777363982511115,17.53800636143454
21.356077249882485,26.504477908211545,18.29741131260568
43.618677496467726,28.919891504040116,19.68461940286001
65.94601149902701,25.74490087734424,22.640485146007585
85.55637639246712,16.365352136581873,27.33536581248743
100.20229631630657,1.904828829342104,33.18626125577739
108.40961898374293,15.517114424599846,39.49103958824361
109.65230350234542,33.342107625330605,45.52755523585093
104.3683933418161,49.22885887786784,50.5895155727819
93.80670456897292,61.5020633814866,54.05690117049611
79.72524551954896,69.2515633841241,55.42573191492329
64.02246091429315,72.15389163233569,54.31019986346973
4.292911974134441,12.677422449814157,1.4366231601575312
1.8969216794826482,14.048359493497856,7.382123096473343
1.0383918289582341,14.126084211034266,12.90014367816904
3.6085141822188773,12.982591483793305,16.794467728207902
5.038066066793985,10.68743941773461,17.94256860164078
5.022099828480324,7.143973122996339,15.799412200586119
3.866322387092683,2.0410019999899958,10.441869831067612
2.348738319500669,5.065779429038453,2.523431264814209
1.349012080697075,14.490527420172628,6.609689761821884
1.452184175325578,26.094800410724282,15.059110097712392
2.699435124503825,38.96755142128565,20.83815278998265
4.609023011603558,51.2156579015444,22.32777428978455
6.50108093935953,60.14390523489898,18.323463860390547
7.962521480733904,63.168733256278614,8.670731700562074
9.002853533224021,58.73882340712933,4.870933831450756
9.743333140983886,46.4357606148362,19.457071718832612
10.107992318828538,27.01564815938616,32.34993566180693
9.729994448903751,2.4863139725321672,41.34342382719758
8.054628354009498,24.249103382531807,45.15534737560779
4.689433270415972,49.798659766396455,43.38511979349701
0.2560246763794489,70.7884703625161,36.29043301895503
6.057431607088385,84.37984988137374,24.878100301426002
11.561663236946213,88.58320375244264,11.00529080288983
15.657512399712884,82.54905861187825,3.043350873069949
17.756092355878955,66.73658609089777,15.461265998861572
18.00976246710665,42.98379520178616,25.276235183538027
17.123068684206885,14.421839382371292,32.314358852970535
15.847170652083737,14.923511440461498,37.25751540609532
14.470063953032742,40.78122013847213,41.36337073643427
12.582538582109393,59.47124698131384,45.704593491397304
9.284169930780237,68.64974227386062,50.349158294965676
3.7288722232832785,67.67429033290256,54.415720200476116
4.293496304240714,57.49070618434038,56.81429016652058
14.038916177701706,40.11902865109429,56.56915339886479
23.92977072451449,18.036366767616183,52.840830550213035
32.03108112282469,6.266688320231637,45.06170997102718
36.62213214761461,30.424628064514188,33.011082995749916
36.592754356793854,52.127860302775254,16.80796988045829
31.534508510975176,69.08850123687705,2.902834109631642
21.617975015624495,79.22140765124169,24.612582849170735
7.452542234471364,81.07301600988025,45.99878394309444
9.9232150652414,74.29002056988573,64.34708339179303
28.928257338195092,59.84569545925335,76.96195332076752
47.35215677302837,39.864316616665946,81.83478216306042
62.49382845961231,17.058179388397043,78.37095182362101
71.63018883189079,5.966418663434388,67.55244371092748
72.7009540792887,27.218890762004023,51.66959171975394
64.93936880426034,45.49337797055556,33.6711639884433
49.16244673514159,60.212851477846876,16.220222572628803
27.58902162892434,71.1307134317848,1.0921537766671099
3.2792342351183836,78.11483975809955,10.762513880255753
20.581804987669276,81.1068114249447,18.793101317987265
41.290247467126136,80.19533928463288,22.705047113449975
56.945720155177135,75.66670385386688,22.61494743217887
66.51348902704925,67.93176359068482,18.998766840772447
69.7509141379958,57.34779052621604,12.593844070532402
67.12704585503637,44.076930867034136,4.429578427473371
59.79046143083475,28.139443896574708,4.220904969018868
49.492246264894554,9.705541442698635,11.937423916547067
38.333833714677155,10.48869309156669,17.20952026506942
28.305501995470493,30.835774618434446,18.587580840727664
20.730596454107758,48.876940733500106,15.144597860690345
15.838940680779432,61.75579739472524,6.93937279957026
12.670701658544658,67.04647388828751,4.907155288725738
9.409041785736308,63.66976493671649,18.36628894939693
4.049508430633245,52.525140464262066,30.927012811661168
4.867030864829652,36.539256445066414,40.24338372249343
17.734945719629863,20.00518148229386,44.69348873294961
33.72317474040139,7.362179866201901,43.75646212776039
50.965167408307636,1.8010133746163248,37.999137999420256
66.98614784311253,4.1921140578983005,28.729235619678047
79.19414012524916,12.770411089508022,17.669708908246932
85.29370502434256,23.73742065999623,6.634223181980596
83.60539574589954,32.56117906905493,2.8413374827090982
73.32310551109524,35.46896692307369,9.69424125200554
54.72950147392339,30.56845893351378,13.19765787705284
29.34191576626498,18.216421611620703,12.898096620484617
0.11595758248127525,0.6319528961896916,9.077892048593176
29.996328972770968,18.930788139072686,3.035478502003976
56.27707166676445,37.035900515669915,3.2640298127441953
75.27008646167104,50.63231210509509,7.687342714905163
84.28315985499863,57.316667871335866,8.64251841563004
82.08602276454457,55.517886109758116,5.747544298961786
69.06182953253365,44.802792527894084,0.069943107952604
47.04420157940206,26.29135249489062,7.014174915966657
18.992938672364353,2.920671005437775,13.33889398445742
11.374944638330195,20.802613501238937,18.079984406322403
39.94574857513133,39.74555361757941,21.173616659544997
62.57843518651367,49.589667021998366,23.29643634737003
75.55546497181864,48.20681225051078,25.460209385637746
76.14927112455652,36.32061023582111,28.58451248700125
63.243350554509945,17.094972012450878,33.07622060691144
37.82491254039882,5.169441324087595,38.22544498880104
3.1207317078811885,26.601025264110408,42.138358241061376
35.78998693388497,44.850898494998205,42.59400200584036
72.87474635780403,59.241362127791554,37.90375272042289
102.31955824269272,70.03533759470817,27.12266455546128
119.63270555687139,77.36242318326505,10.298750550774516
122.37579525940643,80.44790352707007,11.144716291436547
110.3740922345903,77.5717977057162,34.823669562572704
85.46623595545118,66.7395539185853,58.12366096356116
50.98992529722295,46.64326222036302,78.37727170260588
11.23228872835897,17.415448941249725,92.83582118180591
29.05320285449431,19.11209964055065,98.97305357486024
65.10587624058311,59.64974874319887,95.25878095991841
92.67253994462388,99.97286315339555,81.68672268458309
108.62313360121638,135.4658487613705,59.5902666256393
111.54735817943894,161.59971533324332,31.41713837801322
102.0874703446803,174.42034630553306,0.5362266061050672
82.83322033394955,171.1395389243208,29.27480445738522
57.73461264781232,150.80182521195198,54.47804860609758
31.173517516757006,114.8125223828518,72.50103323585701
7.0133735082353414,67.02600104032695,82.16607346903938
12.055979720822725,13.220388677283815,83.40770005459058
24.707491019471643,39.971676389773364,76.92171247919512
30.76113823985316,86.36980550664754,64.22708100759098
30.803452524160086,121.35067320648116,47.48810582167736
25.852236998061862,142.41452544671148,28.832620011800163
17.17392985831362,149.1326866530634,10.055711488056618
6.24440471738796,142.65800805311747,6.984848074545624
5.287343644799985,125.13418967199749,20.186877203402442
15.751659621443064,99.24998155000739,27.75288604443942
23.712556092439065,67.99667615693454,28.969086602942884
28.240401382914552,34.53955795050433,24.520491759057595
29.08626616952109,2.0339335945509576,16.224571474970514
26.64306475684956,26.69141064168292,6.479680449516518
21.716396027784203,49.48406198155354,2.368249785630396
15.2223048496336,65.07330957641119,8.578273282567423
7.9036739024314215,73.00243679229706,11.385940001177756
0.16881672779306872,73.31439314075433,11.030547695509817
7.898646494849474,66.2154095270043,8.20597224296469
16.393108518328727,51.993938765999644,3.493471408453397
25.34522192829482,31.30914628417352,2.473339109970409
34.47373776696817,5.722515738288379,8.692474466475502
43.03324788711039,21.874117664779128,14.110756837438057
49.814125140119444,47.358001563413865,18.07120149862404
53.35088182039044,66.19356630525417,20.26084309157699
52.33608966733609,74.73989873118325,20.41292070349979
46.106446122371906,71.50657726556733,18.32003091155401
35.02966845963806,57.74885104361596,14.344217865949885
20.644834917085646,37.06881352224648,9.760839758677895
5.452069524379676,14.194961140284144,6.271150062312698
8.304781760000797,6.890315909757772,4.856628881796843
19.19102869819883,23.54866954745453,5.3436532277917905
26.1963347363412,34.044173385250225,6.92572313248213
28.844228536233075,37.595856543274685,8.633631068245588
27.21706283191328,34.31305535424906,9.664634237250354
21.923388046168984,25.1283063916848,9.756473196043812
14.021676055951895,11.766223047985983,9.277814194642307
4.903762965002145,3.347324221715669,8.682010089115579
20.321771833790436,12.57521860633364,18.00083313501974
10.776717727569872,16.22034146929833,11.590370551498712
3.7889201233307928,17.690895455548816,1.9274530326638384
21.901577009288946,15.468680674143597,10.109724613747462
41.26791592315969,8.829350154756305,23.21356420313981
59.15708202042889,1.9423740550063984,35.802099596346316
72.84462965333407,15.709570055110738,46.225220409340615
79.95643820018681,30.792786682021124,52.87136702065559
78.76603279473505,45.26040507006268,54.48959103390864
68.40454328699614,57.027606968710785,50.5623291925312
49.02847369505703,63.90581386673188,41.287002035017274
22.105403920575483,63.872123118174876,27.471971803372412
9.277722113428343,55.562355485660625,10.80437331508072
40.8705682383437,38.581736195857516,6.223844853509801
68.41912940171729,13.928672654437941,21.17095568059162
88.40068314010193,15.22844370947756,32.395316271695
98.53708170056558,43.733325434194825,39.333881192365475
98.27132153626674,65.85961540962535,42.32846797866368
88.68933820390384,77.0293162535288,42.07600598265167
72.20174816141827,75.40382275902981,39.292677190421394
52.019882391682025,62.52260596282354,34.56494058456574
31.4573098692927,42.69016516072392,28.249580619334104
13.376135110360863,21.586830798182554,20.555229120395722
0.3063552069844406,4.550449846911921,11.827141990158717
8.899134265675874,4.769763617369087,3.0313257807758944
12.941160238040498,5.076253630193431,4.3134840458510375
13.962214325889489,2.5806037366740977,8.728158117511057
13.959430052170397,15.321581230471937,8.834620155276696
14.789006393836027,29.163725028221364,3.4441106806371398
17.639872933386723,39.87197681837363,7.461170771819875
22.757355680904304,43.838797513336246,21.932584663730044
29.50902923170454,38.85691538847354,36.68333391556392
36.695536901301644,24.651024218294477,48.398435974124645
42.96227478166176,3.0017447190504805,54.3767944907031
47.12158539834438,22.600552953232846,52.70840671420071
48.301985541303715,47.74536385048501,42.541103339076535
45.985846060262745,68.10483759329391,24.290471724259316
40.037940481828116,80.3463199846001,0.27614862066305307
30.808823812961357,82.77141457545001,28.284298559220492
19.26732091456088,75.55828843719672,56.28250521253025
6.9982336454839595,60.59277820268225,80.71730595807374
4.067709441211902,40.954984365743705,98.38752549715134
12.17840805550074,20.1649423148144,106.85425185058503
16.350733954989256,1.3617881361861626,104.84531030061352
16.727320973883124,13.381290761080912,92.51768196057907
14.473217711790175,23.37948863628114,71.40088334892948
11.227469489396176,29.157041982142985,44.45705370152668
8.372398389532044,31.850956186186924,15.89992640113453
6.488742723631863,32.44470618650908,10.065994961844698
5.2501986343602525,31.191532373517195,30.73697940438918
3.7757816620045648,27.558496278392376,45.134784443749886
1.2208204760948622,20.733948729594935,53.25060554326615
2.7242229584545283,10.401555954001353,55.612537108864004
7.6473370253028685,2.6778101912645136,53.192182895313465
12.56437260597009,16.63710708811419,47.10201761511304
16.260557287300127,29.09179519061302,38.34140216445984
17.63880548413062,38.05558341909828,27.787921677231125
15.951256423257085,42.66805735521135,16.342491068627563
10.89384069586446,43.330121053255624,5.173256467701086
2.6564926967621774,41.20410151357098,4.032214624638214
8.034874519414606,37.385042669301136,9.179202587406165
19.930829451963106,32.22869739541027,8.665352236069728
31.383694938394235,25.208971656154155,2.2644714154425793
40.64731310529526,15.34532940867713,8.768054570950808
46.274739630774135,1.913956503170336,21.89656451117351
47.45364659008036,14.976075618224264,33.94449653641333
44.154842073368414,34.204313289197714,42.2321697705856
37.02448337839132,53.85787235059459,45.12613575456613
27.123195223521762,71.65806318848404,41.782872803579835
15.68397677399742,85.35200629778694,32.066019903160466
3.980930174772157,92.96692232775868,16.828328310448356
6.676232619220712,93.00739626392563,2.192830024216582
14.943634281273077,84.73098184550878,22.892443966113422
19.609226739667807,68.52745171306907,43.0194083543012
19.952761448544273,46.2472798118392,60.16775883617798
16.148819120339464,21.224929067276936,72.08938041754573
9.486547176123002,2.207550161477632,77.14461792021062
2.213518967017319,19.68919847632705,74.59960067853604
3.0536687205668263,28.00185788821898,64.91675143763736
4.148835392452327,26.06107371270392,49.75620888791199
0.0678752523272819,15.37288475483382,31.455176644300423
8.714322264029576,0.22270706156739017,12.47455956728
20.448601428406704,15.457172649037249,5.112223499503197
32.6946635310007,24.94585248624082,20.115525987316673
42.99746584677451,24.577101812512065,32.124574779499426
49.39184146016624,12.63487570888008,40.97189406593534
50.59179200952356,9.651041621315517,46.51621313805791
45.9311052920054,38.3395851285618,48.698765486149114
35.248353755583075,67.79653318477907,47.520253938985825
18.883392963941496,92.21337117322037,43.119275384401085
2.1805630785884964,107.1408591306091,36.137693523752446
26.152235064814178,110.50915191071734,27.933090459437906
50.459666976242715,102.78559416731271,20.280123805482535
72.10490413715934,86.32379703142185,14.724520711428497
88.28131941871759,64.34089196259421,11.917794432064929
97.03619280391558,40.051542368276074,11.349129132646965
97.68348726667168,16.290005550497607,11.62543844384267
90.76319096180242,4.436629274180567,10.940415243173769
77.5775926617254,19.852370406365413,7.462233344593066
59.545807708946754,28.152355488357458,0.14796379929088907
37.71575478539439,28.64273072119425,11.999835539549013
12.665600714615852,22.4124211319635,26.45994928547344
15.177589534068675,12.462860558833455,40.31523091183291
44.991781560403574,2.9634122829242884,49.58332146091215
75.12358008914462,2.20013292711275,50.59665975662899
103.01633426665991,0.9089531064884744,41.2240236780885
125.58097814190009,6.502847912938415,21.991766353555377
139.88310665011505,17.74650719388464,3.7227854845078894
143.8699578007309,29.951305831614448,30.730096706500255
136.89911060869576,41.10381684345917,53.5178658006339
119.91885936954752,50.70082491786202,67.38138435563737
95.27898928028627,59.272760841994774,68.98053097363918
66.27237511970196,67.18969864303466,56.71435171131072
36.52858358407848,73.6369742479719,31.35091786676302
9.371722971709483,76.52016801956243,3.7198600529043713
12.761231955778479,73.4160527458362,43.22191515449561
28.726766522046063,62.985019402707444,80.97478650683519
38.79853287884702,45.940731447387165,110.70897426322614
44.46057845778783,24.942337196435503,127.08605152162878
47.895881712151464,3.4624863510526627,126.89375113679887
51.31146897173471,15.683013311146846,109.99621050719675
56.29363780957618,31.278359296392775,79.46158479124448
63.37983029374301,43.637448004063884,40.72266435403948
71.98283243619854,53.68135755750306,0.2705928043478628
80.66280094201413,61.82686838963421,35.84706359705132
87.6274482975655,67.40487259036742,63.561928454603105
91.28285494072541,68.90835761436811,81.47638341857534
90.66424753099517,64.83800080838263,90.13851719298448
85.6470009678577,54.59208102966706,90.89221640361866
76.88986661935775,38.88290440534641,85.38978755569862
65.53400255658956,19.54042379492756,75.55130461912655
52.76807111655167,1.04445601960948,63.46586890300631
39.41054933257051,20.46640134343299,51.1282705599949
25.658913641014152,36.60195500012713,40.113596986098564
11.10067380099686,47.66731124615312,31.334339710470402
4.988990072935212,52.23683028488939,24.87125671633026
23.139565405411602,49.387781801911,20.09155710914913
43.144371585145684,38.970234211951045,16.017156975171456
63.6996185560556,21.852742562330967,11.498812179266185
82.40984139521237,0.02147781328652333,5.3630858504221335
96.19068950259805,23.803524457407708,3.2202792276702845
101.95932770290872,46.05428800106541,14.268761402501157
98.02415488490351,63.50900433195487,26.993024647302697
84.43602983818718,73.89048908267111,40.17398460532433
62.41758273119577,76.27381022386126,52.39511493777241
34.37423718460014,71.16715787385442,62.25152554088116
3.6568040665065853,60.26426068245459,68.5121578052818
25.90100706886231,45.99677577899433,70.3428886865821
50.60188472218089,31.012071603617372,67.5748842667818
67.5494714056413,17.65288554240674,60.74912472003809
6.569350112488123,26.469641419196545,10.56644563514074
0.7435253817463785,15.115336368458669,4.020131191292293
8.990637546538848,3.221342271449978,5.1976156452048174
17.214317362898882,25.465562636675216,15.620210993053897
24.833887894780194,47.75067998182562,25.103940198442647
31.69570719907169,66.64466700797466,31.336568210686934
37.85051003834799,79.85098286333638,32.631952324849486
43.11624191603077,86.18197868767204,28.523141690706204
46.77224519174293,85.00000662193665,19.913369298710492
47.47191828559473,75.71713418661331,8.734465370412229
43.5532564351088,57.757566430411416,2.7725424575931927
33.849738304787024,31.062080698293936,12.585894192924878
18.60300610476976,3.0175011294859058,18.98189782279812
0.7129504373813038,40.854217260501024,20.69651415038307
22.289273271027714,76.89338009075091,17.242048187855318
44.09011393051929,105.6320142620096,9.073856695623705
63.99787314542117,123.56191393930818,2.304713608254693
80.2350800229413,129.97403461194548,14.566140354818646
91.26335969230428,126.5817575694752,25.094649575327843
95.78770266776127,116.04236178370634,31.445338774094836
92.82376724761036,100.44727992999502,31.845424945136642
81.83946865361283,80.69785291717537,25.589156952321954
63.238163427856364,56.937218757235435,13.174353826661541
38.682585659081575,29.71211907403239,3.6979033772783003
11.15922734916557,0.8449187092037361,22.441343181928282
15.44346756041188,26.634055898606476,40.27105472978834
37.25286421343739,49.486253950883274,54.91421571828309
51.38448086491656,65.64185942406475,64.94979267044236
56.6945558807667,75.04875233292351,69.6969618933998
53.959394721571115,79.51125720450221,68.99070481165225
45.45546269182515,81.62462009515133,63.15122824570209
34.17179941383128,83.44988660544743,52.86488354367928
22.977708795716747,85.68866112664261,38.85302907442393
14.097012234540468,87.70473710946395,21.81469215907819
8.941175189437642,88.22063625972065,2.678509120305736
8.212228397456384,86.12108725601759,17.236486880631595
12.079473084385212,80.86825474544406,36.369870518569016
20.241867126727442,72.41545714836799,53.29489251093578
31.861390764508673,60.86482168145275,66.93113228813895
45.45825449928447,46.263314287534875,76.42724264216085
58.92629428576359,28.75119619898271,81.08380034917799
69.76713636825328,8.94854175419428,80.57798204741033
75.52641010002606,11.774428827950848,75.09811966402181
74.32196884500715,31.46072474819203,65.19617550096966
65.28401818736928,48.1734881689423,51.74129917601234
48.781183782661195,60.72547073262602,35.95291969101817
26.407469891422053,69.09931114294726,19.212192622334857
0.7274419684642927,74.30302093312865,2.6756582807309126
25.19036892531541,77.72670761717387,12.886609292961888
48.32907304871607,80.34777050473161,26.764276081722915
66.225245227569,82.20121809175116,38.21087940706346
77.33314311144765,82.34525956510697,46.93157659238642
81.18443396368154,79.28572271487165,53.16453879548399
78.31293469414621,71.61567357118159,57.112747884513055
70.02724660455365,58.592992716084574,58.79290696336472
58.14577244765249,40.51108018513875,58.262814421766905
44.74873813865581,18.82084070964017,55.441263935427656
31.965375846869254,3.982335278169842,50.04741615904326
21.75273823342273,24.695637718701434,41.9648278620187
15.590823239204369,39.99562722267187,31.49252394439021
14.120922110224976,47.23063284774452,19.379328002451004
16.853994940609592,45.249853080344245,6.586591726713737
22.101615046006582,34.96909974092575,6.081244810544127
27.255446965329373,19.365146983841946,18.042706892170344
29.41810345017809,2.7983298078484946,28.743161964048
26.232266500601945,10.165718322886562,37.58319711911197
16.632131010436968,16.003130891217044,44.086386299072515
1.2324753534415258,13.078733569415528,48.10561023241917
17.769287975106053,1.8711346992594575,49.746864325181605
37.12922896732733,15.380074112202866,49.118953906780625
53.36895601544484,35.3359212407621,46.45043510744276
63.611214241202546,54.2066605378256,42.178322489222296
66.19062852844614,68.25856655502278,36.56311036564745
60.91438592048357,74.25492791943095,29.56402638718911
48.968095039817165,69.9729387889208,21.101734781284023
32.53949961540845,54.81028767356857,11.064582538477943
14.299377619865263,30.28062873704434,0.7954306823093203
3.110951341139431,0.07532643299044176,14.413820188319335
17.47833227327324,30.574983906460158,28.713259504175685
27.26107501410854,56.18719687064182,41.70150539968158
31.706957715053765,72.52763626742588,51.32782795183936
30.89652114912706,77.72902328525711,56.24896320756707
25.731511643601138,72.53152709807954,56.057586572474094
17.8351704205299,59.56918276659955,51.100751098082895
9.28784313732744,42.10944108496341,42.28356437621912
2.170118669481971,22.896910214571022,30.85562649003391
1.9998142939943127,3.633623895004032,18.21709176452595
2.7518564024912426,14.779050103616074,5.754667583843388
0.8312802156796141,31.55577541325881,5.502112634373087
2.1120880626164906,45.46104701335236,14.95443125738188
4.222778725373421,54.79078902132353,22.110036937448314
4.219769154745621,57.91661724902188,26.562653937685845
1.8950341769133816,54.031267885563075,28.270558196594223
1.9239849470889419,43.634535538945705,27.472946379758636
5.915366480730347,28.498858813156385,24.48490182474362
8.992802680754805,11.163291649096752,19.92780847021506
10.834218101727606,5.745408245941931,14.802233989884245
11.930646154835618,19.990927153694145,10.10616918883826
13.17657120156729,29.85240682949317,6.605906195326258
15.310436536723444,34.0642949001996,4.779740570068715
18.552074318712293,31.8096632530547,4.637335692751633
22.62325838380227,22.916552409578824,5.563268531143214
27.060708697306413,8.212139996637902,6.491495618801119
31.534780310538384,10.269350867931905,6.255028969258526
35.93442212984353,29.488149348527994,3.8206290194904726
40.162980292789356,46.023240170800655,1.356718215265091
43.80511102334153,56.904354751850335,9.004451482579647
45.94590915329969,60.28412748103065,18.266849321865177
45.32325597843146,55.68157797015013,28.162545764203646
40.75911311536683,43.78988677312263,37.573264646266225
31.62604966455789,26.08120376527798,44.92312887576904
18.094486654999834,4.504310556488503,48.135483490006074
1.0597764136808454,18.62760614783655,45.06697448930387
18.152588847071794,40.705219949007194,34.273362206031564
38.0808057054946,59.05940962262975,15.682372115075381
57.251738806346744,71.43627817818792,9.096586887075741
74.14474083342773,76.57702468287476,36.71699961455725
87.1483181663548,74.60468049759044,62.547732487267396
94.6759597753389,66.91282584841834,81.89694874424741
95.47520698035343,55.55431389892877,91.33220603775305
89.0096768491655,42.46086269239001,89.36376877742269
75.71393841748548,28.907120035172667,76.60291139732252
56.97926094922286,15.499424537898587,55.43995610609006
34.89907000425886,2.6269405628664817,29.18454310731076
11.916547644252818,9.015616519063958,1.192002142987045
9.499493258768338,18.26434472070206,25.582787205048533
27.113407455948153,23.853005663181786,48.671150775849746
39.17387289157652,25.080649558491245,65.91581229765983
44.724819201484635,22.32200754731856,75.42147940703545
43.92939904684871,17.009091112400913,76.262220410301
38.22167244798635,11.031798797708591,69.18209688994581
30.081596164601322,5.887062476341403,56.17832660959808
22.38639542951569,2.0889641354477306,39.68181041279605
17.532684643507324,0.7952766353090175,22.115971821200297
16.691232618114793,3.5283528799736525,5.4911853475081935
19.53971083996134,6.395170570208331,9.042624394711334
24.578012711997605,8.668628856587384,21.15661403874844
29.790595361907826,8.68217688971845,30.812416415889103
33.26278391185084,4.50042026146833,37.83028531885093
33.4740858943286,5.157085460312848,41.70433819252955
29.254642227031013,20.15280803419694,41.638994524797084
19.671871410715813,38.6232504437449,36.99141702041253
4.931608806924212,58.02525219996029,27.989440611045925
13.428398438741159,76.22394650576405,15.853104491721766
33.32506472443953,91.56715155151365,2.282461241188005
52.29760995364621,102.8539634132654,10.919706631753504
67.83598507989764,109.17075406242614,22.209492063084813
77.8795462641338,109.8198057905136,30.718069821049312
81.33235311738055,104.45590704207846,36.114298100457916
78.35093144832607,93.36387618191462,38.201689011483374
9.00845148763056,28.444397441171354,5.3029702798442235
2.620164294102745,20.892749385156577,9.048687052150127
15.9382174935617,6.938125502721284,12.038087801703616
29.431739826326144,11.838749072113222,13.238365967480563
41.703568915926176,33.0239026991141,11.667176234945012
51.39934663418363,53.851901606159934,6.796989558592582
57.13237486084308,71.4892767067307,1.240217219124923
57.51114535256608,83.18438139534243,11.649851173602043
51.47400014273805,86.38920423878494,22.899761454050257
38.68045906012062,79.10243663259888,32.81466379614509
19.821648865573398,60.40833856056121,39.08805900243157
3.0589891122165045,31.019728172310884,39.99801384224527
26.416279268269314,6.250836874965042,34.68534870527222
46.365237880499734,46.184720486853045,23.310436161924997
60.48239728224745,81.96851284811976,7.30593178510408
67.96017768103438,107.3143092513271,11.000007594145606
68.98227406353037,118.13290320919056,28.967188652828817
64.2770402180236,113.19465029658336,44.15548249918447
54.452505479244856,94.13278813788205,54.83153012205548
40.01399445158751,64.64178779263332,59.940965532518334
21.842168049630292,29.491903681932634,59.01086620960721
1.5620654409595245,6.304477390975859,52.32831779565904
18.253231236881476,38.18887144439418,41.06006601067409
34.538684604078526,62.477893311729986,27.110832232966718
44.535660287083424,76.7490391808517,12.70064218884599
46.59452158052625,80.10083027833971,0.04617653349099997
40.70510055067109,73.1488493402922,9.101879424069027
28.41735735173439,57.77595269227941,14.245434094210713
12.363350341793751,36.629693880923675,16.498747549349627
4.419753273451162,12.59674526853077,18.02599106095299
19.086897708043864,11.559872621885685,20.89732590212731
29.35413408671766,33.33515040039121,26.300605904226764
33.70913972444587,50.4991757913794,34.24207645735926
31.50315448370641,61.20567345405016,43.472008093234884
23.033966123486163,64.26188428240816,52.07430693612136
9.57754040998084,59.4805665854419,58.3938951053761
6.713486321685456,47.86126633625424,61.39613836363994
23.094196887773712,31.402713197895753,60.45925866142957
36.72122555953181,12.56980065332448,55.0770648036215
45.20760010720825,6.336609481197972,44.74164505240061
47.07305184198384,23.55732030409601,29.290843757920292
41.97940627424868,37.85595481182772,9.58296749921514
30.71117721170941,48.22351240965782,12.339603440477617
14.958839671258929,53.627143572205306,33.66552540180477
3.004300239125218,53.12742800669806,51.29009062488435
20.658512472611775,46.38991021138753,62.58936468463281
35.54193225057831,34.27596749364343,66.3646812885512
45.53041998804462,19.051753586168697,63.106290243842956
49.10530931295316,3.9382143892107933,54.513867429804066
45.58351725422165,7.891777215956521,42.79580911363701
35.25398713627005,14.39534058038123,30.038790754104784
19.365438491708467,15.25676097505595,17.78485346854753
0.06599731616292866,11.736432590919154,6.9145339616620625
20.586973244938477,5.894949232231406,1.998812198060498
39.678510599776814,0.3601799414552685,8.299229225358273
55.08177641209722,5.897149438844333,11.489871303957994
65.00953235776338,10.433818619446846,11.6257267376661
68.24215375980906,14.182652226157602,9.326383783275984
64.17735452725516,17.401048394010182,5.66397041609297
52.89072853168359,20.13056880243913,1.8572428967896093
35.21407114051178,22.16947082973953,1.2666050488421108
12.772757363168846,23.141872933063365,3.4155796215534324
12.10371841142028,22.500353316978572,4.549451959346788
36.6568487390371,19.46323065387426,4.778077239086392
58.13677332862786,13.04533159390809,4.216199234644234
74.26034876582148,2.347457883192967,2.7305315921829516
83.5294258060933,12.876077958229528,0.25673951527821937
85.32342224613934,31.62626171550367,2.773420293226842
79.7709986576033,51.44330891596435,5.633528998437288
67.52239516080519,68.80848013260434,7.771913903052995
49.60931612467888,80.07611657550216,9.165768550494628
27.49380001297359,82.56288233027351,10.303533161301376
3.2428792074033255,75.33804182026944,11.705576297127193
20.36159764592612,59.42795321038137,13.409667280915928
40.009198521435316,37.474546310047074,14.874105579675888
52.44517627988976,13.126998107408028,15.317843584127715
55.331673828482245,9.554547754542575,14.19802208350565
48.10736989625606,26.588396385826826,11.621763887990669
32.464128982671134,34.5710404921536,8.353586264710376
12.14381861151251,31.35905030339419,5.364329413611171
7.914894994982551,16.908365057896344,3.344404134500673
22.788646460590428,6.057783709822214,2.2864877890582482
28.73506047999076,32.02289308444599,1.4628816418633448
23.944081122996266,53.5929286261855,0.026131031218904435
8.736833211899835,63.25725449883132,2.6137296574316946
14.72308472588322,55.499950450234074,5.6958799377661595
42.982387466849985,28.539699839543776,7.675344942148946
71.83723961837319,14.940270451302672,7.012760462995041
96.7706629537132,68.28973889066505,3.0771044181535694
113.37979172835774,122.3731109419576,3.735964086075029
117.91733889441258,167.54910440527837,11.928339585350246
107.9883119266724,195.5910001787582,19.199040748551635
83.25771548714721,201.12711182887762,23.434703511211488
45.88013912275426,182.4282561765699,23.46381363366624
0.37776272781138504,141.5232006941785,19.162992353969134
47.138306838392026,83.72760726676718,11.207285765918995
90.25514858850417,16.70913951746147,0.515728982613799
123.63646948979728,50.753857257932324,12.009861415667574
143.99795829542018,110.12081595538831,25.220793486207484
150.40423832975085,154.3479630739669,37.67943076795419
143.91261482163853,178.83923760432802,47.74302355474791
126.8341357388886,181.96128808829414,53.670480546210634
101.99956987755466,165.11708153571726,54.21238533406729
72.31184687705462,132.3817899331209,49.27475365790883
40.62866411833762,89.73466787601838,40.05111773178301
9.793871586828077,43.97387639183717,28.375613765698
17.442830616028093,1.4781926529675251,15.729812423601135
38.75217720761045,32.91045940949873,3.005123782828601
52.71627818616704,56.56799936961507,9.21828346956586
59.22949275668809,69.12308500614074,20.770853510452923
59.53925392355255,71.87892730224276,31.788235680639715
55.82944519040138,66.91534758551443,41.99436534469231
50.484065158653955,56.302465064749356,50.430984548998765
45.340870170421034,41.75433942484497,55.98920849673726
41.268863549295716,24.76146327633557,57.8827705137248
38.223688433363,6.963082806614496,55.82217383561825
35.67266090150718,9.633781523744826,49.96933943986139
33.12612442844196,22.859412265560795,40.67988507822858
30.48594045207742,30.940384355735894,28.45066311840461
28.05121872624316,33.11565615447455,14.049484107371006
26.232845441664285,29.95144618376631,1.4592258961907631
25.17716300834788,23.12558787978146,16.696638876270676
24.547606333167558,14.79358266224965,29.953656418757657
23.57826474490146,6.887005499001885,39.51456699180313
21.34491020692588,0.6743350991364286,44.38216940683726
17.11593871769303,3.2717301968767876,44.62332372930341
10.589835710740145,4.8124262681455265,41.0743487473883
1.921465079639522,3.964810143398591,35.04314792699886
8.407709772392456,0.839586762798826,28.015312934372787
19.75077063809877,4.163250256089611,21.15666426304428
31.354995821793505,10.069977019301618,14.9362395793906
42.29265016665841,15.240962522377492,9.299071884919064
51.36019548134194,17.63350864785996,4.269470145646558
57.09451609301709,15.381686716996757,0.1894626376258856
58.01477659710914,7.507182968400744,2.5779612538496948
53.06244936048804,5.546049623201654,3.938584674516817
42.096271314471444,21.800533573709476,4.16939832780949
26.21668580771694,38.11548284470643,3.8663767260757984
7.704468308504446,50.93674135534701,3.69394594482945
10.460939736753765,57.185270737220065,4.068256902715284
25.334583572818815,55.00662459315852,5.1687268715147505
34.70703409831032,44.18205250566683,7.063963096634051
37.694512292735425,25.909147917304217,9.594665845925158
34.66946725722899,2.324237942418472,12.430814580643387
26.762517604638475,23.764038459079227,15.141846030227148
15.572421476300411,49.159092029178794,17.151321465729833
2.8886657102255118,70.68329834591202,17.938148573695386
9.529940909680725,85.66802618634148,17.222969951184822
20.114404772283834,92.42912460368068,15.032354266589245
27.62635328328335,90.6014659401967,11.743485614167346
1.8932780545873358,9.45101305798937,8.607699954447625
0.8913167659073474,13.837689923803268,14.591237856404732
0.836888300682583,17.860733611783534,19.775981780323953
2.853237667268247,19.975016124788592,21.81606894801802
4.549338306547319,18.73922679040448,18.530494481769217
5.384681030180583,13.445393688855786,8.963914358998034
5.062963980335213,4.4829348776856115,6.025651636293125
3.5796279148336683,6.769408556524889,24.203084558176442
1.150114293543001,18.47467959027904,42.60123726114055
1.9028462502368586,29.035115343447735,57.927937261903075
5.209397512176571,37.57257277734509,67.16991539990528
8.352011941480889,43.94894867189941,68.20226082910973
10.84618342625687,48.386885122217144,60.07724134695197
12.137737670491349,50.96186096478153,43.21934744987723
11.654971677451101,51.18843152700504,19.298869137780716
8.970231734705445,47.996248574706556,9.048756538912084
4.040451671122064,40.332263418653156,38.41845470755733
2.6476547829373143,27.94228997563671,65.27923852173407
10.122857825608099,11.733232334500794,86.59068840169972
17.130887313380942,6.449580169505591,99.96690391053158
22.428964707142978,24.54332055943788,103.947815272154
25.05061907852837,41.01655409784713,98.31785637409666
24.46954705613614,55.145164264926926,84.17975742593032
20.670125897674133,66.70444510493708,63.43315378387633
14.145036182543056,75.30554663765716,37.880599884615634
5.836607181796519,79.88321959323791,9.236646405905473
3.016895911166421,78.76249179356103,20.171615949234543
11.137842999408425,70.3847565533169,47.59627268205744
17.50585365130363,54.34314608089952,70.63896089588626
21.58978750679121,32.09941447251265,87.25065951873361
23.385794121861892,6.934396043184979,95.69063604834211
23.23217348049195,16.9124928308125,95.03383304075517
21.51024048574979,35.53956585609712,85.34149002146768
18.41839987243295,46.49380599602294,67.69608768615763
13.973227686511173,49.211507472914896,44.163623268709095
8.230564973810827,44.713876756084574,17.54298897313221
1.5729405021716445,34.865843202364914,8.684792918125751
5.161893421439303,21.660186588935275,30.75704641276194
10.845315949614541,6.895856461469111,45.57126921993214
14.426154432311009,7.7109175371270995,51.52122289122768
15.290564945823567,20.278843139282152,48.68526919067895
13.404662870754912,28.725441396423467,38.49301883261508
9.179269995099103,31.114027876803227,23.588476309497004
3.209427747660754,26.287822336317493,7.560678527887701
3.885016866623726,14.473645032401727,6.114315152351859
11.382487120788312,2.4898657593772415,15.190927724474008
18.231236798423872,21.471559043313036,18.83181106502249
22.928750574293407,38.7999795717513,17.452868220969325
23.738465378144603,51.137094851016506,12.77573962072689
19.264625913081417,56.190619097087534,7.1699126536462
9.14567770756477,53.11638537313045,2.6836671457218237
5.5116259610034595,42.59216487853337,0.5921753910494972
22.245086994592892,26.63639199993709,0.9833977781791512
37.880915470560325,8.237912284072648,2.7786401143712665
49.39987163417001,9.193381273705283,4.485843142309807
54.63734883832544,22.503087641678256,4.887706877835365
52.57856739960751,29.460233085727882,3.332090860560812
43.286635034612125,29.243538304896333,0.28500770679482357
27.69952914511421,22.57246166534795,5.644172420957342
7.513835339603332,11.425139774803185,12.091138512731929
14.82098285115925,1.537701153129524,18.75750717183186
36.175009332447395,13.607613121856227,24.671672383974503
53.106451335528085,22.507314512055842,28.691696287685648
62.59181889268694,26.65185361415359,29.663613103814825
62.89604534224864,25.256302547114373,27.077517382111733
54.1750789146617,18.395883155851326,21.379835667104096
38.46521455135637,7.0639074209704384,13.837139733729831
19.014661893034763,6.850967236382773,6.307596682682226
0.7391863990816097,20.813228227492168,0.5495808204983128
18.08568187026311,32.17801846866347,2.522637899497056
31.46959273194062,38.85879592490614,3.184349248756192
40.34170270477872,39.829611635738104,3.007691432677132
44.68388459222961,35.21490585692168,4.256700349516131
44.580406033575606,25.917754630683067,8.61512878357413
40.094793126704275,13.025242840878443,16.35436192431168
31.47163186956152,2.6290819781738652,26.244194439087853
19.43716536408242,20.470317913336412,35.967215729124234
5.343458968097809,39.76595242576772,42.94558330024996
8.961943962047139,59.111845601231416,44.992427994689805
21.500919073654025,76.19769673116794,40.7399662782346
30.587560093744802,88.06341093157548,30.082884063824867
35.1382410611702,91.80409403464813,14.128467963825203
34.81928827469817,85.3753069957897,5.101801844250869
30.05596386776032,68.12906363099239,24.797698466769695
21.950905133584993,40.94320536983161,41.88166850522988
12.1451762740512,6.00365964944595,53.82572201246414
2.5721920152127566,33.54266953384424,59.005289063302335
4.929609592709941,73.88473778863116,56.75519840030523
9.043863751061501,110.82132744176812,47.61446991125419
9.303784658228894,140.17158281807332,33.403217582604825
6.194970611608042,158.41727616961046,16.786395350715985
0.9570702350504079,163.44924493359994,0.5223917850965751
4.833042940266075,155.1117300659252,13.253148556696695
9.71089050771443,135.22649671310086,23.32834089668307
12.63053583953685,107.01514941952063,29.456145683748495
13.05259750212462,74.15972412234663,32.16313328873299
10.897435561829463,39.93173388868533,32.21369737272639
6.482551371346616,6.8060741785214,30.388869043497184
0.48382811924522773,23.382091814659514,27.610891363667754
6.103729246264891,49.06535798387483,24.789971681310643
12.082746832867533,68.74699116138979,22.535699803701597
16.329287073303938,81.23222412538152,21.104979498294405
18.170647729580462,86.19992833041816,20.477135873155646
17.678489698462602,84.67292773493938,20.280905426184173
15.704556930791906,78.96857921403263,19.692654075383675
13.565136062586165,72.00486105826414,17.824861426253673
12.47322431691898,66.2213775752537,14.497143247987134
12.995387136684775,62.684953684668294,10.344418500566269
14.785057825495317,60.87455035740658,6.235928594137843
16.728126091536513,59.23863196152815,2.870084814435206
17.44853583632677,56.18962136744937,0.4111568919713375
15.935379669039051,50.96370699304279,1.7727400585491095
12.000651926007476,43.89152476079475,4.831895922533164
6.3602656714961245,36.022932815581974,9.832020465877944
0.3344071341808088,28.420512806266583,17.131202858456795
4.666585006205117,21.581577118196087,26.13779914777098
7.646210273224553,15.334352866623624,35.64722659437472
8.321967578266147,9.201286543219814,44.46378769994302
7.13085365934579,2.889995599282777,51.73632614573283
4.976987766172979,3.4494644744354983,56.776303128278954
2.8721513715257543,9.356966499270827,58.973584373253196
1.6237695522298536,14.47951101769172,57.93755686129641
1.6668408502980492,18.93647144085821,53.357683236208
3.063311095307633,23.315851513529836,44.759345536687846
5.599774121870986,28.265111743786676,31.929881503576265
8.911832339837005,33.89574741074917,15.833893883379643
12.577342220802969,39.37825229034844,1.4317094584371537
16.148908946601477,43.057830293680446,17.552635612206007
19.173313638556294,43.11571332659603,30.52464388753412
21.234113578244727,38.491299619885886,39.10140281565351
22.019254987357623,29.608428465627526,43.29565436156406
21.39339270663397,18.509077290382365,44.13201613996357
19.42158820994718,8.284737659586488,42.93744665039105
16.31278195158253,2.0268734956843084,40.99818684920352
12.29435119327347,1.749346533483939,39.35818065657597
7.484620091623185,7.743853315034112,38.39664444394344
1.8559480293382136,18.599463079805215,37.73231367815294
4.673285382733603,31.77661023561265,36.52966297204431
12.05806391429974,44.41175077705505,33.88974271079069
19.95003485528629,53.995742264023434,29.372391563466852
27.625658535971482,58.674922667063534,23.35697118777608
34.07661397903982,57.21372624531516,17.02559265995398
38.52396916932533,49.44989166056916,11.376905122831364
40.63033803507457,36.50648236940489,6.872586154723259
40.29731632307243,20.343467632533716,3.9628901997023096
37.66128809659894,3.430110639000522,2.9299185081244215
33.050243631771025,11.708089843562355,3.7365606424857103
26.93656422370251,23.00256635461038,6.089626702751875
19.907871332650423,29.283771040091068,9.505245941700359
12.647878121483766,30.510864394152296,13.272890432766955
10.481030717992454,23.8978623712779,9.578906066523869
17.684722382861807,7.966778252313657,0.7563564403207141
23.731933116591723,15.56158019763633,13.580516442945147
26.62393880412997,43.159218054856915,27.657877457321806
24.669508017145514,69.78123973271303,41.36422102806251
16.98693542876227,90.06257835243653,52.74980031145073
3.842774742828578,99.6363747735671,59.76260417357592
13.304169054827096,96.13094773937401,60.68534115246761
32.003356541894114,79.5632428145524,54.58921211325565
49.24417015104751,52.051417839380065,41.43079460702208
61.96383508452221,17.06122623932012,22.23248722946841
67.46626375587337,21.331358978210233,0.4997985633342287
63.77153726678592,58.764794841991744,22.798198956329852
50.25548512399148,90.84594912080023,41.09034008402644
28.236287981465114,113.80012723885227,54.14027546687727
0.7699412177928247,125.13196419741459,62.10580301251565
27.89477549482953,124.0405269175647,65.357659441268
53.04535865800035,111.63218738771474,64.54479583640484
70.59856069708685,90.67804643852855,60.10892822288574
77.99185639786934,64.9357865157323,52.21935112997308
74.7014431771201,38.20972888803084,41.360715147785655
62.240950171580295,13.38595672627148,28.607243009238957
43.567221166279175,8.11864947832762,15.473031078636645
22.277118559728958,26.297807718292134,3.372725037078512
1.7755971616963184,41.93192471321874,6.795535822486643
15.304978099719694,55.68346605259098,14.796075985140357
27.31950280214585,67.39106274385591,20.832296281088592
33.5997332228665,75.92025937378597,25.247881581901968
34.30398634813571,79.66028339612454,28.430528097451322
30.28649860343107,77.39050629028488,30.468837440187013
22.97894022473739,69.04804445542148,30.997044478798575
14.204597720706854,56.00330078410749,29.650773878675935
5.877690763046427,40.687218724344916,26.618507218761803
0.41199541185945987,25.774392673248446,22.74954599121321
3.785622969288935,13.361085078228113,19.220627770876597
4.285402247572805,4.516386915980747,17.133411060220865
2.7782610512866195,0.6732614188503928,17.081453660241223
0.5767199772755532,2.723191949077895,18.751660034563084
1.0470721738439819,2.349983832977004,21.051650122759938
1.2812950909420857,0.29761633425414796,22.814113993210604
0.025634645089393646,2.584868987907037,23.207936544103386
2.399942641382674,5.194983727880657,21.600374129080294
4.940837871373084,6.20736436435846,17.55275449168854
6.596623112067925,4.374832592120488,10.931495852323136
6.405981494304563,1.0220670086931014,1.8730054526655346
3.676888754884182,9.825161159414584,9.281211268533152
1.875321923442495,20.97615006146231,21.960912648744713
10.030641839790396,32.84032745659246,35.11198657081915
20.021097879212412,43.690631991907004,47.0560025572863
30.57586712342175,52.07120247500792,55.92251054960091
40.06028129120281,56.846093253271754,60.31266602387979
46.681793166902615,57.0101302087415,59.502716859923936
48.75057396174784,51.5487085139756,53.10677221348354
44.96299772482984,39.64328314020267,40.89540295855529
34.668991723517074,21.297064477672986,23.153803602501075
18.114359289854118,1.910865242698082,1.3033778430080158
3.385842739385785,26.45614459973599,21.834416600075325
27.437362708503482,47.28459905379325,42.72673590999584
50.812064712643554,59.060661973184814,58.09273789264947
69.99041749123838,57.862038855462465,65.55253344414625
81.92190551848348,42.60744987245187,64.44091508918842
84.77028128878031,15.574752788405485,56.05301478751823
78.35799575224613,18.192286588769157,42.70527642369791
64.13346810023863,52.28375624871534,26.76079693812834
44.67206197228939,80.509848291799,10.29467095992537
22.912426287513274,98.09080645589731,4.989457510186691
1.4451844428348373,102.21072247504709,17.915667794458493
17.8750990965661,92.07930252532182,27.797445017689142
33.89835028390121,68.82341269667275,34.0305414290178
45.86786553585356,35.43041834679953,35.893975491551096
53.124000197529334,3.3442831629261813,32.96928540205713
55.03682945287983,41.429557125192645,25.875832385301415
51.20226559966397,72.48231873876793,16.476374742483944
41.774059570476936,91.40983569864883,7.12233203479071
27.686676949754656,95.85893263869366,0.4374844256556563
10.598143775990177,86.9779554919279,5.691640255450443
7.429902313630042,69.01614996702396,9.082406423273783
24.350519911052647,47.860148073422394,11.334852654607381
38.424259194450634,29.099084621755818,13.053760616931724
48.27836084217421,16.44038718969205,14.149920346970633
52.81206155155158,11.071931096126706,13.613038302423377
51.119770853842944,12.025219920696118,10.344485518105941
42.601557369644404,17.13396390271177,4.008665070116017
27.29370358162204,24.002575990266223,4.779518800676776
6.239238048482325,30.573217026244844,14.677396213081005
18.350792672038402,35.268240139617596,23.977351154979182
43.32193835256107,36.9470901907781,31.005939650086464
65.18837131016889,34.921199060041324,34.68596426567068
80.90319552074853,29.106897643817064,34.83892545138335
88.47742660377943,20.162191818525322,31.84386009269985
87.22748608442954,9.362856356444409,26.23593373122249
77.62760327608319,1.834664821488219,18.679319992794735
60.93946772365547,12.354291704703705,9.980786503806684
38.85045878030569,21.881901459941673,0.9260336352003216
13.292182334963455,30.81354492898084,7.860170808830484
13.561780244523844,39.772547585367924,15.894724384209006
39.27737113283353,48.98334175966166,22.73005163220555
61.26312511388802,57.853797967277146,27.91999362031384
77.0348903805349,64.96743868869292,31.07497731374535
84.58265522884449,68.47267668733056,31.86030234070975
82.70354537660381,66.65019328544466,30.010764304273277
71.17948183111734,58.408496191897676,25.48583662854755
50.79776934547564,43.604648361072776,18.62344582733054
23.305810228699695,23.189764541157167,10.287261929830986
8.637585885339819,0.7775353463411957,1.8689981869441843
41.51548179995657,25.263027372504546,5.15666147430732
71.09354553258905,46.61747090372424,9.643599553986096
92.8139372103815,61.17449974678735,10.845728589542126
102.52177059684674,65.99621665646669,8.537275707827334
97.39776762644635,59.557997757024985,2.9714119388894042
76.82039213776652,42.11331807523263,5.375311531007614
42.832608871535065,15.643451323588097,15.765789922554383
0.019506956072223622,16.502336129977927,26.960381935235297
45.50189089315176,50.06545742837449,37.1458919228572
86.94358735821832,80.27658213444278,44.22525087509393
118.53653674364288,102.23147132433034,46.36765121996908
136.3231084055597,111.43459960797159,42.51304265466385
138.67396589969348,104.67484639828153,32.64638103722857
126.23108404775614,81.12416212749014,17.750787365088645
101.46737597928573,43.21233306604666,0.3325671987737048
68.08979354736661,3.2846228942502385,19.075579255823243
30.433730951069883,50.29495322175472,35.7430504621208
7.0712049346960155,89.44157131085389,48.03745424764278
40.35011781422221,114.2413780430497,54.66907490601348
66.09832266370711,121.63766484687078,55.589926387521615
82.1880410866154,112.28219618795718,51.714956221788626
87.99394743255169,89.63290892470576,44.58201583677763
84.47715492772717,58.497860687763314,36.15922858572235
73.92995699516342,23.797335985892996,28.42356377307223
59.39680786669492,9.991854092229756,22.78435305199761
43.87922844841023,38.82206031605012,19.866704875743206
29.59215561018884,59.0147468086736,19.576131790678673
17.54814493353879,67.65106651816592,20.989571502569948
7.593685445667208,63.459728328128165,22.29224626638982
1.1400606645306652,47.71542147137104,21.31424575297929
9.59481198775671,24.44581742111774,16.449285837717092
18.238660473014587,0.4875614530827597,7.119487908341633
26.837570883381993,21.229370887047523,6.343432729909782
34.61176802875845,33.89009014767644,22.82577062319108
40.62801693884448,37.67229081723334,40.48823008012013
44.195264483141564,34.618955863352014,57.04231088293113
45.060744982688504,28.18836323041469,70.2713398088955
43.372627257892475,21.407731088652426,78.37925548590657
39.39394788314251,15.99557042521246,80.36097080015031
33.291786980785766,12.482766704975543,76.26015897987291
25.25193772341491,10.61788476866652,67.04527328817395
15.693835403160081,9.997431557259786,54.51288213512648
5.439352953744897,10.46621825702271,40.87697863602709
4.29927463521718,12.067908593352973,28.022943861429166
12.17617355034848,14.674176952386684,17.183914149233555
15.773800480301668,10.651217796566344,9.441715526588036
33.69801686931509,5.1624822038500335,15.746919544257393
51.30612948338018,2.6055916236593673,20.3182524893803
64.59526444038924,10.920612872896761,22.128014630622072
70.0798662371291,17.97218447990575,20.655320646377856
65.60299850287407,22.585607456355227,15.961346664512734
50.701739182511204,24.662000131260374,8.660933952668449
26.43751282252556,25.121838225958285,0.2832324623671076
5.010647870168676,25.31193871968339,9.732220574963854
40.8156154076903,26.16040276295657,18.51219667155969
77.77746860483907,27.46624927929197,25.585455505695258
112.21068154037812,27.70669939880478,30.050137044340804
139.7298100838721,24.614724553282944,31.021526649434076
156.03371927293222,16.400755157795484,28.118179594384383
158.35332157093737,2.7369099691095236,22.149854628200014
145.94256585377025,15.15485980929104,14.841806351671563
120.09401356589723,34.86906170058433,8.200130851016315
83.92164917734647,53.404616592153666,3.810351399428155
41.37796425143472,67.92145335154797,1.9328048711677857
3.634569961163229,76.2344285443325,1.546939809458979
47.832558827270056,77.01353166323854,1.1204085062060603
88.73532421042252,69.79985444274362,0.8512452182055428
124.28827843399833,54.9603751198702,5.364047672068889
152.51994084393107,33.779070143454824,12.364816530415698
171.43103387582798,8.597151741467938,20.474373864018393
179.28904678568222,17.17337626835168,27.513768637710935
175.25406618501754,39.407652856749245,31.435033863505218
159.86960159192836,54.125000851897276,30.873617824440736
135.19150741906373,58.61734185271413,25.52457923449744
104.38689553094548,52.427989654518676,16.432089888462226
70.98913982872924,37.71675022116764,5.873761880986212
38.16017370132611,18.7670761752464,3.36126670575113
8.212491281494426,0.7416378946454864,8.99401917293216
17.475443614143757,11.862359886837702,9.695631216706381
38.2862408683285,16.434885091660153,5.032050893767434
54.11267396733662,12.714811863720431,4.28836795404682
65.1969330561618,2.4102233949015845,16.250546873637358
72.09773606157827,11.733049386682964,27.97897403119896
75.6724330259658,26.930962774528897,36.41961687268176
76.998738174877,41.018056930898915,38.97352544771177
77.19262469284166,52.59753056414598,33.910066312602545
77.18102974361068,60.804531522925345,20.63157937436112
77.52440895586174,64.94360868693282,0.147662438288369
78.33297074615668,64.27645895521691,24.655118306173257
79.29023871935378,58.0979983559839,49.57102374183891
79.73132984316662,46.02641074558163,70.16705580526327
78.74105607688618,28.33293763196059,82.8135548457574
75.2860054791509,6.133486970379498,85.48809074791401
68.40184545680799,18.651245796425368,78.4384243382753
57.446549302917866,43.58160943413596,64.33306118767969
42.36153920248364,66.14249477531683,47.24435287135941
23.835634597027056,84.16366698848586,30.971214516648327
3.291635021841279,96.10064560972472,17.791504704295996
17.325060964465166,101.11441223988767,7.7793997162881565
35.90382049559965,98.96395295029016,1.1246084594699597
50.57171892265709,89.83754589919185,11.95756141397593
60.041039476859254,74.24737149033591,27.134679807713574
63.8330020935403,53.05996245434082,47.097651277757805
62.349601599852946,27.642031797927984,69.7260995249929
56.790650433624386,0.003492640587298227,91.20437938618447
48.90861846929626,27.226821682735757,107.63391615252793
40.61864386165563,51.105248284005434,115.90863304516822
33.56056164911348,68.89075652321704,113.98637660139069
28.742303711473173,78.57618359333297,101.00752978075468
26.37953003317887,79.22504882303353,77.22595911718359
25.993882205354108,70.99459097387094,44.154248796578074
26.705565704898824,54.89357768585871,4.716889691571304
27.56039302515097,32.469956442392245,36.827744158517206
27.748853553275886,5.666950612860873,75.13741032301002
26.66530160341314,23.06183594203793,104.67475341768571
23.85686417499706,50.523834368359296,121.03576024079952
18.990048201469538,72.73076812394292,122.19470098071169
11.918190154493365,85.32121622299591,109.25275250000794
2.7978545406429025,84.55061308083722,86.01959658951233
7.850535387077144,68.5777282997706,57.67036659149566
19.22430068417374,38.531646718061936,29.296498122271913
30.43985216058164,1.1861645248961676,4.66549842403705
40.709677837552,43.64021028771432,14.48811696170546
49.36201389614942,80.99079311272936,28.083611161456666
55.66964210461975,106.46046166442663,36.62673028170186
58.6313324857504,115.9214536734652,40.71457586987681
56.9587528886607,108.60017732912796,41.166077909832225
49.41249698543885,86.77699127798029,39.05794771510208
35.39762896041273,54.77954875001621,35.580523339875086
15.521954708538416,17.801356722106473,31.809280702257155
8.221034059294471,19.00629472500803,28.462602100961693
32.82104128875758,51.02017974638175,25.628794255391263
55.04598097359191,74.3802405522112,22.72712056932005
72.27540644414653,86.23942968813049,18.9743514965743
82.978967502997,85.19772502820227,13.992588925235665
86.67798481847852,71.82617624673438,8.181242233075782
83.5459236781526,48.91264258905336,2.5409718102244625
74.00183249326034,21.08722575477245,1.8036978585376284
58.58018744131958,6.252562338447378,4.062340334031492
38.118503202570835,28.404515807668854,4.371819817131733
14.044033252781642,42.619496605905084,3.7761235359702465
11.544283342895998,48.63208044276159,3.4043716949308105
36.14429952625545,48.23862267248381,3.952074776486912
57.374185654641856,44.15013365462442,5.656090499356771
73.46226120595063,38.72237512100375,8.369180614931055
83.43590408673865,33.161042582361205,11.815133598852851
86.97836876375247,27.496323903857345,15.860101922111028
84.14957616150049,21.18854713027035,20.335670967984093
75.23176592369506,13.89289536711442,24.82025024277029
60.82754176964979,5.89555446726896,28.778383013409726
42.12325944466949,1.9973859158465594,31.555375362891727
21.06984359134284,8.978707140890428,32.39917237742827
0.24516806613846784,14.797688738187105,30.874854539907783
17.61881311863314,19.980673191037855,27.278374500997327
30.237408147506525,25.564732927505982,22.6036526551852
36.23896807084245,32.50431323439127,17.91699920522332
35.334776890237556,41.05968064727003,13.780030980735367
28.227166336647766,50.457152538304356,10.056917052511723
16.424710303340305,58.93699001328593,5.73128815497949
2.1030950327557703,64.12106102299886,0.8043679226337581
12.009226167950969,63.59557479141701,10.673551721782358
22.891356802209916,55.55429731342983,23.541995349381022
27.763421494949014,39.3464516465815,37.67667470579371
24.831530115624656,15.850418293979054,50.725908554412925
13.993725194169313,12.419001013893459,60.23280472805821
2.8628502039520267,41.5846885444895,64.11133259182208
22.22234831749768,67.0931084650574,61.290261650758744
39.87762169232406,84.65462220887204,51.864358508506356
52.08188238834486,91.15295908562291,36.92514778572843
56.46278467927464,85.25198029983834,18.383399135977324
52.39871279864891,67.53768901042389,1.3314967827078457
40.84106471838272,40.25544856029364,19.801511135937588
23.816565274069408,6.859010724027524,35.102526255048936
3.9265860608160197,28.43119643917375,45.59048122535226
15.998619387431114,60.994023968182425,49.59561037177626
33.14348312923728,86.2034981156006,45.86591902816368
44.9911444312085,100.00153532772538,34.26079432483303
49.74004347125697,99.67916340957444,16.078167053937626
46.77855538124546,84.68374439432914,5.966452977767616
37.004060753388366,57.074841517330505,27.918149899493894
22.743532816431433,21.308554678344237,45.34515109899614
7.200462294503432,16.685472911472864,54.529573989502
6.391958408394308,50.83767289881668,53.24048235760596
15.627325860618079,76.19083648245118,41.21263817656779
19.490793404188594,89.64483806963241,20.182484004502253
18.448977909440824,90.0375899084587,6.746586932618912
14.114301256210567,77.78213026039596,35.776783029822255
8.37052041855779,54.97623059758213,63.44981906205658
2.678267048517095,24.90992264403037,87.00809254935504
2.0505526294457495,8.82612026771038,104.08080466824573
5.431136999727371,42.43294505454498,112.69422675112754
7.424756148800729,72.09110965185646,111.33377578941736
8.158194193920169,94.3894575932098,99.77838273940463
7.8254352418515944,106.94056044267325,79.95998242708485
6.664301568797993,108.93454809192984,55.607407498159034
5.3089271903955,5.984342244262621,0.5514719589993107
6.804264680505224,8.726019197111421,0.8837102045685681
8.343331626187506,25.165321836160416,0.7801045049666905
9.97502447805632,40.75361148518221,0.3608676137405069
11.52247431828103,53.12777000916624,0.030124833995645642
12.50841701524053,60.53876856193707,0.07197408724140808
12.199112478295152,62.00841852155037,0.9150498976621976
9.736205532349706,57.1743232412909,2.395660436855665
4.347527695365947,46.14529923092214,4.187782601192444
4.4454628271621575,29.358620467983386,5.800732234802145
16.58469986663782,7.6252775745685595,6.663712295726706
31.18336917275947,17.394005930236354,6.39313711724141
46.360820881277284,42.62120796313374,5.044320757756961
59.55523914862685,64.42979709708136,2.9484702294960705
68.02281905339827,80.32824270036814,0.16828654017755862
69.10462274489058,89.0966168125738,3.55949347585885
60.79327392838827,90.51027126047029,8.35766261720322
42.513373047398936,85.26304146367261,14.026218009091197
15.506767299591953,74.1931404467644,19.96663839165856
17.170973035089645,57.88740420569318,25.04362575822337
51.169390288518386,36.676951688746705,27.83802046772488
81.73826308624727,10.904623684201045,27.17764195089651
104.60907815963775,18.30987218264417,22.53955911514741
116.68549217758024,48.59667310441937,14.237100813206691
116.35696976248677,76.26951829417045,3.3249893412544163
103.55884666687956,96.91095810912152,8.82488747497339
79.71381340656751,106.59230432656227,20.85328681862524
47.57866248059387,103.10525858426345,31.460034269710963
11.018595759299588,86.82889891884,39.61456863832601
25.4457129590951,60.74036228587058,44.76033579677802
57.356346827260246,29.598753131188992,46.69110817928844
81.1544327145224,1.31977537021321,45.41786515863108
94.85363057035633,27.511875524794206,41.08600806150845
98.27632576918533,46.035337637133125,33.942475624041656
92.76800408790807,55.68361461182787,24.408929157628833
80.48198178988099,56.7037429358681,13.110780563778397
63.58795778425728,50.37709309786008,1.0534174105265666
43.780731351980265,38.751694832866725,10.2458213111174
22.237492651811998,24.518396115778227,19.38198844128309
0.037229236104338086,10.863644079043935,25.882339649139084
21.766691437775407,1.0381845418310711,30.08214231494579
41.18653832531786,2.4537051326659456,32.5467771464069
56.221246206493134,1.1933805929460368,33.87355552910637
64.98647372283668,10.41759889284991,34.52915226002504
66.35039003998457,21.370337683085054,34.66396342389003
60.285738123867425,28.95612975559371,34.17488795238197
47.89624506543521,28.567644003588505,32.82772014055324
31.142054114559176,17.854601707885184,30.454331115758123
12.410365142362384,2.2318285551536334,27.09113815216153
5.864868274073494,27.588948801619686,22.95280843242742
21.44632858477325,52.281243098229496,18.471564662423198
32.45179408769445,70.49283038619458,14.028205438380684
37.49709127992727,78.27824203091191,9.481468107006972
35.883267500020395,74.43053020099967,4.296241433080988
27.82221384695988,60.272582659521035,2.054335758304436
14.575409414822808,38.68190138386631,9.799780300752948
1.621733465216104,12.961112915250679,18.481711764140787
17.88756908829371,13.880073243945917,27.003823871579375
31.236586553036187,39.22886700903614,34.15155234626244
39.184795287409486,60.6132020222621,38.76211487590884
40.21756041527863,75.56794667007922,39.70081605266407
34.01475852054716,81.95079572715333,36.05813847640744
21.402026511692856,78.67794856275118,27.61789690034976
4.085377467686121,66.47119537107585,15.40095471160961
15.695989262156935,48.03719510108546,1.5108973979985363
35.50562869308997,27.376407054927345,11.576545881995266
52.97570517988989,8.424953768369305,21.498908435940145
65.98680378282093,6.368096537093564,26.42950146604759
72.80692525981067,16.812459303631307,25.39404616370655
72.22774922319965,24.675251004928,18.2303095497403
63.72847764184583,32.44550934827649,5.526630389591807
47.66385921386489,41.807286114846846,11.288009368851982
25.395051477418853,52.60462703358243,30.061971171138076
0.7299549075227504,62.78160459019633,48.432769064175545
27.603907695830124,69.25410888937971,63.98561088950456
51.805145786890385,69.21167195568437,73.97461676161417
70.18398727160069,61.18608274164804,75.60453084537545
80.43396639176852,45.42559767070472,66.95353255528313
81.48481645441409,23.559062156631853,47.74407963264792
73.61357244231468,2.091002646041635,19.404145492159948
58.26382362532675,29.101922781101294,15.027720265954843
37.684821104497054,55.161195505651605,50.965485106648394
14.541103904745064,77.91734056612876,83.30087946734794
8.402762247050664,94.76772729902488,107.85877559878016
28.493551178055416,102.90238756252006,122.08752636395033
43.37120566133778,99.74928780553348,125.0249464840095
51.21163945670546,83.72200007490699,116.87363312484817
51.07326614121026,54.985504391923904,98.52996900394983
43.26711775581252,15.927774683452085,71.36716582604443
29.516602326760317,28.900899094831814,37.48925397398971
12.733857388040002,73.42102236167754,0.018413401740571732
3.5887696380109864,111.05180568081099,37.399094798946315
16.223912250787265,135.90776537325692,70.58800808147389
23.002499461566632,143.90361061902004,95.74922895464724
23.2608540752755,133.5037105404173,110.31836044661779
17.79039340333053,105.96719168340502,113.68014456693426
8.373696191120258,65.04854653990132,106.91797150264203
2.8236814383022444,16.25493910257926,92.17401929008784
13.745574218046547,34.11919539897558,72.32367446604731
22.689894679647942,79.94451797933183,50.42857701273632
28.34385478103915,116.01298526641764,28.577140828519546
29.76005076557719,138.54125642267795,7.546525917879874
26.412687680277703,145.48188900764487,12.305206192166475
18.37962656507469,136.70068941439837,30.296500125499165
6.543835031320665,113.99957647807787,45.42150806375538
7.3729387171706,80.9226822611534,56.66554508940737
21.07198171063014,42.26074830440098,63.389697644761085
32.20641289471296,3.228995982943611,65.6883777587906
38.981851200205185,31.495572105975356,64.17928947435284
40.593006789359464,58.58541458037159,59.48156430588917
37.33924841299811,76.47510584035213,52.235452980471784
30.399510512955796,85.24224986187433,43.2099839480491
21.383366893448326,86.0863331734463,33.1097464733305
11.861439548863741,80.70554070748742,22.511569877350098
3.0688520030043276,70.83697266759029,11.9614005843411
4.160728209670668,58.104943334149446,2.0348538163313328
9.299871364215264,44.08339914398422,6.702180360579062
11.998862886554184,30.35540913282899,13.72519239969289
12.04657333253464,18.420860720912813,18.63509851152953
9.451725310589493,9.414716181395963,21.267487838990995
4.595772616044469,3.78062385757362,21.564061729932146
1.6448698479232038,1.123906300076613,19.60095808730785
7.93041071627446,0.35172264360917416,15.88714876883444
12.69298006340387,0.027071380690639482,11.3856936279829
14.508498052020915,1.2317884503904315,7.329471582869574
12.47113262308699,4.448000281978682,4.985317568712463
6.447193674667247,10.159189991414454,5.2546781375405125
2.8811500032482775,18.41293920313929,8.361560614435884
14.187759907935662,28.7744126683793,13.96793722292713
25.799348193754405,40.314259398909726,21.511241682867432
36.01827306967852,51.60955490156425,30.314875113521847
43.381036834892804,60.86655842409052,39.49827690935716
46.814510126915536,66.2361729999297,47.8182293945915
45.726969089191456,66.24688294867768,53.66120086271577
40.06814960875544,60.20359217610661,55.339997955768794
30.377402363607978,48.39443544522925,51.54959897656595
17.79924696702759,32.03955151849508,42.12140200645694
4.013242592677175,13.043179248747997,28.540187678642305
8.959633151046138,6.325473320123379,13.46078175141471
19.088554881062482,23.704205554034786,0.37542133476379674
24.741866747709317,36.84543977633808,11.199225571296376
25.0602293434801,43.82150302867897,18.718515590093066
20.30499724049952,43.91752092659058,22.97891986700251
11.664833306354705,37.67640347042902,24.021907689508023
0.7309681043358467,26.155645228983833,22.603177865619852
10.796216709908597,10.918697120187167,19.76437312824231
21.363556895767335,6.03499565480009,16.390533676193712
29.73962938762556,22.48464576177432,13.179467691999688
35.11659449968224,36.32029862076779,10.718923329810885
37.153089474970756,45.902571274656076,9.47121692378354
9.399228243405805,6.906880436179068,28.20518916767904
3.451693263250534,11.490394825809116,17.802626351741807
6.427970496370591,34.241735591666234,1.6640983224499877
19.85414866277764,57.716666582194975,18.72123578745778
35.32665703579846,77.51154097878947,40.877404092151096
50.30188996272368,89.50404219030364,61.781169860529516
61.642121455666796,90.89068584998776,78.54969438010517
66.29287841773699,80.71192116871697,88.86544214535319
62.028804296497526,59.85189036953125,91.1249582225603
47.96862861302174,30.44457216635658,84.64463511469773
24.769941593016927,4.872554705365471,69.69972027624387
5.374824587984403,43.182120990821446,47.59832751993766
38.90045398340303,80.95014125927163,21.10537548011287
71.578704158169,114.44388596964524,5.985838425207593
99.3946487238197,140.6398873170834,30.518206738908667
118.78774644843735,156.96838938404014,50.83547446918186
126.95935985585619,161.2569345822561,66.21309010463216
122.47621989300583,152.4071338873369,76.23985811042209
105.58642801165404,130.58166118867734,80.81512137888313
78.38299647627548,97.32908832029833,80.51752201956343
44.533992784195114,55.347066335862216,76.5567936094422
8.49867275097436,7.898766706219218,70.22517860835816
25.37287688545524,41.44223535063329,62.537461089345264
53.693536818881384,88.93729880113995,54.00870622641129
74.48236036119516,130.5639444420023,44.67435488468823
87.14921316002265,161.9934064292484,34.524241578639305
92.18518840367983,179.10890212763593,23.715781244978487
90.70440251054742,178.92691807078904,12.57716730935007
84.10728161096925,160.74647457655604,1.7318011163890639
73.90728626431604,126.88489366810597,8.081445018727168
61.672030661941314,82.56195053252102,16.29125369964309
48.966003541308524,34.87997009166898,22.50101627662783
37.20180155578529,8.828019468684065,26.596553362275618
27.451431747319027,42.60214732734574,28.843371102736697
20.279391072062783,62.89974781212563,29.702357296589255
15.69379739061263,68.8597017475331,29.654254783258892
13.22680837897074,61.933062607345825,29.221598444291324
12.075202171516262,45.24072189814053,28.998065942441308
11.256729536290946,22.924819055945143,29.42014116137793
9.73650453961015,0.4060886229716491,30.440822001487145
6.5428733648582655,20.239190470819732,31.635602478355317
0.9094645933478656,32.80534157118422,32.562098386251876
7.574065723788553,35.742850624250586,32.761141745937714
18.8279216631478,28.57677075539516,31.840013431299983
32.213271765186335,12.76646054016818,29.931343309172608
46.581879103113394,8.757908728069106,27.734446169535115
60.44062186353375,32.40091086460198,26.05233537860545
72.17448736070745,54.70723085246632,25.409450164714958
80.26792214508897,72.86731295957635,25.901235277856877
83.5021378219155,84.8477203425362,27.261343949912927
81.12026761277913,89.29947189983314,28.964861161271834
72.95260936513729,85.5149120548528,30.152604232255314
59.49597333056375,73.59987953414502,29.643206176345693
41.91875282814552,54.77662178508727,26.297795374689432
21.95879221402625,31.538321090783967,19.42555064569542
1.700440005538694,7.381001277749243,8.87114994894849
16.741652795929333,13.931794254581803,5.020687485565311
31.53958213079798,29.318766453773947,21.153200533063544
41.37902210691908,37.12980203531838,37.44062936774018
45.57717726389597,37.36684526383997,51.44331628380068
44.11872797677102,31.353085722241943,61.449218110958974
37.657203695132615,21.115165161845873,66.77375981550301
27.50961183365083,8.854260299664924,67.68479280464618
15.599541859860174,3.2398400880007454,65.52727737849408
4.279604424377109,12.913962521324631,62.157533668780246
3.9990356951074766,17.84462073264173,58.72781787465057
7.154916833346948,15.975233402456368,55.303796244836064
3.985861170036576,6.221804630271456,51.559992981481244
5.473597438199236,10.762096840666644,47.26244033910155
19.893329513366325,32.26377768780559,42.13457118871606
36.87757671843659,53.98935783114992,35.60176172220364
53.41365208551408,71.28310625259356,26.503562725441586
66.42462523903714,80.59254252699198,13.37836014418353
73.26646058392504,80.51809955731072,4.389935639753506
72.07989979586613,71.99677109877935,25.768221091282452
61.995482219145444,57.60903950454207,48.04202179869213
43.23983451095644,40.44398335094647,67.3184492800198
17.186768476581815,23.11390571939183,79.80484617868926
13.678929292550116,7.294333566709193,82.99290678486324
45.96056091875436,6.205453609801621,76.07452719722082
75.76570652066846,17.144793463937877,60.23771523925119
99.31697999644709,25.671131823137696,38.770439850511224
113.62384110838583,32.37397071221739,16.366254564329903
117.02308261448199,38.40043824811422,2.4506424387865766
109.41351459613433,45.3132387392956,14.819561044491282
92.11432940287791,54.538762385093285,19.70399153295836
67.42004718535418,66.57944623720796,17.169715265815178
38.050662684041185,80.39435126255079,7.988637331249481
6.71899538145485,93.365357762799,6.291390983662092
24.095143078843336,101.98403376200338,23.269864160805948
52.178201086250844,102.98882515999878,39.6977800641565
75.51819996145714,94.44509251110159,51.81899497114595
92.32143606260756,76.31760472986772,56.41419889664425
101.19250193028492,50.37060088194368,51.85212068176039
101.40602310899862,19.558432749457157,38.55404011718149
93.15059958703995,12.740737550328534,18.71345240317199
77.62111610988495,43.341534607148624,4.706151410377712
56.88892195676042,69.62349391828585,28.56472777483155
33.59622455076118,89.7384253276884,49.703944960820245
10.596385338304938,102.75272827584938,65.68239401546522
9.369579127579645,108.73121379782872,75.43368763718775
23.953659317589253,108.66615408803881,79.13330079965205
31.485113303705656,104.16794059306145,77.54281732659548
31.282187265931682,96.96582616431293,71.41257612380905
23.92822482965389,88.40848121105152,61.477689184839335
11.377836381945489,79.19730152261732,48.644479896924096
3.244682103004598,69.45893272968331,33.97261138630972
16.20446544007508,59.05308824052704,18.63734666816195
23.965349238292163,47.8742722812357,3.8931083581128973
24.01698029416092,35.93456026758041,9.047454087918007
15.447065849919595,23.217815929394654,19.329647445068964
0.9258472319052437,9.505523342042089,26.729140288429093
22.849341043943003,5.595332317807046,31.488129241497106
47.187889094227295,22.33111852172929,33.97604644024972
70.50924891872842,40.33466435419817,34.59941537865153
89.57136555437276,58.342938661813584,33.80447439092627
101.68156189103381,74.35255998940168,32.03396210794259
104.97516163662604,86.21048569128469,29.888470058790602
98.66953247350327,92.37408204380651,28.258120429114157
83.26120011874903,92.43993374024284,28.120620096338957
60.54448440985838,87.19000947114019,30.312205202038022
33.343797474200585,78.20278034479644,35.155631742820546
4.975459390601974,67.30223374906035,41.88581718479174
21.40429555147279,56.167566047335114,48.65171095340292
43.336855691454446,46.23806127971084,53.10270627856251
59.31441280317065,38.780529897382195,52.76701921936628
68.73869889195458,34.85845347100165,45.29343671103266
71.70294449231206,35.03372505339372,29.155030723574885
68.78313161928511,38.88867402625043,4.667230424444548
60.97868382320686,44.677444585226574,25.72543937750853
49.75960532473507,49.448266358598005,58.223932489065106
37.05613650469678,49.758647627685036,88.33157669684601
25.0592129874145,42.75411921348127,111.10401516875939
15.808642375169821,27.161661084925168,122.05029352295612
10.698188859257238,3.742517120800341,118.42420052185578
10.140582222117112,24.990836289304255,99.85761885117951
13.577094589458632,55.59312093626097,68.3676701437121
19.814687035879956,84.63175894370104,28.005008402266593
27.490318452336695,109.3470980249182,15.727671063964868
35.3956719939373,127.83111467966651,56.641653130314474
42.509747711363104,138.8428343830574,89.012031956297
47.810117101553814,141.5312705370445,108.77705994863813
50.560623774056516,135.87058873828124,114.30556574355393
50.60403464697433,122.95815147540024,106.30898145722486
48.2035996000949,104.69706211690176,87.41717676906853
43.948783646333794,83.57311172378917,61.89866676838326
38.61934254268805,62.22419606079199,34.77901166702857
33.003184346790675,42.911967552801556,10.415239125927869
27.693526622176844,27.091248290421273,8.399810178219107
22.950004141855153,15.246387433230762,20.35484784351092
19.079384276807108,11.531778602572013,15.60883497376978
20.963851586789648,8.829545140090069,15.710195964929722
19.67345224636236,2.3708587600752864,11.471684423952345
14.65941969557433,7.3132906848579795,2.050861795445453
5.817146731898569,18.692395135560954,12.031040737439913
6.406646318472093,29.539432217139698,28.58790079264798
20.918437347163366,37.463445351336624,44.37932571492733
36.02278080882452,40.50516565210762,56.14360855112585
49.55521132963191,37.54330237071732,61.37345397214968
59.202538285065074,28.45817767920556,58.650982205616664
62.89591846737064,14.02271050342439,47.71452388000943
59.10460483100842,4.388926768407214,29.36011436296178
47.150870129360875,24.98884260624619,5.307608576482519
27.925937777500426,45.35762552811493,21.896031293367724
4.208177632461407,62.37388759799518,48.999610969547504
20.24210580664449,72.88474651340486,72.38300319612289
41.57498372863806,74.44204950173261,88.6909935775691
56.4020066757362,65.88200414692881,95.57699070467032
62.52521566324288,47.88527484668316,92.31707415700905
59.32769693537825,23.014795703129014,79.88116200865876
47.94922473541606,4.774872893013073,60.49405512517257
31.201471604980867,31.021655225945562,37.231671539286076
12.951870897800848,51.82106893918694,13.464681791380581
2.715969557158727,64.57993136535768,8.090238605126466
12.49925167636384,68.31905631806553,26.01071953602227
14.65424966563258,63.486958850066074,40.01191688567691
9.255419511643328,51.50334428405588,50.35357043776963
1.999731747113854,34.380366291154175,57.31340140260053
16.388026107052212,14.516165509369195,60.97976390541012
30.840473118128983,5.354502643380734,61.37813466291093
42.49576757100566,22.29299459658342,58.70474306198783
49.06959423670438,33.58066942279375,53.386055403558004
49.04536474150964,37.36734156866656,45.94505743781196
41.816477891857865,33.27415305084976,36.88375795716112
27.813486294629104,22.574877319123125,26.743623387720444
8.568922269726434,7.7738243770054964,16.12300762402823
13.401189736996852,8.267908878881373,5.500541843981775
34.989417952643144,23.234609115431777,4.735574940107459
53.105125638898805,35.818548376750236,14.07641360419692
65.35700118034529,45.5159665566132,21.929103932610115
70.57450212319078,51.953727039570744,27.812387629355026
68.95351751288652,54.295477282120494,31.451646148539556
61.79429707534987,51.18544127818174,32.732400085115685
50.95596947998986,41.32658641266225,31.600463307226686
38.261248559053904,24.390277299652325,28.14307194849363
25.100133493151038,1.653220323947019,22.73018628825933
12.352406980197363,24.10136557572927,15.780834066116745
0.5859643272954562,49.406881868255596,7.652875342603151
9.647305034237027,71.21272748445374,0.9460071895930319
17.637957244792826,87.63044618592048,8.952847301436913
22.594773796529072,97.92698388905173,15.4427973516429
23.950635586103655,101.88695676956658,19.61848156347996
21.742470170994856,99.0961922366198,20.51752931835748
16.8306024350565,88.74940313046864,17.38592506364605
10.772073357480911,70.21087065802185,10.359812697771604
5.358098302761459,43.99289531144056,0.6525376974299381
2.018342929942341,12.478654228335918,9.634515706430541
1.3524894296143712,20.19355255712058,17.981293586642764
3.015719508623662,49.20469094327021,22.183331752734315
6.00908661999321,70.58663200999105,21.11900602707644
9.195170600777079,82.37780095221571,15.332842101219233
11.78376742010984,84.82913415520412,6.850495556340698
13.559632989717171,79.672528890417,1.7208607247610523
14.769057842782388,68.9771744531239,8.08445660516364
15.78861656449054,54.34543383150036,10.706766307626577
16.787492182478815,36.90214922680084,8.64742455274234
17.57044884712609,17.910307063669112,1.566776682933605
17.652442233682113,0.5795792213749649,9.780313285371063
16.471549288296533,15.670364666987131,23.607145740889713
13.606438077710274,24.381840987784848,37.59144996470647
8.897665809778356,24.891448820769277,48.99680645075891
2.4598984699039517,17.53670490813977,54.661354258228215
5.343868619987668,4.953854228332317,51.73816063271059
13.887819906073018,8.752778739345775,39.1270723265139
22.24080477193317,19.39840111942511,18.179384625825488
29.182901365994177,24.018991522571994,7.712404244248354
33.35487164796845,21.552311227637716,33.95194623771639
33.553701997664476,12.77993637764833,55.78678667697414
29.084520224776007,0.19460092062271553,69.48582415943685
20.027892353115863,14.53594760850212,73.24369590120622
7.317756861722619,27.129218717621676,67.19470759110112
7.40255398750261,34.971214065143826,52.972127149891804
22.079896012188478,35.66604414279207,33.469659070647346
34.59926684679155,28.080846241997538,12.423697130900665
43.10054759898422,12.949740361188868,6.090101863214907
46.22877965784437,6.963982308508281,18.20849420576914
43.32485524432025,27.410325798641242,21.225628866229954
34.546767217544826,43.83684780342689,14.588425079897146
20.886531924917662,52.753955362506616,0.29786070955018845
4.056992308658601,52.667251216923454,17.817529604505683
13.766361972907434,44.181995201267355,35.28405651998052
30.30057349708791,29.318610569058187,47.825853346329616
43.502083708777306,10.525360723365994,52.41263583545626
51.8312148598718,10.047265903018797,48.03323373509184
54.39479514090597,30.697988309634823,35.41074125598575
50.9698778635269,49.81607213256473,16.395020787812683
41.968634108372314,65.46600977905877,6.531919538734997
28.37400812079901,75.38211605098655,30.61181355383422
11.630258605690635,77.50880756809086,52.84110277388636
6.522814782206942,70.84426177662914,70.0722999280983
24.256546889194976,56.09916807031104,79.6980112135087
39.83628605432755,35.768932503045875,80.44999020134411
51.731886558329954,13.527637344650364,72.54764281589875
58.660795961676776,6.784786023732008,57.52154675109833
59.609333817400106,22.11439221443815,38.069328839894226
53.93281816040632,30.74132618201262,17.526017118913053
41.58831777200214,32.34482577723994,1.108053450877916
23.420101546321796,27.76988981455351,15.946546581743807
1.3293116929025928,18.75520463631408,26.177439756578345
21.85728650704988,7.721319202453039,31.58958868459998
42.8903243160381,2.4496659210426843,32.35316578637306
58.819718174959036,8.80975657282605,28.86247743421846
67.64039685645358,9.00352911811199,21.62129154184571
68.61093560743844,2.028212428040771,11.329641347266268
62.155212641420526,11.215376600693437,0.9995426258290447
49.472269843509515,27.904928794327212,13.807133077440549
32.13793230998276,43.98098827333046,24.939192381627663
11.925782409723487,55.331415054906266,32.16267547103878
9.132892063453841,59.0076626015584,33.77466154772239
28.650960057339017,54.02588433479982,28.98076036797535
44.03723941470152,41.50509737717787,18.153095301953716
53.00440390162933,24.16439579776101,2.8990099712029083
54.272969847844564,5.443392850271471,14.166220486517908
48.13428697054935,11.393950166520982,30.06074447238057
36.50911388903928,23.93034893953038,42.33709214726438
22.392688957851117,30.967484748314106,49.48451960938755
8.909110828589391,32.628497385248885,50.704873471122596
1.612538644459357,30.22536083940001,45.71373398256535
8.124272815796017,25.862505568274823,34.754893907063526
10.758712980357032,21.794986462536695,18.914499281042847
10.325852477354868,19.66009783693638,0.48350594313244377
7.766739233661884,19.797745820882707,17.26288465783714
3.891550168880496,20.983206739024084,30.734510953928922
0.5306224469501751,20.799154817536646,36.851726572260915
4.52454305269682,16.582437761647334,33.937687125766494
6.789606600472215,6.616169424221275,22.262968426455572
5.9201503844930565,8.939595280385392,3.9414678724814336
0.9305685307622726,27.82147485815434,17.59065075133274
8.187610325254107,46.2479614361576,38.330102597203584
20.193427864959215,60.062696676559845,54.67351034616464
32.78782614622114,65.9450885719792,64.04468092906771
43.20923942022427,62.224885673015194,64.96219670817158
49.6028085049946,49.43407478903041,57.4530645544703
51.50581811917525,29.84535717919154,42.863743941126586
49.22048474600293,6.401525031114945,23.233101370799602
43.516285064891704,17.842094159895403,1.254406134475205
35.314237032817054,40.0848318046818,19.976943690223838
25.513962534116054,57.98639959105117,37.40503414144937
14.991098089313772,69.81320133072448,48.72281898587871
4.682734410413888,74.6076125291297,53.029849956440685
7.335706048605026,3.484600314315908,2.243763047430697
3.7330197456308674,8.624339616232174,2.378102288108997
1.5566231332041085,12.951712851314571,2.4552004890935524
8.001249123388218,15.133235362027094,2.3776703048234937
14.801641867421692,14.32825225173379,1.9975797810221196
21.018864613423993,10.477022932545992,1.1427354444714342
25.743833724572227,4.340878249963823,0.3076484262885232
28.244814333934894,2.7453930351212588,2.3478556724611517
28.075089611063916,9.261450165190853,4.804375243809239
25.087609249392052,13.937385376933232,7.410451783541578
19.392079373754573,16.08389221273701,9.945355386553697
11.370765446695621,15.619689171768309,12.2686191184023
1.778749599543462,12.800851822250621,14.269997425001122
8.36138360434778,8.08962484616872,15.701723450321415
18.058943071696067,2.142036757169734,16.157950856527467
26.419562583625222,4.504866837943434,15.285311983680009
32.6481304973967,11.548970574123816,12.874370766534097
36.17091631675428,18.642724369423217,8.973524142727419
36.689806285662684,25.150307727034416,3.8682271179768817
34.249969912029265,29.953556334442982,2.174952050067748
29.247763524574285,31.54923354831769,8.87522300937238
22.308743911119073,28.52358062081389,15.737543442513132
14.15143407932161,20.130104323157852,21.93648483526946
5.457760504247496,6.778934316485204,26.454133227252402
3.1489744863745153,9.927896456229695,28.46039487204701
11.030021305057751,27.667305350615884,27.51753997431188
17.456123416415213,44.09833222984372,23.819368953434605
21.599739394003063,57.47099506288067,18.365995451005453
22.67978627332701,66.79419464405498,12.600992021043973
20.20255142367698,71.55141670909371,7.788117198389044
14.210187980242402,71.25697122848274,4.547225324921036
5.443693119966228,65.2715865956358,2.8408466223603077
4.689075907987287,53.12851971411756,2.373709819194647
14.353138981249646,35.19119008075388,2.938973531213746
21.65593648083087,13.184503625826094,4.334426578851366
25.016752657159145,9.880588015498315,6.116463222298265
23.44630086013344,30.55188926358743,7.65748770630123
16.70047345623635,46.18817620959336,8.124984827264738
5.30297742422408,55.941476102901895,6.278553629214775
9.514512995412934,60.89964312847087,0.841335710731345
25.914787095860422,63.28218642916053,8.57852657526951
