1.6713164335030413,9.28691977745362,3.2833725624236814
2.0158378209236076,2.02719290716626,4.121348408253488
7.145109498736959,8.467994418330818,4.9475261711023295
12.49448900778124,20.44360953180235,5.466959982946307
16.80453007986106,31.782830499642913,5.3476144004181005
19.03816020444178,40.66766603151273,4.3864445028504155
18.441863530845904,45.96581031538801,2.5531662328759737
14.574385084725042,47.169137410872764,0.0610128285611199
7.300019099443639,44.02228725262119,3.2742085988339507
3.050357404813187,36.15712314909753,6.839639623652171
15.516401631058754,23.03070369346864,10.440553870469785
28.631928496727745,4.308549412003121,13.629149706245894
40.70165010826645,19.440030882925427,15.921701147156384
49.57516073515591,46.20256049424013,16.94403373264153
52.863783661555836,72.59930609329302,16.482579679905587
49.51298741844504,94.59533778973608,14.549567770256987
40.54213328654084,108.53497311830698,11.356601907687514
28.388094901279704,111.9928342057263,7.25046788210712
16.012173662030452,104.03894513882459,2.757507390539821
5.666318542969037,85.0000591988235,1.4168205911794551
1.8220780191951138,56.10242650277057,4.552486148610176
6.962390536993583,19.394620077998443,6.225271912337479
11.239302918408006,21.953474167719428,6.556185886448153
16.473492206101554,63.313168030527414,6.128836285600154
24.392811566348282,98.72891451528226,5.695550541502135
36.35958282865445,121.90920710983887,5.961980623501686
53.00195380492984,127.96686886781313,7.414321833327476
73.75794819116959,115.22782320807086,10.155004591056333
96.29960019662977,86.22638405635567,13.892486744393521
116.30881121109434,47.30337573599604,18.004657091176398
127.98614597162836,6.896166384940639,21.652291010866342
125.38428900832479,26.81196085768393,24.018746595930093
104.28564878851786,47.94241310386835,24.52229530593673
63.9085426763643,53.92752986909298,22.89881179491361
7.773701826642023,45.35737316087655,19.148722799106444
56.71102334893572,25.105615943362253,13.506806317435881
119.82669143970189,2.591331391105437,6.495137938247081
171.69616529478492,32.67805428033841,1.147666771336613
204.33349160316448,59.56498140361324,8.564932896397304
213.00457915180033,77.572362519857,14.872073445791985
196.7397176613763,81.90500499379908,19.390221095851718
158.15517898683868,70.07759132597978,21.865288950335245
102.8165255040727,43.16671958816381,22.47724846858869
38.35561793029452,6.122404121905312,21.7034013467653
26.607636688317083,33.33226604406283,20.159017468214742
83.72750462994287,66.98382860790042,18.39654833064908
126.25161121788096,88.67492817382089,16.741670651736882
150.1353189253733,96.00321002228057,15.2110875140465
154.6013121261954,90.4727453516222,13.523140275561813
141.92792490019585,76.19898284249165,11.35408053423109
116.55173599677478,57.93425233273151,8.56101535849861
83.81173683778283,39.42825113322017,5.192686036038727
48.75199501293897,22.842599719377116,1.5554006380573882
15.339157717681678,9.20740743475615,1.866052250375243
13.773088482865765,0.7320736161346466,4.701624154452945
37.07169259744267,6.0661401205467484,6.790808714796814
53.83754771173079,6.033372620566756,8.104363387999996
63.81513350073967,0.8273882428490273,8.67733572968788
67.01630048229006,7.763670721692288,8.566453563807205
63.66805045065782,16.50700300584106,7.89836243646328
54.26363820614151,21.80013414988516,6.908933542861702
39.669133808882556,21.155450125044432,5.887907390098013
21.215270148296323,14.27296857175065,5.1198113194515384
0.723629471303233,3.08834424153748,4.8305305529068425
19.580732572883225,9.263418985083014,5.169269286488034
37.30503494980279,19.996339355834458,6.196490022981563
50.22620418185402,27.872342827638903,7.77659870545997
56.634200184069485,33.42881746075713,9.54497446175574
55.571263637911336,38.17841317887723,11.062425956743654
46.91732190971239,43.3036280233567,11.959661284587972
31.391466946032036,48.63368986894454,11.97229936904682
10.548386934317012,52.495797031070836,11.001965772786665
13.226578629815423,52.506141636246724,9.188773763878727
36.812672364042754,46.82107209295298,6.781925920092964
56.69870090095021,35.163616888503626,3.991068819595167
69.64931083631677,19.132266942598502,1.0164080726091902
73.55219424198465,1.6992033302557115,1.9642735647171399
68.12473872057541,13.764341216881816,4.794414594550636
55.10106619998868,24.423876254497372,7.2483770154246345
37.70586918937223,28.516701859057974,9.093672464607849
19.614702339528932,25.408813335646716,10.275885623441733
3.890386032172544,15.394383045291878,10.94589982312589
7.635413402125288,0.46852197819025254,11.32181918282538
14.32216154113994,20.3441153294241,11.631158654248274
16.21360121524777,41.483725034088245,12.037490482606454
13.556166055976858,60.23663545636929,12.515138209611171
6.7216173634108,72.47561680303846,12.935210882194266
3.4493575506965755,74.48107150397388,13.146051577708386
15.228757453043928,64.07621493940685,12.941996503733035
26.006981364906903,41.58629832633605,12.123965499210424
32.951159673195534,10.147807982020844,10.539419979037499
34.051159437599644,24.89048988398844,8.11019949855829
28.92755577249651,57.3532343540688,4.857503352105816
18.81558894333368,81.94099051270452,0.876801900997115
5.641485670142167,95.63023437509241,3.6020458055100755
9.267881764177877,98.26066019794004,8.170171576045577
26.011225695012754,92.1441683456502,12.324414322258216
45.89024339834555,80.96028656163942,15.556874021056103
70.18934223594188,68.47898591570203,17.427614292289952
98.66643658003264,57.61810793835039,17.719678236005134
128.69888347841103,50.06443477375838,16.53662398074506
155.6373284114052,46.36218240952248,14.192368392320112
174.18890139551954,46.166420689332355,11.089007934109334
180.0479278037271,48.37328976664507,7.619303315631211
170.9117620716307,51.078726351492676,4.094804166652909
146.53632982926518,51.60133349637398,0.7879633425326097
108.15618823811101,46.87152991936986,2.091393461803613
57.9370444391357,34.281920982452995,4.443127542857812
1.0584880219883848,12.760642787214541,6.252559386646841
64.48564105039391,16.43258753245486,7.569727788529878
126.50258699910147,49.67595681071907,8.421254363183742
180.35469154331912,81.873280986179,8.80423922160366
219.88094384609255,107.93139159021736,8.783813100222675
241.32881937226563,124.16934422907455,8.431966506662173
244.4684924509755,129.07336912198926,7.686167927141163
232.2836305935496,123.18882075482054,6.354583757076994
209.32552851468841,108.39166722916458,4.305854774029385
179.62356503967982,87.10160772169574,1.5502838521837008
145.3239110231373,61.88351940140727,1.8655367583254086
106.75808391565668,35.47823272037359,5.837413689017723
63.734502134313374,10.97521739231183,10.127023081670368
17.094130264110877,8.29650941191538,14.345055482245824
30.55408474883609,19.379272773082228,17.982688029206244
75.39158980079912,20.606471274539224,20.5176465340744
113.8230008937495,12.356890893877884,21.489881757936004
143.79523699717217,2.8274437986674,20.578075136416864
165.13003650941565,20.896229978086506,17.689740188081476
178.71958323325114,37.405222782273334,13.018460109173029
185.2175382220936,48.573498215457846,6.978910623486161
184.1769478589178,51.88676533673798,0.021925302527635145
174.27189822231838,46.15644399054031,7.403373272309201
154.4860026740521,31.284461235053747,14.802909066300597
125.45327131890785,8.098504787329949,21.622116961140048
90.00233309830769,21.598180800484634,27.263608989549365
52.46694255317503,54.90981856232897,31.219416348955747
17.094272473852186,87.95319774289062,33.08680019233817
13.548338195019648,116.41209149618905,32.581262094316536
39.234309010516455,136.47165054110985,29.75284147526036
61.463069994400584,145.75383670993293,25.040213089196435
82.0048159740991,143.82376673995157,19.104311136543505
101.47957603373311,132.0361368153444,12.565573718360554
118.77783931351682,112.8453587062933,5.831332434198832
131.81845965132894,89.35288575672908,0.6789377736224717
138.76578801055635,64.78136531169739,6.5100314313796
138.8056473735652,41.79056741230339,11.357214243780069
132.43288247034496,22.279198984253814,15.005073862871054
121.12779979947975,7.380355989461214,17.29077816248346
106.69864625860741,2.501338942232998,18.15794012028176
90.69552854331104,7.660649379389582,17.71765779372028
74.17977717503278,9.02716354141193,16.223939022615895
23.404681788686723,6.414290035831366,1.8086153222741472
19.507187308489524,3.9793497214105864,2.0372624919330433
9.687611527079584,0.7390079138782829,2.2484516346067562
5.044300736408224,7.8532375252473905,2.3824282762558924
22.08520173061757,17.045974035570712,2.302837842177644
37.950725508527555,27.53090271497649,1.894268088027033
49.30614720766986,38.04398015665999,1.1836762976706467
53.88978821166279,46.864134870739775,0.3594840743087954
51.01632350794299,51.981388190580354,0.4055976419051979
41.57892738589003,51.39556237824699,1.0587886264993756
27.68052258577975,43.56417419587242,1.61617541942866
12.124794865716215,27.929723799724602,2.1521266942718693
2.0205688736861624,5.2761407196548955,2.7858451101508894
11.831785120436624,22.462729209881864,3.56983231966106
14.999328961998186,52.657460680459025,4.484192092939828
10.341728471025013,82.1810950853748,5.570273239253316
1.5957313817567695,107.7887426724418,6.846820433499805
18.15032648195887,126.62396268983866,8.173490795808
34.82848323523962,136.38600826614515,9.350258065343633
46.31543584355029,135.42368054894217,10.158058090685556
47.9162707355613,122.79388698046712,10.356179244319971
36.87667275514752,98.35912479003306,9.752289949495237
13.05316221805216,63.04023081813856,8.207449549269969
21.243701131725906,18.992822568467417,5.687371708242769
62.05284123052861,30.366876966015123,2.3607527828740276
104.7435819827481,80.61942129887501,1.3632339460857794
144.7487039260867,126.88054672299043,4.9122675110657505
177.90140083062514,164.43755734899767,7.873533760183632
200.53624250461624,189.3757485173438,10.230483839361655
209.66151729017034,199.03976573473048,12.20505582189875
203.305613218907,192.33256094272198,14.085894394621906
180.8882193636465,169.89090820318438,16.06913970380261
143.35965511923564,134.095027396196,17.97849883917439
92.91368771448688,88.87432258614123,19.287398025632466
32.38724126852649,39.22222036935561,19.415221750506678
35.24127043609611,9.565851788865107,17.968871000351847
106.88710962950455,52.76688878986124,14.941425466395506
178.87770195266805,86.97314647725071,10.682396522388677
246.28816383734858,110.47713425124891,5.588488466408805
302.7174546231357,123.20804345111239,0.03529887240595385
341.0057247033244,126.30898020361288,5.860405627345112
354.8502778347513,121.59428611872131,11.46640184598378
340.75106574987836,111.09613310285094,16.304181383100403
299.4662604349293,96.7847988812096,19.732691804564077
236.2918157029782,80.41662069910726,21.187873863896677
159.98292976089567,63.40981101206787,20.308707713892346
80.72947758829967,46.72717256006338,17.12128642587492
7.91234039786499,30.80938717188716,12.184051344547973
51.69631723844042,15.648356447511839,6.458479228501786
94.90296924735986,1.048171540331234,1.110763948354127
122.20819865288054,13.02406171034825,2.7805642609137853
137.24216954939433,26.19570430169332,4.58855452230173
145.6810637948981,37.72804042431493,4.266869781399301
153.817438372857,46.847484104440454,2.3000673435977754
166.98484775136245,53.19648396615203,0.48198564256464876
188.10525917325094,57.118322064850574,3.2120380062809195
216.74873152861457,59.552962168763734,5.176927287422473
249.00031360180267,61.550180955983045,5.826773966262114
278.16764657924693,63.608552999600775,4.804355491877446
296.1284712571254,65.17452204273262,2.026715729863071
294.92883645442214,64.57174376633822,2.29898832468496
268.3161021831237,59.39980614327449,7.581722336165062
213.1168561477962,47.263389759333464,12.911111452916385
130.38259600911783,26.579353469221427,17.392525717459563
26.11845188689071,2.7873452066932694,20.241727456843407
88.71876766353785,39.175201391636264,20.80635193914493
199.3929207225927,79.10574905468997,18.75434231818705
289.9696005686323,117.6068328809985,14.215276272741237
346.8546325931777,148.85889204203286,7.768089533773196
362.18309684777415,167.13179879937755,0.2704427507718428
335.80762036339036,167.9129029697817,7.2854981209898115
275.0178068677975,148.97000871013321,13.949504170484587
192.06961431792132,111.02026123898986,18.996404068837307
100.63889211056308,57.769859591762426,21.966296007805592
12.692611026246599,4.734719779861376,22.735983458105657
63.134308152307256,69.25107516291683,21.491353177168897
121.50451282099006,128.60533799774356,18.57685203549752
159.43792822092902,176.72186213670935,14.440960613184707
175.5405124262199,209.19515443177517,9.61063049480985
170.03696883845154,223.43195858763858,4.662702377057782
145.32605638790022,218.57016335752107,0.09963449765047938
106.20492600923225,195.34847820475716,3.7278856775834943
59.08840765120877,156.02187578049453,6.48592637278888
10.258015183048363,104.28126776839194,7.91953182982485
35.985088657291215,45.047831296632395,8.081770079247717
78.09399843354454,15.932648472760787,7.305479795457076
116.37513811742728,72.68670180928683,6.02118808206115
150.87690378522254,119.70903672916886,4.701527830036259
179.40281169731261,152.62258658697132,3.8082835409291564
197.02423358791762,168.68331217540756,3.6550704664174023
197.60062522092127,167.0843736152868,4.422058268374495
176.58684001580804,149.05316518630354,6.0873122877322325
133.59220012799025,117.70415678880013,8.270183818619573
73.23908421720174,77.65841771294737,10.384518572798196
3.876607295922364,34.47761057642297,11.848332016387541
65.0620422881989,6.039635338570721,12.229353387923908
125.65663775259952,38.592235651086035,11.322564215855994
172.84898550209024,59.03716646723644,9.102133928677866
204.24177124280524,64.92004723824095,5.77651969349973
219.02741331245363,55.845032545974874,1.7677899345787529
217.07631038966576,33.64960197030681,2.4368691334715757
198.83696511156353,2.289179602360025,6.311902643800165
165.9296844689068,32.67715853154893,9.323531237968886
121.75165966129661,65.02850761436854,11.062136738902728
71.4216016010015,89.11748233300611,11.35151090522261
20.924295622284422,101.06614060171023,10.245848588391905
24.082204528408422,99.51684207968614,8.005730451678781
59.16150161884744,85.65121723174033,5.0244432806500505
81.31020400368162,62.49044219124457,1.729348142847739
88.65876446854251,33.8211904575919,1.3798318765104933
80.28457326913973,3.2423383643910353,3.844844241036265
56.58662390442007,26.28802744000206,5.412714739612155
20.167236178101078,52.38913325175904,5.9556005309664055
23.315304377539817,73.00741038477948,5.463003093631367
65.09886974130319,86.39940543076288,4.060561781687596
94.56292001610903,91.58394006406658,1.9570532248038295
101.64181217961728,89.09284064608151,0.6024091492994545
79.67922922625384,81.46998823657647,3.3890525156655706
27.755191452404993,72.96643860968389,6.152501313918018
48.25297269067371,68.27566234912425,8.633811228169003
136.22128116154127,70.70552869216097,10.579048465738497
219.88959344864884,80.63506317401527,11.749708822566095
282.15806725174843,95.05373706039954,12.040374253984083
308.93421611370246,108.42636737793516,11.446399636747845
292.65748064457404,114.50961197743192,9.988507169408633
234.54640422882082,108.2915928595745,7.736910606303652
144.75075978108367,87.23796149156024,4.853863310562312
40.07416561657639,51.531835619489,1.5975759325665384
60.231686214721044,3.575263911011225,1.8082522434562622
139.3191521306187,52.641894627605566,5.213537938735405
186.6474549823936,111.85978534762215,8.447952608918774
199.71699895130027,167.58446940114015,11.275768547327402
183.36552105245826,212.2769008667963,13.404916757459679
147.3154066465505,238.20808230607074,14.553286166604302
103.15324342135803,239.10868053290093,14.52609083089283
61.76854334580389,212.16058478174043,13.31872101504177
31.692261686526336,159.44026618110715,11.110099586218501
18.20805865620663,87.987050791294,8.200921408451913
22.85615890899023,8.28869352188815,5.0381513137445815
43.1984428665272,68.27944715076049,2.036804049703611
73.13443767562333,132.00691653681972,0.5293284581535131
104.14297366255815,176.43082217051796,2.4165883707369478
127.61757363829491,199.10479221534217,3.499890363847669
137.25355011717716,200.9139266696595,3.8375771340358624
130.66806920400495,184.6355911830786,3.593232859519326
109.99061551316026,154.2376991087328,2.9513704469138378
80.88687959387495,114.52844411519247,2.044009239744271
50.37225643989957,70.96146790343693,1.0180995213475932
24.39040593613273,29.251241466111622,0.09305955196925104
6.178635858849831,5.3956162776052405,0.536357258867737
21.459291709337588,6.9563622005059065,0.5140345427130557
5.4580529262474204,12.477329618396606,2.4930134767427394
43.35311795910803,17.135676598270898,5.268104820475795
86.39752597177569,18.852928693149035,6.976521447339442
126.05041266575714,16.29135911200141,7.095889316766772
152.93451569672263,9.621577132188754,5.57376580409116
159.10837754345846,0.6621954799868758,2.7910357190998294
140.00647679336134,7.725691217215027,0.5417310199516182
95.59111175382762,12.778747243217804,3.620632794790398
30.370365427270457,13.00753542138086,5.8031370267655005
47.5716800927589,8.917709596370036,6.700929508214173
127.92958361464557,3.0076348900985836,6.096016590478257
199.4050721208943,0.9884207315535681,3.858021319949199
251.3232400099882,0.5764835505970048,0.10329266244904739
275.591981871595,10.003820569479842,4.607995465500635
267.89891867902315,27.64350900714349,9.358268508607766
228.5181869384953,51.76866771320981,13.085380480595525
162.77304599362955,78.69652516273946,14.884869762357518
80.26417420437043,103.16149185636213,14.398868657372121
6.857598704561235,118.91724715847946,11.897502647635742
86.32115496243689,119.74315504395183,8.09578005941857
148.28218688457744,100.87603589728818,3.9277200524973943
186.99663084959897,60.5589987911582,0.20228043316093317
201.28611024273258,1.237150773369917,2.6282747249417735
193.67084759476575,70.19211691093385,4.517315090872097
168.78163664509404,143.3857744749881,5.814664926212167
131.97184942235594,206.63431690396567,7.036708104930368
88.66084904725643,249.4029628653888,8.526045369802242
44.51160050824024,264.5487983406318,10.24555180979395
5.772780897397058,249.58964591646594,11.851715158878697
21.008832254345855,206.78825792221033,13.028194942082552
30.28869331551649,142.279085201006,13.587465018068217
19.569281031078344,64.67059846140221,13.315930470073845
8.849914852471306,16.445040359294495,12.062238607981602
47.546792209771006,91.77096902049607,9.87356292593511
85.5710292653416,153.32369533870562,6.889721336394718
111.4976662260541,195.25729512513166,3.360193642270931
116.73192364429276,214.50559826857403,0.21340988021294513
97.77371037944182,211.1499782531363,3.2405892080415746
56.73210422629134,188.350565827345,5.285374493577368
0.2616378530775103,151.7082667760518,6.139495972544791
62.25623212488674,108.09909085764495,5.908747298541045
120.47943855667668,64.26414767303507,4.936505652886814
164.57584337271325,25.55149731737203,3.6059885637516547
186.61731019643867,4.819759973311348,2.3072666721799826
182.15853091948415,25.803896883905573,1.359629361660877
151.8360203120284,38.0222569954728,0.8607873375978209
102.22587132149155,43.023109697204305,0.6727794365994371
45.07072218738687,42.680657916070544,0.5582431717143274
5.466590177921867,38.94939314887749,0.37884197629280575
36.84119912760366,33.892712158415044,0.14044123455614155
41.93027101640455,29.759966841406165,0.08271505980660959
21.04070692583656,28.82995515449651,0.16016047656870508
18.661026865493564,32.87110401018191,0.085368193647036
65.82925927985856,42.39189598484925,0.8287310754162854
108.35148717569643,56.05811198568989,2.195175836838928
136.10845324582465,70.67176412066279,4.2109051779656825
142.41473459635898,81.91259998163623,6.708529832466574
124.37130863890147,85.65799280699581,9.325830906688578
82.81307532614173,79.34812379515067,11.666399413832915
22.348171219672736,62.79710945133886,13.358895720212734
48.69488708333876,38.1107884594352,14.08335785842889
119.15340875661738,8.798501302793998,13.686079798994049
177.17843001938513,21.43872702217097,12.17741606621086
213.24181736982803,49.62898901733182,9.664089262290634
222.85759075238323,73.7708909730345,6.310205666270081
207.64596195121428,92.45144253972971,2.344668770234085
174.11511854240263,104.2822284251774,1.8822868929118608
130.75728002665167,107.66632338947576,5.934335601184316
84.9316310855692,101.15941987805891,9.347690856331058
41.072600279873406,84.28818610600675,11.67135464428545
0.8600604575868229,58.34238629819624,12.590093216509972
35.248021803206306,26.61625317496327,12.06538930650328
66.43779764108446,6.133838999660781,10.408409178677639
91.04266090389883,34.83781623283848,8.187589121800908
107.31444120415419,55.370595832750986,6.027669050734327
114.6637036125006,65.40361167650813,4.474477659108773
114.24980057183193,64.60316608811178,3.9084440000791334
108.31355874259084,54.28866569267358,4.396534961272499
98.60210071310932,36.88760571537669,5.611486823031018
84.96432069270739,15.478239175960582,7.1128548822696525
65.14048889456527,6.491218904196788,8.603738092370515
36.00683839141748,25.435117914631007,9.864909694873791
4.345246538362206,38.01601349558814,10.80012881338008
54.79029879003552,41.718284287357925,11.404118634743721
110.52721863912654,35.44412154194642,11.554003331284846
163.82575283934,19.876910157005774,10.998745270434636
205.66723187798584,2.5940936170062496,9.41374583715821
227.5720017883386,28.390072734219938,6.567217601450561
223.15135597162686,53.50089661985442,2.5369463673531167
189.27160921574685,74.2317542856205,2.374226085611788
126.88456718813408,87.75231703411652,7.804366991008707
41.47802975036959,92.40012727569837,13.381708958198148
57.14288245069205,87.79722122014529,18.75108209642664
156.09692018844802,74.82224041676763,23.580159235663
241.6687230911882,55.414723028943015,27.566712014562512
301.97246701767324,32.186766535133856,30.403255539903974
329.1924157798484,7.895542627487944,31.64535470784987
320.6712934547517,15.073241729766497,30.722537523239033
278.64130630174304,35.012097227499936,27.26861287894881
209.11787010770692,50.878943819142116,21.360699956959596
120.69213818126472,62.05375409650644,13.478651451584728
23.593457853466454,68.0843755757249,4.505865527639345
71.08114203332163,68.6588768481358,4.384862193473176
152.4035269303604,63.86482876713808,12.08264397570313
211.23117527036405,54.51663703488199,17.8832723806865
242.1113673600622,42.25243127925175,21.66449560357833
244.5915704394523,29.21929295193327,23.64329747130084
223.06856002995607,17.437354377662384,24.061688324873884
184.98305078912264,8.209251545365301,23.271334907391903
138.09414008569243,1.9399532712877363,21.73903937064896
88.1853778227771,1.5353520305616102,19.824929057626495
38.33143395594562,2.3709025398654076,17.74626037240165
10.092159039557608,0.3301693664264255,15.631025384129828
55.52555535117361,5.063472791707669,13.53471058946349
94.88106430118955,13.898164315749725,11.462402118176184
123.73994840381214,25.205808030127887,9.350149719120282
137.96657123341686,36.76773631774499,7.120224801517725
135.66108155251408,45.63379632804949,4.774502298037181
118.16663740702863,49.154261302381215,2.3415351294210995
89.47287645006234,45.95897606809132,0.17554047230556197
54.473527744434946,36.33334667547608,2.7767443380098773
17.304979877301804,21.83678939066485,5.47058302155712
19.15910537505529,4.474301972856598,8.156467434952411
52.48211299459184,14.02012066826684,10.593683658208109
79.36766597875629,32.37268932011826,12.673508085945478
95.18911231007166,49.42272404154046,14.38667456147687
95.15306228590961,63.627778633767946,15.627815808048563
76.75604115783231,72.9443123060575,16.37985367034377
42.10240215488575,75.31596423435752,16.637194930805574
1.4917164624706973,69.54135680857655,16.129169803690967
43.26237863342127,56.009546360841235,14.492811177086367
72.50390845548216,36.833282348967884,11.509355247048605
82.21197561517971,15.286075922326097,7.207516392733423
71.13617855303204,5.141015850947269,1.8943254176706878
43.39733092875314,21.587012624634745,3.876415556568596
6.199129487188929,32.20544555732822,9.23291301725753
32.91282861157224,36.0764742084928,13.109735781460044
67.89566719609618,32.96002520737017,14.619699729398288
94.56394591619679,23.179801409933457,13.321445777326794
109.86503618865736,7.7319787668481075,9.345999689794064
111.1729577963592,11.535643756111376,3.368612970278376
97.02007480284841,32.239625852791335,3.687260481488358
68.47152377880138,51.87837515124611,10.930081233233892
29.750998295507706,68.08414863556003,17.497683093153334
12.086446773480247,79.06779731012428,22.619529355427275
48.80450309977189,83.95824966094226,25.767240279468236
73.45878661968389,82.85885397444798,26.618940615600195
82.58662644923446,76.62825225074594,25.14927091955781
77.10747373833338,66.5531638010378,21.793552618903142
12.543010810608912,4.524296498631618,0.5583273131304951
4.401791109263363,4.193950666297426,1.0661634479642184
28.358644506878143,4.588498610626517,1.7836338637363538
56.73291488926027,5.80037030698416,2.614323716423213
85.37377493592498,7.448189095008783,3.3696807165358744
108.9502732970667,8.579561936960511,3.8389673556118082
121.673441790897,7.7313706961104804,3.891053749047367
118.37392270796832,3.2507505820700833,3.4809692749557133
95.77117128258526,6.1782616266996735,2.6142729281515065
53.54532561753348,20.876208469872438,1.3638877437619592
5.223436106797748,39.67624156993871,0.1810720676098732
74.35392471852413,59.97434632159871,1.9379492716493538
145.363154985552,78.3589442628181,3.7796901154795504
208.8031000469697,91.27382609017454,5.534340813916348
256.0466590931466,95.51962121355228,7.00087511371802
280.5770850337438,88.89784111769396,7.988141407128556
278.3486725042361,70.5594055362867,8.357204598091494
247.81835037736016,40.874749590934634,8.052452667481274
190.07597607578523,1.3160143849914387,7.11328537625727
109.21393288664738,45.56100575627515,5.644215107414182
12.688217999251862,95.94882976492154,3.8544187914594286
89.02111815526071,144.62023238526282,2.0158220121208275
183.88307729040434,185.24632583640997,0.3137470416392924
260.72005654668936,211.3530180091537,1.129561043828409
311.6661733354544,217.8307092993444,2.1933252719298832
333.61127082893006,202.41314970558926,2.748367834003742
328.03998937205415,166.43044217631945,2.6669088820226796
299.45004006239327,114.5174797910676,1.9456019828082707
253.29488177269127,53.34269550082728,0.7414319830990279
194.58178562135598,10.019873978036694,0.6917541276025053
127.6846195614469,69.3513016468427,2.090174635724244
57.042466687934336,119.81585993218945,3.28291317069194
12.18084531727551,157.86724085793423,4.047105542619097
74.30415810252069,181.05014575168224,4.019505958000821
124.34609611405415,188.14589781894486,2.9285234321521143
159.57703715775327,179.70043450423904,0.6834587780641176
180.34199639779345,158.5308188442591,2.7037066081900845
189.46720719639848,129.61017987791703,7.0473395573834825
190.4675463067871,99.00271810916189,11.847482367051354
185.5536505806753,72.09000189388328,16.36657787684951
174.59925420509552,51.820342956314235,19.857134160198413
155.68484292736167,37.815014480174966,21.71814831591248
126.87977092501937,26.793114836277876,21.639030427728926
88.18066371756217,14.155117927037136,19.60779698877638
42.503858334391325,3.974960489845101,15.799538524341552
4.747976873920334,29.123124442676488,10.56319453582048
47.21962120496004,59.84363361958062,4.3718578241451596
79.35103783140767,92.17809879959773,2.2127274324341393
97.49727540217548,120.82890673068287,8.51463485403514
100.16178471171318,140.5021409818644,13.799671623391681
87.65468144551878,146.98507193331315,17.392131681841025
61.6921177601524,137.79363657088186,18.945385269654725
25.26321564729088,112.45811955130942,18.606089100380412
17.327906315960874,72.57681648962878,16.8087687734293
60.6368832853971,21.725819547090403,14.122536132358645
98.76551695820032,34.760176829707156,11.188337816654556
126.44439080954358,90.18749598976943,8.520037308840873
140.06142930592395,137.13547763370084,6.401507580345857
138.1498682014568,168.31221222593834,4.909181931119412
121.13082608612085,177.59327870463446,3.9177400138864247
90.57980275404738,161.16356075159084,3.176259551125936
48.5919614360522,118.57051525112064,2.3737715360548397
2.3093039701429943,53.426803782064894,1.134904251265704
58.75128502485695,26.552162635754353,0.8704170783125357
116.02504277121872,110.43597405144499,3.7689335361754113
168.0979217071073,185.84184863839593,7.343285738360444
208.51002100411657,241.20137714649852,10.982945793266815
231.99588667885453,267.9526600708007,13.921008183864167
236.10196919468657,262.03064073407154,15.464201348419767
221.99889102364543,224.31663424458944,15.052456122563932
194.05076730810148,160.10268297825678,12.436004083386642
158.24384398613668,77.89152511544151,7.903849889027422
120.12616203688198,12.028897698934621,2.194699078187585
83.16432292830424,98.97415981669383,3.874963139093225
48.21505391974923,173.19441444181936,9.617934530609611
14.228230479606129,227.14195681741063,14.45434206537975
20.285245315863698,256.5608166904802,17.80180762401391
55.74747528312915,261.0923420043008,19.041398381796842
90.70041592522219,244.02013574062025,17.80051158986421
122.09211920314048,211.04509411381835,14.231313381339266
146.41818465357375,168.42902143186336,9.055247552132096
161.04395381278195,121.19490854836113,3.394910805933729
165.0678204424325,72.12974199375445,1.6662791206983651
159.34720687854852,22.006449162223973,5.346555449755118
145.75974672184267,29.21445802807124,7.2126493241306155
126.27453589467407,80.94911899544606,7.318680412815776
102.50822120635975,131.08316132792933,6.110672807808958
76.02143586536364,176.00155208002437,4.183276755676689
49.07390065656053,211.39863328491688,2.2149105875912576
25.192500653411226,233.3201324377629,0.8094597225174791
8.841054111153545,238.92625043607927,0.24967749303989195
3.964724256591189,226.78791404561795,0.5655716928971382
11.984041443800153,196.94478541791077,1.7303477541365166
30.306511988156025,151.09155789872142,3.61361710185964
52.303729239755256,92.95359049144521,5.938190187290284
69.06684652222152,28.514121926469013,8.263329025465293
72.41021682980809,34.4380394196959,9.958002031918388
57.82432331494294,87.73898421112204,10.499935968978784
25.98310142574192,124.93613285018424,9.828508430984476
17.78068004620935,143.18951300596558,8.351282631984619
65.65199320243262,144.0341187469731,6.677656217826802
110.07778272888733,132.50018659745015,5.295565490914412
145.79007692141397,114.95945696893327,4.461385873397863
170.37216742863828,96.74155214850165,4.240847034471193
183.49395248404423,80.67498532378282,4.461227410125644
185.6174059650016,67.14385353323885,4.718176309175651
177.10208406259915,55.3112848489431,4.611168783350938
158.1832459043516,44.55542009426112,3.9248343845134492
129.67485176911867,35.194797357232375,2.5724451816285563
93.75854760048459,28.128864438537306,0.5130595859972593
54.185200884279986,23.803208371014172,2.2728146281023016
15.66138341706393,21.379956722831395,5.689504695607486
17.318946847491144,18.796132897997595,9.372120011637865
41.66971115258758,13.762028334668683,12.777372236485585
56.42062353904869,5.10050580344077,15.3609952541004
62.68018732133402,6.445554222997225,16.637573522691905
63.00369123891554,18.456725623054236,16.358509684126624
60.53301919412208,27.97786229231432,14.710045578812
58.177648207094336,32.892182857715774,12.221524498980859
58.03527090161904,32.74288881569413,9.525385273752459
61.12994078788839,28.587264908415012,7.171398053464604
67.4126065603314,22.102357663109874,5.402768093820666
76.01643996324971,14.580410568289908,4.061401387820674
85.71368216682596,6.462307067459117,2.7487946368719753
95.40155878894237,2.3312853693028246,1.004359966982181
104.38463597669957,11.56259003920143,1.480506237395275
112.22697420009567,19.888520989127723,4.655056498528602
118.14587766451045,24.608264253794996,8.061768798739248
120.23400097431812,22.169170715160664,10.97088903823295
115.0471034274287,9.24099488973258,12.732400578584626
98.07532517681703,16.063091663525395,13.063183508705317
65.22422120062834,53.18800768437457,12.01682288552104
14.884565968154101,98.66137963178532,9.814195413602013
50.26709851367306,146.28828908713157,6.746602617025952
122.70658189972116,187.95521368250076,3.1523468734735256
191.25239521687888,214.95842477975066,0.5934030014767172
243.67384468591786,219.69291299263728,4.086177198382856
269.7773492576912,197.34265784334897,6.929906807562621
263.8752145523666,147.1610774890723,8.709077599357954
225.75879112886182,72.97064712085702,8.99478337929817
160.03093795020212,17.31785293403607,7.600692420799042
74.4752613851551,113.03295699998894,4.748848643748504
21.418471374329787,202.879395424513,1.0089036987964632
117.15022157411477,276.6730926693413,2.8671224360382523
201.86878250897516,326.4691230362343,6.167958580159989
265.63170385042656,347.7486043880605,8.406233368628646
301.0668584699791,340.09141414483224,9.506005481426351
305.0501605457857,307.1614809625742,9.799735782431718
279.74203113876695,255.9763856129907,9.693424473487452
232.37957419909532,195.55186529450702,9.381287771823038
72.1611941174895,24.674302778210006,0.9079170642192537
53.446596408701595,14.064111481850537,1.2804034033801388
17.22476019114868,0.3817782578879574,1.751730205500855
35.482715131720894,14.660487392078213,2.293303933026552
99.80659134418758,29.91204083663872,2.8184421998829903
166.7705712508345,45.01738595769107,3.2135934023910253
224.31312487854126,60.082927841313605,3.344304222785701
259.7072116922313,74.88705671038969,3.0488946709540903
262.90546178314895,88.1936674558526,2.2053030564704894
229.54350848715737,97.5129729678503,0.8182700887882113
162.38023663970583,99.58210566902041,0.9549373544462282
70.75499985286913,91.64968473157836,2.867939679711583
31.482294561801634,73.0176975935297,4.708968578170081
129.5153304572058,45.17093711705187,6.3046828652009115
211.51278965249125,10.535101813906268,7.500743463236108
270.34467909911973,28.194386406997147,8.266520186713972
303.01680248084006,68.44566104339638,8.625161895055843
309.2881614345369,107.98122165449726,8.53814134665425
290.308023177475,144.1787923151269,8.021065218071438
248.46204597379452,173.44800893024313,7.142917994367781
188.1297405990229,191.25807678476357,5.937258209635879
116.13044748951867,192.91205632131337,4.46973450851374
41.079047000908545,175.1802523726874,2.8386953239721797
28.666305509691554,137.82588518003823,1.1170439233111515
87.32043291163372,84.35520759714521,0.617747381117925
132.79665341112576,21.52230315799246,2.2858657524832995
165.89618790074002,42.32232407772789,3.82821102551376
187.93484794594232,99.22837384846656,5.199473881580401
198.46697739338612,143.25380153060954,6.356847782291514
194.70654101392736,171.09836816968954,7.179245959583332
173.3043930486379,181.82015799287643,7.5092676011495625
133.59049634089587,176.12876583752086,7.353064158394891
80.21039282212897,155.7967246836355,6.8867788632609654
23.35265232254621,123.53339674260363,6.352652556304784
23.99733729509338,83.11737703686696,6.007426951236966
50.64233152929276,39.37254991673974,6.0180869592274115
51.40170138872678,2.3595753503437913,6.400014369645731
29.008683870231888,37.28475113121766,7.046901595858952
7.077312315865798,62.32684529557313,7.733469845536145
44.143592040194655,76.82682286584308,8.157009028783568
70.28136603995041,82.40622702724335,8.055160382348356
77.39968887538241,82.0369855956662,7.2699282886866365
62.41335153687032,78.7335562374886,5.778618531532462
26.872448956254512,74.47666362378692,3.689886796860812
24.16317327143385,69.8133187865576,1.1928938519808023
83.28307266706818,64.15342554235262,1.4518992812359819
141.67453075487768,56.474934386508636,4.000240302800498
190.12416982346383,46.03979632678081,6.323431735062341
220.3712582452674,32.823330962489,8.348360975682848
226.73904891210992,17.605345189479678,10.057546935503533
207.6021869315561,1.8203156399803275,11.462453754686209
166.07280656436527,12.721681453416238,12.419409602374891
109.44985666144322,24.181868385746775,12.634890445910292
47.45564126122183,31.119364154880497,11.812745294881088
10.19983630793012,32.962855250509755,9.769533446306797
56.14727529241841,30.37126753403506,6.5961102786220245
86.88364898204587,25.270835881860606,2.7142116595540733
103.07516654932806,20.412085570396894,1.2385109777755425
108.64657789998685,18.53598750082538,4.587057243317189
109.07073208200009,21.480861782636246,6.7707481910036655
109.4685050571242,29.611458657901643,7.470305328889081
113.14571110030514,41.82102011329794,6.745249506028526
121.01246441041785,56.063617784648905,4.968908941563136
131.956531832322,70.08693454765896,2.625982180581297
143.83212166864607,81.9607713535999,0.19799944283268017
154.49236690580972,90.21883055689821,1.966918284522388
162.37136541848233,93.72746070514113,3.678006132683931
166.43071545040291,91.54787386793048,4.861138601027399
165.68555207923987,83.05637525968079,5.599827574784706
158.78216820420758,68.33039551943527,6.054554886144124
143.9995749775293,48.497824650053595,6.394239219901901
119.71986378786761,25.707747491035203,6.7452406576929995
85.08248028339347,2.576515037198914,7.13345829292658
40.39363020473732,18.70872824326169,7.5684021940866835
12.94643823990204,37.16583218480391,7.910211106741831
72.8424085407368,53.20639130903497,7.696560450055717
136.8108890818772,68.07632174426786,6.362304957297531
201.84033708030088,82.85031465007525,3.523022828072913
263.8306471548627,97.5538322679396,0.8616430941153289
317.08488213774285,110.89080457743127,6.345348496866295
354.4553481440309,120.72565365077631,11.993990801965841
368.485254153117,125.03224594950366,16.717970892711023
353.3884017080894,122.75999680643793,19.685942864864924
307.19201379029704,114.17312288324484,20.48567807402931
233.14683900105803,100.57512170319526,19.136366413515116
139.77143004866963,83.7007982814092,15.945724152805036
39.47616652925874,65.18575596779023,11.418209662589888
53.79237112097564,46.376990123367094,6.331079813560571
127.24189971340796,28.454830975870298,1.535493826419619
171.6494034667188,12.589606120822149,2.346013849508159
183.04835609907747,0.13511277682614264,5.050636301301588
163.44759363551324,9.073109586325806,6.6366446156999785
120.49416707667014,14.445884746398553,7.218113335539862
66.03606102639772,17.54352125008979,6.898765343003926
13.720673143828995,20.46095591023791,5.895252078251039
23.90885000677087,25.420361288973808,4.475901938055052
38.14029828757743,33.97548982166145,2.8864983432914095
25.890185741211937,46.42235226414225,1.3082042574602224
9.974674496705804,61.642323471765586,0.21301165429044744
61.82271771101824,77.39684616951607,1.7129941047806005
119.47099768066667,90.90467732007573,3.1404525056080255
172.66379407079074,99.51544660836913,4.246465752226368
213.1284304060348,101.33720850933261,4.653716941503946
235.83763081740238,95.72609732712571,4.074763946844286
239.40979686450967,83.59957604305023,2.46435073278436
225.81530466018773,67.46737331593322,0.015694071518177567
199.57859046968213,51.024511309157475,2.928677940831485
166.5381143556675,38.28299992189718,6.006581899526064
132.27194122108062,32.39575907435912,8.863024262630613
100.5087969043745,34.53600407099915,11.142125822545259
72.00978504695372,43.29844866677256,12.562138606673363
44.40972541379645,54.90641315553827,12.937171846511296
13.279427502691842,64.22234237323889,12.23337471522813
25.867985002766147,66.22201505286162,10.630446076931962
75.43222176850249,57.37089856624556,8.421000670940437
134.33169021369366,36.47149228516399,5.934039674449097
197.92436844713157,4.821425940811767,3.4929975519492924
259.2138782198619,34.21403242391586,1.3304535332390366
310.70989556186794,75.91795910719922,0.4294579890808152
346.0857549843575,114.97737824387143,1.7675608919067614
360.99290912166055,146.21638989858062,2.77311871229657
352.987681711349,165.33513283663012,3.5953808345855087
321.11504985322887,169.6599549377289,4.409686602820086
265.7678021213901,158.8065856219693,5.392111668227136
189.11643457741843,134.98721884309845,6.5842182380098855
95.89476913331002,102.6770948771762,7.853022541792008
6.107961060190953,67.58605662845815,9.017659412842452
106.48151962791506,35.16387542048256,9.878827459321117
193.78253225101935,9.155440380920112,10.313835223964851
257.84899472119406,9.189635002753217,10.334741558503376
291.94679359526253,20.95040455005686,9.919159026488252
293.95899291927225,28.519303916338632,9.03466939795371
266.285343956721,34.229506211919,7.769644814772278
214.7365181861576,39.30735737209353,6.236975116577404
147.10542641019515,43.58929122098998,4.418417150310502
72.00450661903682,46.02166035937618,2.2385309535080777
1.8063413808055486,45.57834674725098,0.2538272922018178
65.84172969388392,42.02243853015826,2.9075715250657628
112.52121746935937,36.10845384555737,5.497872531218139
136.23009144354023,29.22727815991267,7.731452241128919
134.5483190346859,22.82594886205545,9.33953272572981
109.01842266095319,18.0081789719277,10.146059101894716
65.61073872647773,15.237634926279531,10.13831147198614
13.246926320698956,14.647448648553537,9.363913235784766
39.00081252520512,16.516173625550707,7.856091421799649
83.75863179841176,21.097717358067385,5.726305936215295
116.50872093834957,28.25744049855005,3.1487045820862862
135.74283730903403,37.11634101077705,0.3936087636908851
142.25457131753072,45.97438382199118,2.16949483311246
138.092937742114,52.655105302788655,4.21695625726363
45.32658072925521,35.496991934017466,3.7124471437247513
44.36635733301929,42.32557539321844,4.086314490560337
35.50306504931221,44.21007990944875,3.6397405276438892
18.459858224534972,39.30595336623789,2.2518370465003823
6.0474716381167255,26.394248114666095,0.08678931503570873
36.59674543040516,5.0949349304758265,3.222251322436972
71.05403583820066,23.822503167679304,6.798451901490372
106.23993759835673,58.08537866361392,10.341142827777134
137.62769667367644,93.71240227858931,13.359740563404774
159.57962536209692,125.30535503016067,15.399288530604577
166.43262859946526,146.9053308270287,16.07494303828243
154.24983288298824,153.21189438234862,15.03834516506035
122.58221792317747,140.89364050966992,11.98177753323886
75.2879647120471,109.86190510225802,6.810765941613486
19.644221761913254,63.78720228705494,0.13196851397619597
36.02840348372869,9.113363307771827,8.140475621710864
85.11816012421109,46.6162180215224,16.344567999346346
124.56970182760642,96.31971354970091,23.691291143760544
154.97417345359455,134.61550382270107,29.11147095735386
178.99771747883037,158.33732426820418,31.758099705562252
199.08298311191777,166.56929863538568,31.00313005227546
215.63971327345013,160.48810365492167,26.62255726153925
226.56611896133592,143.02608961789312,19.018111222718638
228.10819452892483,118.39189527291889,9.171976853641073
216.364411360069,91.23928679698392,1.521168845970169
188.56619341649508,65.5653908795231,11.555129768778283
143.73353238636568,43.64871669449395,19.625202304174675
82.82078566476989,25.454666404344618,24.82736982006953
8.66861197015516,8.93154312082359,26.686691930813684
73.93172766349264,8.878093640399715,25.13227098332174
158.1719502033481,30.331133789946385,20.60634542910304
235.59776491351113,55.93368755731988,14.029889520396916
297.2248765772105,83.91792057010215,6.549850233606392
335.3031573511797,110.76042287895426,0.7082899189237162
345.14982925931724,132.34136957509637,6.796028495060869
326.32038374788766,145.17633281461187,11.028227834576649
282.59435560742673,147.22487865404014,13.127202826047688
220.79466670170237,138.07232275653968,13.281882544509854
149.03285843660862,118.59345136372775,12.047731743663642
75.04280657753334,90.41748612798465,10.176800035255233
5.040588468738567,55.482498770289254,8.309228645442655
56.79573799322957,15.802001553435586,6.740053987275296
108.39186652790372,26.57771867543685,5.3846244492325495
149.5477578729902,69.49644003360216,3.7838187356913133
181.46043090704256,110.5362510190808,1.2731688965587085
205.87946853788736,146.86218133789882,2.6323025829061097
223.94595426146245,175.12580561520858,7.951816840288053
235.1520212580958,191.59589099328332,14.249169322166608
236.9637870068954,192.63265496086683,20.72783799650079
225.54408038464996,175.49655680447916,26.292813433217418
197.53109942830196,139.3349504556282,29.787841658890496
152.14552117206048,85.9837842772232,30.32480141921588
92.56590725436476,20.206800735897943,27.52038199894237
25.75391986380102,50.810049880132,21.689689576391466
39.32289367675493,118.63403368527176,13.74909883697941
94.33239745003179,175.10677662560494,4.7182349356183435
133.87892336826735,213.79331359868942,4.564781199734015
156.39759156799937,231.02200873557769,13.248942653548054
163.42991368477678,226.33660482812684,20.363858404433707
157.9432439723232,202.33944973247478,25.085224593970715
142.7647582055287,164.03914413161013,26.992971030685506
120.00117485914282,117.83461914130062,26.09646440113973
91.54500195544077,70.25518901039007,22.857603238604877
59.99700916604283,26.69168379466164,18.191729565868155
29.066969022656917,9.599314390123276,13.176625134471141
2.906851058150943,37.94587588064547,8.680933738695355
15.400759378902938,59.95445057794903,5.235209139713938
25.321590494043086,78.51445976070198,3.074321939516755
29.293206683027726,96.44065983562457,2.1589436280693515
31.646327283357994,115.22185111814039,2.1673953209210315
36.47722113283839,134.35517441577736,2.6073406069990415
45.55040833263246,151.48925519462705,3.007302911439782
57.35161033959966,163.25631342560033,3.1085692046626137
67.78956321358162,166.4148758940417,2.8989481060461797
72.13136600572648,158.84531830292465,2.314221034800235
67.12624997349243,140.0911348703853,1.0879952378885114
52.26462001492494,111.37148183391267,0.9874415263507553
29.708379483371747,75.19847161798846,3.8158856012406397
3.196958194863859,34.85544925306329,7.020143198115805
23.295011056231655,6.058631076768795,10.134310011745681
46.43150584415593,43.97695997521074,12.668330272323274
63.689299511741936,75.67183087780407,14.161985391801597
73.13876895741055,98.59365549858983,14.339327817196398
73.3457331567475,111.24427094273044,13.070030639219121
63.65438630582971,113.48205453972486,10.340273804589406
44.697468606028046,106.60482687352568,6.338960294530658
18.71974841347011,93.09394377909636,1.488021272388006
10.6675731898824,76.01481460733697,3.551552934311805
39.28411099451101,58.251621833700625,8.043709213784046
63.320854050254425,41.86712585216154,11.386941603325127
79.98382317282892,27.806694031654988,13.175765054284556
87.61369242833746,16.02694485637992,13.218771648161855
85.41239191230073,5.9566770297060785,11.519543668847442
73.1853035152283,2.9583841295595383,8.268506499897605
51.39866461200938,10.867532709241567,3.8478789358567127
21.490357860147604,17.40752009213575,1.1703297234346226
13.904563797660282,21.852724158473,6.139126404557247
51.16280195574569,23.369683788058488,10.564990950475295
86.38282044086138,21.233248799349212,14.122703844129248
116.26906205247502,14.974061146324026,16.572513048500912
138.67454145866327,4.491380261309621,17.766746519024586
152.47616391124777,9.807544276705995,17.647705518524646
156.8941179799574,26.821536690002286,16.258357880869927
150.77440428321768,44.62525830247179,13.722228684118106
132.42744203513982,60.54015459823307,10.256251714766062
100.26317512842523,71.49667023292919,6.170212517047414
53.98211640774827,74.67697924806602,1.742859521116601
4.309846993509412,68.26223937483913,2.801565529265868
69.74153612180143,51.98386496085748,7.230920077061575
135.2998462386689,27.253771139627666,11.31949056710363
193.18626353270423,3.1608559708547,14.90005464161127
236.3936775546403,35.792300686586074,17.873582098456236
259.91088442992685,67.20076044202013,20.15629712055627
261.23807554120043,94.5145388794643,21.632437747581985
240.3114940184452,115.66028770524939,22.102391055828587
199.14431491926467,129.31039836196774,21.338491524137098
141.4767502523786,134.69337020123635,19.24731184949381
72.55012774465328,131.4459286002121,15.936357499834113
1.0818023726963433,119.58690677891099,11.723790834353869
71.92616520955754,99.60122028916535,7.032153294712849
132.31907212669657,72.5812211764345,2.2478142035352513
175.59013400742543,40.319749490373816,2.2602321953126423
197.3836291187739,5.276855359497843,6.105591996018585
196.7109607535239,29.57827821491279,8.9431950912909
176.26083722219104,61.03095887806638,10.656851356810504
141.69105118561816,85.95530963238949,11.44621480599303
100.04245637651827,101.68172172851078,11.686550236235188
57.83599455941451,106.39094726963184,11.837359207380635
19.573373718008494,99.51364940396938,12.373420441277222
12.74019052075123,82.0549860173845,13.67458207019561
38.88613482372893,56.72150954860399,15.819723122698367
59.04698546176129,27.73148032067841,18.378257777400194
72.60654597739253,0.23368328699291896,20.612752638519588
77.86803529822254,20.639533877447796,21.820962648183823
72.88816538964355,30.8956971102371,21.444070676517427
56.92258453274116,28.66315197156332,19.137975964089385
31.573611890760233,14.722528614877088,14.917929449264456
0.8540270569418931,7.587445367703481,9.238581308771414
29.984728258741413,33.08927316093523,2.821374930093197
56.2477190875921,55.91012829745633,3.5614076238508066
75.2365943060813,70.71453880830883,9.18615420343918
86.5995964608671,73.73258621382242,13.511772120807445
90.84927770772349,63.81729683902175,16.150226025145614
88.46714284281947,42.29631263284806,16.92060928734107
80.22965160520792,12.056953141050878,15.990682367281307
67.18932848652791,22.820529686403308,13.784962161977287
50.932699449639685,57.58595523651077,10.889540956093056
33.78231391213139,87.49090383916224,7.975267950431451
18.556950224210162,108.5519851670212,5.662355995483427
7.801563990597436,118.27416953971299,4.265000994755104
31.127638936923205,18.739850301902575,0.5841110686361654
23.304399847228943,21.43107526775201,1.480555614794088
11.357937458705223,18.236550159625722,2.5993113325600468
3.983816995592269,8.725723751050209,3.9340118475810217
21.54665937419781,5.461957869593076,5.364544936387025
39.83427097553926,21.07069393704358,6.602674544962593
57.257500182429474,34.27891131258144,7.308195790804962
72.25772641468146,41.91861266489975,7.212723104562137
83.47705689282823,42.237271491349276,6.161479758419322
89.77355872905721,35.04892326266456,4.158823216448888
90.24412019620635,21.35990840169682,1.3264102954583863
84.66539725114582,2.7106355350229134,2.1246688279572785
74.14920524934453,19.249275384274313,5.874028638582182
60.37670509710441,42.14268600269986,9.51942987938562
44.17449255908213,62.07839088093904,12.712603500247079
25.97298838045221,74.34346345653101,15.25710378848796
6.385762168860835,74.74758457857995,17.01534833462486
14.092316884202813,60.976174309181054,17.829034517134353
34.99645970877856,33.95491927640566,17.47223966436293
56.060243861240906,1.9415551129877298,15.75787329361088
77.13269821490935,39.92883398846855,12.779383380022578
97.56754411984083,72.66016768422676,8.845639610759985
115.78560610003674,94.37697656111277,4.326502213523284
128.96183828103898,102.27782436109935,0.42679067619790667
133.46046813171876,96.7932538219136,5.196378888188678
125.96486875126517,80.83560124733337,9.806831929938795
104.84205269313838,58.46141764374243,14.022918432712851
71.38137595931155,33.68292334893426,17.60948763241876
30.123825538475575,9.734692084673888,20.35685292509643
11.875531782972958,11.116236882785389,22.115208227022233
46.71351880260405,27.468876918139962,22.819941802843413
67.71435793666944,38.708505367530705,22.434382597729737
71.097570036181,45.03696383349228,20.904789834116773
56.75501774039164,47.56155719029974,18.227525068867322
27.930467542484084,48.21344642087487,14.53855310860807
9.875735067963122,49.372327197800885,10.062592956099714
50.20266151760225,53.23729621269227,5.0331743966921945
86.65926197494686,61.10917833865625,0.30851949701188525
113.48816975526806,72.85940569208837,5.671133155866249
125.89453580016652,86.7586747264905,10.678054588769509
120.50521079611798,99.74941062496187,14.895790708446174
96.14590581005503,108.14986103859256,17.912725068788994
54.7156658272327,108.57544954710119,19.505794953689087
1.609469458960141,98.8030685933336,19.74158404615552
54.84122735991066,78.35174357220308,18.79814977186018
105.1175185981621,48.6199689693987,16.779935751161872
141.0311010207099,12.55675892906645,13.825959242516634
158.07136537215996,26.012608773441187,10.300791976570116
156.65425776487336,63.16275774547213,6.7624065723915665
141.79594418994526,95.53707159287772,3.7600075015434213
121.3439812109152,120.81800715342185,1.6239976235314086
103.48930284188076,137.98110729949238,0.38775928729662845
94.55911468309873,147.3814281971539,0.1102848715164594
97.7656447999575,150.65078773206017,0.1478169448661145
113.00418223909008,150.33642388665763,0.07615336361768175
137.3915950632842,149.22843151928643,0.27980023143130206
166.02804633368595,149.39730195193243,1.183342165204412
192.59488425437183,151.21655275530455,3.083876625588666
209.8064835120749,152.7632083163568,5.952570886676969
210.01281946499495,149.94381156317837,9.435372020451378
186.26653390620808,137.5003805582615,12.919059919412138
133.92542261852182,110.638668466285,15.777126137246494
52.471073072267664,66.71744185038963,17.602440507133323
53.10537609134237,6.396437058955727,18.107345314060872
172.07772238626757,66.13290303624713,16.988513176571804
289.3512759567531,143.83971556877307,13.999207340887843
388.31761268420917,218.14722205040485,9.176791158826568
454.52196721460314,280.37092741200007,2.9863876479721583
479.0335694484698,322.99020461845794,3.73764476628996
460.35108282067074,340.6238465505719,10.007797538894616
404.1541638127122,330.7044264659956,14.991497203897495
321.06018391389813,293.8755054298296,18.128886737885022
223.32565771954853,234.0114485747976,19.156029171881453
121.83316852583577,157.72967137866138,18.09683625902548
24.494857220327862,73.35680985746554,15.17727665827199
63.63998003522493,10.506773019785836,10.915201108036953
139.16904757944258,86.42473451591262,6.022320428197483
199.10202063393947,149.11884757343617,1.1403418314703282
240.6211652818151,195.7519286711868,3.1318974008931493
261.97811778757205,225.50800341955463,6.32915604763184
263.7176364908185,238.77348212277585,8.32893753816593
249.15510794304822,236.36988262376607,9.266223464114635
223.4129155428824,219.19050151330723,9.361870228943529
191.30614336891747,188.32548623103685,8.84733123726229
155.336458789948,145.5162366107451,7.919412579157246
115.17433534991723,93.62470522163123,6.765297523577667
69.19167677356182,36.8149223462292,5.598798470793957
17.268833070404806,19.681835052060926,4.520186190453886
36.87600021978242,70.19974753919851,3.465572195932881
85.51741518833906,109.51315115392512,2.4335531228697187
119.42192888340433,133.72641385878984,1.506246079174952
131.83583564532708,140.98106446461708,0.624797049417572
121.7536720888746,131.80265740874498,0.5091468147672715
94.57116572651891,108.9825432725234,2.296360921578759
59.679919518152346,76.99979548917506,4.915513385295859
26.318118994491737,41.111121249619785,8.195255337961687
0.026282230347722493,6.348157039910376,11.663646162035398
18.72154687641354,23.30739218681857,14.528721429681974
32.285793854184625,45.36019931922628,15.959113140388542
43.305891226056275,58.81392296376512,15.523006869489965
52.07321229994666,63.883803993356445,13.261905965716085
56.43944149569562,61.60067622604358,9.538323461115699
53.82080958237669,53.483144259424776,4.853675645823984
43.7383673567911,41.316954075843306,0.24869368731842598
29.0231148603403,26.983568635221403,5.117333297942817
14.738327917834498,12.27917022511438,9.078323220263652
5.37728271421451,1.2958823637100412,11.66609418167762
2.1397761700954527,12.697252889323225,12.690063821006436
2.074203599070078,21.341353023678366,12.201988117399646
0.3163926776144676,26.923017125184842,10.424662213096365
9.91192124032757,29.12309503099884,7.766133394062757
28.1110733557839,27.42069208538669,4.965594251422459
51.88996741294984,21.216422954044262,2.9008291532584263
75.19371088401948,10.285852656077255,2.1055122458989186
91.68854786407265,4.62992955640299,2.612352302975017
97.24565574536112,21.431588615459283,3.998109139954958
90.92293803499398,36.76671801812843,5.500471624857134
74.25719280246668,46.71779090292414,6.39294567440995
49.72490102403423,47.86822447397026,6.178997583705389
19.57203925576854,38.34375031457149,4.610685104075395
14.278298474183774,18.439201010687636,1.7919344552638359
49.4269609074415,9.356440259203698,1.9081003134081944
82.20110895260346,40.840984846660895,5.8837644017885395
107.70372736434658,70.83334328483419,9.30564773668639
120.94350496571896,93.9327441365996,11.51222129095928
118.5682929833429,105.20783837211695,12.27181416038755
100.29119392739591,100.88203482273653,11.662551950239644
69.2886463465979,79.10245855495818,9.897199628608602
31.433191516123813,40.72053985595567,7.198616354501037
6.228015588047464,10.19586142915015,3.827974736414447
37.0866503919245,66.49775578908947,0.19953039454748073
56.19245967774098,118.99663771541954,3.193893210238823
61.0035085163547,158.31935909386223,5.985749459118515
51.824071991487926,177.0724874361927,7.9788796698887525
31.93865516678517,171.5943378823884,9.112886442001548
7.256881512171912,142.67288893462248,9.439905275603731
14.74743262365203,95.02374356733446,9.000141925355619
26.882248881959782,35.82770828785782,7.855294185434817
24.45260923596234,27.048706739832213,6.157350045829824
6.9577154926267735,86.50239690709444,4.04777052279506
21.5556667529005,136.9575693357674,1.703145866690338
53.79547072419895,174.499343404727,0.6942292412547177
83.04872537049079,196.66004087878946,3.014599403331842
104.59383547440483,202.75814056772134,5.058775017986834
114.7528780231595,194.3415921533527,6.555064515771037
111.55487414566278,174.88570872773175,7.2817039947097575
95.07981479060514,149.07133230307218,7.227706346130925
67.47765677075715,121.73005518230394,6.592217810427944
32.72657708031563,96.74385372611907,5.595744777216092
3.873562957791268,76.26514172943973,4.426049276678689
32.82370370299266,15.070199510305358,2.405368468634216
37.20057783191624,27.95295447528218,3.5136293341802314
34.45649901567984,39.771076142682624,4.340028403845582
26.022315532048424,47.66529848339515,4.631043838514976
14.900964859703944,49.03863985022974,4.326751926429633
4.16682792087553,42.23786778098142,3.5554277405027754
4.32052486751252,27.119326861295345,2.4485550218935646
10.570197005118454,5.208191846085851,1.0878047308621692
15.995507338997466,20.489720588920274,0.4156205268175378
22.431405809232782,46.14025778079902,1.9444547344903371
30.96934349757056,67.90733438294119,3.444050924120746
40.760003408043715,82.49071083956889,4.907618182111181
48.664076226289595,87.39371680062222,6.2780856436669605
51.704506034195596,81.88109329125686,7.420129644741166
49.79944843078667,67.75268336187393,8.2396194268812
44.62873773384483,48.2342974152629,8.726309037724974
37.94718234184107,26.789984516850474,8.89042289434123
31.066076442930687,6.6412693526184325,8.753961781495228
24.055560351994853,9.896213382217503,8.363064253030174
16.257376522155667,21.526535833469765,7.769130040872089
7.143639586681983,27.939601383000458,6.974184804029755
3.2972378193622056,29.845088309814628,5.906410356710236
14.150875943705357,28.65635945193175,4.449383511013036
23.944292989403408,26.22782623862484,2.500215264460283
31.10240909997306,24.43751292169685,0.07557526136959224
34.334932847385836,24.731488691610725,2.677169375815655
33.03090550252719,27.870400264620606,5.5172663373786675
27.352372309999353,33.83339991296142,8.104939365752813
18.343201925541994,42.006543814746664,10.127147502351765
7.768629157563947,51.42159704769475,11.416917279742904
2.2722601499046373,60.94613227929678,11.940528395794756
9.79379789663479,69.34827542749088,11.811895696777825
13.394620806447769,75.1946764223287,11.331854746153331
12.3676232082807,76.8187166685051,10.899506839295507
6.386455320908854,72.44565237506826,10.78604154763552
5.066391761380791,60.521722594634355,11.06433184052851
23.069153109359647,40.17685472903096,11.623034772344434
48.92286026176936,11.634668417475831,12.078612893278946
83.08269973963208,23.55259221856689,11.930339026545312
123.73984337038875,62.532907085055896,10.840301040050408
165.88180926076345,101.38201175647411,8.715892826951029
201.64167000674652,135.4366600176109,5.662692230764551
222.06562646292252,159.76127180401556,1.8303477832913246
219.7288837948488,169.79502591130904,2.572085819827992
191.1374034943929,162.16044823286933,7.159250966131456
137.8015952617593,135.54282202713432,11.537389817970334
65.51966626403961,91.39906959469712,15.384781429227845
17.675447750080277,34.089501548033745,18.318899441807986
103.84374823319261,29.7790144933878,19.93572980446781
186.6342786345929,92.64387453203487,19.918456767126237
261.41524615662803,147.48832103088756,18.22198658547337
324.314079375717,188.9490559673786,15.284762441892099
371.03676621752766,213.62445030578394,11.843942207410239
396.4128726124839,219.6602864792315,8.656912391026562
395.12802945985686,206.11654749213906,6.384016785947269
363.40689796376574,172.74856246484242,5.273535975205877
300.8409848356787,120.48002639009879,4.994904569367721
211.44188771871703,52.3331526415028,4.95400352838768
103.42721730570457,25.821022884919888,4.5827936731569165
12.140597949801752,105.43397377243006,3.4357365340832375
123.29177163616315,176.6442236049803,1.3149216392069067
218.9969297323332,230.40807085288102,1.642096850070435
290.45400785957366,260.53667091186924,4.977739671625415
331.7191085816511,264.8099805056199,8.123533765031544
339.95683216283896,244.8144089170053,10.74258209483789
315.604212335776,204.81846374682604,12.744881427225673
262.5402769190356,150.4736610678058,14.093801333827548
188.10780790300123,87.99876022260307,14.770637232072277
102.6272117522393,23.969486480534407,14.678137900452516
18.16635721874329,34.683258088581,13.66351810220951
53.334970052850274,81.12619475589919,11.780938526894639
102.18613398554092,109.85985104050205,9.315466426391879
122.73137673374023,118.4174721307558,6.680325145047443
114.28423749466818,108.68515082920014,4.323991054856632
80.9507357638992,86.92439612439419,2.4769003121911446
30.473411955027125,62.174172863964344,1.063874787224078
27.42666891462379,43.500658847252325,0.09618668845937899
82.75243673199755,37.14262483458262,1.1461393795893624
126.67836223411237,44.72525843785165,2.2112374039565608
152.5440584164842,63.174543653842946,3.391118882800206
156.3971972766452,86.1825996960453,4.612038454389098
137.1778528901975,106.4692887718703,5.56098098289242
96.57994799582448,117.91922145213665,5.87791467442846
38.630026614231774,116.98572603537392,5.387191372284268
30.96949936128357,103.19152559110141,4.202506142406376
105.60878584541555,78.89871073527043,2.7746819387336297
178.42191996638928,48.61890816841879,1.674654913288746
242.64876454696767,18.024342451192894,1.2004751194540366
291.7562995469908,7.26699297694859,1.3830866987473491
319.60238656312526,23.019681817509305,2.1668688255567083
320.907976819531,27.5342864370199,3.402456963062365
292.11201083615975,22.219489433605276,4.867139336662848
232.49296202558097,11.275154949184564,6.3004425710889125
145.16563727451486,0.4903127459700019,7.452453261928199
37.405969016139856,4.438570647112184,8.099243089092951
80.04381898795152,0.5203338005120763,8.04392406299191
194.58317105697225,16.772810349691458,7.2701143990424635
293.75440666200285,42.93958906925327,5.926946205211983
367.0336328638605,75.3195762667805,4.169983652708952
407.0099375332062,108.67934784298645,2.155279243572937
409.8966876003234,137.13678524544795,0.04809657219169059
375.61414461257044,155.0730115423967,1.9722118218678462
307.74695207583085,158.15400180370128,3.7720385996479484
213.4855585630794,144.40744601784544,5.375274877980784
103.31339294579362,115.05788090264821,6.903623799690304
9.947255785988018,74.6904351168349,8.408118540443558
112.92938741925036,30.411444429462527,9.74693834066824
194.1089736093825,9.934245674465059,10.598461896025903
246.05435651786587,39.94040404459259,10.5766390108488
266.7357719577438,56.376076695499,9.375308879850563
259.41802014547255,59.788975739665915,6.9073935747537245
231.12444036605092,53.77203324068144,3.359590197828165
190.26761494666562,43.30632985139273,0.7620634809105236
144.4208798167874,32.991366976389614,4.72568420053241
99.0222059546621,25.88953032862962,7.856795339770223
57.29439538927552,23.311410790199783,9.618648382731694
21.08018724226265,25.340793664302367,9.612812078959044
8.111282413999042,31.53917876400907,7.739672994243093
28.51561334338627,41.343305387012144,4.324953377797321
38.29034565183773,53.982144412994586,0.10235468705359964
36.32579486529823,68.09463846325956,4.027881445392267
23.202522701978392,81.46503574666679,7.269766537269434
1.721169495988058,91.19667407768775,9.024188616893918
23.33869526175435,94.35561206237733,8.965676746436408
46.18643172067644,88.85435650983527,7.062498456565014
61.351541990449064,74.18125613383357,3.565266812473959
64.9131967710249,51.63646874465108,0.9387736005818292
55.26145832595942,23.982031850105106,5.6210986873951665
33.25364942558173,5.333458916047587,9.620114518086023
1.8678894296084876,33.06717542543117,12.21915937588226
34.42090663923529,56.869677360896375,12.977507906687444
70.34971989574845,75.54272562656212,11.77401003680039
100.62066352544292,88.81510761680042,8.837379623050962
120.74835263243016,96.79828204968908,4.666055509783697
128.00817164379706,99.43246577467751,0.1381037415709021
122.35206358580653,96.2235193965855,4.925958006708193
106.94210823353075,86.44017931755731,9.043490086652673
87.8341813417432,69.7158132797066,11.96074622023047
72.51539458168679,46.755735134983475,13.457442872044716
67.48373585878743,19.733865709630095,13.58264830959156
75.6166789339913,7.9314952095690066,12.445008463118418
94.36756620776026,32.42110706169471,10.246454909783433
118.80468991673142,51.079473367528216,7.326080180222837
144.0268113680232,62.907608198039966,4.083314199243495
164.63344232293926,67.93358849374302,0.918838101451634
176.00753436265256,66.90738739572048,1.8086351489499364
175.35486184442735,60.919958234046724,3.8147740186963293
162.2055358611995,51.12547854228803,4.982380556561036
138.30656642866612,38.67557571029729,5.353442929722407
107.06282418558389,24.84116052589963,5.063802356783366
78.954402295042,12.27771961577929,5.5510756774073595
50.192920726312835,9.603797431858673,6.25394937970509
7.21423692297258,3.9782032966850163,6.277827208315683
44.36666561285143,3.48625664737647,5.340146909376894
97.77543858722045,11.266819728630901,3.344994633263443
146.49079055507158,17.935123221932038,0.36027652055480475
185.2061712091087,22.48925119690555,3.3750471330024756
210.18442268275126,24.462836772376114,7.526486668448084
219.27248239670615,23.82098965976094,11.724729477154085
211.69823994676472,20.84153862949143,15.451406443031928
187.81670044884828,16.006295112482814,18.137447514181556
149.3202279398988,9.843458461225579,19.346308613235017
100.13132128109226,2.823330979135048,18.834957721820825
46.23040228645293,4.356156104081531,16.6046940695152
6.720141652093888,10.649538049989324,12.842752180626276
55.43293684398124,15.397258101792413,7.966762176248411
99.30310149989546,18.853424874816135,2.649903060908016
139.71427568409618,21.96962183706463,2.489996196005523
178.43181926250875,25.894201900607634,7.059052120437177
215.98710460218575,31.178545164481037,10.810825480024771
250.83371360864854,37.22285909817642,13.657040590814848
279.2513148323037,42.30645418106306,15.615214928008353
296.1348299645835,44.025568074517274,16.691920495587443
296.27184940417334,40.06842892892324,16.92535516551452
275.75004105300025,28.94143981239964,16.41825532276461
233.20510352766885,10.462501932029655,15.206159382072213
170.57432537447744,14.007361414905494,13.304075664699418
93.20466871291273,41.63240610964242,10.847842171873396
9.079613544132318,68.39896022255533,7.985103634185475
72.68181228228713,89.72987360742363,4.865839595639316
143.6096269710953,101.3812982129955,1.709086191560858
197.4121979539885,100.45536627513592,1.225438048647642
230.75097335665467,86.27583294652047,3.5790830792263746
243.19302085304992,60.749966035929845,4.988348686678744
236.56993281247503,28.025303931114202,5.237394049917526
214.20112654745085,6.490169290757831,4.309947565047771
180.36269676537526,37.418193004328046,2.522170002114809
139.99272114291722,60.555955318709145,0.45498750562820606
98.39854413648737,73.56613799404016,1.296114851901506
60.670169790434926,76.11704453777634,2.2239523480946994
30.754160705740208,69.59204331877955,2.0262675916460973
10.570721791302562,56.606292846383695,0.6660787476427734
0.29347119283187223,40.47225064933207,1.7582032708410076
4.036697625329481,24.637806352464988,4.975426484870985
3.4318702718655016,12.130923857267433,8.3851659936509
0.5629560822614075,5.068552841772227,11.192454301793921
3.779844571840202,4.341723538977133,12.726703013528596
9.716068647717854,9.595802755867226,12.605603025637942
17.202812275281094,19.497154036214177,10.793681443348273
25.027563745784747,32.12726774392947,7.6647748201147365
30.62232814318775,45.2641223125327,3.8990460174590633
30.909228149317894,56.44459992602607,0.2504987599998744
23.70472775442101,62.94701922260576,2.6506478264326274
8.86514184710404,61.958164150256835,4.456118464311341
11.52314231269422,51.124022636293375,5.150868931602273
34.026095823526454,29.411876162393654,5.014813144757187
55.272138570433064,2.0995845716015737,4.490237901779705
73.08507993351293,39.99777098122133,3.8781543288080806
86.78006855712678,79.1362562960723,3.164128963297311
96.61201541456478,113.8813981525566,2.1461327543278763
102.87590155738711,139.48480799644878,0.6098938470683046
105.31055142273817,152.95722372377634,1.52419321572278
103.15804001625415,153.1526316335437,4.125221640282016
95.70627091664676,140.3113115891398,6.926222144833023
82.82914630304394,115.58962343304064,9.648274962653502
65.15451195668389,81.01014004884452,12.077295775290851
43.82116888774478,39.837056923711394,14.026377125506686
20.0942886226713,3.1134964698862704,15.198545319030796
4.781402167974107,41.853620848650095,15.13275383086967
29.34019616479872,70.55669689798593,13.36423819963122
51.505920104279234,85.42798020994634,9.59903736775016
68.49588162824534,86.17421616764665,3.8153116636967357
77.2948679866231,76.19667832037653,3.58191253222109
75.61141672509468,61.26245651417984,11.742967781962683
62.9237566914334,47.25011918858235,19.547071468164447
41.105953109883295,38.093960010495465,25.871723187615466
14.321974575912419,34.888243356194245,29.94573755264458
11.753166160613981,36.38875025180838,31.570656650704684
31.12409856073343,40.364203945395246,31.075125649838103
38.802301863486775,44.85790855621746,29.03449035650785
32.02743906348195,48.640460778614845,25.9819849761061
11.193285344553997,50.83333748379631,22.188718187341845
19.72060294861581,50.31391161136696,17.518123942809495
53.536710231173885,45.60368347074466,11.722505887169774
81.36484845354636,35.49672695986151,4.859780601660732
94.99775974048369,20.050194286237744,2.6959321539294203
89.50640669358019,1.1654409360054876,10.396961319174192
65.04739272289075,17.827751754341076,17.66572215121978
26.96689868610453,33.49762074076972,24.023037986611804
15.999154124475961,43.815254642726124,29.141101153905915
54.64213297411862,48.924236144061354,32.79808831624767
82.01943126459406,50.706186192952195,34.77922968362215
94.85875274813193,51.43467940017697,34.88333449542247
93.24754273741763,52.36804511372545,32.967948320118225
79.23774041219237,53.16426301555566,29.018149615269706
55.48163196399817,52.3927376672985,23.246980289371987
24.733988858426144,48.68256066607239,16.133032388130278
9.770188169797944,41.719520062511656,8.40251892662375
43.840163959873806,32.4529529722695,0.8489801706048825
72.63195531611605,22.463849661504295,5.856604618675631
91.96982882817592,13.02691199473248,11.242634625345483
100.00794533864791,4.542141399806432,15.168247859240767
98.01128763970972,3.315306733454029,17.7447183031494
89.38697980042384,10.952662195473886,19.097956470676095
77.26036153858743,18.30489238922864,19.352510155901022
62.01571366034957,24.84648198168309,18.655742186072725
40.45708793512768,30.181958171527747,17.200983846010093
7.549482291774008,34.7186225808601,15.294225252756878
39.981852091469484,39.8022397707242,13.277846329380536
100.43677386424457,47.047006668699446,11.426314823005576
165.89037452481725,57.1531523480613,9.921917169717883
223.5278122339113,68.92487664974074,8.87245799909741
259.6812533186756,79.1358535163958,8.327976049794099
264.50866824239375,83.40803117798463,8.199723055609192
234.73801289552478,77.73285831306238,8.248948620828134
173.7719060231072,59.893443003274555,8.195852109028312
89.53577606743009,30.152777953404183,7.732288094383025
8.335110031341644,8.924336437641445,6.504954130031091
110.27878877428482,53.22419969439593,4.219251879705162
207.21416016560158,97.91382411170325,0.7862831812418332
290.1427613718513,137.9761816568526,3.673587532902126
350.17780285792367,168.473115850026,8.841453554845007
379.74462191354905,184.81974195796474,14.157183528686364
374.526494067058,183.3149777654071,19.02745591679495
335.0083449197396,161.9454772613198,22.972191444060822
266.44749253898345,121.2073239883076,25.491530146179908
177.07256854830868,64.50162895564107,26.162839095249087
75.5677066189151,2.1941246544863984,24.842491158557316
30.501283854738034,71.3000335823585,21.636480395305508
134.83774133439334,134.941266492753,16.843359621324225
231.6748916823136,186.17775220261146,10.944947015329756
314.47962598988255,219.85561896551306,4.580256995442846
375.4521210678657,233.055338730982,1.520950601238182
406.84088678740017,225.21673180617836,6.6470287837306525
403.19861003279306,198.06911873819755,10.254398756250293
363.5294294955887,155.4272799397465,12.165053910236795
292.2006937632668,102.71886043857101,12.649975160998306
198.07740031833112,46.16142901987624,12.257529731635298
92.62842001155435,8.34100293711498,11.561772047431203
12.142104712206633,56.358060191458975,11.049012565572964
105.25145356041055,95.74332474595644,11.009825050238076
177.7192840556812,126.7363715943389,11.410720386362884
223.77696524122555,150.00141851860195,12.134446971202436
241.71704762373827,166.09141863765586,13.10708746931411
233.8812846490084,176.35271778313077,14.085050456008393
206.18386524886768,182.22697907910305,14.730323056393262
166.93526127788883,184.69259246203487,14.800406915960899
125.01278244837057,183.9762593902487,14.151236808319574
87.76178400843395,179.59938959109923,12.73759315130383
59.36689748837422,170.71447074501518,10.64431797772143
19.292253985217215,34.439806085534364,1.7310962453798862
13.130525793899366,3.1353270442112335,3.0667153873967665
0.10984701633086985,36.803106358316676,4.694092901584667
16.59656016220109,80.77154453087185,6.248321110424252
32.03528695995443,123.01598727385482,7.220977988485443
41.437907238906924,157.1601818067873,7.183051548085424
41.9899777379979,176.97401321704652,5.920200581724335
33.640575990062736,177.24989207501585,3.43892042778368
18.683077719515502,155.13431662318425,0.01717767889384341
0.5596231874008087,111.17092552823397,3.9125466069149475
17.41995804247244,49.78465928660342,7.9558256391940025
32.956242672523715,20.502178774616844,11.794127839447878
44.956794631684176,87.5478677839115,15.16468954470371
52.71728806582345,139.42504932027555,17.808048803683427
54.84349462049884,169.37495606135377,19.41315761906694
49.4447052210737,176.1584904364775,19.579953907810292
35.31511232082844,162.67131482212557,17.941076047037587
13.06305232808123,134.84712804810675,14.430619301235156
14.370812149930481,99.2955088323315,9.355919354248252
42.399091688116414,62.1662781481486,3.3482997531363106
66.24776363654325,28.836818940712583,2.7301077910658855
82.31558304893665,3.5971876880661493,8.086423146366363
88.89672871460853,10.274787632738146,12.306240356083226
85.93799564769536,11.276484539341824,15.38670116227102
74.25909741780063,0.4411691572983022,17.45782826823448
54.851825424785495,18.396426058209478,18.59501401375043
28.649529639719976,39.10208316256987,18.879129535207184
3.130107938317015,54.973467871737526,18.36051553153049
38.42927104019974,60.714467004659106,17.070875155212878
73.97957807564201,53.99568760980948,15.161360127708772
105.40346169905506,35.831958533087196,12.883247248084263
127.83512167504449,9.630181827511283,10.449709811136724
136.89219331866244,20.320288408360025,7.978538885494456
129.77607367727956,50.25817467424315,5.516861139769557
106.18236870480906,77.54540733159298,2.974728006099024
68.72813395734018,100.4275644881058,0.12476364492472335
22.682136348432692,117.46049478512863,3.221082106769541
25.036942958266614,127.14797795499389,7.062466984269212
67.36642835396,128.18865321903633,11.076466037740527
98.68181731463699,120.13388137411721,14.63414448320143
115.89786355642958,103.9980887538775,17.10367406460497
118.71393092171155,82.3432103228893,18.13201250139397
109.05604325594294,58.65120853835791,17.690304162294847
90.09980370187301,36.307724660051626,15.941082395939594
65.36872043447788,17.680210082282507,13.093510499761367
38.22698851032338,3.711656179803231,9.434956917519632
11.735021985773514,5.869688744887597,5.418150367481115
11.410317082577546,11.991462999201824,1.5531530753664122
29.12933794973158,15.704902462054639,1.7517638522327155
40.44115701342589,17.95535758017758,4.255186620170754
45.86367475383787,19.643505387364975,5.963106557057577
47.31614995196829,21.749038894206027,7.052059710692914
47.37593850818515,25.29204591900136,7.662017201481496
48.1460684182617,31.055885223472302,7.916051409110884
50.297676449621335,39.199748350813174,7.937242530963822
52.855511521451724,49.0030691053989,7.812386133057653
53.876105604395676,58.95258235088167,7.68163602286652
51.63540773139883,67.19913858443721,7.612282672955419
45.648145195131015,72.21828093405598,7.463473157654269
36.90386823099979,73.39819961047965,7.040718908208446
27.18328687954116,71.25403726199647,6.204539070089672
17.91905537334381,67.14203818408447,4.855855641045557
9.314378843500737,62.59517684884386,2.927183857214029
0.2275124470374671,58.561164886971284,0.4238321138473622
11.135984082218457,54.89456168804757,2.5723267020625724
26.17523194926451,50.37002822521756,5.915995083490143
45.140361221487346,43.237420870984735,9.327755680388552
67.05033356295283,32.05002178370683,12.40970699013745
90.18704683879683,16.355711831686726,14.751528341534293
112.6858467854068,3.0719855579095587,16.034480214380277
132.69837822135764,24.54424284936904,16.04031299658232
148.01338122683052,46.08207975344306,14.61264672895962
155.4919171768112,65.94649059578482,11.743642428943145
150.91294136571256,82.75501122802413,7.53806735235296
129.7265237805465,95.18375039908763,2.2472657296125633
88.69918110124567,101.59812350851425,3.5218839742028756
27.843807134162095,100.07040398307011,8.972368922977408
48.270019139805655,89.04974941444691,13.406182047817296
130.56771572228251,68.50897160640355,16.314409227072254
207.03988716144585,40.92549587835533,17.39159571287582
265.3245876113396,11.371110023548464,16.54943952035593
295.42371632194994,13.620096150563915,13.983263453644549
291.73787577246145,28.097878999311973,10.0381461159174
253.94469786570363,28.790862734937125,5.102501896370304
186.71439354358495,16.275779782742646,0.22228404079564468
98.65968262218236,5.322659515082372,5.157536461762516
0.9255218907930828,29.885483615686397,9.004744274068054
94.36012940835279,51.28356478386701,11.280307414436537
175.6482604250787,64.89695116515729,11.753511882566142
233.48457644603695,68.15993613933014,10.545521683740796
261.8466076690719,60.25767562572124,8.126631387938609
259.03728835741816,41.569387839591776,5.111132171711288
227.89167400367938,13.418048671697122,2.1124753646704715
175.1641711666678,21.731765377989294,0.42618728735116684
110.15447107638425,59.98447521100052,2.369146614102753
42.86843820524234,96.18492195781386,3.833042994358949
17.837710931297146,124.86284881014284,5.063469384817034
65.69832146957492,141.73958291553058,6.176967752895686
97.78253924721746,145.09320663827106,7.10846529521638
114.40778103379569,136.22949525103797,7.785075507111783
118.28118406003492,118.76561988186788,8.113928583422188
113.1596548836559,97.07184607121934,8.016948355250172
102.47993813529354,74.63673574206703,7.51220537467894
88.46087799558033,53.12433723373932,6.691323035480968
71.9834551848517,32.46981555685753,5.638137337564836
53.2136409761765,11.743574504235172,4.3093661946213935
32.60047516920215,9.83409420409074,2.5614397706634127
11.634123049109634,32.26061965383465,0.2600789341790152
7.130403955565032,54.6923078885563,2.5689068591095987
20.848872498821166,75.76774049641853,5.590213872807824
27.548627921285398,93.96568563162826,8.314956411178093
26.972576381554383,107.7915254580163,10.415705605828197
20.60187266758204,115.84941526218084,11.798121628212893
10.863704586480683,117.02319085459486,12.428703692091954
0.00839035160936033,110.88384416337608,12.30862794675619
10.64963331459967,98.18205960258031,11.556107297255602
20.684756975789355,81.08753307291487,10.23135822614707
29.83316209277781,62.83371682619564,8.3326336755169
37.202565858120856,46.722734916099,6.005960997446801
41.0781847932866,34.87685197520947,3.458579276135897
39.56436996231947,27.350564329784515,0.8677188508459162
31.716727928155365,22.074508960799697,1.627199363691942
18.39625496944203,15.721190242172371,3.9859018685261867
2.1960484406391934,5.121143841576238,6.238397935910363
13.619856303787886,11.437887931102397,8.459808464419591
26.616297275780546,33.56050322848789,10.716543655981107
36.2690905572439,58.92526474488227,12.96837123509576
44.00460452807554,84.0947166919776,15.013785065098011
52.19398461320045,105.47597139097395,16.416326670972232
62.71324797839452,120.04437258139603,16.565636231618356
75.89507219772942,125.69063519337911,14.987477730966614
90.35499526416694,121.29948742192866,11.568227992056618
103.63109652930407,106.8021745448933,6.459102168376517
113.16663926057502,83.30679856312184,0.015774551356742248
117.055719028171,53.20984556623412,7.119010872766503
114.24905234707826,20.082091265257294,14.152580759340983
104.34298266482922,11.859054787549747,20.274164165034833
87.3147660046952,38.656665307242186,24.620005715694962
63.48629507686687,57.60965774031671,26.449922423712167
33.728687747060896,67.95564402768522,25.364212568494946
0.3058425259806515,70.92222089236351,21.359513259156895
36.200506526368386,69.1036640860274,14.933271785537901
70.63627207407285,65.22543762540766,7.084269055627835
99.82445206290889,61.306243173005754,0.992706092005303
120.61520382745347,58.43072924601718,8.213455505946527
131.19780992046992,56.66451280334522,13.759296579149629
131.38444823400425,55.3581281497121,17.17533586800068
122.45533056193992,53.615502421851275,18.406272471982643
106.73173400200213,50.71432886066523,17.78866339640305
87.07047192086497,46.341202006197214,15.892234397733606
34.07993879922405,0.535557362745517,4.35563212372282
37.43725143641986,6.576318070376751,3.9282050288681503
37.36387487332683,14.528859422328424,2.8400895958691965
32.48977094699392,21.462992920609153,1.1854763075086652
21.552104641428382,25.305735945112946,0.850421219535759
3.771933639704256,24.402837917785835,3.1195948005606806
20.739172701174287,18.13971469016134,5.5268325764976325
50.62925039303194,7.250357458354351,7.922150558616679
83.10320365166467,6.277477656583882,10.06592099020513
113.99070568257103,19.75550015034323,11.640209501065966
138.1804679184093,30.53768774929128,12.3409637112442
150.53414159759035,36.533998371903984,11.985827820524166
147.26883268988453,36.380366263240006,10.49214971460786
127.29165667743263,29.74328222102216,7.885456614086973
92.73811700113329,17.574214433122116,4.34465158747074
48.593943461268225,1.6448196530388697,0.1839475142968015
1.6556600505937973,15.916782842397211,4.213182847181921
41.05648678415252,32.763000122682506,8.437113064866425
74.0132648582895,46.627180737656886,12.042684888201725
94.44802703861654,55.556941398073896,14.625387822293485
102.84064749164477,58.18158139247671,15.864119369908941
102.45305181078606,54.00441213403596,15.503595083725253
98.17075510246559,43.40061004414812,13.455932917572587
95.11782534065148,27.439760549637523,9.925684471310293
97.41608506913813,7.542564516956877,5.445661663604698
107.32563999723037,14.83121906730783,0.7369591213263504
124.74404361050517,38.24892847763272,3.522551111448319
146.99870581743212,61.18580004799652,6.8733922978896915
169.00521381400125,81.79359085471648,9.142107087083696
183.94498011575746,97.81861531785516,10.306809042678276
184.6148905012507,106.8359348514188,10.406080687528611
165.31642595157015,106.73415265574644,9.57556601514673
123.74754634258493,96.2770549305744,7.9497165536039605
62.153571539125096,75.49192827713837,5.607023507448738
12.84976953126581,45.754451388984805,2.668974259364177
91.83331808281598,9.592092871062265,0.6783821530307736
164.91652810921082,29.667748754744533,4.233286723133913
223.96906428481827,68.27340585093212,7.7053099100633045
263.83867805543895,102.41280181204374,10.6578433316657
282.357169936967,128.58381446712264,12.715915796098647
279.48021840660107,144.0044683857301,13.691766506747292
256.3597340558097,147.0286740205007,13.449553961218877
215.02265496540588,137.41011383945386,11.859788919130162
158.724116080788,116.26566119620894,8.931574998354224
92.51988980734926,85.7277704212186,4.893578073102435
23.39793915685618,48.439110706252904,0.11172915253621678
40.45837695419964,7.1602726977544515,4.920323658185675
91.19682585465164,35.31940204752116,9.602894247229687
123.0664719883532,76.00606617271049,13.367790957298206
133.68442885709104,111.47696500641254,15.726847318323678
124.31654867575696,137.91881193227317,16.4481690302486
99.19880431227784,151.65252725075905,15.687001907661026
64.27962419092317,150.04893250160296,13.818641001718843
25.83870555544425,132.46287348885053,11.31383869048789
10.637591567962566,100.74732122056156,8.640351341992677
41.12396098707312,59.034297946742015,6.131090326240387
63.30626785507602,12.813838366153607,3.850834695121574
76.48259148780033,32.331650121848675,1.601995836246537
81.13585781107281,71.87686888094075,0.8187767461656207
78.3076685400077,102.98791525408754,3.5166605296803826
68.95602763742723,124.52037560285012,6.490731423378752
53.462251367866614,136.55452869909405,9.5559444943351
31.445793795645624,139.76611128152152,12.339479706481322
1.9751603306493724,134.9496419936682,14.331373309902485
35.87078864915759,122.83251396654714,15.109320221560118
82.26485311421987,104.09384067650457,14.529576773391167
135.88649458940367,79.44850095864885,12.666449539440903
193.29077171424598,49.69951506704969,9.679170806493612
248.58111649786358,15.731614759078804,5.7323075933108765
293.6409375028172,21.49489602246102,1.1275210024049698
319.14374005290097,60.84593175797436,3.5481705124108758
316.41409854952184,100.80429227496703,7.537769807602564
279.85653995019175,139.2720291491759,10.159861452510594
209.1873016363693,173.53639042438164,11.047525814449141
110.50187162541742,200.50953359224093,10.242916796781936
4.463754755868274,217.2206406028471,8.112872658436693
120.84947741489707,221.39914913420523,5.179969210000846
224.1682816866547,211.9309848600809,1.9736570659993187
303.47163615809,189.02626429683372,0.9620653988671978
353.0230602899998,154.1000585953104,3.065722278115882
372.10424596801704,109.46731184368242,3.91630957223954
363.49404431022134,57.98436166380389,3.4016322251625013
331.6618444322064,2.7803854938247037,1.80647406458103
281.56679818262893,52.896559498232136,0.24253106847049372
218.3486368700111,105.81100742655853,2.0037762308262344
147.54329737312653,152.92092870819283,2.834058661082071
75.13225971322507,191.61489471513414,2.3704991990527544
6.967545922973817,219.94945852117527,0.7148441634951509
52.2605431524755,236.80543806687552,1.633593680324244
99.89165398464101,241.9064055783811,3.9966029067664386
135.43454865072053,235.72117652511741,5.661337254130653
159.8782350241254,219.34772876275383,6.067778584542884
174.63173135813176,194.43972600423405,4.971966716403358
180.76082727329086,163.1523240929083,2.477183298055603
178.92513272843038,128.00975119559243,1.047381938931214
169.88337569544979,91.5814969498693,5.127911566830233
154.99186688004974,55.97179020100104,9.270005439246082
136.14920823481094,22.32147613372886,12.91501857581906
115.1158047532726,9.375533050321838,15.429534789700211
92.66977314393027,39.961762536692326,16.233474802457724
68.2411498167191,70.3804785689134,14.956135727164892
40.421956438041896,100.82434621445773,11.600798124485875
8.196813570758948,130.21579987889962,6.685875857041136
27.825778305909576,156.34407720541174,1.046170014181014
64.89257275142386,176.6326405544419,4.491769903958533
98.53156937019044,189.14095193978926,9.242336943484503
123.7029371685383,193.23832084853788,12.863338484330693
136.10777369966846,189.57019631219043,15.369006706270943
133.133456688039,179.35465627166786,16.80129416831183
114.29545808518694,163.44440369083134,17.149365606973205
81.3125066950243,141.7684391786937,16.487652853549097
38.019830332523405,113.56290745330793,14.93857073937846
9.867193172592435,78.30736326583384,12.637527296682533
55.35339733678024,36.830794686901385,9.822168964857628
91.29857497438013,8.081224891148938,6.7807662981005
111.99205808446564,51.981239178909455,3.7527595670784093
114.68119028841517,89.87154440581625,0.9896913143072572
100.37319599185828,117.59912295718794,1.2132293709571178
73.51858429707548,132.8887267565388,2.597921940487976
40.71359819328284,135.64261851003084,3.0978748591446377
8.958795183108787,127.5460728511123,2.89801949678377
15.856230768688576,111.35148240998915,2.275388388139116
29.799598121142665,90.26790419705198,1.5358402694108912
31.12382974246251,67.64886746782642,1.0091507663740218
20.250258956326494,46.84032436058238,0.9039901962520878
0.19506393816513756,30.883568329763772,1.3272844590054054
25.387460711330757,21.92108851690963,2.35901150788527
48.72970404786717,20.467938150074545,3.9701509004112134
62.989815755531886,24.949020543256495,6.075382262571497
62.084090196405086,31.899005251700213,8.571118709126516
42.94470168408245,36.93066202462535,11.190659639344343
6.6311092214362315,36.12675845938768,13.584460067173008
41.900176992405555,27.250804743268223,15.538647919030613
95.33585687873678,10.28977948659063,16.91238891752028
146.2039212834438,12.826613879940574,17.542455924481583
188.75618022837213,39.07117646967125,17.30357157988135
219.7566959978343,65.22941172284104,16.128213431133222
238.0542927169473,88.47753993562743,14.039204220402691
243.46059958840996,106.52063050900878,11.147186008320102
235.6819988551911,117.49000818902493,7.614530453139336
213.9271277828087,119.90216263999261,3.687229829604792
177.35630946488274,112.8391600168426,0.3588106560828231
128.63589450566957,97.17422648843308,4.189008544825704
74.07074247751653,75.46416070215675,7.4248920625381585
19.895794981208482,50.53585884276357,9.802446710380556
28.96173705226237,25.037572213174023,11.190778464361063
69.57867562672288,1.089958485285278,11.587598663382261
100.95174394058826,19.846105245749218,11.143761974223588
123.25267556102787,36.84970147067702,10.067566926486178
136.87695600279127,49.274291573034304,8.510603544020071
3.286762432709404,8.520876778757675,1.1530280825386272
27.33049070582372,3.8166940846510764,0.5267177523804379
60.20289556531144,19.703998641853836,0.5476478907402256
88.80741561871865,36.839102782511816,2.0408062825856312
107.08237716656957,52.06714948820361,3.8291565548578372
110.75172799685672,61.962241171525505,5.748712653384315
98.15404467837826,63.592128487801595,7.674028137064904
70.30504673701269,55.20522789221926,9.407567745360943
30.583102933803413,36.77645629238489,10.612213766138241
15.96042973476445,10.153980785816314,10.931362447640995
63.27760373150512,21.139497957020694,10.10311280770924
104.41641865970442,52.19080266827241,7.974000450154527
131.36962267086233,77.09629738847802,4.538212154201582
137.16383278152563,90.37722598989389,0.019538186946252763
119.366728514655,88.7662737412895,5.388655466296451
80.85523686706078,71.62211043906899,11.124155169815923
29.082407715047765,41.00909097925573,16.6452494186796
25.090301542491176,1.8579233891160554,21.371883139154846
70.2699225933638,38.779658609425276,24.808777355893465
97.30079684018305,72.90144808950568,26.583686415566202
101.36535681408934,93.22976370191496,26.434794215302837
83.02691059276637,95.12160496856201,24.206716786587055
47.37907329651197,77.81268996043251,19.940255496218136
2.343871123177031,44.7895568162507,13.915774324920038
43.46755320009482,2.916667453978862,6.69193838586937
82.52205768142109,39.37016816113863,0.9511452369664949
109.16711925233248,74.12431152427322,8.241332636615788
119.84431581697713,95.6328447653808,14.527566592693724
112.94247932505661,101.25813661031125,19.27250630855092
88.88444177002202,91.45129767475916,22.098462480826786
50.484959303670585,69.20958370446544,22.881728405553154
3.1886552083781137,39.333393842057376,21.782578294427466
45.28975553116333,7.736175103051137,19.188413476090698
86.35378611541744,19.32817275437478,15.665681202726459
112.57787824414491,36.25858433643143,11.781035982670446
119.73331773248191,39.35485242554409,7.936765698423057
107.95726176004088,27.998863909960416,4.528686537387557
81.45391157583309,5.195349846288758,2.0548799903405834
46.90894801664447,22.953962874820977,0.9281672678599545
11.352770557010594,48.85381087889003,1.2438667845974185
19.61048142485131,65.5172262737036,2.6870208733223016
42.60797471608046,68.34119378659896,4.700908227895135
56.32453926164305,55.873427532857164,6.7664830681361
60.78263463058134,29.409602846062572,8.446100064288473
56.62927664612514,8.078014024928912,9.269749651937063
44.76803506512543,52.94245625279288,8.77839100700908
26.338452943815888,101.23153598155102,6.671967489870294
2.8128805032363307,148.4169366013045,2.891770620702192
23.96769329641027,189.06925916225194,2.2945626425426076
51.85098305812554,217.14841896298273,8.239188789953387
78.45272865697314,227.13140475651022,14.024414022052305
101.16105161383548,215.57160009263464,18.60617576467429
117.17681308370814,182.32477417363353,20.905962902456878
123.79590566298707,130.75883027035735,20.039674580114184
118.93812752289887,66.80468150797248,15.736860067631103
101.748170978347,2.600566688351148,8.607336925937085
72.99577961723197,70.85791635832584,0.030954525737733947
35.001067905667654,132.2932691402035,8.461402931989156
8.922829369968378,182.06073015658566,14.909140830384972
55.149769244221204,215.9515000747119,18.0598679104825
100.13571148790193,230.6732644023433,17.284755861586014
140.38943375711483,224.72960597292715,12.503371862400684
172.22122187738367,199.45798875130941,4.205356116227273
191.7512720443725,159.44149437155932,6.4610622509288875
195.56938610733536,111.7638197956393,17.876186514429076
181.8917713465305,64.22415743619486,28.28838548940143
151.55639930915402,23.24292510052242,36.049077749518624
108.15607083636381,7.5633966214719734,39.83860020119678
57.04545296827415,27.54616870622754,38.89313548734727
3.6750235978931247,38.12454753871341,33.15915092561754
47.80253265861584,41.553904178854005,23.455096387529462
94.83182335523136,40.07736049447988,11.350637186549562
135.53277403350822,35.76504852569117,1.3232250671817882
167.31457896573102,30.7723523025156,12.95023831131012
186.19440538989173,27.428630619132313,22.365988826469394
187.5705792263469,27.76996985089336,28.85632897309129
168.22861523363446,32.659221121495214,32.1871185438608
128.4835216846014,41.094709115134656,32.61337163458388
73.14235790418877,50.30509789479463,30.62927583003465
10.55807059035352,56.76372216015999,26.76601280596844
49.83091552048502,57.650945180003035,21.595662146402876
100.22778692953965,51.956380409459975,15.770731098021022
136.21088123499945,40.61392261755385,9.979257147234717
156.86346809989234,25.651810363216303,4.830712591920902
163.65243218105044,8.948005205592608,0.7880856772996185
159.02583123790922,8.590972045364538,1.9379777360466022
145.5205760542796,26.90421396153922,3.464447727134235
125.53851676764955,45.829637621972175,4.108912776774193
101.35459368771514,64.03038375514056,4.176038351626695
74.8441854486745,78.5593821601096,3.8380681592683414
46.899540667228024,85.46280305797995,3.2232185816507912
17.02564440091985,81.1883003004566,2.4846049891963133
16.287434077958768,64.05500768533524,1.7034027320581384
54.285148624505226,35.05337666830056,0.8964383010465402
96.34343610750686,2.368185603506959,0.11462616180094433
139.07008028520005,43.30740415693732,0.5628468810077106
176.89092981150228,82.60883051696548,1.1038921822231553
203.94659466113504,115.73881248160492,1.502162041323949
216.2617528117084,139.11618844979535,1.7225644800956788
212.9550199857271,150.0653069270319,1.7608908335420466
195.83582960512967,146.79805819177938,1.5690485789455326
167.8224338437333,128.70638512532247,0.9137014237860935
131.42922173325366,96.927098415462,0.46168931206152497
88.4649237225872,54.850924065076576,2.621565302828246
41.06080951863385,8.119277947439537,5.432435584059273
6.963011114457628,36.177367671244916,8.595526737711847
49.75195670414266,71.00418504064255,11.740169550942284
80.90583396855911,91.14600450240098,14.545746756169487
96.30311753018562,94.61730205091054,16.691881922804455
96.54721845192753,83.17513614058518,17.862668984302886
87.30776083075224,61.732241585134574,17.878728367732037
77.02771710492303,36.8955855725002,16.715978200479004
73.06262733636227,15.136006108545578,14.480086139899456
78.36646145186994,1.2066957770967954,11.349992486180266
90.64769308443131,2.7120250274119013,7.531103179673041
104.45453459448666,2.9982857650665076,3.32916463989604
114.7947778328169,16.085209291810667,0.8817733419941003
120.00009600968619,33.38603259574794,4.801141454022683
122.12613466030531,51.644334206822194,8.24277995804306
124.77520035845971,67.97157842702592,11.114946860611376
129.90356872271994,79.99574367694913,13.379766152467608
135.8175894306554,85.89223266243879,14.98758515488185
137.7269077183994,84.48158429618653,15.856007781124067
130.462102698094,75.43190801727694,15.948729056677568
111.52977736877402,59.40372349352941,15.316091448833937
82.52853178617097,37.93040102831323,14.067055908091517
48.02075648068922,13.002120494988368,12.385429946804248
12.639211650818272,13.470228730445326,10.442425985546143
21.579061275153528,40.00279443283308,8.302815019744424
55.85631811672798,65.43698670408897,6.0301606906787315
92.95146242442365,88.43762093028371,3.7803103252024606
134.21779952934904,106.94302985416957,1.7493724000366844
177.40758505940738,118.02151296015559,0.06283472023697304
216.73748379021345,118.47534430376774,1.2818991368736745
245.2561752911562,106.1093856547063,2.3479278472804612
258.030223525757,81.10690218370429,3.172305154091136
254.18696856898197,46.780655106337626,3.846838012945509
236.66777702807093,9.198405124352277,4.566547854584941
209.9915548084204,24.28700067946109,5.431869423770531
177.5932303476243,47.06495249493346,6.352270441777839
140.52563428833636,55.04728154408228,7.059009815246926
98.26374062765727,47.54012217309585,7.0826991407560715
51.92044450407727,26.093628884013274,6.100434929526079
4.857316205724816,6.375937156758698,4.106689574094276
39.18344958519219,45.3254345011509,1.2681381117723798
76.73728522445788,85.04433606050605,2.058872781470833
105.54082945365784,119.38922573956488,5.426754416620129
125.07395987726917,142.79676315374357,8.465168372002733
136.27853532797366,151.4626181121431,10.893748595072626
140.5763264799328,144.35333283755762,12.446867606013374
53.17869786476049,13.922378685032298,1.4848342881028767
36.19034339813604,31.249533937688895,2.047255186443175
8.603537113569752,49.593173438076086,3.0123930896189046
25.22998530918725,64.41561411042183,4.095582466092223
60.6947923095551,71.34975697951954,4.906454473716389
94.4935209136665,67.63700485125695,5.056199247579169
125.00162121623575,52.98143661318102,4.248615114293359
151.34001247575716,29.397215027003874,2.351113751649574
171.8011328993752,0.2845577900594771,0.612024101282397
182.8431997777901,30.830936044403405,4.462238169379847
179.28053382775536,61.23564651557357,8.784759208286397
155.7268587366048,89.14830488102757,13.002721976442558
109.11148035737915,113.17212565357508,16.666308158993488
41.34589060642235,132.01854352003068,19.350368864488026
40.327266937801944,144.54602338545675,20.424657460285115
126.13522127312865,149.56931533073237,19.39563517372084
206.82634798930005,146.2114115601061,16.18217402512762
275.23959781276346,134.41335770752076,11.035331223897476
326.4017906746599,114.60160813447716,4.584519484257123
356.16725915244507,87.10670885881042,2.183531648418072
360.0350632315585,51.664823163691416,8.23671510067408
333.4584196589602,7.515548264725881,12.852911238046213
273.6970468282178,45.49079699682418,15.700721701798884
182.56285766084454,105.48374699055869,16.732112415248235
68.29259630699967,167.54057366936237,16.13501526603514
54.77298979399531,223.83452174099656,14.278611123352889
168.9928791886686,265.262108419105,11.66966765020564
257.8175980185273,283.89178367854123,8.909630244737395
309.93182531018334,275.3001749732197,6.563445281515365
321.7146475419002,239.80931877127819,4.995137680211757
297.2688465743901,182.24423279496438,4.29441758272321
246.25654473032205,110.51568198953264,4.388356300484586
180.74107199020258,33.74152866720508,5.160252761728677
112.35733068466014,39.319609654259516,6.393445987109673
50.5800483680915,101.23483287297725,7.677030377954331
2.0974077009629295,146.37641081285804,8.51093633911444
29.160691842492216,171.2413777036329,8.50147150496506
41.91015406733621,174.83614804804742,7.4461133540940985
37.58649609520053,158.9871654334008,5.4126095755227945
20.369023406751147,128.26358548908735,2.7128877427057603
3.280013365731888,89.21430241503944,0.2938794619049551
25.823796058560966,48.95289493019235,3.2838887865780175
40.46259558390619,13.563715732032541,5.947855248359922
42.965434178493986,13.060162945746194,8.043504751621503
32.736242836336714,29.485432400781097,9.457737311904554
12.62503674479666,36.106060305853106,10.233937565543778
12.403999894432326,34.09320544345378,10.546361892463409
37.155459929643314,24.55668815953052,10.591240912002897
57.81762083461019,8.339859373027604,10.529211570722756
72.6543556553889,13.561999324799556,10.468067101998802
81.64798566739512,39.34051076651366,10.383636743820698
85.52625489286153,65.98360726722525,10.162074564538452
84.8511375599513,89.51451937968987,9.696091525037875
79.64939604783595,105.80569086833106,8.846119442713947
69.66921365547762,111.58488660520743,7.504248034602654
54.98099470302288,105.20027913336726,5.706289340833251
36.44680056752643,86.8706627872022,3.5796045472386804
15.732846425857897,58.43207150362062,1.33910327369124
5.0945517347839155,22.813290433535077,0.6895510360890386
24.05828456056169,16.47766214403241,2.2327878774666963
39.51609868432589,55.70092706618071,3.187644051778155
50.0863716949152,91.1125765197377,3.5553241618069604
54.44761754653548,119.21535164816945,3.468098371235151
51.354959513177384,137.15499755101018,3.208220003497223
40.081402956825976,143.24111524838872,3.0832902323881277
21.129288707558263,137.39523422040833,3.34613709083073
3.23194352047953,121.29519097683858,4.086256942398768
29.088488543420155,98.06726364527164,5.229856153575631
51.84757924556944,71.55882268024473,6.686975969735748
67.7096779431786,45.39579877414687,8.302404948948872
74.97194226591816,22.112447157631717,9.74240915798559
74.51170619320015,2.649192113879199,10.489557176841945
69.1511459002866,13.65151467092342,10.019571300351934
62.18942107550157,28.607143494609605,8.137403361009175
55.848545619361836,44.46814905511342,5.020477461139455
50.38280922647784,63.133462498268635,1.0866473313764513
44.203445169993756,85.49257598577634,3.038412891570327
34.82871826390079,110.9822282919361,6.712699337291559
20.094308065717417,137.4231949777691,9.448108944585114
0.9483652889787585,161.14441793932815,10.88466824451621
27.709159854998738,177.38584383499804,10.811290604086626
58.20350924780555,181.03725907513822,9.274486615109641
89.35917520637992,167.68448595389236,6.612095395247356
117.28845302785693,134.7895489328987,3.2991906843452825
137.63097876565396,82.7510151984733,0.24352704301539016
146.21700851598712,15.497406921216683,3.712896386445984
140.14400084324706,59.69844032773146,6.859862986830474
119.00717538735297,133.30085003118853,9.413739107850272
85.67616630413424,195.31795643152836,11.098389090127414
45.99874463071238,237.3677358829075,11.683921516967274
7.300357507641572,254.4396204044082,11.085868250039274
23.781211440019657,245.87300809673064,9.401606982744797
43.17947453475831,215.27249491472145,6.798318437327945
50.12877271614838,169.43960573602516,3.555029665860164
46.46602565445819,116.71785462232579,0.12488586540631254
35.078828465733125,65.22512673186503,3.0514517358154314
18.56105275804831,21.408485321282093,5.650975868154847
1.1276640752016505,10.806076211351847,7.518040612501291
22.005979499024434,30.26839419021247,8.709816430208862
41.179228270260936,38.388173974313816,9.295599221451438
54.67251557651542,38.54860485974477,9.231912638260432
58.48023816752845,35.25928550589255,8.454573028595817
50.394474716837394,33.1651409283032,7.036048953470099
31.386216682722296,35.99934041314873,5.283402703334661
5.447736599408203,45.657192846778386,3.5554753003467314
22.227255425137916,61.67713776617706,2.1360171399831835
47.80163866497755,81.35403101717432,1.2975938922457086
70.54512733786643,100.54283635601149,1.176186833760104
92.5650519803726,114.96024684618693,1.6182147726733855
116.63002562223495,121.56275627690536,2.2903864199247397
143.46169716831687,119.50632996466548,2.910514544759117
170.22037452819467,110.28978467107305,3.334561823645853
191.23026694321126,97.02750317472184,3.4938406446922716
200.5688802162223,83.179593425317,3.34955912951978
194.90353773842958,71.25186313329166,2.8227523809102215
174.78508767174569,61.98601089930071,1.7208745987599825
143.61844722425934,54.32354272273757,0.2175679393955695
105.07700519789849,46.06237734819168,3.175613951636359
60.75575550059279,34.844678857870775,7.027091068058471
9.691475957059549,19.029645685811218,11.232816120032858
49.869678367687506,1.8259665296134129,15.017901218180459
117.59416945799593,26.928446724800246,17.68236613277661
188.99822506567423,54.5023450250311,18.813176177197995
255.64788930399382,82.10133119925858,18.225456042596893
307.6414093019946,106.85074120257285,15.8853358870314
337.0326762744398,125.64001284266962,11.991098710355319
340.3446729692335,135.392830208429,6.937060304604531
318.9388969336001,133.55139106656094,1.1589981063386237
277.41106481769475,118.74801536406787,4.8553014144807936
221.2956990103733,91.48489707297072,10.455668191177491
155.4938935809152,54.53752458530752,14.88636774723251
84.1089222247277,12.819460908471298,17.468603661477914
11.280089576355362,27.356735432220173,17.813207785969077
58.069887311370934,59.47658884194638,15.980421431762064
118.45050454042278,78.16190618585635,12.452766673694398
165.02303825415026,80.26736946023506,8.006862697975038
195.07101323416626,65.44614418863257,3.5262350551594817
208.7475126996724,36.09974538467846,0.19853318110743848
208.5841382832035,3.192081287550631,2.579285268055411
198.11174156529364,46.56433841244685,3.38383614879023
180.49671158786344,87.84018747482428,2.78886767155704
157.93545419383057,121.40359653938202,1.16244464207226
131.74729041158471,143.29641301900222,1.1314491231908028
102.94242507193903,151.67569179809686,3.7253069294369814
72.99358754612818,146.58732779723854,6.253829991359036
44.14107058283111,129.87248552159593,8.416854462309
18.960950916939062,104.8190894557649,9.929838309331961
0.48465487191747386,75.58295743861316,10.512367891156764
13.335925990870908,46.45270631247857,10.019875896471783
20.04904102551898,21.097531257724242,8.551850163852954
0.14880884944373074,6.8397431205287615,3.0703595346515438
2.943883793681211,1.1506215206584316,1.560639245022354
9.424772343495528,10.605393044119646,0.23602348149821487
18.590175682914573,19.81694103871029,2.014629021724064
27.93282118373269,26.903432390963854,3.4434240716824807
33.72946138317856,30.2212552143628,4.292997151399117
32.29909753765078,28.753857056054102,4.4854695267536515
21.38340658377214,22.327938381772398,4.113596088928625
1.1174841600042797,11.718875212039796,3.436239949535578
25.799062029469997,1.487439450551454,2.792782260636395
54.68156480771122,15.183594514339015,2.42241187708486
79.87127789578639,26.941200916387317,2.4097600952586293
95.89700447500904,34.16861363912359,2.84757861726438
98.66545912578789,34.90203381662608,3.900158972858415
86.15474031231632,28.7334102178496,5.658549386624063
58.47350712976521,16.613228120293844,7.893282187913771
18.188387965433737,0.3813220099597396,9.920588433469737
29.244142134670497,17.53596954899252,10.870764119368278
75.83460246981404,34.744073774565344,10.176664903476324
112.40024159716658,49.216639441076225,7.768620628202921
130.925013152855,59.45496272574773,3.905333567443529
127.15752938881948,64.59392937226916,0.9841875103796948
102.17777992717377,64.29799216510213,6.2772960645349904
62.19960657807415,58.758937951604466,11.207462118696224
16.488344759914632,48.63185061244806,15.102796177022771
25.660457563221275,34.943454869577614,17.52893548096925
57.49689729496755,18.998146533085848,18.260146359087983
75.96124747828682,2.10353051749779,17.27976892074678
81.16881642580113,14.73705198829922,14.821995922299807
74.98740685916594,31.0859547984044,11.279041524702347
59.78860355097923,47.123487260391315,7.1102746877699525
38.063344579367325,63.40109968515112,2.950200663889911
12.787548478815044,80.38884951453598,0.43435900615225426
12.217205172151493,97.93538246053768,2.430912487700691
32.69076197381921,114.91577873691217,2.8538531468320705
45.273277735569614,129.26947256268224,2.0908364329061904
49.01656990311558,138.45293129027215,0.8377056601197954
45.967707583863174,140.15205178894067,0.3440259885092806
40.16975012417812,132.94932296779476,1.088885612567805
35.3412709807018,116.68444805991055,1.175318984281039
32.51551707286279,92.38969545102303,0.5567959273114278
29.16271827027104,61.90742882687526,0.7095075707344699
20.55195611287451,27.414077109993862,2.498451733187082
2.7955526547713108,8.975232369735629,4.640517745959555
24.088988116489485,45.40533967574428,6.994040547236809
54.90297791896703,80.28928157295317,9.385782465423546
80.67600950315737,112.2623762812282,11.512552153743867
92.19538077596543,140.19559371885768,13.031068431816673
83.89371077117016,163.2367988434147,13.706952456995145
56.14275027944308,180.7884947338968,13.441718685003611
14.94042616165101,192.39492014104977,12.296491698752233
30.598094288326102,197.55667411614195,10.462946444916616
71.51931325570747,195.568776890359,8.133144591090565
101.43596987800342,185.54207034971782,5.399377729842184
117.17939291122069,166.683383697983,2.1899202099097144
118.05433138694528,138.7649049021824,1.5855846462781265
104.67298246430373,102.59668000911923,5.736207055244014
78.30090257703024,60.267422915032036,9.7672920095926
41.08751200023326,14.983669389231888,13.101488034569007
3.326088717453437,29.475886614427186,15.26802081757352
49.66584888560904,69.49844140923511,16.006038605175206
91.82870890733373,102.33574094727142,15.198464963080442
124.47002952657105,126.5758410846112,12.818584314605848
144.64614029737902,142.2843400523954,9.066571424644145
152.6429374931035,150.79796072991198,4.374181559986057
151.50051822111286,154.22878962344546,0.684675467147173
145.42164667402176,154.78728307944695,5.399658828806912
137.7746697292093,154.03397572234664,9.034857751277757
129.5397711987112,152.22553118832866,10.984359866356941
118.81702960775213,147.99998316995035,10.830749008897572
101.55761421646156,138.61751938408585,8.35832569477071
73.2459735665757,120.8312184150404,3.6704943218278556
30.94183437421232,92.21598258537611,2.6222450740098115
25.02699847021916,52.51107574286376,9.354817589277243
90.32978255106983,4.420317505051843,15.047473984210765
157.20700699208558,46.52964780628304,18.523385118898204
216.2790864818096,93.13754701307799,19.30787876406002
259.01492891953677,128.34646155893626,17.39671190157775
279.9519312216723,147.07851883347288,13.022452425921504
277.7923311679325,147.41686673323358,6.633693257077098
254.94277957518085,130.77474357699396,1.0450340658889279
215.83161513316952,101.12999948068833,9.00311207743344
164.97057234097156,63.758250963475945,16.219430955905022
105.78618371854371,24.01480072681926,21.91369352053603
40.80066129400121,13.436011848097438,25.585573087736254
27.09722851594149,44.885930656773695,27.00575351952123
93.30477436159426,67.58627755854398,26.18333292707702
151.1429872732549,79.78514567505592,23.3622878565474
192.98572563875555,80.93137626924597,19.072250699919017
212.52197415123837,71.92805117553522,14.061595341047965
207.05310612797663,55.147522554649406,9.014401574949597
178.66272104773228,33.979063954078796,4.359718348516062
133.70410728211502,11.94045651319722,0.21681343324475288
80.91192565703557,8.29435155521078,3.6227138210410263
29.069045895026356,25.480970208907966,7.367430782021879
14.766860880149265,39.709164831823884,10.914244056580618
45.95240746118323,51.685193902283295,14.011694012256568
62.052524204341964,61.8139041975627,16.45198481429229
62.379254952364576,69.61705558145819,18.089452257510153
47.8275915738453,73.83098164597908,18.804527286577965
21.076049703520543,73.11764939932833,18.492334407145997
13.216002946680574,66.94987425449762,17.226049908186145
48.70677263105339,56.14414265437247,15.347647025370648
78.45933008528044,42.69861833304809,13.23976861424541
96.59441094441239,29.004934726459343,11.058665360036953
99.84339631891827,16.880172764759873,8.717900672744216
88.3700756026792,6.933811727454717,6.0607340039202695
65.5295031563569,1.4209148504104405,3.049415612873924
36.63651491538233,9.36526901890445,0.1483885083601348
7.250184883662495,17.85457103873107,3.229401061950326
18.40090087569533,27.031981362749004,5.865564244645675
38.37119759180918,36.146174999123566,7.781489034064608
53.05673104833893,43.919901430607474,8.857863309913792
64.42493000795855,49.079687803434936,9.148518420703805
74.74555720316452,50.749293393504175,8.75745156453197
85.27817073966543,48.5866961095356,7.797801468423999
95.44234716232425,42.73416253594341,6.455533957603523
102.81866751767294,33.74512629059038,4.977905621057084
104.01528549131923,22.608092696656023,3.5903685895588766
96.1218612834054,10.81130082929982,2.4605950120875777
78.13707043568316,0.2592615580604232,1.6973276559614725
51.72690714579486,7.116072724156582,1.3433924653895142
20.99345785597408,10.037349237602516,1.4274221123326782
8.648846387090558,8.597787418929865,1.9373894513948122
32.00318526258195,4.605784502995511,2.6744576925989367
45.403148486392666,1.2382730862579827,3.261597943963451
47.39526040440035,1.9693724030019997,3.3469399946996523
38.75233696030791,9.112674531547482,2.8682898056784296
22.05888698482202,22.57810393049086,2.115610489434215
1.1730602993771984,39.42689163325219,1.457758979067443
19.263407493255375,54.492235884165765,1.1074099305066747
34.332805555937945,61.88951318846491,1.1004791579103075
39.51651248844582,56.85352426773859,1.353814852843002
31.573903907135133,37.1925206323376,1.7401028563995604
9.482175698820397,3.8725306093354055,2.1262390505821447
24.922347224346034,39.333394549830906,2.398657280713138
66.96468251424194,86.81053036640232,2.4621272513274364
109.90911172223954,132.16228872211778,2.2114352192774636
146.32450414891753,168.96718240661033,1.5862149478635459
169.64645005451675,191.20233422680028,0.6305798469883274
175.48230287091567,193.63611413414816,0.5924182534717279
162.37015034717243,172.53830816525985,2.108602419809305
132.3399584649135,128.725211216235,3.9377401278378468
90.1240937661994,68.11361600328819,5.972622379310025
41.58678949874554,0.8590450545219409,7.964285876965881
7.128132336443746,68.6466842964334,9.577684644864133
50.37858068864289,126.39068671944075,10.577027453571496
83.72109555286542,167.61166899647787,10.930495420792216
104.47162474320791,189.28706009509452,10.722001475887721
112.00497487531385,191.99549700815783,10.070508752782809
34.1506190221574,6.47843053851664,1.4040612105218044
46.768247395908844,17.069718873544527,0.8786075117649151
55.47260248498164,40.425005004800724,0.278649368151167
55.60691371269658,59.62995040552875,0.3091869699190291
42.696789474670396,72.23135904711545,0.7501700180393162
14.077391671645456,77.48343420334714,0.963061639283595
29.46982507845502,75.94813733332782,1.0160089628574787
82.88229269955455,68.69423860358279,1.036099501577819
137.22689089640633,56.800663090592586,1.0838206675285313
181.4617557814379,41.10182701777473,1.1649285550801447
205.08220588744678,22.3116748525112,1.2613052423901852
200.71044338093208,1.847491134740688,1.403468683846818
165.83369790435677,17.20795376179069,1.8143560547651751
103.6533003644285,31.63397703379938,2.732346399816705
22.53350300496906,40.918336029390204,4.199140184783632
66.24133019071327,46.95922012945472,6.237425984541714
150.76555087576182,52.47692796844872,8.77091937964306
220.11271701787553,59.854439095703526,11.422005527680126
265.62490990537657,69.44039235126064,13.654651027978707
281.7456426237953,79.24757995359202,14.829700427174448
266.78811837697725,85.85336165673267,14.280215884657244
223.56658362600592,85.6966857453875,11.481415327506827
159.29814073344286,76.7194777478744,6.196020906419467
84.55168988071073,59.053832199808944,1.3286753619242273
11.00907767362925,34.91820838348356,10.408233366322527
51.36837291437721,7.852793762055503,20.02218271214328
96.66509033847389,18.418179722347425,28.857269816075743
123.99507347021625,40.75085318751683,35.56795859949592
136.7321183254086,57.04632909084951,38.982660328680055
140.35855504984613,66.26236092555051,38.24210724361995
139.87488909511595,68.19095034787011,33.060914513552554
137.90117758301025,63.25615433216647,23.925193586393053
