File Name: not saved
Channel 2: 'Channel 2', 12730 values, raw ADC, no filters.
Channel 3: 'Channel 3', 12730 values, raw ADC, no filters.
Channel 4: 'Channel 4', 12730 values, raw ADC, no filters.

108	51	29
178	89	55
226	127	-42
245	152	-5
229	152	51
175	118	70
99	58	65
10	-12	92
-76	-74	10
-145	-114	-32
-195	-133	16
-218	-135	52
-216	-127	15
-188	-108	16
-130	-69	42
-49	-10	-140
45	66	-157
137	138	-46
205	185	-202
235	189	-265
229	152	-46
189	90	-67
128	25	-42
63	-21	30
-4	-48	11
-70	-64	38
-141	-88	-15
-206	-119	4
-256	-155	-4
-271	-176	36
-244	-165	44
-172	-120	43
-64	-45	30
49	35	22
151	106	-13
221	157	-21
250	180	19
244	183	-215
205	165	-294
141	126	-139
61	62	-30
-28	-19	29
-116	-105	36
-189	-178	45
-234	-216	93
-239	-212	79
-205	-168	33
-136	-99	22
-47	-20	-89
48	54	-136
137	117	-106
206	170	-70
249	207	85
258	224	126
234	206	76
170	153	138
83	62	82
-19	-44	10
-120	-140	26
-205	-203	-86
-259	-222	-147
-277	-202	53
-259	-163	249
-208	-121	357
-131	-84	63
-40	-45	-387
54	2	-341
143	65	-641
209	135	-575
242	189	155
239	203	232
198	166	308
128	89	461
44	-4	289
-37	-78	2
-108	-110	-276
-159	-99	-565
-188	-61	-832
-195	-21	-748
-178	0	-242
-141	-6	285
-87	-29	636
-23	-55	668
45	-67	650
107	-60	402
154	-30	185
179	11	57
182	51	-570
162	78	-807
118	79	-375
53	51	-224
-25	-4	64
-107	-74	353
-179	-139	216
-228	-186	70
-241	-192	-210
-212	-164	-302
-151	-104	-345
-65	-28	-232
26	46	-62
107	110	10
169	154	130
205	175	126
216	181	110
206	169	75
180	145	75
138	116	36
84	82	6
13	40	18
-69	-4	-43
-154	-56	-52
-226	-107	32
-264	-150	40
-262	-170	13
-208	-160	21
-113	-117	39
3	-48	69
114	29	43
202	101	-49
251	153	-165
257	178	-103
225	174	20
160	142	-24
74	88	32
-25	10	231
-122	-76	361
-204	-160	337
-253	-213	97
-262	-225	-387
-232	-189	-920
-168	-118	-738
-89	-40	-81
-12	20	31
51	47	-25
100	45	-96
131	32	45
154	26	59
171	43	138
179	77	164
172	110	119
138	119	67
77	91	37
-15	24	-46
-118	-63	-147
-213	-140	44
-271	-188	-14
-274	-185	57
-217	-137	133
-110	-56	106
15	34	149
131	110	-129
211	160	-141
245	171	3
231	153	-21
188	109	144
127	55	74
63	4	-144
2	-33	-123
-56	-54	-117
-108	-59	-375
-150	-56	-479
-175	-56	-87
-184	-68	-4
-172	-93	41
-139	-120	279
-93	-131	225
-31	-113	213
44	-57	123
124	26	-128
193	114	-353
234	174	-295
229	187	-131
176	149	-34
87	72	103
-18	-11	98
-116	-80	72
-183	-122	24
-214	-141	137
-215	-142	239
-191	-133	242
-156	-114	145
-102	-77	-46
-36	-22	-353
42	43	-570
123	105	-409
188	145	-241
222	154	-113
216	134	-64
184	104	22
130	74	68
71	53	105
11	35	85
-50	9	56
-116	-33	123
-180	-89	22
-233	-140	-32
-253	-170	17
-231	-163	3
-161	-122	-4
-53	-60	102
63	9	71
166	68	-44
229	110	-52
245	131	-36
216	135	13
155	117	16
75	77	103
-13	18	69
-95	-48	11
-162	-110	-1
-205	-151	-214
-221	-161	-246
-200	-142	-182
-152	-101	-126
-83	-47	-50
0	8	3
81	57	3
154	95	-62
202	119	112
229	124	83
221	110	-37
184	78	144
122	39	72
46	4	-67
-38	-20	-129
-115	-30	-312
-178	-36	-251
-224	-46	-76
-244	-71	-35
-234	-104	32
-194	-131	87
-127	-135	202
-40	-103	95
54	-39	-59
144	44	39
212	123	217
250	174	352
249	190	323
210	165	17
144	112	-294
56	43	-550
-38	-29	-518
-126	-96	16
-200	-152	225
-247	-192	-41
-260	-212	-113
-237	-200	-284
-180	-159	-305
-94	-82	-282
8	15	-331
113	114	98
203	196	152
262	235	291
283	224	352
262	168	110
204	85	137
121	5	47
28	-52	74
-64	-81	129
-144	-89	258
-207	-92	185
-245	-106	-77
-253	-127	-202
-229	-147	-593
-173	-144	-636
-92	-112	-241
4	-53	19
96	17	264
171	81	78
216	127	30
229	154	72
206	163	42
158	158	120
85	128	48
0	75	58
-88	-6	-19
-167	-97	-22
-223	-174	-79
-245	-207	-100
-227	-186	-84
-172	-118	-76
-91	-30	-46
2	44	-48
89	91	-5
162	105	-2
209	105	20
228	106	53
216	112	86
178	115	31
116	101	15
40	60	-5
-41	-2	-109
-111	-67	28
-165	-115	99
-193	-136	-140
-198	-131	-217
-183	-115	-228
-151	-101	-202
-105	-93	2
-43	-80	170
25	-50	167
100	2	130
167	74	80
214	142	-171
232	187	-217
210	187	-46
151	140	54
65	61	101
-35	-32	98
-130	-114	86
-205	-169	-12
-246	-187	-301
-245	-173	-268
-203	-131	-179
-130	-78	-277
-40	-21	7
51	30	186
130	70	112
184	99	169
208	115	242
201	125	85
170	124	-83
118	112	-170
52	84	-246
-20	37	-97
-96	-22	-104
-165	-86	-349
-222	-140	-265
-252	-175	-55
-250	-182	240
-213	-163	204
-142	-125	189
-50	-77	225
51	-25	-35
141	24	-36
209	67	26
244	104	32
245	131	-160
213	142	-232
159	137	-282
86	108	-309
5	64	-41
-75	6	10
-147	-53	100
-199	-105	87
-228	-139	55
-219	-144	76
-176	-122	-13
-101	-75	15
-8	-8	-31
89	59	-17
170	119	-21
221	154	-45
234	165	-15
212	149	6
163	114	7
97	67	-19
23	14	-36
-53	-47	-2
-124	-114	37
-189	-181	61
-239	-237	105
-261	-260	100
-246	-240	48
-188	-167	11
-95	-55	-12
20	67	-42
131	174	-58
215	241	-53
258	257	19
253	229	3
206	174	-35
132	109	-18
49	45	-78
-34	-12	-59
-106	-66	37
-164	-112	65
-199	-148	-101
-208	-165	-263
-186	-153	-226
-135	-118	-302
-64	-64	-144
12	-3	160
79	51	225
125	92	265
145	120	141
144	135	38
128	138	-228
107	124	-349
85	89	-331
60	34	-177
30	-37	-42
-9	-109	-233
-58	-167	-100
-117	-202	326
-170	-208	540
-208	-190	399
-213	-153	209
-177	-105	-3
-98	-45	16
11	22	-90
128	93	-170
226	151	-163
276	184	-436
269	183	-302
211	148	-108
117	89	-135
12	24	-114
-84	-32	-110
-161	-74	15
-216	-109	46
-250	-138	-134
-261	-164	-155
-240	-173	-97
-182	-155	112
-85	-99	222
35	-12	100
154	84	255
245	161	205
287	203	40
279	203	-230
229	170	-394
154	119	-104
64	62	-9
-26	2	123
-114	-57	211
-191	-117	129
-247	-168	102
-267	-191	-29
-243	-176	-98
-178	-123	-195
-85	-46	-154
15	32	20
102	90	-7
166	119	0
202	125	-1
214	120	-64
206	113	24
175	106	20
127	90	6
54	56	45
-34	4	-15
-121	-59	12
-194	-115	1
-237	-145	-11
-246	-151	1
-217	-125	-93
-160	-87	-21
-80	-41	35
11	0	-28
101	39	-58
175	77	-111
228	108	-13
245	128	24
226	128	96
175	104	110
103	53	38
20	-8	17
-62	-70	-17
-136	-123	-64
-195	-157	-36
-235	-173	6
-244	-167	-135
-218	-150	24
-161	-111	173
-77	-55	80
18	14	31
109	93	-185
175	166	-530
214	219	-674
216	236	-382
193	207	-215
139	135	-75
67	35	209
-18	-71	352
-104	-157	555
-179	-192	285
-226	-170	-92
-236	-96	-468
-206	0	-778
-142	79	-282
-61	109	70
22	80	235
94	11	625
147	-63	403
178	-103	242
190	-93	-67
183	-38	-261
157	28	-190
113	66	-265
52	58	-125
-19	2	-141
-94	-71	9
-161	-133	142
-209	-156	188
-228	-134	225
-213	-89	80
-166	-37	-128
-92	0	-200
-5	23	-63
79	40	58
149	65	44
195	103	-42
214	148	-41
210	186	-25
185	198	-102
139	171	-353
74	106	-320
-9	12	-9
-102	-94	95
-190	-183	87
-249	-233	88
-267	-233	70
-229	-185	9
-151	-109	16
-47	-28	15
54	39	-3
137	82	1
190	106	-9
211	118	-3
208	129	19
183	135	24
138	129	16
75	97	13
-3	39	28
-88	-32	77
-166	-99	93
-223	-143	48
-245	-156	-1
-232	-139	-45
-186	-110	-141
-115	-78	-201
-30	-42	-151
56	-1	-51
131	49	-9
184	106	-76
210	158	-131
202	181	30
169	160	13
114	98	-51
53	10	53
-10	-74	-32
-68	-131	-109
-122	-149	-221
-165	-133	-159
-193	-103	-10
-195	-71	163
-169	-52	298
-110	-34	395
-25	-10	395
69	35	15
158	95	-358
222	151	-395
249	183	-238
234	170	-77
178	110	124
93	19	-63
-10	-75	-79
-111	-148	-83
-195	-182	-204
-250	-178	-82
-269	-153	-178
-247	-119	-99
-194	-91	-21
-120	-64	7
-37	-35	-227
44	5	-441
123	54	-277
184	102	23
229	136	119
242	147	167
226	132	294
172	103	151
97	63	129
2	20	84
-95	-27	-9
-173	-77	66
-229	-126	138
-249	-164	-12
-236	-179	-39
-191	-159	-90
-121	-103	215
-34	-24	332
60	60	3
144	132	-345
206	183	-815
234	210	-372
223	213	-62
175	190	124
111	137	342
38	56	133
-30	-45	112
-91	-151	-30
-141	-235	26
-182	-273	-4
-208	-260	-7
-208	-202	44
-179	-119	36
-111	-38	81
-16	28	28
93	76	-2
188	110	-42
252	142	-32
269	164	-55
241	169	-32
178	144	-43
93	88	-52
3	9	-16
-82	-69	-31
-151	-126	-14
-203	-152	12
-231	-144	-18
-234	-117	-82
-206	-85	-84
-150	-49	-87
-69	-14	-16
23	31	-4
114	84	-100
189	137	7
234	175	-13
244	190	-105
216	169	-3
161	118	70
83	50	69
-3	-20	51
-89	-84	51
-165	-133	-125
-222	-168	-134
-253	-187	79
-255	-186	167
-221	-162	218
-152	-114	158
-58	-43	-108
48	39	-357
150	124	-385
223	190	-332
257	227	-424
242	218	-241
184	166	-10
101	77	-6
8	-34	152
-80	-140	268
-147	-217	246
-190	-247	177
-209	-232	172
-208	-180	171
-187	-116	0
-142	-57	-297
-77	-12	-489
11	26	-598
104	62	-430
191	101	-68
245	134	-48
255	150	47
216	139	123
140	106	247
51	60	376
-31	17	375
-88	-13	438
-119	-30	104
-130	-41	-169
-134	-57	-124
-134	-74	-371
-128	-83	-569
-107	-71	-317
-63	-38	-12
1	8	176
76	48	201
142	69	164
186	68	76
195	53	64
170	38	31
117	28	-55
46	17	-37
-30	-5	-44
-106	-47	-8
-170	-101	28
-215	-149	14
-233	-169	55
-221	-151	91
-174	-102	87
-104	-38	97
-18	21	46
72	67	-2
154	102	-43
214	132	-86
245	161	-80
241	178	-93
199	168	-119
131	121	-49
44	46	-19
-38	-36	-87
-112	-101	-64
-165	-134	-62
-197	-135	-53
-211	-118	-17
-201	-102	13
-172	-90	13
-116	-81	-80
-38	-56	-48
52	-11	-8
140	51	-30
206	114	19
236	154	57
225	158	203
179	126	224
109	74	142
29	14	122
-53	-41	-249
-128	-89	-340
-190	-129	-57
-229	-156	-253
-235	-161	-362
-204	-134	-310
-137	-77	-432
-49	2	-231
41	76	-3
116	124	54
165	136	127
183	115	62
180	81	53
159	50	106
126	31	85
83	18	70
24	-5	17
-45	-46	-11
-121	-106	63
-189	-162	38
-235	-196	12
-244	-192	42
-212	-148	8
-143	-80	0
-49	-3	166
50	63	320
141	114	274
207	145	-3
240	164	-273
234	168	-353
199	154	-238
138	122	50
63	70	-57
-20	6	-245
-106	-61	-323
-185	-122	-171
-251	-169	-33
-285	-195	-80
-279	-196	-21
-222	-173	-3
-113	-120	164
25	-43	131
166	48	-27
276	143	-30
338	223	99
337	269	126
284	268	152
192	218	134
83	120	13
-31	-3	-32
-134	-127	-95
-221	-223	-98
-273	-263	-90
-290	-247	-47
-269	-184	-68
-210	-103	-71
-129	-27	-59
-40	21	-70
44	45	-39
120	59	-74
180	79	-64
226	109	-21
248	142	24
240	161	42
196	147	-1
116	95	-10
13	20	-21
-94	-59	-44
-180	-120	-21
-235	-154	52
-253	-161	160
-240	-151	189
-202	-127	109
-147	-96	-43
-75	-53	-236
15	4	-138
111	66	11
202	124	-116
266	158	-60
288	162	-50
260	134	-186
188	84	-168
89	28	-129
-18	-24	-49
-112	-66	-14
-185	-100	194
-231	-125	376
-247	-137	233
-231	-138	154
-182	-117	-113
-107	-71	-401
-13	-1	-348
84	79	-201
166	153	-103
216	201	-111
236	206	85
214	169	224
167	98	9
97	11	-378
19	-67	-498
-63	-123	-168
-142	-155	135
-211	-167	378
-261	-168	428
-278	-167	424
-253	-156	264
-184	-130	78
-84	-83	0
31	-16	-168
135	56	-147
212	120	-169
252	161	-62
251	174	25
219	170	-157
163	154	-348
90	129	-521
-2	89	-413
-108	30	-113
-214	-53	-9
-297	-143	94
-331	-218	209
-296	-250	179
-191	-227	94
-47	-154	-79
100	-55	-98
212	33	-12
268	97	-41
268	129	-6
236	143	61
196	153	42
164	160	14
133	154	46
87	119	137
12	48	111
-92	-49	51
-198	-144	31
-279	-208	4
-303	-216	-2
-263	-174	-38
-178	-103	-24
-70	-33	-67
29	15	-153
107	43	-145
160	65	0
195	95	99
213	134	67
211	170	58
180	180	46
117	148	-1
25	78	-71
-76	-11	-88
-166	-90	-74
-229	-140	-32
-255	-159	-70
-245	-150	-23
-207	-129	60
-148	-103	22
-71	-69	-6
16	-26	-61
105	29	-88
181	83	-131
224	121	-30
226	129	144
188	110	152
122	75	128
46	40	-16
-21	18	-270
-72	1	-420
-109	-20	-333
-134	-61	-113
-152	-117	26
-158	-174	55
-149	-202	58
-112	-183	-27
-49	-114	-56
35	-14	-8
123	86	-135
199	159	-83
238	189	103
237	178	279
191	138	260
114	86	138
24	33	20
-61	-18	-204
-132	-64	-34
-182	-107	124
-209	-135	-157
-217	-147	-473
-206	-134	-177
-170	-98	69
-112	-49	-60
-32	2	-7
57	45	-98
140	80	-61
202	103	-167
230	116	-200
216	120	56
175	110	130
113	83	200
40	33	174
-36	-29	147
-112	-93	118
-179	-144	-86
-230	-168	-214
-249	-162	-189
-231	-129	-201
-172	-83	-138
-84	-32	-82
20	15	-9
117	56	112
191	93	87
231	124	141
234	143	67
205	142	7
148	115	3
72	64	-35
-10	1	16
-88	-60	-2
-155	-107	56
-200	-129	77
-222	-129	-25
-214	-114	-111
-180	-89	-151
-120	-55	-156
-40	-15	-98
48	33	-17
133	85	-8
200	129	-6
236	158	-30
234	158	33
198	131	77
132	84	48
48	23	10
-40	-37	-16
-129	-93	100
-206	-131	90
-256	-157	-35
-264	-162	21
-228	-149	181
-148	-119	83
-36	-77	-27
75	-26	-122
165	25	-251
216	74	-345
229	115	-350
212	147	-159
183	161	63
147	155	143
106	125	9
53	72	-86
-15	3	-394
-98	-71	-402
-182	-140	-92
-247	-189	95
-274	-207	152
-255	-196	150
-193	-154	155
-101	-94	178
3	-21	208
102	51	366
181	116	513
230	165	136
244	189	-301
221	190	-794
167	160	-841
91	106	-222
6	34	249
-77	-46	362
-152	-123	352
-208	-184	234
-245	-216	135
-253	-214	-57
-227	-175	-190
-162	-108	-287
-66	-26	-202
46	56	-116
154	123	-88
232	171	-202
268	197	-278
259	198	-30
215	179	10
147	134	76
66	68	186
-21	-17	26
-108	-107	10
-189	-185	48
-249	-233	59
-277	-238	48
-262	-205	80
-207	-143	107
-117	-68	38
-11	3	-39
91	64	-118
175	116	-88
228	150	-40
248	169	-59
234	169	-44
191	145	-28
124	103	3
42	48	87
-43	-9	134
-122	-58	107
-184	-101	192
-223	-127	163
-232	-142	41
-211	-138	-19
-160	-115	-245
-80	-68	-586
16	-6	-421
117	58	31
202	112	-56
253	139	-83
260	143	-203
224	125	-235
154	98	-58
65	64	-22
-24	23	33
-107	-31	94
-178	-100	261
-231	-170	191
-259	-223	181
-259	-235	201
-221	-200	1
-144	-122	-186
-43	-26	-141
68	60	-11
167	121	-42
237	150	-80
269	156	-36
262	150	49
224	137	151
159	116	32
77	76	-80
-20	18	-33
-120	-52	-116
-210	-116	46
-277	-158	317
-308	-170	278
-290	-153	67
-231	-118	-260
-130	-68	-704
-13	-16	-776
110	46	-187
221	110	281
302	169	209
343	202	81
334	196	-106
274	150	-232
170	68	-59
42	-21	-86
-90	-104	-41
-201	-165	160
-281	-207	74
-316	-231	116
-308	-238	103
-259	-222	147
-177	-171	138
-75	-85	-49
34	23	-156
131	130	-166
202	205	-18
238	235	169
237	219	184
207	181	10
159	135	24
99	96	-107
32	58	-303
-38	11	-301
-111	-48	-181
-177	-117	-75
-225	-170	-10
-236	-192	82
-212	-168	29
-151	-111	61
-69	-40	24
16	24	26
93	68	27
150	95	-34
184	110	-6
194	121	-14
180	122	-17
140	104	-23
80	60	32
2	-11	98
-80	-89	38
-153	-157	-37
-203	-189	-46
-223	-183	-45
-209	-144	-21
-161	-85	-4
-88	-21	33
-1	38	77
86	88	86
159	127	6
209	155	-127
225	168	-79
209	160	-53
166	127	-70
105	75	-36
33	9	21
-41	-59	93
-116	-121	-44
-180	-166	-180
-228	-184	-189
-245	-178	-238
-225	-143	-236
-165	-90	-68
-77	-26	-15
23	34	7
118	84	30
187	117	-67
223	132	22
223	135	69
194	123	-1
144	98	13
82	53	77
12	-1	62
-61	-61	160
-130	-116	243
-189	-151	156
-227	-160	208
-237	-144	47
-213	-114	43
-158	-78	110
-76	-36	-197
22	1	-436
117	45	-702
196	93	-735
245	139	-319
257	170	5
226	170	20
162	128	-13
69	49	135
-30	-45	140
-123	-134	-15
-197	-189	-23
-239	-200	-4
-245	-173	98
-217	-119	202
-162	-61	294
-88	-11	243
-3	32	72
84	74	-178
162	114	-206
219	155	-35
251	183	15
244	182	2
202	150	-34
131	85	17
44	12	49
-39	-54	22
-111	-96	-16
-162	-114	34
-195	-117	54
-209	-115	57
-209	-115	12
-186	-112	-117
-138	-96	-215
-63	-57	-179
29	3	-6
124	68	10
197	120	115
231	138	257
219	123	150
169	80	-15
94	30	-282
13	-9	-518
-58	-35	-250
-119	-51	118
-167	-69	85
-202	-96	-9
-217	-126	7
-204	-143	-23
-158	-131	-35
-75	-82	-40
30	-1	-72
135	89	-111
216	164	-21
258	200	34
253	190	1
210	143	37
139	76	-23
60	9	36
-19	-47	150
-93	-86	218
-153	-110	252
-199	-120	91
-223	-120	-85
-214	-105	-244
-173	-75	-164
-102	-33	-48
-15	16	-106
72	64	-157
144	104	-363
191	128	-393
205	135	-130
189	121	124
148	86	166
86	33	186
14	-34	168
-61	-101	65
-134	-155	-15
-193	-182	-74
-232	-178	-7
-245	-153	51
-228	-113	26
-180	-72	16
-100	-35	-89
6	2	-303
128	45	-110
242	98	102
324	148	86
346	182	31
306	181	98
211	138	275
83	66	19
-43	-20	-134
-142	-90	-328
-200	-131	-552
-222	-140	-299
-217	-126	-105
-200	-105	-90
-175	-89	-71
-137	-75	61
-81	-58	175
-4	-28	200
81	20	183
154	80	142
197	134	52
203	166	-49
171	162	-20
117	122	85
55	55	87
-6	-13	49
-62	-74	-36
-114	-110	-181
-161	-124	-185
-193	-118	91
-202	-98	275
-177	-70	74
-115	-33	-48
-28	7	-248
65	49	-335
149	88	-125
202	115	-152
222	126	-169
208	119	-104
169	95	-115
109	55	8
38	8	61
-37	-43	90
-112	-92	175
-178	-129	170
-224	-148	78
-241	-140	4
-224	-112	-31
-170	-66	-82
-91	-18	-84
7	26	-211
105	61	-242
188	90	-37
242	115	127
255	131	100
229	137	91
169	119	127
85	74	112
-7	2	97
-91	-78	43
-160	-149	33
-205	-190	-48
-226	-196	-45
-221	-174	-33
-188	-125	-60
-130	-69	7
-49	-12	-88
42	45	-230
131	99	-244
200	145	-223
234	171	47
229	171	312
187	138	233
122	80	82
46	10	-173
-29	-53	-267
-99	-98	-215
-158	-120	-224
-204	-125	-195
-229	-123	-261
-226	-116	-94
-191	-99	120
-122	-68	61
-30	-19	-11
68	44	79
156	109	118
216	154	-77
242	168	-35
231	150	124
184	104	164
119	49	168
38	-8	74
-48	-55	-21
-126	-96	-52
-190	-127	-133
-225	-145	-6
-227	-151	141
-197	-137	145
-143	-107	15
-75	-64	-128
-2	-20	-157
66	24	-406
126	66	-272
175	105	7
208	136	128
214	150	319
191	138	205
132	95	-50
46	25	-345
-50	-51	-478
-136	-113	-221
-197	-143	-90
-223	-138	-36
-211	-107	124
-174	-69	11
-118	-36	-21
-50	-11	39
25	15	45
100	52	145
170	100	207
221	147	80
238	174	-78
221	166	-55
167	119	-201
86	45	-193
-6	-34	91
-95	-101	117
-172	-141	105
-225	-159	81
-248	-155	-12
-241	-137	-33
-198	-109	-51
-124	-68	-138
-30	-18	-93
65	39	-17
150	92	-93
206	131	-34
232	150	-15
223	142	62
188	109	142
131	56	155
57	0	130
-26	-55	-20
-113	-96	-64
-188	-118	-151
-240	-123	-185
-258	-117	-239
-241	-107	-81
-191	-92	100
-118	-69	66
-33	-32	192
57	24	162
143	92	181
216	155	-43
269	190	-399
285	183	-409
258	134	-576
186	58	-391
77	-24	-21
-49	-92	-16
-168	-135	155
-255	-158	250
-294	-164	279
-277	-158	225
-212	-136	173
-117	-98	137
-10	-40	-67
88	29	-182
162	94	-230
206	143	-95
216	168	-30
200	165	70
161	137	-15
103	96	-145
32	44	-173
-43	-12	-324
-114	-65	-91
-170	-113	41
-205	-144	2
-215	-160	76
-200	-155	92
-165	-131	120
-108	-93	49
-34	-41	20
52	19	21
138	84	37
211	140	51
253	179	-18
253	185	-50
208	158	-86
130	105	-90
34	37	7
-58	-29	47
-137	-88	60
-197	-130	143
-234	-158	81
-245	-168	56
-225	-154	5
-170	-115	-188
-88	-53	-88
15	19	-63
113	88	-122
188	134	-112
226	150	-140
224	138	-63
190	109	-32
139	74	0
82	38	-39
21	6	-55
-41	-31	4
-107	-68	41
-166	-104	-2
-210	-129	-111
-226	-135	-15
-207	-122	170
-153	-91	221
-71	-48	212
20	0	113
109	50	60
182	96	70
226	137	-72
237	161	-174
214	162	-284
159	131	-405
82	76	-406
-8	4	-250
-95	-69	24
-168	-130	66
-221	-173	121
-245	-189	155
-239	-183	5
-199	-156	-108
-128	-105	-263
-30	-37	-261
76	38	-41
170	104	112
233	151	237
250	165	250
223	149	95
162	110	36
87	62	-16
11	15	-176
-59	-27	-294
-123	-66	-211
-182	-105	-72
-230	-137	118
-256	-154	245
-245	-148	95
-190	-110	54
-92	-49	114
33	23	57
162	86	-193
262	130	-246
319	150	-162
322	143	-105
273	121	-10
186	85	-6
76	41	20
-36	-12	107
-135	-68	141
-205	-118	64
-245	-154	14
-250	-163	-168
-228	-150	-233
-187	-117	22
-130	-76	91
-63	-32	84
12	13	56
87	62	-10
156	116	-134
204	169	-202
229	208	-96
219	214	-36
181	179	56
118	102	-112
39	3	-129
-44	-90	28
-127	-157	65
-197	-184	74
-243	-177	48
-255	-149	34
-226	-112	-23
-153	-72	-125
-52	-28	-134
58	25	67
155	85	48
221	139	105
242	174	163
219	174	13
167	136	-28
94	72	-95
17	1	-35
-56	-59	-25
-120	-105	24
-172	-129	-62
-204	-140	-181
-213	-142	38
-195	-130	56
-148	-105	-30
-79	-62	-100
2	-11	-99
77	40	-64
135	83	-120
169	108	-18
176	121	-51
170	122	-261
148	114	-251
113	91	-68
64	51	-155
2	-9	-203
-75	-82	-98
-153	-148	28
-221	-189	272
-255	-194	260
-245	-165	278
-189	-111	232
-94	-51	82
19	5	54
129	57	-66
214	102	-173
261	142	-93
262	166	-5
229	168	-69
163	135	-27
83	78	-5
-2	8	108
-84	-52	103
-153	-92	8
-208	-110	-25
-239	-113	-104
-241	-111	-130
-207	-107	-215
-141	-93	-254
-46	-62	-235
60	-9	-52
158	53	8
228	110	3
253	142	101
236	142	133
182	113	13
107	68	-144
23	22	54
-59	-22	126
-132	-62	40
-189	-104	-80
-226	-139	-151
-236	-159	-113
-212	-150	-96
-156	-105	20
-74	-35	-48
21	43	114
110	106	156
179	139	-20
216	145	-102
219	127	-205
187	106	-113
129	84	32
49	56	96
-32	13	90
-108	-47	2
-164	-119	-81
-191	-184	7
-190	-219	-42
-163	-211	-49
-119	-161	-37
-63	-82	-23
-3	2	32
63	74	-1
129	122	32
192	155	43
238	171	-41
254	177	-132
230	164	-154
162	127	-103
64	65	-8
-45	-15	-24
-143	-97	60
-214	-162	96
-248	-191	79
-248	-184	96
-221	-149	32
-170	-95	-19
-104	-41	-21
-27	7	128
52	45	70
125	80	-65
178	103	-14
205	115	111
198	112	80
166	93	-80
111	62	-54
46	25	-40
-20	-6	-360
-83	-33	-500
-141	-51	-369
-188	-67	-700
-215	-85	-549
-217	-99	85
-185	-108	279
-122	-101	311
-37	-78	202
53	-37	190
131	14	151
190	62	32
216	104	-44
216	130	-87
190	135	25
137	113	79
67	65	202
-16	-4	249
-103	-81	241
-179	-144	158
-228	-178	-59
-241	-166	-37
-211	-117	-221
-144	-41	-316
-55	33	-119
40	92	24
123	118	61
182	113	-263
209	92	-177
203	59	52
171	30	15
121	4	80
60	-15	32
-2	-29	-39
-66	-43	-170
-126	-56	-264
-181	-71	-265
-221	-85	-39
-237	-94	77
-221	-94	-21
-164	-78	-22
-77	-47	-15
32	-3	90
138	45	89
224	92	20
269	126	-72
268	143	21
222	142	130
144	117	93
48	70	59
-48	4	-45
-133	-66	-137
-197	-127	-202
-229	-157	-80
-230	-149	4
-195	-108	77
-134	-49	51
-54	0	32
29	29	15
107	35	18
169	34	121
206	47	89
221	79	128
208	121	53
172	150	-27
111	139	-90
30	82	-169
-63	-12	-99
-156	-113	-46
-231	-185	11
-269	-206	-43
-260	-178	-150
-209	-118	-63
-126	-54	-40
-32	-5	-164
58	27	-132
130	45	-53
178	64	-61
202	86	35
205	109	59
191	120	10
155	113	-15
101	84	-68
29	39	68
-53	-8	152
-137	-51	54
-207	-86	-1
-249	-114	37
-259	-136	-103
-229	-149	-161
-165	-142	6
-75	-111	-115
26	-53	-98
123	25	-78
201	105	-185
245	166	-177
252	193	-139
221	181	-56
159	135	3
78	68	164
-8	-3	95
-93	-71	155
-163	-125	96
-215	-161	-126
-239	-169	-81
-231	-149	-223
-187	-107	-159
-115	-54	104
-26	-6	60
59	28	57
126	43	137
170	52	263
186	61	196
180	78	-83
158	99	-297
123	112	-625
76	106	-583
13	68	-135
-63	7	49
-144	-70	123
-213	-142	229
-256	-192	134
-255	-205	53
-209	-179	22
-121	-117	-1
-10	-26	-10
104	72	-6
201	159	32
262	213	120
280	222	159
254	183	65
198	111	-23
114	31	-147
20	-35	-130
-77	-84	-90
-163	-113	-97
-234	-132	87
-273	-144	142
-272	-147	133
-226	-127	79
-135	-78	-57
-18	-4	-86
101	77	-109
194	138	-44
241	163	54
241	147	16
205	106	-11
152	62	-30
97	32	-119
42	16	-134
-12	-1	-120
-75	-31	-63
-145	-82	-9
-213	-139	0
-257	-183	1
-258	-191	-44
-211	-156	-62
-123	-87	2
-15	-4	-38
89	68	-19
171	118	86
221	141	105
234	140	74
216	127	-218
175	100	-238
112	57	-29
34	3	-31
-52	-54	22
-134	-106	-54
-195	-137	-78
-226	-141	103
-217	-118	213
-174	-75	225
-105	-25	195
-23	22	17
57	64	-120
128	97	-225
180	123	-270
207	138	-60
205	138	0
175	116	-325
121	71	-538
49	7	-382
-31	-64	135
-110	-128	409
-180	-174	304
-230	-192	203
-250	-186	-22
-240	-157	-222
-195	-115	-443
-120	-68	-242
-25	-20	-30
72	27	-36
159	71	140
216	109	136
242	139	237
234	158	302
195	161	199
136	140	-20
62	98	-246
-20	35	-368
-105	-40	-356
-178	-112	-86
-228	-167	3
-239	-186	20
-209	-166	85
-140	-112	77
-47	-37	85
48	39	116
131	100	140
184	132	141
207	139	155
198	124	158
163	93	-48
107	55	-147
40	13	-283
-30	-27	-475
-93	-64	-69
-142	-95	65
-178	-118	-12
-195	-133	13
-197	-132	-20
-181	-120	20
-145	-96	37
-88	-60	28
-12	-17	-8
72	30	-1
154	77	-28
209	117	-30
234	147	-50
223	157	-7
181	141	-2
116	103	-40
36	43	-51
-49	-26	-8
-130	-87	34
-195	-126	4
-233	-136	4
-231	-120	-24
-187	-85	-8
-110	-40	9
-20	3	16
66	43	-3
135	80	10
180	111	-1
201	131	-64
201	133	-65
182	110	-30
143	64	16
82	4	-34
3	-56	-36
-84	-102	-111
-162	-127	-125
-215	-134	86
-236	-133	67
-223	-130	89
-177	-120	65
-111	-101	-21
-32	-56	-163
50	8	-437
129	85	-439
191	153	-107
226	189	65
224	183	-85
184	137	-3
117	71	-60
32	1	-28
-50	-54	38
-122	-93	49
-174	-117	101
-207	-131	-28
-219	-140	116
-209	-134	237
-173	-111	249
-109	-65	103
-28	-6	-173
64	56	-337
148	110	-462
208	143	-284
236	159	46
230	156	243
192	134	194
128	93	-12
44	31	-86
-47	-44	130
-138	-124	242
-214	-185	63
-259	-212	-14
-262	-199	-156
-218	-157	-131
-140	-98	162
-40	-43	138
59	1	-47
142	40	-137
201	81	-244
226	125	-280
222	163	-264
188	174	-6
130	151	106
52	89	41
-35	5	114
-125	-74	16
-202	-127	13
-256	-142	-63
-274	-124	-150
-250	-88	-116
-182	-49	7
-76	-13	81
49	17	98
172	48	173
266	78	173
312	102	139
302	115	83
251	110	185
172	95	-21
89	64	-266
12	29	-345
-55	-9	-437
-117	-49	-138
-176	-87	5
-224	-122	-36
-250	-147	-89
-241	-155	-116
-191	-138	45
-107	-103	43
-7	-47	65
89	14	106
162	75	90
201	123	61
207	152	18
184	156	-47
143	131	-75
84	85	-20
13	23	-18
-63	-42	56
-137	-100	72
-195	-140	57
-229	-157	42
-228	-150	-45
-191	-121	-162
-122	-77	-100
-34	-23	87
59	32	137
144	83	32
206	125	-232
237	154	-177
229	163	-85
186	153	-47
113	114	-15
27	53	-95
-64	-27	-8
-144	-108	5
-202	-174	-91
-230	-204	-125
-225	-192	2
-191	-144	-112
-136	-75	-21
-69	-10	151
2	37	182
70	62	234
133	76	-16
187	89	-192
222	109	-488
230	130	-675
203	132	-292
143	106	166
56	40	159
-41	-48	195
-135	-137	51
-204	-195	15
-241	-207	110
-241	-174	115
-204	-108	242
-139	-37	106
-57	24	-2
28	65	-151
110	91	-238
172	106	19
211	119	230
216	124	138
191	115	-201
139	88	-271
71	40	-163
-5	-16	-237
-80	-67	-204
-144	-105	-46
-191	-119	218
-217	-118	352
-216	-109	326
-185	-101	110
-127	-86	-352
-47	-60	-364
41	-19	-94
124	41	-99
188	106	38
216	157	138
213	174	77
175	151	-29
118	95	-178
49	26	-140
-18	-35	-60
-84	-77	72
-143	-97	62
-191	-107	82
-225	-115	183
-225	-123	2
-191	-126	-140
-117	-108	-296
-19	-62	-182
86	8	130
175	85	63
233	149	77
248	181	107
228	171	87
180	133	72
115	75	3
42	14	-25
-37	-38	-127
-115	-80	-125
-187	-109	-103
-241	-130	-225
-261	-137	-215
-242	-129	-22
-181	-101	108
-91	-55	202
13	0	183
107	58	65
183	106	-51
225	138	-71
234	150	4
214	139	-32
167	106	4
101	56	18
20	-7	3
-62	-74	-40
-139	-130	-89
-195	-168	-102
-225	-175	-85
-222	-154	-39
-184	-109	-64
-123	-51	-46
-45	7	-192
37	60	-136
118	104	175
183	137	112
222	158	-20
228	159	-192
200	138	-190
140	92	117
62	25	119
-23	-50	113
-104	-118	65
-169	-163	-25
-213	-175	-27
-231	-160	-193
-218	-127	-260
-177	-89	-254
-110	-50	-100
-23	-15	57
69	22	72
153	68	-95
216	121	-165
250	171	72
252	208	95
219	210	62
158	170	6
70	90	-100
-34	-12	-122
-144	-117	-75
-243	-199	-28
-310	-245	-149
-331	-250	-26
-296	-218	80
-212	-163	116
-95	-95	182
32	-23	162
143	45	136
222	106	98
255	150	81
251	174	-117
212	170	-278
156	137	-226
88	82	-134
16	17	-219
-55	-45	-87
-123	-94	127
-180	-123	87
-216	-134	95
-225	-127	63
-197	-111	70
-138	-83	-121
-59	-44	-185
25	2	-11
103	53	-137
161	102	-90
194	137	-38
203	151	-12
190	143	60
155	115	58
102	68	110
30	17	51
-51	-38	15
-134	-89	-119
-200	-128	-106
-237	-150	105
-232	-149	99
-187	-128	-1
-111	-89	11
-20	-40	52
69	11	75
148	56	77
202	97	-67
234	131	-130
234	156	-56
207	164	-33
148	143	-53
63	91	-2
-38	10	-4
-137	-81	-101
-216	-157	-164
-262	-196	-168
-263	-196	-126
-229	-160	-265
-165	-100	-99
-83	-35	230
8	27	188
97	82	136
172	128	30
229	164	47
250	177	39
237	166	-84
189	122	-363
117	58	-266
35	-10	-71
-44	-66	-141
-115	-102	137
-172	-116	-67
-212	-118	-142
-231	-116	86
-222	-108	-25
-183	-95	-63
-114	-69	-119
-27	-31	48
63	11	242
136	47	137
181	66	91
194	67	-92
175	52	-190
137	30	-172
80	7	-85
9	-22	63
-71	-55	22
-150	-97	155
-212	-133	224
-239	-151	115
-221	-133	7
-156	-78	-35
-62	2	-168
36	85	-138
123	141	151
180	161	-44
205	144	-172
205	115	-276
190	90	-289
161	80	6
118	77	80
56	61	155
-20	19	0
-102	-50	-114
-177	-125	-120
-227	-177	6
-240	-185	79
-213	-145	-72
-155	-81	-120
-77	-14	-138
6	31	-79
82	49	14
143	52	66
184	55	90
202	67	136
197	88	151
171	104	121
122	104	-101
62	87	-189
-8	54	-134
-81	15	-227
-148	-24	-16
-204	-66	128
-239	-112	141
-241	-157	65
-204	-182	147
-127	-173	247
-18	-118	24
105	-23	-39
214	85	-246
287	174	-280
302	215	-162
261	199	-143
167	131	-72
46	38	37
-80	-54	101
-188	-134	31
-262	-186	-86
-295	-210	-201
-285	-202	-64
-240	-164	222
-166	-102	330
-79	-28	199
13	39	11
98	91	-175
170	120	-224
221	131	-166
245	136	-27
245	135	121
212	131	101
154	110	39
69	70	-96
-22	9	-207
-113	-59	-106
-186	-116	-68
-229	-145	-86
-236	-149	-64
-208	-130	-118
-152	-100	64
-78	-69	42
4	-36	-82
82	1	-140
144	45	-261
188	92	-111
203	126	-118
193	139	-180
159	124	-151
107	89	51
41	40	218
-30	-8	258
-101	-50	205
-165	-86	-86
-207	-111	-279
-225	-127	-215
-209	-130	62
-165	-113	138
-97	-77	91
-15	-26	138
69	29	231
147	81	255
204	118	285
237	139	280
236	142	21
200	128	-76
128	95	-164
31	45	-524
-80	-12	-413
-183	-68	-158
-262	-116	-210
-304	-148	-236
-292	-158	-238
-232	-149	-232
-126	-122	-150
0	-78	-17
124	-24	42
216	35	129
261	87	120
253	118	111
206	123	64
143	103	45
82	68	90
33	27	54
-8	-8	97
-53	-38	123
-111	-66	125
-174	-96	106
-224	-124	155
-237	-138	145
-203	-130	59
-122	-92	5
-16	-28	-20
88	45	-64
169	113	-123
216	157	6
232	174	30
216	166	-40
180	134	-151
116	88	-340
29	28	-436
-68	-36	-253
-165	-101	-52
-236	-149	14
-264	-171	-1
-253	-158	-196
-201	-116	-85
-125	-56	44
-37	5	133
49	53	149
130	85	-40
195	101	29
239	108	98
250	110	29
225	110	-182
169	99	-385
89	71	-279
1	26	-68
-84	-38	99
-159	-107	361
-221	-167	410
-259	-201	217
-267	-199	-88
-235	-161	-248
-160	-93	-249
-53	-14	-117
61	56	182
162	105	126
222	125	71
237	123	52
214	106	-112
169	92	-109
114	76	-33
54	54	-97
-10	21	-143
-85	-30	-125
-161	-93	-150
-228	-152	-61
-261	-185	-27
-249	-181	-17
-189	-134	-16
-92	-60	-4
16	24	79
113	99	128
181	148	191
210	169	129
204	163	-138
172	139	-292
131	101	-183
84	51	-51
36	-7	85
-13	-68	65
-64	-124	38
-117	-163	78
-162	-174	32
-186	-152	82
-177	-100	79
-129	-32	108
-49	32	142
46	82	82
131	106	-122
186	112	-336
202	104	-147
182	94	-47
138	84	-184
85	68	-173
26	41	-143
-33	-4	-82
-97	-62	-25
-159	-122	-1
-210	-161	89
-239	-168	29
-231	-140	-231
-187	-90	-172
-113	-32	97
-26	15	85
58	45	108
132	67	225
184	82	152
216	97	40
222	109	-111
198	108	-192
147	87	-155
69	40	-133
-23	-22	-26
-114	-90	-49
-190	-144	-46
-237	-176	-79
-248	-179	-114
-223	-157	12
-166	-113	70
-87	-52	31
6	15	9
100	85	133
180	149	155
234	191	62
248	205	55
228	188	2
175	144	-290
107	85	-414
30	23	-363
-46	-37	-256
-122	-93	16
-187	-140	-9
-235	-179	20
-252	-198	155
-232	-191	95
-172	-154	172
-80	-90	176
23	-14	185
118	59	138
186	113	54
223	144	-50
229	156	-186
206	153	-162
163	136	-160
100	103	-98
18	48	-17
-72	-26	-7
-159	-105	48
-223	-168	14
-246	-189	-95
-226	-163	-55
-167	-98	-3
-85	-16	27
3	53	51
80	97	-41
138	108	-7
175	102	27
187	89	-1
175	78	7
140	67	-42
85	48	-67
16	17	-161
-55	-30	-135
-119	-81	-20
-166	-124	111
-191	-151	208
-195	-154	168
-176	-136	-20
-136	-102	-89
-79	-57	-8
-7	-5	-76
68	47	-66
135	94	-192
183	128	-170
202	141	-21
195	132	-44
164	105	-58
114	66	-74
54	23	-12
-15	-19	96
-85	-57	71
-153	-94	-64
-202	-123	-223
-225	-140	-182
-208	-139	28
-152	-117	108
-68	-74	150
26	-18	129
111	40	145
175	91	29
206	125	-211
207	144	-202
184	147	-280
141	132	-233
86	101	-9
14	51	68
-62	-13	74
-141	-86	41
-209	-151	82
-255	-194	1
-262	-208	37
-232	-185	22
-159	-131	-69
-55	-56	-77
56	24	-59
160	103	-2
234	165	53
273	204	159
273	214	60
237	190	74
172	135	175
91	59	34
-4	-22	-8
-100	-98	-76
-185	-150	-150
-250	-173	-197
-279	-170	-398
-267	-149	-323
-212	-117	-185
-125	-78	-93
-20	-38	21
81	9	22
163	58	52
212	109	56
229	150	10
210	168	0
164	154	-45
99	104	-44
21	28	-41
-58	-59	-4
-135	-135	44
-193	-182	13
-228	-189	34
-229	-162	34
-197	-114	60
-136	-58	115
-53	-7	74
37	37	-22
125	79	-17
194	118	10
236	157	54
244	183	-3
216	188	-77
162	161	-27
84	99	-74
-6	15	-27
-97	-71	26
-175	-142	61
-233	-183	11
-260	-188	-186
-255	-163	-359
-213	-119	-318
-137	-66	-98
-38	-12	15
69	41	100
167	91	187
237	129	174
262	142	72
242	126	-9
184	81	-81
104	15	-108
22	-52	-72
-48	-105	-30
-101	-130	1
-139	-129	11
-163	-112	8
-181	-90	-61
-180	-69	-119
-156	-45	-67
-100	-13	-71
-17	39	-66
78	101	97
161	160	125
210	192	8
219	177	34
186	118	152
127	29	152
58	-58	39
-8	-122	57
-70	-145	-49
-126	-136	-202
-177	-111	-74
-216	-87	-378
-232	-75	-479
-215	-70	-340
-165	-66	-303
-87	-49	-43
5	-15	40
94	30	193
163	72	352
206	103	442
223	117	292
212	110	106
178	95	-70
123	70	-387
51	37	-339
-29	3	-303
-111	-32	-242
-178	-65	115
-222	-94	229
-233	-112	281
-207	-119	162
-150	-115	110
-65	-92	39
31	-49	-151
125	16	-168
200	92	-282
241	162	-123
242	204	-65
205	201	-48
137	152	-6
54	68	-19
-30	-23	8
-108	-101	10
-170	-145	55
-213	-160	22
-231	-153	28
-217	-130	13
-173	-100	19
-99	-59	14
-6	-8	15
88	51	16
169	110	-16
216	150	-7
234	162	5
212	143	16
162	106	-18
93	57	-32
10	6	-53
-76	-44	-52
-157	-89	-63
-219	-125	-80
-253	-147	-44
-252	-145	-45
-209	-119	-43
-132	-72	-62
-36	-20	-54
60	24	-10
141	54	7
197	69	51
221	77	81
215	81	37
183	82	-30
132	71	-52
64	43	-95
-12	-3	-111
-91	-59	-86
-159	-106	-32
-209	-129	41
-231	-124	68
-221	-101	0
-182	-71	-97
-120	-49	-75
-44	-33	87
40	-7	278
127	37	260
205	104	189
262	177	59
287	228	-253
263	233	-359
195	174	-385
86	72	-284
-40	-50	26
-159	-162	7
-248	-238	-13
-291	-263	32
-285	-248	-64
-237	-200	-31
-161	-134	-106
-70	-60	-284
19	10	-91
97	67	142
155	110	135
192	137	210
210	150	46
206	158	-196
183	153	-403
133	134	-294
62	90	79
-31	19	155
-130	-69	64
-217	-153	-131
-270	-205	-202
-274	-210	-182
-232	-165	-11
-148	-93	62
-47	-17	133
52	39	219
135	71	190
200	95	170
241	119	104
258	153	86
245	182	13
204	186	-16
130	147	-38
33	66	-39
-70	-35	2
-162	-127	24
-225	-182	-28
-248	-190	-121
-237	-162	-125
-194	-115	-43
-134	-71	17
-63	-33	-38
10	0	-50
80	40	-17
139	86	-13
180	128	-134
196	153	-135
183	143	-27
144	101	-136
83	34	-76
9	-34	52
-67	-91	-17
-136	-125	-17
-189	-139	-34
-213	-138	-12
-209	-126	24
-173	-105	20
-109	-69	16
-31	-19	-19
52	41	7
127	102	18
184	150	12
215	170	22
216	161	45
190	126	43
136	70	19
61	8	-58
-24	-56	-182
-110	-113	-214
-184	-157	-90
-234	-182	76
-255	-183	87
-241	-161	107
-195	-117	90
-124	-59	12
-35	2	-157
65	62	-270
163	116	-184
242	160	-176
288	187	-18
287	188	91
234	154	59
138	85	32
21	-8	-5
-93	-106	-131
-174	-180	-69
-213	-214	59
-212	-202	8
-180	-157	53
-134	-97	56
-84	-38	104
-30	9	14
31	48	-107
99	87	-88
163	124	29
210	152	137
219	161	59
184	143	-52
112	97	-106
21	37	-143
-70	-25	-229
-141	-74	-209
-187	-110	-172
-208	-134	-135
-214	-148	34
-202	-151	107
-169	-133	16
-113	-92	21
-30	-23	-157
65	58	-259
154	136	-86
216	191	-81
242	208	128
223	188	216
172	136	168
102	68	196
24	-9	91
-53	-81	37
-125	-141	26
-183	-182	52
-226	-192	-102
-237	-174	-208
-215	-130	-106
-162	-75	-29
-83	-17	-38
13	35	-26
107	81	-61
189	123	-46
245	161	-7
262	187	-27
239	185	-8
172	147	-38
77	72	22
-31	-24	-2
-122	-114	-37
-180	-175	24
-197	-192	41
-180	-171	36
-149	-134	-12
-116	-99	-71
-90	-76	-68
-57	-56	-30
-10	-28	-45
59	23	-58
143	90	-40
216	157	6
253	195	49
238	190	84
170	142	85
69	67	65
-36	-6	-22
-126	-64	-112
-190	-97	-81
-227	-113	-96
-239	-120	-41
-229	-124	17
-194	-124	-36
-128	-110	-31
-37	-78	-65
68	-25	-188
166	35	-361
236	92	-249
262	133	-105
245	151	-164
191	144	-6
116	114	95
32	61	134
-51	-4	222
-125	-76	289
-186	-136	275
-225	-176	169
-231	-184	60
-202	-161	-95
-142	-111	-180
-62	-48	-252
24	15	-235
105	72	-97
169	120	79
209	154	147
226	168	144
215	158	30
176	121	-171
113	60	-196
28	-13	-133
-64	-84	-6
-153	-133	127
-218	-157	42
-253	-150	-227
-249	-122	-301
-211	-82	-168
-143	-38	-6
-58	0	-13
32	35	-8
119	63	14
184	89	-47
226	106	51
234	118	171
208	121	108
155	110	-35
83	80	-158
0	27	-121
-80	-44	16
-151	-125	-12
-201	-192	113
-227	-224	172
-225	-207	152
-189	-140	112
-126	-45	-72
-43	53	-169
46	127	-163
131	165	-109
195	169	-166
229	150	-86
225	122	-4
182	93	52
112	61	54
24	17	-9
-66	-40	-18
-151	-103	-19
-211	-157	57
-241	-184	51
-233	-181	49
-189	-151	-32
-115	-106	-24
-23	-61	39
67	-18	-12
140	27	-99
188	80	-126
206	134	-63
198	182	-147
175	202	-145
138	177	-66
87	106	-28
21	5	-1
-62	-97	20
-152	-173	38
-231	-204	72
-272	-187	92
-262	-135	21
-202	-66	-24
-105	5	70
2	63	52
96	106	-72
160	130	-47
195	134	-42
206	125	65
204	104	215
184	80	29
147	52	-264
83	24	-452
2	-7	-463
-91	-47	-100
-170	-90	152
-224	-131	155
-242	-160	192
-225	-164	91
-181	-142	-20
-116	-94	-124
-39	-34	-171
44	28	-136
128	80	-163
197	117	-157
239	136	9
242	138	155
202	123	135
131	91	93
45	43	-103
-40	-15	-239
-114	-71	-103
-172	-120	-63
-208	-149	-13
-222	-154	70
-208	-138	46
-162	-106	60
-87	-60	22
10	-11	13
110	43	51
191	95	55
236	140	63
239	166	70
199	163	168
132	122	183
48	50	162
-38	-38	95
-117	-124	-102
-183	-184	-273
-228	-208	-278
-247	-196	-90
-241	-163	-78
-206	-119	-81
-147	-75	-173
-64	-32	-297
28	16	-187
123	69	-89
204	126	-43
258	173	19
274	200	75
248	197	100
184	165	110
101	115	67
9	57	65
-77	-2	90
-148	-60	78
-199	-112	32
-231	-150	-113
-239	-164	-193
-217	-145	-202
-168	-99	-134
-93	-33	66
2	29	123
102	74	104
192	95	64
258	96	77
292	96	126
283	93	68
230	89	-167
133	68	-396
15	27	-341
-107	-33	-300
-203	-99	-110
-256	-149	147
-261	-171	221
-225	-163	217
-167	-136	112
-98	-100	64
-28	-55	-12
46	-5	-24
123	58	-27
192	127	-116
239	182	-99
244	202	-197
200	174	-190
111	103	13
5	10	49
-97	-78	119
-172	-139	205
-214	-168	171
-226	-171	123
-215	-158	31
-182	-131	-27
-126	-91	-62
-48	-29	-5
47	51	-36
140	138	-261
212	208	-193
242	237	-247
224	217	-275
166	154	-52
87	67	-23
7	-21	156
-64	-90	147
-121	-133	-8
-165	-152	37
-195	-153	-11
-212	-148	-186
-207	-137	-241
-181	-125	-238
-128	-106	-132
-55	-74	-82
32	-22	-140
124	43	60
204	119	191
257	187	249
269	222	330
239	215	242
170	165	74
77	80	-126
-23	-19	-341
-110	-103	-245
-174	-160	30
-210	-181	-42
-221	-170	-77
-206	-139	8
-167	-99	62
-104	-57	34
-23	-16	1
64	24	-45
145	63	-66
206	100	-26
234	129	-44
232	148	2
196	142	-24
138	113	80
59	56	200
-30	-21	159
-126	-99	67
-212	-162	-12
-270	-190	-151
-285	-178	-446
-253	-134	-363
-178	-74	16
-80	-17	90
23	28	147
113	61	123
178	88	16
214	109	26
221	123	-37
199	118	-21
147	83	-43
68	20	-113
-24	-57	-89
-116	-119	38
-188	-151	207
-223	-139	238
-214	-100	90
-170	-52	-186
-101	-15	-207
-23	6	-182
49	25	-332
114	52	-160
167	101	67
206	162	57
229	205	-39
229	212	29
195	170	47
132	86	-44
42	-15	-62
-57	-103	-159
-151	-164	-242
-226	-192	-245
-267	-194	-48
-274	-181	-3
-245	-150	63
-182	-98	158
-97	-25	-9
2	56	26
101	127	34
184	168	65
234	165	158
248	124	107
216	65	167
158	12	52
76	-28	-132
-8	-50	-69
-86	-65	-93
-145	-83	-221
-185	-98	-189
-203	-108	-75
-199	-99	15
-176	-74	-7
-129	-37	-14
-64	-2	-76
11	21	-151
87	39	-16
154	55	116
198	78	92
214	103	96
197	115	203
151	104	229
85	58	-45
8	-6	-222
-68	-74	-123
-139	-120	-67
-192	-136	-131
-226	-130	-168
-230	-113	-140
-201	-100	-163
-141	-85	-72
-52	-59	22
46	-10	82
141	59	125
214	134	63
248	189	20
242	201	-8
200	168	-82
132	103	-98
50	31	-44
-34	-31	-12
-118	-79	-6
-189	-113	-1
-241	-142	22
-260	-167	4
-242	-176	-68
-183	-158	-108
-93	-106	-25
11	-28	47
111	56	151
189	122	195
238	161	164
254	165	217
239	144	152
197	112	-3
132	74	-156
50	34	-246
-40	-11	-340
-127	-56	-270
-199	-100	-13
-243	-131	49
-251	-143	102
-224	-136	111
-166	-113	15
-88	-79	-8
1	-37	-113
91	9	-182
169	61	-128
225	116	-238
248	164	-327
233	188	-160
181	174	-2
99	121	65
4	35	112
-93	-59	91
-172	-143	-7
-228	-194	-3
-248	-206	54
-241	-189	38
-202	-153	-144
-138	-110	-311
-58	-64	-68
32	-13	-29
121	48	-119
195	116	39
241	177	152
251	213	222
216	208	249
153	163	241
67	89	120
-22	13	-7
-100	-45	-135
-158	-75	-215
-191	-80	-53
-207	-78	-24
-203	-80	-98
-181	-87	-257
-137	-90	-320
-70	-70	24
16	-24	155
116	43	182
209	108	121
275	149	-11
299	145	-51
266	104	-221
188	39	-335
77	-25	-219
-47	-79	-111
-162	-119	-88
-248	-148	31
-296	-171	98
-296	-183	164
-255	-173	179
-174	-130	100
-72	-55	-22
35	28	-70
132	106	75
208	153	84
251	166	-30
260	153	-67
237	129	-66
184	106	14
111	85	35
21	53	-12
-74	4	-95
-163	-63	-282
-232	-137	-136
-270	-196	-44
-272	-217	-45
-234	-199	64
-166	-142	59
-76	-69	187
20	8	205
107	71	161
178	121	-26
222	154	-111
237	169	126
221	168	170
175	138	89
105	88	-45
15	14	-148
-87	-66	-201
-182	-140	-244
-252	-186	-182
-279	-194	-167
-256	-166	-197
-184	-105	-83
-79	-31	24
36	37	-60
140	90	-55
214	119	91
251	131	72
245	130	-59
215	128	-41
161	118	-23
94	99	-23
18	64	107
-58	7	161
-129	-63	29
-191	-134	-128
-230	-186	-3
-241	-205	172
-218	-184	-37
-164	-131	-162
-84	-59	-273
8	13	-147
98	71	49
172	113	-173
216	137	-164
234	143	-197
212	134	-159
166	109	5
96	68	93
16	15	134
-67	-43	126
-140	-97	121
-195	-134	65
-224	-149	108
-218	-138	49
-181	-109	-29
-114	-68	-107
-31	-20	-124
59	30	-81
140	82	-60
205	129	65
240	164	54
238	174	-31
198	153	-29
121	98	-16
19	19	32
-92	-67	-2
-189	-144	-53
-256	-195	-81
-281	-215	-116
-269	-207	-119
-224	-177	-161
-156	-130	-72
-79	-71	19
6	-2	75
95	74	251
182	149	254
253	211	29
299	252	-193
300	254	-236
251	219	10
158	145	149
36	46	83
-87	-61	68
-191	-160	-85
-259	-226	-125
-281	-251	-47
-262	-232	-26
-209	-180	-137
-131	-113	-348
-44	-48	-193
41	2	-106
120	41	-87
178	71	89
214	103	78
226	133	114
208	153	126
164	150	174
97	109	142
13	41	-54
-74	-40	-8
-151	-109	-90
-207	-153	-227
-231	-159	-278
-223	-138	-138
-181	-106	12
-118	-70	51
-40	-36	151
41	6	87
118	53	48
183	106	-23
221	154	-63
228	177	-44
200	169	20
145	131	24
71	80	-93
-7	22	-187
-87	-30	-223
-156	-79	-153
-210	-127	-75
-245	-173	31
-252	-205	101
-224	-207	164
-153	-171	185
-48	-94	86
75	6	-108
188	106	-244
266	183	-228
290	227	-206
261	230	-26
188	197	181
91	136	141
-10	56	64
-98	-34	37
-168	-118	-9
-213	-177	10
-232	-196	-8
-226	-179	0
-195	-131	6
-139	-77	-16
-67	-28	-36
18	7	-24
102	37	58
178	69	83
233	106	116
254	139	51
237	150	32
181	121	68
94	56	-100
-6	-27	-200
-102	-102	-200
-177	-149	-330
-222	-156	-356
-231	-134	-159
-212	-102	-1
-173	-74	54
-117	-52	49
-50	-27	108
23	7	96
97	52	87
161	101	225
208	140	51
226	155	-159
212	138	-95
163	99	-23
87	43	-72
-5	-17	-134
-96	-71	-98
-173	-115	-24
-223	-141	-61
-241	-150	9
-223	-135	64
-172	-105	7
-97	-58	-12
-7	-9	-123
83	39	-181
165	80	-155
224	109	-16
250	129	141
238	138	213
190	130	263
114	106	169
21	65	-143
-68	12	-162
-150	-47	-213
-206	-101	-479
-236	-142	-193
-236	-166	16
-207	-168	130
-151	-143	152
-71	-98	-24
18	-33	-7
109	41	-171
184	110	-267
234	159	-93
245	171	160
222	151	182
167	101	22
91	33	-24
4	-35	32
-83	-96	-6
-162	-139	24
-225	-164	64
-259	-166	26
-259	-147	81
-223	-108	14
-152	-54	-82
-61	7	-16
34	67	44
117	118	-37
178	158	63
212	182	74
223	182	9
212	159	-45
184	106	-152
139	33	-125
74	-51	-101
-10	-126	-4
-103	-174	72
-185	-186	117
-237	-164	103
-243	-124	10
-195	-74	-51
-109	-26	-80
-3	20	-81
97	66	-62
169	112	-80
201	148	-124
193	157	-147
151	134	-211
90	77	-207
20	1	-151
-49	-70	-111
-113	-119	-8
-162	-134	147
-195	-126	168
-207	-108	47
-193	-93	-9
-154	-81	5
-91	-64	75
-12	-34	134
72	16	41
144	75	-84
193	129	-152
209	159	-39
196	156	54
156	121	61
101	71	61
40	15	-12
-19	-36	-147
-75	-77	-101
-125	-109	183
-168	-129	-6
-195	-137	-63
-200	-125	2
-177	-95	-256
-124	-54	-218
-50	-11	-178
30	24	-133
104	47	49
159	63	12
194	80	-70
204	101	35
192	121	53
156	130	22
99	110	79
19	59	32
-72	-16	24
-161	-92	304
-228	-145	191
-255	-163	-182
-236	-137	-159
-174	-88	-392
-85	-28	-500
14	22	-234
104	58	-53
170	81	-7
206	91	-32
210	93	-10
188	85	138
144	68	238
91	40	159
32	6	98
-28	-34	0
-91	-77	-74
-155	-116	1
-208	-153	74
-243	-173	57
-242	-170	39
-195	-131	14
-106	-58	-34
11	33	-11
129	127	84
218	195	52
262	224	-33
258	208	-38
214	161	5
152	99	26
82	35	46
14	-21	49
-53	-71	-65
-120	-113	-89
-181	-141	-181
-228	-151	-311
-249	-136	-205
-239	-103	-112
-195	-62	-179
-129	-30	-124
-47	-10	36
40	-5	118
130	-1	150
208	15	80
262	48	10
278	93	-26
242	125	-25
157	128	9
38	89	65
-83	20	-14
-178	-58	-297
-226	-121	-248
-223	-149	28
-184	-138	152
-126	-102	142
-65	-58	179
-8	-19	179
47	10	63
104	35	-16
154	62	-172
189	92	-261
195	115	-236
167	120	-88
107	98	-5
31	52	-22
-47	-7	67
-114	-68	35
-165	-114	-47
-195	-138	-81
-206	-142	-69
-191	-125	-153
-149	-94	-208
-80	-46	-51
8	9	100
97	63	135
170	109	52
212	135	-51
222	140	-111
199	126	22
151	101	144
89	68	119
12	32	40
-69	-5	-49
-150	-46	-77
-212	-85	-37
-246	-112	91
-241	-118	39
-195	-98	0
-122	-58	-102
-31	-8	-256
56	35	-179
132	64	-25
188	75	-14
216	74	-101
222	71	-155
198	70	-95
148	66	-31
72	51	37
-15	15	168
-105	-43	71
-182	-113	40
-236	-175	24
-255	-210	75
-239	-206	101
-189	-166	71
-112	-99	110
-22	-27	16
74	39	-14
158	91	-172
216	128	-289
248	154	-339
245	165	-211
204	158	1
138	122	26
49	58	20
-46	-21	-8
-136	-103	-9
-210	-162	-77
-252	-183	-55
-256	-164	-64
-222	-118	-84
-156	-60	-35
-66	-7	30
27	35	75
115	68	61
186	98	38
231	127	58
245	150	74
233	164	21
191	153	40
124	116	39
41	58	42
-48	-12	68
-134	-80	2
-205	-136	-93
-250	-171	-128
-262	-184	-92
-236	-174	1
-176	-142	-17
-92	-96	19
-1	-38	138
80	22	-65
140	79	-178
172	122	-20
181	148	126
170	150	112
143	126	-115
107	80	-33
59	15	-52
1	-54	-211
-68	-119	-157
-139	-160	-279
-194	-173	-115
-218	-157	10
-199	-117	104
-137	-64	80
-44	-11	-182
57	38	-171
147	85	-190
204	126	-64
228	155	152
212	168	152
169	149	159
104	98	149
28	20	178
-49	-65	225
-124	-137	28
-184	-178	-104
-223	-178	-130
-229	-144	-170
-205	-93	-210
-152	-41	-89
-78	2	142
9	36	101
97	65	164
172	100	-19
226	132	-500
250	160	-479
237	164	-111
186	136	-67
104	74	-38
1	-13	32
-104	-101	-81
-191	-170	-2
-252	-201	-125
-270	-194	-86
-248	-154	-1
-191	-101	-48
-115	-48	20
-29	-2	192
50	38	308
119	76	276
169	115	233
198	153	61
209	179	-64
195	174	-145
155	138	-16
91	65	43
7	-26	-62
-87	-119	-60
-174	-191	-124
-240	-230	-94
-274	-235	-19
-268	-209	-57
-225	-162	-104
-149	-97	-138
-51	-21	-123
57	63	-57
163	145	-33
253	211	-59
314	252	-10
336	256	58
313	223	74
245	162	158
141	88	116
21	13	58
-99	-55	100
-198	-113	-111
-262	-158	-289
-281	-183	-76
-261	-186	19
-208	-163	14
-135	-112	46
-54	-49	-44
26	17	-33
99	70	-130
159	106	-48
201	123	33
212	126	-151
194	117	-245
138	95	-244
55	58	-154
-40	3	-11
-130	-64	68
-200	-133	126
-236	-183	224
-232	-198	152
-191	-173	91
-125	-112	-37
-42	-37	-165
44	34	-95
124	89	-11
181	121	-58
211	132	26
209	128	116
175	109	8
122	71	-7
54	20	-103
-20	-40	-177
-94	-99	19
-156	-139	142
-201	-152	96
-225	-138	4
-221	-111	-66
-181	-77	16
-117	-45	-1
-32	-12	-21
58	24	-3
139	70	-88
201	118	-155
231	152	-150
228	161	-72
194	134	77
132	82	225
55	17	180
-27	-39	42
-106	-75	-78
-169	-90	-319
-210	-90	-530
-223	-86	-282
-210	-85	-43
-172	-81	10
-112	-69	138
-38	-42	76
46	1	-21
132	54	-92
206	105	65
256	139	196
266	149	145
231	126	71
154	80	-96
46	18	-201
-68	-43	-230
-170	-94	-32
-241	-128	-20
-272	-149	-62
-264	-153	-22
-223	-143	-24
-152	-120	33
-58	-77	-35
42	-17	-46
139	55	16
216	123	7
260	170	75
262	183	87
229	161	127
167	111	139
86	51	-31
0	-1	-99
-85	-45	-167
-164	-82	95
-229	-116	191
-268	-148	-36
-271	-167	-81
-232	-165	-132
-156	-129	-99
-58	-65	-122
38	12	-156
116	85	-185
166	131	-104
189	155	-20
195	157	72
195	145	155
184	126	57
163	96	39
114	47	87
34	-17	80
-69	-93	-40
-177	-159	-145
-258	-196	-68
-285	-195	116
-249	-157	-17
-158	-95	48
-35	-26	232
86	35	83
178	85	-77
228	121	-393
236	143	-540
209	153	-457
160	138	-339
99	101	-103
26	43	5
-53	-26	-9
-135	-91	106
-202	-140	186
-249	-166	213
-258	-166	234
-229	-143	281
-163	-105	174
-76	-56	83
17	0	11
105	55	-210
172	104	-144
216	135	-79
230	147	-71
214	132	58
167	99	83
97	53	77
13	2	-109
-71	-45	-273
-143	-89	-199
-195	-121	-30
-223	-138	-26
-222	-143	21
-191	-127	124
-137	-98	39
-59	-50	30
30	5	-28
123	63	-71
201	118	-52
248	158	-49
254	174	-7
222	166	51
155	127	71
67	67	76
-25	-5	72
-114	-76	52
-189	-135	-2
-241	-171	-82
-259	-181	2
-238	-161	72
-177	-117	-64
-84	-52	-91
24	21	-115
122	90	-169
192	143	-106
222	168	-168
211	162	-215
172	128	-120
122	80	-141
65	29	-165
9	-15	12
-50	-47	233
-114	-70	219
-176	-88	84
-229	-105	32
-253	-117	-90
-240	-120	-157
-181	-107	-93
-91	-74	-70
17	-26	-41
115	30	-40
184	80	-85
212	110	-67
203	119	-111
170	102	-28
130	67	65
90	22	-39
49	-27	-52
1	-72	-5
-63	-115	97
-139	-144	120
-210	-157	110
-248	-143	112
-231	-107	21
-151	-49	163
-31	16	171
96	76	-113
194	114	-251
238	130	-431
234	128	-303
195	113	127
147	96	194
101	76	195
55	51	103
2	20	18
-65	-21	34
-141	-64	76
-208	-105	185
-245	-127	137
-235	-125	70
-180	-99	-163
-97	-53	-452
0	0	-445
85	53	-235
155	97	-167
198	127	-176
215	136	-106
202	124	2
155	90	30
78	41	5
-19	-17	29
-118	-79	-62
-200	-131	-5
-248	-173	102
-257	-192	152
-232	-190	137
-180	-158	38
-109	-101	42
-25	-27	-5
62	50	10
148	114	56
214	157	72
254	170	81
257	165	40
226	142	-68
165	106	-114
86	62	-36
2	4	-43
-83	-61	-44
-159	-125	-68
-222	-172	-114
-257	-186	-116
-258	-167	-87
-217	-115	-61
-139	-50	-41
-34	17	-16
76	71	-5
170	114	54
231	141	109
250	153	162
228	147	94
171	118	5
96	71	-36
14	11	-204
-60	-49	-186
-120	-96	-43
-164	-125	109
-186	-138	139
-189	-143	-58
-173	-143	-228
-138	-134	-456
-82	-104	-399
-10	-44	-55
71	41	219
144	136	219
193	213	84
206	244	-59
182	222	-97
132	157	55
74	70	13
19	-11	55
-27	-75	96
-67	-121	-66
-111	-155	-86
-158	-182	41
-200	-196	20
-221	-189	-102
-195	-149	-170
-127	-77	-155
-23	7	53
89	79	-2
175	120	-151
221	126	-97
214	106	-61
172	80	-44
111	56	26
51	34	65
-10	7	17
-68	-37	28
-132	-96	110
-191	-151	173
-234	-181	124
-237	-167	-54
-194	-111	-175
-110	-28	-163
-1	56	-165
104	121	-86
184	156	5
229	166	-48
236	160	-7
213	147	96
172	126	39
116	93	-8
44	42	5
-37	-21	51
-125	-85	-41
-198	-131	-86
-247	-151	39
-253	-139	-14
-223	-111	-48
-160	-77	-40
-80	-44	-46
7	-13	-26
89	23	-23
163	68	45
224	119	130
261	160	134
268	174	45
230	150	-84
152	87	-113
42	4	-60
-78	-81	-29
-187	-147	19
-262	-186	-8
-291	-200	-41
-277	-191	-103
-222	-165	-162
-140	-122	-171
-44	-66	-88
50	1	80
136	68	168
201	126	185
239	163	52
245	179	-64
222	174	-63
170	152	-20
97	114	-16
11	58	-40
-83	-8	-133
-166	-84	-201
-232	-148	-139
-264	-188	-120
-263	-192	-22
-226	-160	-10
-156	-102	-38
-70	-33	-32
19	28	-36
102	81	-100
171	120	-82
222	144	-25
249	153	-6
248	138	-80
216	101	-181
149	40	6
51	-32	84
-61	-100	93
-172	-152	81
-253	-180	76
-290	-187	35
-273	-174	49
-209	-143	65
-118	-97	-21
-19	-34	-144
67	39	-259
132	113	-109
172	168	-133
196	190	-23
204	177	281
194	132	225
163	72	170
106	12	28
26	-40	-141
-65	-80	-117
-153	-108	-109
-218	-124	-66
-245	-128	-45
-229	-118	1
-173	-87	-43
-89	-38	-79
10	20	15
107	81	54
190	131	46
244	164	7
255	171	-52
225	155	-150
155	112	-158
60	45	-91
-42	-27	-11
-130	-102	26
-197	-157	16
-234	-185	13
-241	-181	18
-225	-150	48
-182	-104	61
-120	-50	67
-39	4	38
52	57	-32
138	106	-133
206	147	-55
241	169	-44
238	166	-133
201	135	-11
136	79	31
57	7	52
-31	-66	97
-120	-130	2
-203	-179	8
-268	-207	68
-301	-207	-70
-288	-179	-131
-224	-119	-212
-111	-36	-172
28	55	-11
166	134	-71
275	180	-47
333	189	-60
331	169	-49
276	131	-44
184	92	-51
80	57	63
-24	20	91
-110	-26	30
-175	-85	-161
-218	-147	-355
-237	-195	-282
-240	-215	-9
-218	-196	215
-173	-143	290
-102	-74	196
-13	3	111
82	74	51
167	131	-6
223	171	-105
241	190	-74
216	180	-15
164	138	-97
91	71	-113
13	-5	-248
-61	-70	-215
-125	-110	37
-173	-119	104
-205	-107	59
-211	-92	12
-188	-83	-36
-134	-78	-51
-54	-61	1
40	-24	65
131	40	75
201	112	-35
234	166	-51
227	180	19
184	148	-22
119	80	48
44	0	-41
-32	-66	-42
-100	-110	64
-159	-133	112
-203	-142	171
-229	-149	22
-225	-140	-116
-182	-112	-271
-107	-57	-275
-6	18	-123
96	97	9
179	158	65
225	181	99
231	169	41
203	128	-56
154	80	-116
95	32	-157
31	-9	-197
-35	-46	-227
-106	-88	-97
-175	-129	-64
-231	-163	11
-256	-179	97
-242	-171	46
-185	-134	95
-96	-78	58
7	-14	56
107	49	128
184	106	119
234	152	-18
245	174	-20
226	173	-22
164	140	-151
76	80	-19
-28	5	38
-125	-67	13
-194	-121	21
-222	-150	-13
-205	-153	-135
-159	-142	-140
-101	-123	80
-47	-95	46
3	-50	8
53	15	-22
111	96	-230
175	171	-219
234	222	32
258	218	116
233	165	142
155	71	144
42	-22	37
-74	-94	-74
-168	-126	-213
-222	-125	-235
-239	-111	-240
-228	-97	-93
-199	-94	60
-162	-92	46
-105	-74	13
-32	-32	-17
56	32	-48
143	102	-62
211	155	-59
239	171	-19
225	154	-58
171	106	-142
95	45	100
13	-14	191
-61	-66	106
-128	-109	164
-182	-141	213
-217	-163	312
-232	-167	186
-214	-152	-17
-162	-115	-247
-82	-61	-412
13	0	-318
106	60	-368
181	112	-228
226	143	-25
237	155	-95
215	142	-86
169	109	-113
99	61	-27
18	6	49
-65	-46	168
-143	-93	178
-202	-124	24
-235	-140	30
-234	-138	-49
-199	-116	70
-132	-76	326
-44	-21	298
51	40	122
140	95	-171
206	132	-399
239	148	-339
234	137	-325
193	106	-153
123	62	46
42	13	58
-43	-36	98
-119	-83	130
-178	-120	128
-215	-144	25
-228	-153	-48
-212	-141	-139
-169	-112	-141
-103	-69	-60
-23	-19	-9
60	37	-24
133	97	-203
186	154	-143
209	200	6
201	221	9
166	204	69
114	142	69
50	47	102
-12	-63	130
-71	-160	87
-124	-216	43
-167	-223	-80
-194	-183	-122
-199	-123	-11
-175	-60	41
-117	-11	46
-30	22	83
77	47	19
175	70	-48
245	96	-54
271	112	-93
245	112	-158
181	90	-69
93	45	-16
4	-6	7
-76	-54	56
-139	-89	16
-186	-111	-90
-218	-122	-230
-234	-125	-138
-224	-120	-26
-181	-98	-70
-102	-53	3
0	14	108
107	91	-52
198	162	-137
250	205	-18
254	209	31
214	177	83
140	112	124
49	36	-33
-44	-40	-26
-129	-106	86
-195	-152	100
-236	-174	38
-242	-169	-142
-212	-138	-175
-151	-89	-176
-69	-34	-167
17	16	-80
98	57	3
161	86	-9
201	106	-59
216	123	18
205	132	92
172	126	-9
116	98	-69
41	43	-11
-43	-29	-112
-125	-102	-118
-191	-162	2
-232	-192	-36
-240	-192	44
-214	-165	108
-162	-120	63
-88	-64	-16
-1	-5	-109
86	51	-80
163	104	-115
216	139	-92
242	158	-27
228	153	-62
183	128	-16
111	89	133
28	39	169
-54	-15	139
-129	-71	52
-187	-124	-39
-224	-166	-118
-229	-180	-111
-203	-162	-99
-143	-108	-124
-58	-32	74
34	45	120
119	106	87
174	135	-11
199	134	-115
190	115	-99
156	89	-54
107	63	63
51	38	1
-7	3	34
-65	-48	113
-119	-110	38
-161	-163	-198
-182	-190	-231
-177	-176	-131
-143	-125	-190
-87	-52	-104
-15	20	-64
60	76	-30
131	110	-46
186	129	-60
215	142	-50
216	150	29
184	147	104
124	119	42
42	63	120
-44	-13	104
-125	-93	61
-188	-153	26
-226	-179	-26
-234	-168	-52
-214	-134	20
-170	-90	101
-102	-48	6
-21	-12	-38
64	27	-116
143	67	-70
198	114	28
225	150	3
214	164	-19
171	145	-64
102	97	-60
18	27	-56
-69	-46	-128
-147	-108	-180
-202	-150	-243
-225	-164	-227
-215	-160	2
-174	-140	36
-109	-105	-26
-35	-62	61
42	-9	16
111	45	-13
171	104	111
213	157	104
234	188	18
223	192	32
175	160	-66
98	95	-31
-2	7	0
-106	-84	-9
-193	-155	51
-245	-195	40
-255	-195	93
-225	-167	57
-166	-120	-2
-89	-69	-36
-7	-21	-82
69	25	-200
137	68	-184
187	110	-60
216	140	-4
216	156	58
189	144	27
132	110	6
54	56	-125
-37	-4	-192
-130	-61	-80
-215	-113	-62
-270	-151	1
-285	-173	35
-249	-168	-53
-164	-134	-50
-46	-68	2
79	15	30
183	101	18
245	166	29
258	198	69
234	193	13
190	158	4
136	109	-44
82	58	-249
18	5	-162
-55	-47	-100
-143	-107	-80
-228	-163	84
-288	-207	4
-303	-224	37
-262	-200	31
-173	-141	29
-56	-55	95
55	34	74
148	114	84
206	170	-19
234	198	-141
233	200	-167
204	174	-42
152	130	9
79	63	87
-8	-15	137
-96	-95	52
-167	-162	53
-210	-198	-7
-217	-204	-20
-193	-177	-37
-147	-129	-63
-86	-69	-100
-17	-12	-113
55	43	-44
124	94	-108
184	138	-143
227	179	-132
240	202	-161
216	197	-67
163	154	123
79	70	65
-22	-39	-43
-125	-153	-81
-215	-241	-76
-276	-282	-26
-299	-268	74
-271	-206	127
-201	-118	95
-100	-26	102
14	51	16
117	108	2
193	143	-83
231	163	-208
234	170	-376
203	165	-306
154	142	59
91	99	133
22	39	119
-48	-30	113
-112	-96	9
-166	-144	-90
-197	-167	-80
-202	-160	-84
-177	-130	-34
-124	-83	29
-52	-32	26
28	15	-13
104	53	-53
162	85	-20
194	112	0
194	134	48
166	149	24
115	143	-28
52	113	-11
-12	50	17
-68	-36	57
-116	-126	71
-149	-195	71
-170	-222	15
-175	-198	-81
-160	-136	-108
-118	-60	-105
-50	8	-129
34	54	-94
122	79	-63
193	93	-52
234	106	30
230	126	85
189	138	101
117	130	34
32	88	8
-56	17	-5
-138	-68	-115
-203	-144	-153
-245	-188	-185
-256	-190	-158
-232	-157	-80
-170	-102	51
-80	-43	112
22	10	41
120	50	0
194	87	-98
234	116	-105
237	136	3
207	139	51
155	121	10
86	78	30
10	15	-3
-66	-53	-105
-138	-116	-118
-193	-159	20
-225	-179	18
-224	-174	-65
-191	-144	28
-132	-95	83
-52	-27	81
36	48	90
121	124	65
188	183	-4
228	214	79
234	210	0
202	170	-153
142	105	-133
63	28	-349
-19	-40	-443
-95	-96	-292
-157	-131	-140
-199	-149	107
-221	-152	279
-214	-140	216
-180	-116	238
-113	-76	222
-23	-23	61
77	38	-39
165	96	-320
222	134	-442
233	149	-201
195	129	-124
123	82	-35
34	16	151
-48	-49	207
-115	-102	129
-156	-131	-48
-172	-137	-123
-169	-123	-185
-154	-102	9
-126	-84	147
-87	-68	60
-35	-52	53
26	-30	38
93	8	56
155	57	-100
202	113	-88
225	158	-40
216	180	-108
180	169	4
117	123	13
37	58	-1
-49	-15	-22
-131	-79	-85
-197	-123	-111
-241	-143	-99
-253	-140	-28
-231	-118	16
-173	-85	46
-92	-47	18
2	-9	2
94	26	24
169	62	13
216	96	18
236	124	6
222	138	-6
175	125	15
105	84	5
16	19	8
-79	-55	-7
-164	-121	-55
-224	-160	-24
-250	-167	32
-236	-144	8
-186	-103	-21
-114	-54	-85
-27	-4	-51
60	45	-7
140	97	-11
203	143	84
239	174	51
242	185	41
211	161	14
147	110	-121
58	41	-233
-36	-28	-158
-124	-89	-63
-191	-131	29
-230	-156	110
-237	-161	-49
-215	-147	-69
-169	-116	-214
-102	-69	-280
-25	-14	-171
52	38	-44
122	77	90
175	96	10
202	97	91
203	86	108
176	70	52
129	51	71
60	25	29
-20	-12	-18
-101	-61	-6
-173	-112	-95
-218	-152	-238
-231	-160	-229
-203	-133	-198
-147	-81	-147
-69	-17	-6
10	36	49
79	68	54
129	82	112
158	85	108
169	85	113
163	84	17
147	78	-70
115	53	-138
72	11	-82
14	-41	69
-52	-93	112
-124	-126	213
-187	-134	255
-223	-115	225
-216	-78	94
-160	-32	-115
-61	15	-331
57	63	-328
167	110	-112
239	150	-17
259	174	5
229	174	-25
163	145	-123
84	91	-123
8	22	-70
-60	-45	-38
-120	-100	21
-176	-137	43
-221	-158	10
-245	-162	-72
-234	-151	-121
-185	-121	-126
-100	-77	7
1	-17	110
97	45	1
171	99	20
212	132	4
225	144	16
208	135	194
171	109	175
114	68	210
37	15	175
-53	-50	-62
-148	-117	-213
-224	-173	-177
-264	-196	-320
-261	-182	-395
-213	-126	-154
-130	-47	-32
-33	29	39
59	85	16
137	112	39
192	116	32
224	111	16
230	110	-8
214	112	-114
172	106	-157
107	82	-192
23	30	6
-67	-41	96
-158	-117	-23
-232	-176	5
-276	-205	25
-281	-200	3
-245	-168	-25
-169	-121	8
-65	-64	-15
44	-4	-10
145	57	45
214	117	26
245	164	-9
238	190	-82
198	183	-15
138	147	127
68	84	145
-5	11	87
-78	-56	79
-141	-108	39
-191	-134	28
-214	-138	12
-204	-122	-62
-161	-92	-75
-88	-50	-193
0	-2	-122
90	46	141
163	94	228
211	129	238
225	152	-83
208	154	-323
166	136	-420
105	98	-432
34	39	-138
-44	-31	-108
-119	-109	-32
-188	-176	40
-236	-224	41
-256	-235	24
-236	-206	96
-177	-143	144
-83	-57	-48
28	29	-151
128	106	-399
204	158	-619
236	185	-252
226	187	235
175	162	256
106	114	233
26	41	71
-50	-41	44
-119	-127	68
-174	-189	126
-211	-215	135
-229	-202	33
-222	-157	145
-188	-93	83
-130	-27	30
-56	30	-123
26	80	-157
107	117	-45
175	144	-52
226	155	-74
251	141	-64
251	106	17
222	58	46
169	11	19
88	-28	-71
-10	-55	-44
-115	-81	39
-207	-110	3
-262	-143	3
-271	-173	-21
-221	-173	-120
-126	-131	-192
-13	-50	-116
88	52	-26
159	147	16
188	210	80
188	225	44
166	201	41
133	148	51
97	85	-30
47	24	-44
-16	-32	-12
-92	-82	11
-169	-124	-54
-224	-148	-53
-240	-148	76
-212	-122	49
-147	-80	8
-58	-31	80
30	13	15
110	51	-95
172	86	-3
212	117	45
231	145	-110
219	158	-202
175	142	-133
102	95	-103
7	17	-21
-99	-72	108
-191	-155	107
-255	-211	52
-277	-236	21
-262	-231	17
-212	-201	-138
-136	-153	-157
-43	-85	-313
54	-1	-552
144	90	-419
214	171	-112
250	224	104
245	233	30
202	193	30
130	119	9
40	27	3
-50	-57	91
-128	-121	81
-186	-159	82
-218	-167	95
-222	-153	38
-191	-115	42
-132	-64	100
-51	-6	98
37	50	15
120	94	-89
180	120	109
207	127	166
201	122	93
167	105	116
115	83	20
54	52	-77
-4	12	-95
-59	-38	-176
-111	-94	-282
-159	-143	-183
-198	-175	-49
-218	-179	62
-208	-150	14
-163	-95	-40
-86	-25	19
16	44	-11
117	103	-50
198	137	-30
242	145	113
242	131	70
206	104	-25
148	70	-108
78	35	-181
6	1	-17
-62	-39	113
-130	-87	66
-191	-139	-88
-236	-183	-136
-251	-200	-177
-227	-179	-211
-158	-115	-176
-56	-22	-108
56	77	57
161	154	112
232	195	132
265	198	117
258	173	70
219	139	115
158	104	135
83	72	20
-2	37	-64
-89	-9	26
-172	-69	35
-237	-136	39
-276	-190	39
-278	-217	-88
-241	-201	-140
-168	-141	-209
-69	-51	-135
34	47	-25
132	127	-257
210	170	-249
255	166	-67
266	124	-156
238	60	-273
176	-1	-197
87	-46	40
-16	-72	66
-119	-83	116
-199	-89	169
-247	-94	260
-248	-101	397
-209	-101	362
-139	-85	343
-51	-48	118
36	8	-171
116	67	-412
175	118	-379
210	149	-313
214	155	-230
190	135	-17
138	96	110
66	44	180
-16	-14	124
-97	-70	42
-166	-119	-92
-214	-153	-97
-234	-171	-128
-227	-171	-166
-191	-153	-289
-130	-118	-248
-50	-66	106
41	-3	30
130	70	-62
204	143	42
245	197	208
253	221	72
216	202	-81
152	145	-108
67	63	-129
-23	-19	29
-108	-87	7
-180	-127	-12
-228	-144	-82
-251	-142	-134
-239	-130	-92
-195	-113	160
-123	-88	193
-31	-54	109
67	-11	55
159	41	-96
224	95	-30
259	137	-47
259	161	-14
224	155	0
154	122	-21
59	66	-4
-51	-2	1
-158	-70	6
-242	-121	-28
-282	-153	5
-275	-159	7
-223	-144	32
-139	-115	22
-46	-75	18
40	-25	86
110	32	164
165	92	172
204	143	44
232	174	-7
242	170	-96
225	131	-245
169	64	-160
77	-13	-90
-38	-81	-119
-158	-123	-84
-250	-141	-68
-299	-133	-9
-290	-114	-113
-235	-92	-282
-148	-67	-356
-50	-40	-347
40	-3	-319
117	43	-205
172	96	104
206	147	280
216	177	215
205	181	22
162	143	20
93	79	158
4	-4	86
-91	-85	11
-172	-144	-44
-226	-175	-21
-242	-172	-34
-223	-143	-83
-170	-101	89
-98	-55	70
-16	-17	38
66	20	174
141	51	149
201	83	84
234	111	6
234	131	-78
197	133	-27
131	110	42
42	58	103
-53	-15	40
-145	-92	-120
-215	-155	-34
-255	-185	-81
-258	-176	-181
-222	-131	-104
-154	-67	-432
-62	-6	-609
33	41	-292
123	68	-114
191	81	79
226	86	219
230	92	230
198	96	236
143	88	175
68	64	138
-10	19	-41
-87	-36	-102
-151	-92	-162
-195	-131	-200
-215	-149	-78
-210	-142	45
-178	-114	83
-118	-71	30
-38	-16	-3
54	47	-72
148	109	-97
221	160	3
257	179	119
245	166	71
191	119	51
102	59	41
5	4	42
-82	-32	48
-141	-48	-17
-170	-56	-52
-174	-70	-103
-162	-99	-116
-142	-130	-135
-118	-147	-87
-83	-127	-41
-32	-74	-11
31	4	19
104	80	-1
170	129	10
215	147	13
225	131	-10
193	101	-42
124	64	-125
32	28	-114
-66	-14	15
-156	-69	-24
-213	-130	44
-239	-186	192
-226	-214	202
-184	-202	236
-120	-143	134
-46	-52	-52
29	48	-117
99	138	-147
159	200	-214
202	227	-181
225	215	-199
221	179	-246
188	121	-59
124	48	62
39	-26	147
-58	-95	117
-153	-148	-10
-223	-178	-151
-259	-186	-500
-256	-175	-412
-216	-152	28
-150	-116	85
-65	-71	61
22	-17	61
104	45	-60
171	106	-28
214	159	1
231	189	-4
213	187	-53
164	153	-28
86	93	42
-1	22	91
-87	-45	111
-154	-96	126
-195	-127	150
-209	-137	96
-195	-126	80
-159	-101	-51
-102	-65	-280
-30	-23	-275
48	21	-88
120	59	-2
172	89	70
196	100	76
184	90	36
142	62	-32
82	27	10
12	-11	139
-58	-45	145
-123	-69	171
-180	-91	74
-219	-108	63
-231	-122	-59
-201	-127	-317
-130	-116	-306
-28	-82	-230
83	-23	-109
175	51	-66
233	123	-38
242	174	-42
216	193	-86
172	171	-72
124	125	-6
75	65	80
18	9	56
-55	-35	-47
-141	-66	-104
-224	-91	-28
-278	-113	-53
-280	-131	59
-226	-137	111
-121	-126	-25
-1	-90	-87
107	-32	-75
184	34	43
219	93	-34
222	130	-28
203	141	21
175	123	87
135	88	133
85	42	85
20	0	101
-52	-37	14
-128	-62	-109
-193	-81	-119
-237	-94	39
-251	-101	46
-232	-105	-19
-180	-94	10
-98	-66	-130
0	-19	-110
103	43	6
189	106	130
244	154	235
252	170	16
219	153	-280
155	106	-478
74	48	-546
-7	-7	-337
-83	-54	-96
-149	-93	16
-205	-128	38
-245	-161	21
-259	-186	174
-236	-188	136
-169	-159	74
-69	-94	-6
42	-5	-204
136	84	-100
198	155	-1
215	187	86
201	182	190
169	145	87
129	86	48
89	23	77
40	-40	-11
-22	-95	-45
-97	-133	2
-170	-150	56
-221	-136	72
-223	-101	60
-175	-50	19
-85	-2	-109
22	34	-190
118	56	-95
183	68	-32
211	80	-40
208	89	37
180	99	37
134	95	34
74	72	16
0	29	-12
-83	-24	-7
-160	-76	-15
-218	-113	26
-241	-126	80
-222	-121	71
-167	-101	69
-89	-70	-50
-6	-33	-233
69	10	-81
132	55	-34
175	98	-180
203	125	-169
208	134	-261
187	121	-236
133	93	2
56	55	-21
-39	14	-142
-135	-29	24
-217	-72	110
-263	-119	101
-273	-163	113
-241	-186	13
-174	-178	-42
-87	-129	-113
10	-44	-233
101	56	-126
175	150	149
228	208	194
245	218	225
234	181	151
190	112	-61
117	30	-172
29	-43	-298
-61	-96	-319
-144	-127	-91
-205	-137	90
-239	-138	63
-242	-134	35
-216	-124	-31
-164	-107	-13
-91	-78	32
-1	-35	77
97	22	34
190	86	-79
262	144	-125
297	185	-76
280	194	22
216	165	-49
115	100	-54
-8	13	-50
-124	-80	29
-212	-151	76
-258	-188	34
-260	-185	69
-226	-149	45
-167	-97	75
-99	-43	30
-26	1	-7
42	33	-32
106	58	-57
165	83	-23
214	106	34
245	122	106
245	123	100
211	103	18
136	63	-90
30	12	-246
-86	-38	-327
-188	-80	-161
-257	-108	-49
-275	-122	-21
-245	-121	8
-181	-106	-2
-96	-72	-10
-7	-24	-44
75	35	-25
141	92	-18
191	131	28
215	143	110
210	128	109
172	91	74
107	44	5
23	-1	-114
-65	-43	-92
-143	-80	-40
-199	-113	-126
-229	-137	22
-229	-148	135
-200	-140	87
-148	-108	49
-76	-58	-100
11	0	-207
98	55	-158
172	101	-68
222	131	-122
236	147	-133
212	147	-129
161	128	-202
89	93	-116
7	35	-4
-76	-36	-36
-154	-109	103
-217	-173	171
-259	-207	117
-262	-208	81
-230	-174	-41
-152	-113	-42
-47	-37	-113
67	39	-130
166	104	-38
229	150	59
251	169	119
234	162	128
191	132	68
128	86	-35
58	30	54
-19	-28	24
-97	-80	-112
-168	-118	-131
-218	-138	-245
-237	-137	-181
-218	-117	53
-161	-81	51
-82	-39	119
6	0	152
83	34	-8
136	61	-46
162	83	-52
160	101	-92
137	110	-54
103	104	-33
66	78	-49
34	31	-38
8	-22	-43
-18	-72	-13
-46	-100	-3
-84	-105	-6
-122	-93	-23
-152	-72	6
-154	-55	47
-113	-35	-18
-31	-5	-94
74	43	-162
172	108	-251
237	170	-89
245	206	106
203	194	46
122	134	59
31	40	20
-54	-56	6
-121	-129	31
-173	-168	34
-210	-174	37
-229	-163	4
-223	-138	54
-181	-107	11
-107	-64	-81
-10	-6	-65
88	58	-25
166	119	75
207	154	177
212	158	103
184	130	0
137	84	-92
81	31	-202
16	-16	-206
-50	-59	-15
-118	-100	-4
-178	-134	-137
-218	-160	-179
-233	-165	-283
-214	-149	-325
-165	-111	-204
-90	-62	58
-1	-9	210
89	41	199
169	87	62
226	129	-63
253	161	-42
245	174	-118
198	161	-1
120	116	274
28	48	213
-67	-29	60
-149	-91	-137
-207	-130	-395
-237	-144	-261
-239	-140	124
-208	-130	254
-150	-118	272
-70	-100	225
18	-68	120
104	-22	-28
172	36	-180
210	94	-242
214	134	-295
187	145	-276
132	126	-227
63	85	-119
-14	32	-58
-87	-23	-12
-149	-69	34
-187	-101	33
-191	-110	33
-163	-97	57
-105	-59	116
-28	-7	123
47	51	84
111	101	46
155	131	24
178	139	-15
184	129	-5
175	110	-76
150	85	-186
100	55	-174
29	17	-202
-55	-31	-103
-137	-86	105
-201	-140	72
-234	-179	22
-231	-195	77
-199	-189	87
-150	-160	74
-89	-119	87
-18	-67	42
58	-7	-30
137	58	31
206	124	13
248	179	-105
253	202	-223
210	183	-172
131	124	-84
30	33	-50
-70	-61	91
-156	-139	149
-214	-179	138
-247	-179	52
-250	-150	7
-223	-101	-154
-168	-52	-353
-86	-5	-142
12	36	-84
107	77	-199
184	114	-77
228	143	-63
234	158	-10
204	150	69
154	118	87
87	64	130
13	3	246
-64	-59	201
-138	-108	-57
-197	-136	-86
-228	-141	-273
-221	-127	-403
-174	-97	-118
-100	-55	34
-12	-16	81
69	21	145
131	50	137
172	75	65
192	95	-7
193	110	-45
175	118	-138
135	110	-209
71	80	-172
-10	24	-74
-98	-47	147
-178	-118	211
-228	-170	37
-242	-189	-101
-218	-174	-122
-162	-128	-22
-87	-70	-128
-3	-17	-147
78	29	95
150	63	133
200	90	155
225	109	145
213	120	81
172	118	28
100	98	-127
12	59	-238
-81	6	-309
-159	-53	-231
-211	-114	-112
-227	-162	-67
-205	-189	-18
-152	-189	-2
-80	-154	49
-4	-86	57
64	7	44
117	105	48
156	190	52
180	237	74
194	243	81
193	207	51
170	144	-41
115	71	-157
31	-1	-97
-70	-63	-25
-172	-119	-68
-246	-162	-2
-280	-188	39
-262	-192	-26
-209	-166	-90
-128	-116	-61
-37	-45	-19
51	27	-1
132	88	45
195	129	25
234	149	-18
241	148	8
211	129	9
149	96	20
61	47	28
-34	-12	-8
-124	-78	-40
-190	-138	-99
-231	-181	-7
-236	-196	59
-210	-176	31
-154	-128	86
-72	-59	114
20	18	26
111	90	-70
184	149	-58
229	183	-233
238	194	-210
214	178	-167
167	140	-247
105	88	-168
30	25	-279
-48	-41	-124
-130	-107	49
-204	-166	99
-255	-210	168
-272	-229	161
-248	-212	60
-183	-160	-81
-88	-78	-27
18	17	-4
119	104	21
197	161	51
244	179	-26
254	164	-124
229	122	-64
174	74	5
96	23	36
3	-20	87
-92	-62	94
-173	-103	163
-231	-137	155
-253	-157	76
-241	-149	-54
-194	-114	-227
-123	-55	-302
-37	14	-195
48	79	-185
121	126	-208
172	152	-11
197	158	21
195	148	30
171	127	122
133	93	120
88	46	97
34	-9	25
-27	-71	-23
-95	-124	-83
-162	-158	-82
-214	-167	-43
-235	-152	-55
-211	-119	-113
-142	-78	-124
-40	-32	-19
71	13	-15
169	53	17
231	93	32
249	118	37
228	126	46
178	114	22
107	79	24
29	31	-2
-55	-20	21
-133	-61	29
-199	-89	19
-239	-100	20
-243	-99	-3
-209	-84	-80
-141	-54	-49
-52	-15	1
43	36	-44
131	89	47
198	128	20
234	142	-43
236	126	-14
202	83	-91
135	21	-135
49	-39	-85
-46	-87	-100
-134	-114	-61
-202	-124	-63
-242	-122	-124
-252	-113	-28
-233	-101	-80
-185	-81	-116
-116	-52	-60
-30	-12	1
59	33	52
142	80	49
208	118	71
242	139	52
244	143	54
211	127	63
156	94	96
83	47	127
3	-4	105
-78	-57	80
-150	-106	-67
-204	-139	-250
-234	-156	-287
-231	-150	-252
-190	-121	-61
-121	-76	134
-36	-19	15
51	35	-147
125	85	-230
179	119	-276
206	140	-99
207	149	182
184	139	84
133	110	-43
61	59	82
-31	-14	81
-130	-99	60
-217	-177	-12
-274	-227	-25
-281	-233	-1
-235	-191	138
-142	-114	102
-23	-22	-112
96	57	-68
190	113	-145
245	137	-160
261	138	-140
245	128	-70
206	110	43
158	85	36
100	49	34
30	2	-46
-50	-58	-93
-137	-119	-101
-219	-166	-54
-275	-190	-11
-288	-183	-15
-253	-149	-1
-172	-90	10
-65	-21	3
46	53	14
140	121	37
206	178	28
237	215	37
234	224	104
203	203	242
147	154	288
69	84	159
-19	5	-87
-106	-66	-422
-178	-121	-618
-224	-153	-445
-236	-163	-51
-218	-160	164
-177	-144	127
-120	-120	109
-52	-88	91
23	-39	43
103	20	9
175	84	-15
231	137	-23
252	166	-49
230	160	-35
165	122	-34
69	61	-18
-30	-6	2
-120	-64	-10
-184	-108	-8
-218	-131	-23
-225	-141	-21
-204	-135	-14
-159	-111	-7
-90	-67	0
-3	-8	18
89	58	25
167	118	-14
212	157	-19
214	168	32
179	154	104
121	121	109
59	79	-64
11	30	-260
-26	-23	-295
-56	-84	-262
-97	-142	-154
-145	-190	91
-193	-212	125
-217	-196	-9
-199	-149	-43
-130	-77	-88
-23	3	0
97	70	152
195	120	233
245	147	126
245	155	-104
198	143	-244
128	113	-157
49	60	13
-23	-8	65
-91	-81	0
-150	-139	-109
-202	-168	-111
-236	-165	-123
-239	-131	-113
-203	-85	-89
-128	-33	-36
-28	11	40
75	51	65
161	89	52
214	123	-28
231	150	-189
214	155	-244
172	134	-27
118	88	103
49	22	155
-26	-43	110
-100	-94	-28
-166	-123	-61
-209	-130	16
-223	-120	161
-199	-99	150
-145	-70	-42
-68	-35	-384
16	4	-302
96	45	84
159	77	19
195	96	99
204	100	138
184	88	63
141	69	81
78	43	-50
3	16	-117
-77	-17	-204
-151	-59	-190
-209	-104	-147
-241	-141	-35
-237	-160	53
-198	-151	57
-124	-115	84
-30	-61	51
69	-2	11
156	49	-37
214	92	-23
241	123	-33
232	144	-28
195	155	25
133	144	72
55	109	173
-33	48	291
-120	-28	213
-191	-102	18
-232	-157	-283
-231	-176	-584
-189	-163	-494
-120	-122	-183
-40	-69	91
31	-15	69
87	38	76
125	85	112
153	129	20
175	161	7
190	171	-86
182	154	-97
144	106	-102
68	35	-76
-33	-45	-21
-141	-116	25
-226	-166	112
-269	-185	147
-262	-177	117
-212	-144	-4
-136	-93	-110
-49	-30	-115
36	38	-58
114	99	-24
178	143	95
225	162	42
241	153	-78
225	121	-77
171	74	-60
90	27	-32
-3	-15	-28
-92	-51	32
-164	-87	12
-212	-120	-7
-235	-150	-12
-232	-166	-45
-201	-156	-135
-142	-114	-246
-60	-47	-170
35	28	4
127	91	161
198	125	168
234	127	55
226	106	-38
184	80	-49
123	53	18
53	30	52
-18	4	100
-86	-34	87
-145	-82	-67
-191	-127	-345
-219	-153	-353
-215	-143	-154
-180	-102	-111
-113	-39	106
-27	19	105
60	59	38
136	75	53
189	76	-103
214	76	-111
210	82	-84
184	95	-20
134	98	2
70	80	69
-5	32	79
-82	-36	43
-153	-105	43
-204	-155	-35
-227	-167	-67
-214	-142	-35
-166	-88	-59
-88	-18	-113
10	53	87
107	116	78
189	160	16
238	180	82
245	171	9
212	134	-9
148	75	-23
63	1	-45
-27	-66	-120
-110	-123	-102
-180	-157	-59
-226	-167	-53
-247	-159	-14
-234	-136	-38
-194	-105	-121
-125	-60	-181
-38	-6	-58
52	54	-4
137	110	-27
202	148	87
237	159	22
236	139	-21
200	97	9
135	40	63
53	-14	85
-38	-62	45
-126	-104	74
-201	-138	2
-256	-167	-9
-274	-182	-66
-256	-177	-67
-191	-141	-15
-89	-77	-128
35	11	-104
157	101	35
249	173	65
291	215	38
276	218	-165
216	183	-275
133	122	-143
46	51	-84
-29	-15	34
-86	-68	1
-126	-101	-13
-156	-121	95
-175	-131	68
-182	-137	135
-172	-138	33
-138	-127	-124
-82	-100	-140
-12	-47	-63
63	20	-86
130	94	-101
181	155	49
208	192	49
206	200	32
175	177	85
119	132	53
42	76	-4
-42	8	-4
-124	-62	-61
-191	-124	-137
-231	-165	4
-237	-176	130
-211	-151	76
-156	-99	-9
-81	-36	-151
6	18	-327
90	54	-278
161	70	-62
207	72	-11
225	72	36
206	72	50
160	68	33
90	49	11
8	10	-50
-75	-46	-54
-149	-106	-70
-202	-151	54
-234	-169	187
-231	-154	178
-195	-116	42
-129	-62	-112
-43	-4	-240
50	50	-238
133	101	-59
192	138	48
212	158	90
195	154	57
149	124	12
85	72	5
19	8	-15
-38	-56	-19
-82	-113	-19
-113	-150	4
-135	-167	57
-148	-163	51
-148	-137	65
-129	-96	100
-85	-36	-72
-15	27	-154
74	91	-97
162	142	-253
228	174	-205
254	183	-145
234	166	-163
170	123	22
82	60	121
-15	-15	137
-101	-92	144
-170	-152	116
-217	-186	26
-242	-188	-65
-241	-161	-125
-209	-115	-138
-150	-62	-147
-65	-16	-50
32	27	96
124	67	82
195	110	-3
236	153	-25
241	183	-172
212	191	-197
160	163	94
89	103	151
5	17	86
-82	-66	34
-162	-135	-8
-226	-177	14
-255	-189	-77
-250	-177	-90
-203	-145	-130
-125	-100	-173
-29	-41	24
67	23	186
151	85	136
211	132	4
244	155	-391
241	149	-530
206	116	51
144	72	194
59	28	87
-37	-7	87
-133	-35	-109
-218	-66	-62
-275	-102	13
-299	-142	44
-277	-174	28
-215	-179	-51
-119	-144	-111
-2	-70	-75
116	26	-151
215	122	-81
279	188	103
299	210	119
268	187	116
203	128	51
114	56	58
20	-14	-16
-69	-69	-83
-144	-111	-69
-199	-135	-128
-230	-145	-74
-232	-144	-40
-205	-126	-119
-148	-94	-45
-69	-44	42
19	8	44
103	62	79
170	106	97
208	140	125
212	159	117
183	157	-9
129	135	-80
58	92	-15
-16	31	-7
-82	-36	-51
-130	-101	-175
-158	-145	-162
-166	-166	-38
-156	-153	-81
-130	-119	-47
-93	-72	-89
-41	-23	-60
22	22	-23
94	61	-34
161	92	-21
211	116	-104
228	127	-88
204	123	-40
144	96	11
60	47	19
-32	-13	39
-115	-79	52
-183	-132	9
-231	-170	-51
-252	-182	-91
-248	-170	-83
-210	-137	-19
-140	-87	48
-44	-28	54
63	36	-20
161	97	-16
229	149	51
254	181	-2
242	194	46
197	183	19
132	151	-165
59	98	-218
-20	27	-141
-103	-53	42
-180	-134	217
-242	-196	120
-273	-233	59
-258	-229	21
-195	-183	-70
-95	-107	-87
20	-18	-135
125	64	-111
201	123	-32
238	155	116
234	154	114
196	131	132
135	89	182
54	40	-29
-31	-11	-149
-113	-51	-372
-175	-77	-498
-204	-84	-397
-191	-70	-238
-145	-51	-41
-79	-35	97
-10	-30	276
44	-34	204
84	-35	112
110	-20	7
135	21	-61
162	76	-48
181	124	-24
181	142	47
147	117	-7
76	55	-6
-22	-21	21
-122	-87	-1
-202	-123	9
-245	-130	66
-249	-120	68
-217	-106	72
-164	-96	29
-94	-82	-43
-14	-51	-76
69	0	-67
148	67	-40
205	132	-83
231	171	-76
216	174	-44
167	139	21
94	84	40
12	24	27
-67	-25	-16
-134	-68	-158
-188	-104	-142
-225	-135	-65
-235	-156	-43
-214	-153	56
-157	-121	101
-67	-58	79
37	18	61
136	90	39
212	138	35
251	155	27
249	147	-117
216	121	-236
159	91	-90
88	53	-24
6	6	-125
-80	-53	-79
-162	-118	-92
-229	-177	-182
-267	-209	-112
-263	-201	-24
-218	-154	-75
-134	-78	-76
-29	4	-2
74	74	51
159	119	133
211	139	138
229	144	74
216	138	-62
181	128	-181
132	108	-189
74	76	-55
9	25	69
-65	-41	109
-140	-112	80
-208	-174	70
-250	-209	38
-255	-208	-32
-212	-168	-54
-130	-102	-80
-26	-24	-26
78	50	31
161	108	114
210	143	134
225	158	75
207	151	-141
163	127	-289
102	88	-138
23	37	-127
-63	-24	-39
-151	-83	38
-217	-127	-44
-247	-148	-4
-231	-139	-12
-170	-108	2
-81	-61	30
13	-13	17
92	30	18
145	64	-30
175	95	-38
188	118	-5
192	131	-46
184	133	11
164	113	72
116	71	78
42	10	131
-54	-58	-5
-150	-120	-140
-228	-163	-14
-267	-179	22
-262	-171	-62
-222	-137	-86
-150	-90	-144
-64	-32	-126
26	28	-170
107	81	-229
175	122	-84
216	147	-54
226	150	-56
200	130	41
139	93	-1
60	41	-43
-25	-13	-32
-101	-66	54
-162	-112	23
-199	-144	-86
-218	-163	19
-214	-167	82
-187	-157	139
-133	-125	299
-53	-74	335
42	-4	203
140	79	-80
224	160	-453
271	223	-655
273	251	-403
231	233	-54
153	171	51
54	79	69
-47	-24	12
-138	-118	-7
-202	-181	15
-235	-208	64
-233	-196	94
-198	-160	74
-136	-105	69
-59	-44	22
23	15	-15
104	69	-24
169	115	11
214	150	11
234	166	24
219	163	-21
171	138	-82
92	91	-69
-8	28	-115
-112	-43	-53
-200	-112	54
-255	-168	126
-264	-202	161
-235	-206	152
-170	-179	66
-90	-123	-130
-6	-48	-281
67	30	-312
128	97	-182
175	139	-4
207	154	22
216	139	32
203	105	48
160	57	4
86	11	16
-5	-35	94
-102	-77	164
-182	-108	96
-233	-131	-3
-247	-141	-51
-225	-134	-157
-172	-106	-259
-98	-58	-224
-14	4	-116
71	72	-17
148	131	14
206	173	-55
237	186	-70
234	169	-97
198	128	-58
130	68	46
41	6	59
-54	-56	48
-144	-111	-63
-214	-153	-133
-253	-174	-60
-254	-173	-12
-217	-149	69
-151	-100	142
-61	-39	202
33	26	201
119	85	104
188	128	77
230	153	-138
244	156	-344
225	142	-273
179	112	-282
107	66	-241
19	6	-63
-77	-62	32
-166	-130	87
-234	-184	82
-271	-210	45
-271	-201	-2
-232	-161	39
-162	-98	150
-71	-30	110
25	32	14
116	78	-72
188	110	-99
234	133	-43
251	153	42
239	163	201
203	158	272
147	126	229
71	66	74
-15	-14	-150
-107	-95	-435
-191	-153	-552
-250	-174	-302
-267	-155	-71
-236	-112	16
-161	-63	37
-54	-21	-6
54	12	-38
144	43	-115
201	79	-102
221	119	-21
205	148	-9
162	148	62
99	108	213
20	32	240
-64	-55	124
-147	-127	-3
-210	-166	-151
-245	-163	-138
-239	-137	-103
-199	-105	-115
-134	-80	-91
-58	-60	-42
18	-34	-55
92	11	-94
156	75	-64
207	143	-92
239	195	65
241	209	106
205	178	103
133	110	151
37	28	29
-62	-51	-7
-151	-110	-15
-214	-147	35
-247	-166	82
-249	-168	106
-223	-160	-11
-168	-131	-157
-85	-85	-180
20	-16	-197
130	64	-108
228	140	49
284	196	102
292	213	14
245	190	-22
159	129	-51
56	47	-80
-43	-34	-43
-126	-103	31
-185	-142	100
-224	-159	43
-239	-153	-153
-229	-135	-373
-191	-111	-378
-126	-82	-204
-40	-45	56
52	-1	176
137	47	160
199	96	194
234	132	140
234	156	160
204	158	93
151	139	-143
80	100	-175
-5	39	-122
-93	-31	-107
-173	-107	84
-229	-168	149
-249	-200	129
-229	-194	66
-173	-148	1
-93	-77	-17
-3	0	-204
79	61	-150
139	102	-107
171	118	-254
171	122	-203
141	120	-95
93	111	-115
37	90	-7
-12	47	51
-47	-16	-12
-67	-89	-49
-78	-151	-93
-87	-183	-160
-98	-178	-145
-111	-139	55
-109	-83	101
-84	-27	118
-24	21	175
62	60	116
156	94	99
230	127	49
258	152	6
234	156	-44
159	132	-62
59	79	0
-41	3	-7
-126	-72	32
-186	-130	116
-223	-160	133
-237	-159	49
-231	-137	-44
-195	-105	-144
-138	-68	-265
-52	-24	-219
47	27	-125
141	86	-12
212	142	57
245	180	32
238	186	-15
194	154	-136
124	92	-121
42	12	-50
-40	-60	-37
-119	-118	-27
-183	-149	7
-228	-159	6
-242	-150	3
-222	-130	13
-166	-101	23
-85	-59	47
10	-10	46
100	43	36
171	93	-60
214	129	-93
226	145	-15
208	139	22
167	116	61
107	80	78
37	34	6
-40	-16	-95
-116	-65	-174
-184	-108	-181
-231	-138	-42
-247	-150	69
-226	-136	90
-166	-100	28
-79	-49	-75
26	8	-131
124	62	-164
200	103	-136
237	128	-118
234	132	-37
192	117	-13
127	80	21
51	30	69
-23	-28	33
-88	-83	45
-143	-121	75
-182	-140	-8
-203	-136	-40
-199	-115	32
-168	-81	41
-108	-41	104
-30	-4	57
53	34	-85
131	68	-254
187	99	-228
212	120	-12
208	126	62
175	112	111
117	79	-17
44	31	-120
-33	-24	-70
-111	-74	111
-177	-111	150
-221	-131	12
-232	-133	-18
-212	-119	-312
-159	-89	-426
-83	-46	-211
7	3	-39
96	51	37
170	93	69
216	117	74
234	122	45
216	109	67
166	81	103
98	47	130
17	10	86
-62	-26	23
-133	-60	-57
-188	-93	-119
-222	-113	-108
-232	-121	-55
-216	-107	-53
-177	-78	-50
-111	-37	-13
-24	4	-75
75	43	-51
172	81	-2
257	112	-8
302	139	15
299	150	28
240	135	24
135	85	8
8	6	-5
-116	-83	-33
-208	-157	-50
-255	-192	-43
-253	-186	-34
-221	-143	-19
-166	-90	-11
-102	-42	16
-34	-7	77
36	19	77
109	50	43
175	92	65
223	137	-24
239	171	-138
216	182	-15
158	151	-84
75	88	-251
-19	7	-68
-111	-75	47
-191	-143	52
-251	-190	4
-279	-208	-58
-269	-199	-72
-212	-162	-100
-115	-96	-45
3	-15	51
117	67	41
203	132	-1
245	169	4
244	171	-122
210	147	-130
156	105	21
90	49	-20
19	-8	-102
-62	-68	-272
-148	-119	-422
-223	-153	-140
-267	-158	72
-269	-134	81
-222	-90	141
-130	-39	150
-21	0	108
85	29	52
170	48	32
226	72	34
250	106	28
245	143	4
214	168	9
160	157	30
85	106	71
-4	25	70
-95	-63	65
-178	-132	-41
-241	-169	-257
-277	-170	-207
-274	-149	-2
-233	-116	34
-150	-80	-17
-34	-39	-70
93	10	-126
208	60	-127
280	109	-81
299	139	-30
261	145	15
186	121	82
97	77	141
16	21	152
-51	-36	43
-108	-86	-84
-160	-120	-252
-206	-134	-339
-234	-127	-95
-234	-100	56
-191	-57	150
-114	-15	176
-14	21	102
83	45	14
158	65	-88
200	86	-106
210	110	-153
194	131	-119
158	131	-42
106	103	61
35	39	94
-44	-41	24
-126	-120	-130
-191	-166	-187
-226	-169	-46
-223	-137	-55
-185	-86	-7
-125	-40	59
-53	-7	-1
15	10	45
78	22	22
132	38	12
174	63	9
199	93	3
198	113	21
169	116	17
107	91	24
23	42	-69
-69	-21	-88
-153	-85	-12
-215	-131	-22
-245	-154	-55
-241	-148	-88
-199	-119	-82
-128	-74	-33
-35	-24	-18
68	22	2
164	63	2
234	97	12
268	123	-27
257	136	-46
207	131	-34
128	106	55
37	60	170
-55	1	76
-140	-61	26
-213	-112	-196
-262	-144	-598
-281	-153	-333
-255	-141	39
-179	-115	-124
-60	-80	69
74	-39	196
196	6	200
272	53	145
289	101	-45
256	139	15
190	162	-86
119	161	-84
56	127	-76
2	70	8
-53	1	130
-118	-64	134
-190	-114	96
-250	-134	5
-273	-125	-125
-248	-97	-315
-169	-57	-233
-58	-19	-118
54	16	-81
143	44	-4
195	66	68
208	84	82
192	91	38
161	84	-2
117	63	-15
65	30	39
5	-11	59
-61	-52	122
-125	-86	141
-175	-113	-5
-201	-126	-144
-197	-126	-273
-164	-109	-309
-109	-80	-80
-39	-36	80
33	14	94
102	58	86
156	96	30
187	113	9
193	113	-30
170	93	-43
121	60	-52
51	17	-55
-28	-30	-67
-107	-76	-62
-173	-110	-3
-221	-126	-14
-234	-120	-12
-214	-91	14
-160	-45	10
-81	3	76
10	48	134
99	82	129
175	106	208
226	121	205
245	130	-7
240	131	-231
200	118	-401
133	85	-408
45	33	-259
-50	-30	-177
-141	-94	-78
-214	-143	-32
-256	-170	-81
-259	-170	-58
-226	-148	-6
-162	-110	63
-77	-63	77
17	-11	38
109	45	82
183	97	101
223	135	60
222	153	44
179	140	-21
107	101	-82
23	41	-57
-50	-24	52
-99	-85	130
-119	-129	110
-121	-153	4
-116	-157	-103
-111	-142	-245
-108	-115	-349
-93	-76	-122
-57	-26	79
4	26	68
83	79	91
162	123	63
216	155	64
230	163	27
202	148	-5
136	108	-20
52	52	-77
-34	-11	-93
-112	-70	-159
-176	-117	-49
-221	-145	94
-243	-153	119
-232	-144	180
-187	-119	86
-111	-76	-8
-11	-21	-16
91	41	3
178	105	-25
234	155	-147
249	179	-119
226	168	-99
171	122	-184
92	52	-141
3	-22	-106
-85	-87	-109
-162	-126	-63
-214	-140	-31
-239	-131	-27
-229	-112	39
-191	-92	133
-134	-70	77
-62	-48	46
15	-16	-42
96	33	-208
169	98	-278
226	165	-163
253	211	4
245	222	54
193	180	69
110	96	5
7	-13	74
-94	-114	65
-176	-184	39
-229	-212	43
-248	-199	36
-239	-162	56
-200	-116	-1
-141	-70	72
-65	-23	3
19	30	-80
107	92	-34
187	153	-151
245	195	-137
279	203	-106
268	170	-108
214	100	16
121	10	10
1	-77	18
-123	-142	46
-228	-181	55
-290	-190	-14
-297	-179	-78
-255	-154	-107
-178	-121	-115
-87	-84	-49
2	-40	46
77	9	158
136	63	141
187	121	43
224	177	-177
239	215	-256
223	228	-202
171	199	-193
89	129	-39
-14	30	18
-111	-74	16
-187	-157	42
-228	-198	32
-235	-196	95
-213	-159	171
-172	-108	183
-115	-59	141
-42	-22	-36
42	14	-229
131	51	-66
208	95	100
257	134	81
260	153	141
214	139	23
128	91	-99
20	19	-62
-88	-53	-105
-174	-108	-102
-229	-137	-38
-247	-141	-92
-231	-128	-141
-189	-111	-119
-124	-89	-33
-45	-59	-6
40	-18	-155
120	34	-274
184	88	-229
218	129	-129
216	147	-31
182	133	110
121	98	170
49	48	155
-23	-2	170
-82	-48	163
-127	-85	52
-155	-112	-104
-166	-126	-323
-161	-126	-372
-136	-110	-119
-92	-76	36
-28	-28	142
44	27	65
117	79	-2
171	118	12
197	138	-50
187	138	34
143	116	122
75	74	151
-10	24	129
-95	-26	-13
-170	-62	-247
-224	-83	-412
-245	-85	-278
-227	-70	-54
-169	-51	-64
-82	-32	233
20	-19	364
113	-7	285
181	3	233
214	17	56
221	37	-9
201	54	-170
170	65	-171
130	60	-218
80	37	-262
15	-2	-206
-63	-52	-184
-148	-102	-111
-217	-137	-24
-258	-151	74
-259	-135	166
-215	-95	164
-139	-38	76
-43	23	82
56	79	150
142	120	246
207	145	225
240	150	-3
236	137	-381
194	106	-436
122	61	-269
31	11	-208
-56	-41	-110
-132	-81	-251
-182	-109	-248
-207	-124	21
-212	-131	138
-198	-132	173
-169	-127	134
-117	-110	55
-40	-68	-76
51	-4	-140
147	76	16
222	148	137
261	193	62
254	196	-23
207	158	14
135	94	62
53	23	76
-25	-36	38
-97	-81	-16
-162	-110	11
-215	-134	47
-249	-150	52
-250	-149	43
-208	-125	32
-126	-71	-57
-18	3	-223
93	84	-211
183	149	-35
237	180	-77
245	178	-128
216	143	8
161	93	99
84	29	104
-6	-34	101
-96	-97	7
-178	-155	-155
-241	-198	-218
-270	-221	-241
-258	-214	-192
-205	-181	-131
-120	-124	1
-18	-54	91
86	22	63
175	99	33
242	170	-97
276	233	-186
276	273	-118
242	273	-58
175	226	54
88	131	239
-16	10	216
-120	-111	77
-208	-203	-3
-267	-249	24
-283	-241	48
-256	-196	16
-189	-129	-23
-97	-58	-97
4	7	-74
97	66	-52
169	114	42
214	150	76
229	162	-113
212	149	-193
169	110	-207
103	53	-105
20	-5	-4
-68	-57	-38
-153	-97	29
-215	-124	25
-245	-139	23
-234	-144	55
-183	-136	69
-103	-106	105
-7	-56	60
81	9	-42
150	72	-84
190	121	-52
202	140	-180
193	131	-136
170	103	-54
136	61	-140
89	20	-1
24	-21	-25
-56	-57	-32
-143	-95	16
-223	-125	-20
-269	-140	24
-275	-134	-91
-234	-100	-38
-153	-45	0
-53	21	-5
49	84	37
138	130	4
204	157	17
242	161	15
245	153	-44
221	131	34
163	100	65
78	57	-54
-18	3	1
-115	-56	-16
-191	-113	-89
-234	-157	-79
-240	-179	0
-208	-179	-89
-152	-157	-77
-80	-117	118
-2	-70	21
69	-26	-41
129	13	-81
169	45	-23
184	72	121
175	96	47
140	116	-112
89	127	-138
28	119	-239
-33	90	-412
-88	36	-281
-130	-29	60
-159	-98	179
-173	-149	147
-169	-170	280
-142	-157	225
-92	-109	141
-17	-41	63
71	38	-67
162	113	-99
234	171	-108
267	202	-202
257	195	-300
202	150	-164
113	74	-22
9	-18	31
-97	-108	45
-190	-174	22
-260	-206	1
-300	-201	7
-307	-167	-13
-274	-116	-5
-205	-59	87
-99	-6	96
27	40	30
154	77	6
257	103	-37
318	118	-49
324	118	-91
280	110	-66
199	93	-20
99	66	-55
0	31	45
-86	-15	-25
-153	-63	-201
-200	-110	-77
-228	-139	-4
-231	-143	18
-203	-116	60
-144	-64	41
-57	-7	11
42	46	-59
134	84	51
201	104	19
228	110	-52
211	106	-54
162	93	-59
93	61	31
16	13	41
-57	-49	85
-126	-116	45
-182	-167	30
-222	-188	-20
-234	-173	-145
-213	-127	-108
-160	-67	-41
-81	-7	0
11	45	51
100	89	105
172	124	29
221	152	-90
242	168	-58
234	168	-167
198	143	-447
132	96	-302
44	27	-68
-57	-49	-103
-157	-119	24
-237	-168	43
-279	-186	0
-277	-173	-19
-236	-136	-11
-165	-89	155
-79	-41	152
9	-3	62
87	25	-3
154	57	-35
206	98	-172
242	149	-151
258	195	95
245	215	149
193	188	164
104	105	163
-12	-15	40
-134	-137	-81
-235	-223	-159
-291	-250	-171
-292	-216	-24
-245	-149	-116
-162	-72	-122
-64	-12	64
34	31	-90
124	68	-509
203	106	-494
260	142	18
284	159	46
262	138	19
189	71	201
72	-28	216
-63	-125	222
-185	-190	176
-262	-202	124
-285	-168	113
-258	-108	66
-199	-50	-13
-125	-7	-104
-55	25	-86
12	53	-115
78	92	-198
140	131	-144
197	164	-62
230	174	29
231	159	7
190	120	20
117	63	21
23	2	0
-69	-61	32
-149	-119	-2
-202	-168	16
-227	-196	1
-225	-192	-3
-190	-160	-4
-131	-97	-19
-52	-24	-34
36	44	-51
124	100	-24
198	137	-27
245	163	-14
254	174	-14
228	169	-26
166	137	-12
79	75	17
-20	-9	34
-117	-99	53
-198	-171	71
-253	-211	-38
-272	-215	-121
-257	-192	-150
-208	-152	-273
-129	-101	-131
-33	-43	200
71	24	366
169	97	389
241	166	184
275	213	-135
268	233	-659
222	221	-760
148	179	-240
57	117	18
-37	39	-2
-125	-48	179
-204	-141	199
-259	-223	113
-287	-265	49
-269	-261	-162
-209	-194	-140
-111	-94	-198
4	10	-269
110	80	-185
189	106	-115
225	98	68
225	84	166
196	84	253
154	100	265
102	110	230
40	90	190
-32	25	18
-110	-68	-170
-181	-157	-282
-229	-203	-224
-241	-192	-117
-210	-131	-166
-144	-56	-229
-54	9	-39
44	51	-1
134	78	-92
206	104	47
249	136	59
253	164	75
215	168	155
140	131	152
42	60	213
-61	-22	217
-152	-89	22
-213	-122	-83
-239	-120	-187
-226	-104	-203
-183	-92	-39
-115	-92	60
-32	-95	70
51	-86	-15
122	-53	45
169	-2	-62
184	53	-153
175	93	-115
152	106	-165
122	100	-132
90	81	-101
47	53	-17
-12	23	-51
-91	-20	-97
-176	-75	-11
-248	-133	6
-279	-174	14
-256	-178	78
-181	-142	120
-77	-76	170
31	-4	175
121	53	45
182	88	-54
214	106	21
223	125	-4
214	150	-109
182	174	8
131	183	11
57	155	-85
-30	85	-47
-116	-9	-61
-188	-102	-54
-231	-165	5
-242	-182	-52
-216	-157	-137
-162	-103	-302
-81	-45	-392
12	6	-149
104	48	89
179	80	134
222	106	231
226	122	253
195	124	76
140	104	-112
72	63	-193
2	8	-156
-68	-52	-45
-137	-108	155
-199	-154	190
-242	-182	189
-252	-189	89
-217	-168	-129
-139	-119	-165
-31	-45	-219
83	40	-403
175	117	-509
234	171	-256
249	191	3
231	174	230
186	136	423
123	84	340
42	29	40
-49	-25	-350
-145	-77	-372
-232	-125	-188
-282	-163	0
-288	-187	121
-241	-189	87
-156	-169	182
-52	-133	152
44	-85	124
118	-32	139
169	24	13
200	82	-103
219	137	-186
225	179	-214
208	189	-173
161	160	-60
81	91	32
-23	1	35
-128	-87	71
-208	-144	49
-248	-160	-109
-242	-137	-60
-199	-90	35
-135	-38	74
-61	10	224
10	48	95
78	85	-109
135	117	-157
175	139	-227
192	143	-58
176	122	217
133	79	186
72	21	129
4	-34	-19
-60	-79	-215
-112	-110	-302
-151	-125	-351
-174	-130	-336
-180	-122	-215
-162	-100	-5
-116	-58	65
-43	-4	139
44	53	211
132	101	261
199	127	306
234	134	239
229	124	103
192	106	-15
131	85	-69
52	51	-269
-31	7	-287
-115	-50	-193
-189	-113	-229
-244	-165	-52
-264	-189	-78
-250	-182	-90
-195	-145	-71
-114	-91	-125
-16	-33	-72
83	23	-20
166	72	85
223	118	89
242	149	114
227	155	141
175	131	151
105	77	152
22	3	28
-57	-69	-144
-124	-118	-40
-173	-133	164
-199	-120	229
-206	-95	252
-190	-75	233
-150	-64	95
-88	-57	-269
-6	-38	-490
81	3	-543
159	67	-509
212	139	-501
234	194	-248
213	211	-4
162	181	-72
86	108	54
0	9	113
-83	-92	213
-152	-169	258
-202	-209	253
-231	-203	225
-231	-157	-32
-207	-82	-345
-154	-1	-232
-78	64	-22
16	97	1
117	97	194
211	74	117
276	49	141
299	40	155
270	47	31
196	65	-150
93	74	-238
-20	55	-268
-115	5	-292
-186	-65	-129
-229	-131	150
-248	-171	225
-243	-174	109
-214	-137	100
-157	-82	24
-66	-20	33
42	32	-92
154	75	-95
237	103	-23
275	122	43
260	131	183
200	121	218
117	92	199
28	40	-90
-49	-21	-412
-115	-81	-320
-168	-126	19
-208	-148	69
-228	-144	23
-221	-122	-35
-177	-87	-227
-103	-42	-256
-11	6	-133
83	55	-70
159	102	-137
207	135	-75
223	152	13
208	143	111
166	113	98
104	64	-13
25	8	-37
-57	-46	-61
-135	-93	6
-194	-124	130
-225	-141	133
-225	-144	124
-189	-127	120
-127	-94	-32
-44	-43	9
42	12	71
126	68	93
192	109	161
228	130	57
228	131	-185
192	115	-536
129	84	-511
49	41	-251
-31	-6	-11
-109	-60	161
-174	-113	168
-223	-156	164
-244	-174	34
-231	-162	-40
-178	-117	-19
-94	-50	-88
9	22	-43
110	88	6
185	131	-63
228	154	-96
234	161	-81
214	155	33
175	139	120
123	110	113
56	61	205
-26	-7	210
-117	-86	62
-202	-155	-43
-262	-195	-196
-279	-192	-435
-250	-153	-403
-182	-89	-70
-95	-25	112
-6	23	219
69	45	101
132	51	-120
184	56	-31
225	68	-82
245	92	-121
244	108	-198
198	106	-217
113	72	-90
-4	3	-111
-130	-84	-128
-237	-166	-93
-300	-217	51
-306	-226	119
-257	-189	207
-166	-122	205
-54	-39	95
54	41	-57
150	109	-106
214	160	-49
251	193	-123
253	203	54
226	190	127
166	147	-72
85	77	-122
-14	-12	63
-115	-101	149
-202	-174	111
-262	-212	81
-281	-213	-51
-255	-175	-120
-188	-111	-197
-93	-32	-175
11	45	-55
103	108	37
172	148	66
208	164	70
214	161	109
195	143	137
159	114	37
110	81	-111
49	35	-74
-19	-15	-235
-94	-75	-294
-166	-131	49
-226	-178	192
-253	-206	155
-244	-207	45
-191	-177	-46
-102	-119	-74
8	-36	-147
121	63	-36
212	158	-24
268	228	-81
276	249	-51
239	210	58
166	123	116
74	14	70
-18	-79	75
-98	-131	-69
-160	-141	-93
-201	-121	-92
-226	-103	-169
-229	-99	-246
-205	-108	-227
-152	-105	-193
-68	-72	-169
36	-4	112
139	85	233
219	158	141
258	195	-1
251	181	-137
202	135	-165
126	79	-179
36	25	106
-52	-22	155
-136	-74	20
-206	-133	-15
-253	-188	-196
-264	-214	-133
-236	-192	-168
-165	-121	-72
-68	-22	40
34	63	24
123	109	57
182	110	34
211	89	91
216	71	94
206	83	88
182	106	122
139	120	164
75	96	108
-9	27	89
-101	-60	-36
-182	-137	-197
-231	-166	-54
-238	-147	-27
-203	-99	-273
-135	-50	-229
-54	-19	-104
26	-3	-129
90	14	-33
133	48	35
149	94	260
139	131	236
114	134	96
80	93	-21
48	22	-239
19	-49	-180
-6	-89	-162
-39	-85	-179
-83	-56	-139
-139	-31	-67
-188	-34	26
-209	-65	57
-185	-106	41
-110	-121	45
1	-90	26
119	-18	0
211	74	8
258	148	5
252	179	59
206	161	135
137	106	141
61	41	64
-13	-18	-89
-85	-58	-252
-149	-84	-140
-200	-92	24
-226	-90	-92
-218	-79	-180
-181	-60	-233
-119	-41	-158
-45	-21	-20
25	-2	-6
90	17	29
144	44	55
188	82	96
212	119	91
205	137	98
163	122	81
82	66	91
-22	-20	95
-125	-114	96
-204	-182	67
-242	-207	-53
-240	-187	-140
-200	-137	-278
-142	-81	-204
-72	-32	-164
0	1	-228
74	29	-99
141	60	-105
198	97	-43
230	137	79
230	163	95
194	163	61
126	129	-38
41	65	33
-49	-12	18
-132	-89	-7
-195	-144	91
-233	-175	91
-237	-171	65
-207	-143	-46
-145	-97	-138
-61	-40	-41
33	16	1
121	72	-45
190	119	-79
227	156	-170
230	174	-135
201	166	56
145	128	45
74	65	-147
-6	-13	-75
-83	-89	22
-148	-143	102
-189	-167	170
-209	-159	68
-201	-129	100
-170	-94	66
-115	-58	-26
-43	-25	-60
39	14	-149
121	63	-181
189	123	-89
230	174	-95
229	200	-87
186	183	12
105	123	5
3	39	-39
-97	-47	-93
-172	-111	-22
-212	-145	24
-214	-153	9
-186	-148	-65
-140	-138	-83
-86	-126	33
-32	-105	26
22	-61	17
78	-1	89
133	70	21
184	135	-157
216	170	-160
223	170	-86
190	130	-28
123	67	-1
29	-7	44
-72	-76	76
-165	-131	137
-232	-168	54
-262	-180	10
-258	-166	109
-215	-125	123
-143	-66	89
-53	0	-101
44	62	-192
135	110	-148
205	142	-86
244	155	-51
245	155	-55
210	143	-52
150	120	2
72	83	-105
-8	33	-313
-85	-21	-358
-150	-71	-331
-201	-108	-108
-229	-126	64
-233	-129	40
-207	-121	100
-156	-108	94
-82	-86	100
8	-52	116
97	-1	120
172	61	114
226	121	71
245	162	108
230	162	54
175	119	16
96	45	-22
0	-40	-109
-95	-114	-108
-177	-161	-26
-232	-175	136
-252	-166	122
-235	-131	-167
-182	-83	-185
-96	-20	-267
6	48	-222
109	114	58
194	159	-17
242	171	62
248	153	63
211	104	48
150	46	-51
74	-6	-141
2	-48	-109
-64	-81	-94
-122	-106	12
-169	-128	22
-204	-143	94
-214	-137	53
-195	-104	-11
-141	-45	-10
-61	24	31
31	86	40
118	125	95
180	135	87
212	128	-6
212	110	-86
189	95	-122
138	74	-55
75	43	-107
-2	-3	-63
-85	-64	-118
-162	-123	-44
-221	-163	98
-248	-171	-9
-240	-152	-37
-195	-112	-36
-126	-65	56
-40	-25	64
46	12	37
127	49	-65
184	92	-128
211	134	25
201	165	110
159	170	67
94	137	-126
23	82	-368
-34	11	-479
-70	-53	-265
-93	-103	-16
-107	-133	101
-123	-152	85
-142	-163	39
-150	-162	112
-128	-142	53
-66	-99	56
30	-32	61
139	48	-32
230	122	-205
270	170	-23
256	182	217
193	158	178
105	106	233
17	41	63
-60	-20	-243
-125	-69	-297
-182	-103	-214
-228	-114	-150
-257	-110	106
-253	-94	167
-209	-75	215
-126	-52	132
-18	-28	-27
91	1	-58
180	42	-147
232	92	-186
245	138	-255
225	166	-171
172	160	-107
98	110	-19
10	33	91
-83	-52	112
-166	-126	95
-226	-167	40
-250	-179	-31
-237	-165	-59
-189	-136	-57
-117	-102	45
-32	-56	127
56	-3	83
136	57	-20
201	111	-106
238	150	-176
242	158	-378
209	137	-297
144	100	-83
63	53	13
-25	8	81
-105	-35	60
-173	-78	39
-216	-117	84
-237	-145	159
-225	-149	110
-180	-120	81
-105	-60	58
-12	8	-7
85	69	-40
165	103	-99
216	110	-150
234	104	-87
216	93	-38
178	85	-36
119	76	-29
49	50	-28
-29	1	-53
-112	-62	-52
-181	-124	16
-229	-160	-21
-239	-156	-20
-211	-116	24
-148	-55	-27
-63	1	84
27	47	150
110	83	92
172	106	8
212	131	-167
222	142	-103
200	136	-59
148	99	-88
74	36	21
-14	-37	91
-99	-105	80
-172	-149	-48
-221	-167	-98
-241	-163	-4
-229	-148	78
-186	-125	33
-117	-96	-82
-31	-53	-200
60	3	-336
143	67	-239
206	126	-77
234	165	-189
229	169	-44
191	140	76
127	86	-47
48	20	-60
-34	-48	-119
-116	-104	-85
-182	-144	3
-229	-164	19
-243	-162	85
-226	-143	210
-175	-110	335
-100	-65	303
-10	-8	160
82	58	-77
166	132	-436
229	206	-382
261	257	39
257	261	186
210	209	144
129	104	33
25	-27	-32
-84	-143	-23
-177	-213	-20
-244	-224	-18
-274	-185	-72
-270	-131	-133
-231	-86	-278
-160	-62	-350
-63	-51	-103
49	-30	12
160	13	-18
249	78	101
292	142	175
285	180	84
234	174	-9
153	129	11
68	62	-9
-4	-2	22
-63	-48	38
-114	-83	59
-166	-110	50
-217	-138	24
-249	-158	-28
-245	-155	-48
-188	-115	43
-88	-38	-39
34	56	-67
142	139	-50
211	183	-42
230	185	-40
206	150	-20
159	101	34
102	51	17
42	13	8
-22	-22	-30
-93	-62	-30
-165	-103	-26
-215	-131	-15
-233	-137	37
-204	-111	8
-135	-58	-181
-47	5	-302
36	55	-181
103	83	-30
148	85	87
172	76	87
184	63	11
183	57	-19
162	56	-151
114	48	-196
41	27	-122
-45	-13	-76
-133	-63	9
-203	-116	-28
-247	-159	-77
-258	-181	-24
-237	-180	-43
-186	-153	-31
-106	-105	149
-7	-37	184
100	38	-62
194	110	-117
253	166	-65
265	187	-205
229	169	-77
155	112	25
65	33	8
-21	-46	128
-92	-111	105
-143	-149	124
-179	-159	67
-197	-151	-20
-195	-129	12
-169	-95	91
-112	-48	138
-32	11	126
57	81	120
138	139	87
194	174	62
214	177	-15
206	147	-107
172	99	-246
127	49	-312
68	11	-302
1	-17	-297
-76	-43	-276
-150	-76	-252
-212	-111	-26
-245	-140	259
-235	-148	267
-185	-124	155
-102	-72	-71
-7	-8	-322
86	51	-246
159	97	-72
206	124	87
226	131	134
214	127	135
178	106	110
115	65	65
33	8	77
-60	-60	22
-152	-123	91
-229	-164	135
-276	-174	23
-287	-154	-103
-253	-111	-187
-174	-55	-233
-60	3	-178
71	63	-102
194	119	-46
283	163	9
318	183	-3
299	171	-49
234	124	-51
147	61	-5
59	-6	22
-13	-56	34
-72	-85	58
-126	-101	95
-178	-116	99
-226	-135	66
-250	-156	37
-240	-162	34
-181	-134	87
-86	-67	44
28	22	-41
131	113	-84
199	178	-151
225	202	-77
209	182	-16
166	130	-47
107	67	-98
39	6	-201
-31	-47	-185
-103	-88	-196
-168	-117	-245
-214	-134	-239
-235	-133	-131
-223	-121	60
-177	-97	128
-107	-67	239
-23	-39	151
61	-8	174
137	25	211
196	62	-24
229	102	-124
229	134	-224
192	147	-273
123	127	-283
29	77	-249
-72	4	-70
-162	-69	-11
-222	-127	-32
-237	-156	-39
-208	-148	-58
-143	-111	-10
-60	-58	150
23	-5	300
91	38	268
135	66	274
155	80	258
160	82	137
156	77	-49
148	74	-315
132	67	-301
100	54	-118
44	27	-179
-32	-21	-125
-118	-80	129
-195	-138	208
-239	-175	178
-239	-177	65
-195	-137	-34
-121	-69	-151
-34	5	-222
47	67	-145
114	104	-84
161	119	7
188	121	54
195	120	10
180	118	-36
139	106	-84
76	79	-108
-5	26	-92
-91	-41	-42
-168	-110	56
-221	-157	38
-237	-169	13
-217	-147	1
-165	-100	4
-89	-46	9
-3	1	-14
82	37	4
151	67	-5
199	95	-16
222	120	-45
214	138	-40
183	137	-44
126	108	10
52	51	112
-31	-18	147
-115	-86	116
-187	-133	56
-234	-151	39
-245	-142	-68
-218	-117	-236
-159	-88	-157
-78	-56	-57
14	-27	-121
99	8	-81
169	51	-74
214	96	-113
232	135	-110
221	154	-35
179	147	54
113	110	60
30	54	-17
-57	-11	-154
-138	-76	-297
-201	-127	-202
-237	-164	-33
-245	-177	-36
-225	-168	130
-177	-135	249
-104	-83	242
-16	-19	159
79	49	1
162	110	-147
221	158	-326
238	181	-311
212	174	29
149	138	294
64	68	306
-24	-19	209
-98	-106	-172
-147	-168	-530
-169	-187	-641
-166	-159	-268
-148	-99	233
-115	-35	309
-75	9	271
-24	23	182
34	18	103
97	15	-13
158	34	-306
203	81	-341
223	131	-184
205	161	-134
148	140	66
57	70	90
-52	-29	-32
-161	-121	-86
-243	-174	-33
-285	-179	74
-277	-149	29
-222	-106	51
-130	-66	40
-20	-37	47
86	-8	133
175	35	131
231	92	34
248	150	28
230	185	32
188	180	-36
130	130	-17
66	58	-22
6	-15	7
-56	-70	10
-117	-100	-6
-176	-114	24
-219	-121	20
-237	-128	11
-221	-127	-20
-165	-108	-87
-81	-65	-140
16	-2	-71
106	64	-36
172	120	-75
208	150	-55
214	153	-101
195	135	-82
155	104	11
95	65	-46
19	15	-66
-63	-44	-28
-147	-110	-54
-209	-166	-61
-244	-196	-76
-237	-194	18
-191	-153	-33
-116	-85	-103
-27	-5	11
61	70	53
137	131	-9
191	171	5
216	186	108
209	174	74
174	135	124
113	77	103
35	5	15
-48	-60	-68
-126	-111	-252
-187	-135	-219
-223	-137	-69
-228	-126	-34
-203	-107	112
-148	-86	133
-70	-58	28
19	-20	-37
104	30	-206
175	87	-317
221	133	-362
237	158	-197
222	150	-68
175	108	-40
107	43	49
19	-27	96
-74	-89	106
-164	-134	117
-232	-159	98
-271	-166	99
-267	-157	103
-227	-133	21
-154	-97	31
-61	-46	116
34	13	95
124	78	150
196	132	131
244	171	-94
262	183	-322
245	171	-410
197	135	-249
121	83	-213
29	22	-14
-67	-44	133
-156	-106	-39
-223	-158	-48
-258	-186	-134
-256	-187	-77
-214	-157	-36
-135	-100	-41
-36	-29	60
67	39	123
153	90	200
204	119	155
212	130	11
186	131	-79
135	130	-17
75	119	-69
16	95	-68
-36	42	52
-85	-31	-6
-129	-118	15
-164	-194	-103
-184	-231	-143
-178	-219	-132
-143	-162	-125
-83	-81	-82
-5	-2	-91
74	51	-18
141	76	-34
184	84	16
203	86	49
191	99	108
158	115	192
103	122	230
36	106	235
-35	60	169
-105	-3	142
-162	-66	34
-201	-105	-180
-212	-108	-295
-191	-79	-432
-139	-32	-420
-65	12	-215
22	47	-111
107	70	-24
172	88	-5
212	103	-5
219	112	13
194	104	-45
140	71	-58
69	15	34
-12	-55	103
-93	-119	86
-165	-160	104
-215	-168	74
-240	-150	13
-231	-116	64
-188	-80	62
-118	-47	59
-29	-15	40
64	22	2
151	65	-4
214	109	-77
245	140	-6
238	144	81
196	114	47
121	56	75
32	-18	-78
-57	-85	-186
-135	-130	-395
-190	-148	-528
-222	-139	-265
-228	-115	-97
-211	-85	56
-174	-58	242
-117	-33	225
-40	-11	16
48	20	11
133	56	-45
204	96	-87
242	130	1
241	145	31
198	138	61
130	103	32
46	48	-14
-34	-11	-80
-105	-62	-70
-161	-97	-236
-198	-114	-228
-214	-115	10
-202	-108	129
-163	-94	363
-94	-71	270
-7	-42	108
86	2	48
167	51	-43
216	97	-81
234	124	-165
210	126	-214
156	99	-310
77	47	-335
-10	-8	-190
-95	-59	-79
-164	-92	-120
-211	-106	-33
-228	-107	128
-210	-99	199
-165	-85	140
-95	-57	76
-11	-18	1
78	38	-79
156	97	38
213	145	119
238	169	170
229	155	175
184	112	93
117	49	54
40	-7	1
-37	-53	-93
-108	-78	-224
-166	-92	-264
-210	-103	-300
-241	-115	-155
-250	-126	78
-235	-124	75
-185	-105	3
-103	-63	-72
5	-7	-194
125	53	-157
237	110	11
318	150	85
346	169	200
317	157	229
227	119	75
96	55	22
-48	-23	42
-174	-96	-55
-256	-151	-101
-282	-170	-30
-260	-158	-36
-204	-121	-77
-130	-76	-58
-52	-32	7
24	8	-77
97	45	-116
163	86	-72
211	125	-109
231	154	-72
216	159	-25
163	131	-85
83	79	-198
-7	8	-181
-93	-56	-174
-164	-109	-31
-214	-137	152
-242	-148	228
-247	-144	265
-221	-130	87
-162	-106	0
-71	-67	-54
34	-16	-141
139	45	-213
216	105	-172
255	149	-70
248	166	18
203	153	37
131	114	-30
48	58	-24
-31	0	-25
-104	-54	-83
-162	-101	-30
-205	-135	117
-225	-157	91
-217	-161	127
-179	-148	72
-111	-109	-34
-23	-51	30
71	21	9
155	93	-52
213	147	-36
237	173	-75
222	164	-115
172	126	15
102	71	110
19	13	-30
-60	-38	-46
-128	-79	-56
-178	-109	-226
-203	-129	-170
-202	-138	-21
-177	-133	155
-130	-113	256
-64	-74	207
11	-24	180
90	32	79
160	89	-130
212	140	-244
240	182	-424
234	203	-428
195	195	-247
122	150	-263
25	71	-65
-83	-29	117
-179	-126	191
-249	-195	225
-275	-217	112
-256	-194	57
-195	-142	-13
-113	-86	-40
-23	-40	-19
58	-12	39
127	5	43
179	30	-53
212	67	-124
228	112	-105
214	150	13
170	158	74
97	125	56
0	57	-21
-101	-27	-6
-189	-100	126
-243	-145	184
-258	-153	178
-232	-133	66
-173	-96	-187
-95	-57	-328
-5	-17	-300
82	24	-151
157	68	-86
207	117	-127
229	157	-100
216	177	-107
172	161	-114
106	109	-154
27	31	1
-51	-51	111
-123	-120	103
-178	-166	135
-214	-181	4
-223	-173	32
-202	-145	42
-150	-109	-94
-71	-60	38
16	-5	94
100	51	165
161	99	194
191	128	60
190	131	-92
166	110	-283
124	78	-134
75	40	38
15	4	117
-53	-32	80
-125	-70	-47
-189	-107	-89
-229	-135	-136
-232	-141	-192
-188	-117	-163
-109	-63	-132
-12	5	-182
80	64	-103
150	106	-62
192	121	-58
207	122	-89
204	117	-87
184	112	123
150	100	212
94	67	172
17	10	134
-76	-67	78
-165	-142	-14
-234	-188	-94
-263	-192	-64
-252	-156	-11
-201	-99	64
-122	-42	134
-31	0	84
62	32	-113
147	64	-145
214	104	-89
259	153	-186
270	188	-42
245	196	59
179	159	7
83	86	67
-31	-8	-78
-144	-99	-89
-239	-166	3
-299	-205	-88
-317	-213	-85
-287	-198	-100
-214	-161	-101
-111	-106	-56
7	-39	-18
117	34	9
204	100	-8
252	150	72
261	179	184
237	187	232
188	173	192
124	139	55
48	85	-160
-37	8	-344
-126	-81	-269
-205	-165	-80
-262	-219	-40
-274	-229	-11
-242	-188	-3
-168	-113	40
-67	-27	45
40	51	-22
137	106	7
209	144	-47
252	164	-237
258	168	-230
230	155	-26
166	119	-62
75	60	-5
-33	-18	122
-134	-98	113
-216	-164	116
-262	-202	51
-264	-208	26
-233	-186	45
-169	-139	115
-86	-81	97
5	-13	-28
95	54	-110
170	115	-373
222	160	-553
242	177	-256
229	164	-14
181	122	31
111	66	195
29	3	178
-55	-54	149
-133	-100	158
-193	-131	174
-229	-145	233
-232	-144	188
-202	-123	39
-143	-86	-368
-61	-34	-602
27	22	-306
110	76	-98
172	118	-93
212	147	4
225	159	51
209	150	86
167	120	104
102	67	122
20	2	139
-68	-64	84
-147	-115	2
-204	-135	-6
-226	-127	-27
-215	-98	-33
-175	-64	-9
-116	-38	-112
-47	-21	-140
27	-1	-112
99	33	-138
166	83	-119
216	137	-140
238	171	-75
219	165	71
158	106	117
62	12	186
-45	-92	149
-147	-173	47
-222	-207	-16
-262	-199	-66
-277	-164	-81
-263	-121	-69
-228	-87	-60
-161	-58	-91
-63	-29	-67
57	12	-15
183	65	59
287	120	119
343	162	110
336	174	84
273	155	77
171	110	55
61	52	103
-39	-5	125
-116	-56	-26
-174	-96	-135
-214	-122	-151
-237	-130	-326
-237	-121	-345
-202	-92	-429
-133	-41	-560
-32	16	-357
78	72	-130
175	110	57
238	124	164
256	115	186
229	87	160
170	50	175
91	12	158
6	-23	89
-76	-57	24
-149	-88	-11
-203	-116	29
-236	-134	69
-236	-136	82
-201	-117	66
-135	-71	51
-47	-8	-12
44	65	-193
126	129	-254
187	169	-46
216	174	85
216	150	69
190	102	132
143	42	112
83	-14	19
10	-61	-56
-68	-97	-170
-147	-121	-172
-208	-136	-204
-246	-143	-151
-247	-140	32
-210	-121	118
-139	-86	106
-44	-33	-6
54	25	2
144	83	-58
207	126	-99
237	147	111
229	141	191
186	110	199
119	66	177
38	16	9
-42	-28	-214
-112	-58	-177
-162	-77	-273
-187	-81	-530
-191	-80	-267
-174	-72	-11
-137	-63	-12
-81	-48	48
-10	-23	57
68	14	-21
143	55	11
202	94	46
229	119	56
216	118	21
170	91	-39
93	41	-56
3	-17	-46
-89	-71	14
-167	-113	54
-223	-134	67
-248	-140	58
-244	-131	55
-204	-111	38
-136	-81	53
-50	-34	35
42	22	-44
127	85	-100
191	136	-116
225	165	-109
226	165	-34
196	131	41
144	83	-16
78	28	-196
3	-19	-271
-70	-53	11
-139	-77	125
-190	-94	102
-217	-108	116
-210	-114	51
-173	-107	57
-104	-81	-12
-20	-37	-67
64	17	-133
133	70	-162
179	107	-190
195	124	-203
183	118	-50
151	92	105
103	48	64
41	-2	17
-29	-53	-56
-103	-99	-112
-169	-123	122
-215	-122	190
-229	-98	136
-206	-60	108
-149	-25	-54
-68	-4	-231
21	6	-292
106	16	-152
175	38	-109
225	79	-54
242	123	22
225	153	-14
171	144	-135
85	92	-190
-20	7	54
-126	-89	173
-209	-163	151
-250	-200	174
-245	-199	143
-195	-171	112
-121	-131	-1
-41	-85	-125
33	-33	-250
95	28	-290
144	97	-254
182	161	-209
209	203	-42
216	211	67
198	182	206
150	121	290
70	46	186
-23	-28	135
-117	-89	72
-191	-133	35
-237	-162	-37
-248	-171	-92
-229	-164	-97
-182	-134	-68
-117	-85	10
-36	-21	-48
50	46	-58
133	109	-7
201	153	-150
237	171	-235
231	164	-104
181	126	-104
101	67	-117
7	-6	-40
-83	-80	-23
-153	-135	15
-198	-166	21
-217	-163	8
-212	-134	-13
-185	-88	-25
-137	-40	-17
-69	1	3
10	35	21
93	64	56
167	96	108
216	126	79
242	153	13
232	160	-76
194	137	-198
127	86	-181
44	13	-32
-45	-63	9
-132	-126	40
-205	-162	9
-248	-170	-38
-256	-154	8
-226	-124	113
-162	-90	279
-76	-49	225
20	-4	29
112	45	-135
186	97	-145
233	141	-147
244	166	-196
222	165	-251
166	134	-306
86	79	-147
-7	9	-165
-98	-62	-69
-178	-121	130
-234	-160	166
-258	-174	178
-245	-163	20
-195	-133	-210
-120	-90	-284
-25	-44	-59
69	1	85
151	45	86
208	85	123
232	119	134
224	140	152
191	143	76
136	119	138
69	71	225
-6	7	113
-85	-56	30
-155	-105	-124
-206	-127	-464
-225	-126	-664
-211	-110	-372
-166	-90	45
-105	-79	119
-39	-69	12
20	-52	-54
71	-18	-116
119	41	-93
165	115	-11
206	183	75
230	213	120
216	191	80
156	118	51
50	14	24
-79	-86	18
-195	-153	10
-264	-170	64
-277	-149	103
-230	-106	128
-145	-64	155
-50	-33	96
36	-8	2
107	21	-136
162	63	-232
198	110	-269
214	150	-235
201	157	-147
154	121	-80
74	54	-3
-24	-25	30
-122	-89	29
-195	-122	16
-234	-121	13
-232	-101	14
-195	-81	-5
-137	-66	-8
-66	-60	5
8	-47	12
83	-16	4
149	35	-6
198	98	-12
222	151	-46
216	179	-30
188	168	13
131	121	9
59	49	70
-25	-29	79
-109	-98	26
-186	-148	-54
-241	-174	-148
-262	-177	-76
-245	-162	13
-187	-130	16
-103	-84	25
-7	-25	-9
78	32	4
139	86	118
167	127	-13
170	150	-207
154	152	-161
129	135	-83
100	102	-251
68	55	-211
29	2	-137
-21	-53	-175
-83	-103	13
-149	-140	32
-200	-158	30
-225	-153	87
-204	-126	110
-137	-84	60
-35	-30	16
83	29	8
186	85	-21
252	131	-1
266	162	-8
231	166	19
160	139	39
74	84	33
-15	11	36
-92	-64	11
-156	-127	24
-206	-161	68
-236	-167	51
-242	-150	-11
-213	-117	-6
-150	-76	24
-56	-31	-79
48	20	-189
145	74	-330
222	123	-357
257	160	-265
255	165	-74
216	137	140
150	77	160
59	0	122
-39	-71	3
-139	-120	-95
-223	-140	-113
-277	-133	-35
-290	-110	14
-261	-82	139
-189	-51	241
-89	-17	144
21	27	49
128	78	-190
211	130	-423
261	170	-180
269	183	147
240	164	84
175	110	101
92	40	93
0	-33	112
-85	-96	101
-156	-134	-23
-206	-152	-107
-233	-151	-253
-239	-137	-253
-221	-112	-289
-177	-83	-147
-109	-46	20
-19	-4	-5
83	39	41
181	83	47
257	117	111
299	138	34
292	142	7
245	120	110
163	77	112
57	13	120
-55	-59	65
-156	-126	-10
-232	-173	-116
-270	-190	-177
-264	-177	-203
-221	-133	-185
-142	-76	-95
-51	-11	38
38	48	158
111	100	201
161	140	233
187	170	199
195	186	15
189	179	-278
169	152	-529
129	99	-576
63	26	-273
-24	-60	43
-129	-148	175
-228	-219	205
-295	-260	175
-308	-259	166
-258	-213	95
-157	-134	43
-28	-36	64
94	55	42
184	125	-36
229	165	-87
234	179	-154
210	170	-170
171	148	-35
124	113	-16
64	59	-79
-12	-7	-137
-104	-85	-202
-191	-149	-23
-259	-186	65
-281	-181	6
-253	-137	-55
-180	-74	20
-79	-11	38
24	35	-60
113	64	-1
175	85	65
216	108	149
231	137	66
222	161	-18
182	166	-102
116	134	-363
32	74	-306
-58	-9	-23
-139	-93	20
-200	-162	171
-232	-205	248
-236	-218	164
-209	-204	168
-154	-160	-12
-68	-89	-115
32	1	-197
133	93	-211
216	163	-126
257	195	-22
251	181	83
202	134	48
127	74	-17
43	21	-36
-34	-19	-119
-104	-47	-145
-162	-74	27
-208	-107	-21
-234	-139	-57
-227	-160	13
-183	-157	36
-106	-126	65
-13	-70	64
78	-1	56
145	66	3
184	126	1
198	170	-68
195	190	-148
175	178	-67
135	134	-30
70	62	-28
-19	-18	58
-121	-89	51
-214	-131	-19
-268	-147	-53
-267	-137	-140
-207	-116	-169
-106	-92	-88
10	-62	7
113	-21	26
184	38	31
222	106	-24
226	165	-109
206	195	-39
169	183	107
119	127	155
55	48	95
-18	-35	11
-98	-104	-50
-176	-153	-82
-236	-178	22
-262	-181	78
-249	-162	-21
-195	-116	16
-109	-49	-76
-10	30	-140
85	105	-70
159	157	-374
201	174	-405
215	155	32
200	113	111
162	57	93
105	-1	24
36	-58	-58
-39	-107	-54
-113	-144	-119
-174	-166	-56
-213	-166	-79
-226	-147	-26
-208	-115	72
-164	-83	193
-100	-52	276
-20	-21	179
64	18	63
148	72	-205
214	138	-312
254	201	-129
259	235	-18
223	225	102
150	166	90
53	72	13
-47	-28	109
-138	-113	59
-202	-166	1
-236	-181	-17
-237	-169	-133
-209	-137	-149
-157	-96	-103
-85	-45	-140
-1	9	-193
89	64	-200
166	112	-79
221	142	97
239	150	111
219	131	69
162	94	4
82	41	-54
-7	-14	-26
-95	-71	18
-164	-122	8
-213	-161	-42
-233	-177	-63
-226	-166	-47
-187	-127	33
-121	-64	58
-34	4	-50
62	68	-56
148	117	-78
210	145	-128
237	158	33
225	154	173
178	138	155
111	108	85
30	66	0
-44	10	-46
-109	-51	-41
-153	-109	-70
-176	-159	-78
-180	-188	-91
-166	-198	-111
-139	-185	-37
-97	-151	-34
-46	-94	-44
16	-19	-31
81	62	-54
138	137	-26
179	187	-4
191	201	45
175	174	147
131	116	135
72	41	39
4	-31	-12
-63	-89	-113
-126	-123	-139
-175	-134	-82
-204	-128	-92
-202	-107	4
-167	-76	68
-99	-37	-12
-10	10	-47
82	60	-111
159	108	-79
206	145	5
216	164	-26
199	157	-96
155	121	-159
94	64	-186
17	-4	-230
-61	-69	-183
-137	-120	-118
-195	-144	-179
-227	-144	-92
-224	-127	158
-189	-101	155
-129	-74	155
-56	-45	209
16	-17	133
85	15	49
139	49	-57
175	80	-117
190	96	-111
178	90	-7
136	63	87
75	19	150
-2	-27	109
-79	-68	-8
-142	-94	-80
-187	-103	-46
-205	-101	18
-195	-89	-70
-159	-71	-193
-100	-47	-226
-21	-13	-140
62	27	-53
140	68	-32
201	103	61
229	128	95
225	134	116
186	125	14
124	103	-104
47	68	-44
-34	25	-63
-112	-28	23
-177	-82	87
-217	-127	18
-228	-157	68
-204	-152	16
-147	-118	3
-63	-56	111
29	16	134
117	82	108
180	127	-23
209	150	-13
201	145	120
159	124	63
97	88	-27
29	35	-139
-31	-28	-333
-78	-101	-420
-108	-168	-422
-132	-216	-341
-152	-229	-237
-168	-196	-88
-173	-130	121
-151	-43	152
-93	40	152
0	106	81
110	145	13
209	164	122
270	170	172
283	174	93
242	171	3
166	150	-48
71	103	-32
-23	26	-31
-111	-66	61
-190	-158	71
-255	-222	-72
-297	-245	-124
-303	-229	-236
-259	-179	-177
-170	-116	-133
-50	-47	-111
75	20	-21
175	85	-42
237	143	-47
252	187	42
228	206	125
179	187	56
115	132	69
48	56	239
-21	-28	124
-86	-97	-108
-141	-142	-168
-177	-158	-323
-185	-152	-221
-168	-129	22
-125	-97	109
-65	-57	120
2	-8	1
69	43	-90
132	93	-112
182	127	-60
209	142	71
208	129	57
172	93	87
111	42	141
25	-13	70
-64	-64	56
-147	-106	-27
-204	-130	-159
-234	-138	-115
-232	-131	-120
-199	-110	-188
-142	-76	-16
-67	-30	-13
16	19	91
102	68	143
171	110	-103
216	139	-228
233	150	-209
212	135	104
162	101	240
90	48	177
7	-8	149
-77	-61	-207
-152	-106	-492
-211	-132	-256
-247	-147	65
-250	-148	-7
-222	-139	-72
-154	-118	-91
-59	-83	-95
47	-29	-80
145	37	-40
216	106	59
248	162	78
234	187	102
183	177	60
106	131	54
20	62	36
-61	-11	38
-130	-79	60
-180	-126	52
-201	-153	60
-194	-153	52
-158	-131	1
-96	-88	-90
-20	-29	-96
54	35	-92
118	96	-26
163	139	6
187	160	-43
194	156	6
183	129	115
156	89	53
106	41	-72
35	-8	-25
-51	-56	-99
-138	-98	-181
-209	-130	-90
-247	-147	-111
-245	-141	-109
-206	-118	-72
-138	-78	-130
-57	-30	-115
24	16	-32
99	52	-50
158	80	-36
196	95	96
209	99	182
191	94	205
143	79	130
77	51	48
-2	12	-6
-80	-35	-112
-148	-81	-153
-198	-118	-33
-226	-134	47
-226	-130	14
-195	-106	-21
-134	-68	-114
-48	-25	-89
49	21	-72
143	64	16
214	106	81
252	141	2
248	162	87
205	157	53
131	119	92
38	57	48
-60	-21	32
-153	-86	45
-222	-127	-217
-255	-136	-530
-243	-123	-785
