File Name: not saved
Channel 2: 'Channel 2', 10540 values, raw ADC, no filters.
Channel 3: 'Channel 3', 10540 values, raw ADC, no filters.
Channel 4: 'Channel 4', 10540 values, raw ADC, no filters.

266	158	78
212	134	-71
129	84	-39
26	11	51
-83	-69	-38
-180	-141	-131
-253	-182	-24
-288	-187	-19
-279	-157	-13
-226	-106	66
-139	-51	46
-34	-4	5
69	32	24
159	70	201
222	109	207
253	149	114
253	178	-18
219	181	-323
159	145	-517
74	76	-291
-26	-12	-59
-129	-102	-30
-217	-171	104
-279	-208	99
-300	-211	87
-275	-187	98
-209	-142	155
-108	-79	124
6	-6	-7
116	69	-115
206	134	-65
258	177	53
269	189	-372
241	168	-403
184	119	-189
106	53	-176
22	-15	-68
-61	-80	-47
-137	-127	61
-201	-158	112
-241	-166	180
-249	-149	175
-223	-112	135
-161	-60	56
-70	-2	-125
33	53	-135
133	103	-55
214	141	-23
262	168	-30
275	174	-51
245	159	-45
184	117	-20
97	52	-28
-5	-23	3
-106	-93	22
-195	-143	6
-257	-170	49
-288	-170	138
-281	-155	179
-245	-129	225
-174	-96	225
-79	-51	127
30	4	9
140	67	-168
236	128	-242
299	171	-229
314	185	-130
288	163	-41
223	116	-17
130	57	-26
25	-1	-185
-79	-51	-246
-172	-97	-170
-245	-133	-159
-287	-163	-123
-296	-178	-28
-259	-169	-5
-185	-130	-7
-78	-63	-9
42	19	49
152	101	128
231	159	91
266	187	-21
256	181	-92
203	143	-201
123	86	-260
26	14	-77
-74	-60	118
-166	-131	216
-236	-186	272
-271	-213	190
-268	-203	77
-221	-153	-21
-136	-72	-171
-30	19	-138
79	98	-29
175	152	69
241	174	38
271	171	-60
268	160	9
234	141	-38
175	120	-108
95	83	-74
2	26	-36
-99	-49	-268
-191	-131	-371
-264	-199	-10
-304	-236	20
-300	-230	176
-253	-190	256
-170	-127	64
-64	-57	2
50	11	-134
156	76	-164
237	132	-225
280	178	-155
281	195	-150
239	180	-84
161	128	83
59	50	65
-46	-32	120
-141	-103	112
-214	-145	205
-258	-160	272
-269	-154	166
-248	-136	-7
-193	-110	-124
-108	-72	-211
0	-20	-261
113	49	-54
214	121	152
280	181	169
300	210	37
266	197	-136
196	149	-339
102	74	-251
4	-5	-85
-86	-78	-107
-159	-133	-33
-213	-174	21
-245	-193	65
-247	-192	31
-218	-169	-8
-153	-119	-48
-63	-50	-52
40	27	-47
136	99	-32
206	154	39
242	183	38
242	188	77
212	168	124
161	129	140
96	75	170
16	6	151
-70	-66	1
-159	-130	0
-231	-176	29
-273	-190	-120
-274	-174	-142
-231	-135	-187
-151	-86	-207
-47	-35	-156
60	12	-259
158	57	-273
233	106	-109
276	153	-97
280	188	-66
248	196	32
176	168	18
79	101	25
-30	10	32
-136	-82	66
-221	-157	147
-272	-194	221
-289	-196	231
-271	-170	222
-217	-124	144
-134	-70	-97
-32	-12	-265
78	47	-246
179	106	-236
253	158	-177
284	190	136
269	192	369
211	156	210
121	87	16
13	-2	-127
-93	-93	-214
-185	-169	-428
-250	-215	-414
-280	-226	-317
-271	-202	-345
-218	-152	-65
-134	-86	87
-27	-13	225
83	56	204
175	117	241
245	161	288
274	186	124
269	191	138
230	174	142
167	139	-92
84	82	-412
-11	9	-312
-109	-69	69
-195	-145	159
-259	-199	-8
-286	-222	-196
-269	-203	-243
-214	-156	-173
-126	-88	-61
-28	-15	9
68	48	-33
149	99	-40
206	133	-37
234	157	125
236	163	231
207	153	167
154	122	257
79	66	312
-11	-3	234
-102	-77	84
-182	-137	-184
-237	-176	-382
-259	-184	-275
-243	-168	-222
-191	-132	-238
-110	-86	-168
-13	-31	-135
85	30	-46
171	92	24
234	149	91
259	191	127
245	204	97
198	185	77
121	129	38
26	52	4
-71	-35	-62
-161	-113	-52
-227	-170	-32
-261	-197	-61
-256	-192	42
-213	-164	104
-137	-111	116
-40	-47	150
60	20	110
151	83	9
216	132	-177
249	166	-427
245	174	-395
214	161	-223
154	122	-106
76	66	72
-16	-5	98
-110	-78	116
-194	-145	68
-258	-192	-93
-282	-209	-155
-269	-192	-171
-210	-144	-112
-119	-76	-24
-12	1	107
93	72	260
180	126	233
237	162	65
257	177	-197
245	174	-341
202	158	-308
135	121	-273
49	64	-28
-45	-13	110
-143	-100	145
-229	-185	215
-285	-246	301
-300	-268	362
-267	-242	263
-188	-174	136
-76	-79	-183
48	23	-362
161	110	-306
245	174	-239
287	209	-238
287	213	-9
251	194	174
184	150	56
101	90	44
7	11	8
-89	-70	-162
-178	-144	-164
-253	-192	-4
-298	-208	-3
-305	-190	-16
-267	-145	-169
-187	-88	-196
-76	-26	-45
48	29	135
163	77	127
249	115	129
291	141	87
289	152	-173
248	140	-41
179	110	-24
93	65	-230
-1	14	-217
-93	-36	-116
-176	-82	-42
-243	-118	29
-279	-148	94
-277	-163	115
-232	-157	105
-142	-120	98
-25	-53	76
101	32	10
212	120	-8
285	182	-38
313	204	-35
288	183	17
226	131	80
135	68	126
35	10	49
-65	-37	-63
-158	-76	-82
-233	-105	-125
-285	-134	-195
-303	-154	-102
-281	-161	-68
-222	-144	13
-125	-102	64
-10	-38	-17
107	32	-53
210	101	-122
278	154	-128
301	183	-92
279	181	4
216	150	95
127	92	101
22	19	64
-81	-57	113
-169	-119	118
-232	-156	-46
-262	-165	-16
-262	-149	15
-228	-119	13
-165	-84	119
-78	-45	8
20	-2	-157
119	48	-181
199	104	-59
251	155	-142
262	187	-202
234	188	-157
172	155	-365
87	92	-463
-10	8	-197
-109	-83	77
-199	-164	84
-270	-229	87
-307	-259	86
-300	-250	103
-245	-198	-109
-150	-112	-278
-30	-7	-176
94	90	103
196	158	311
262	183	297
285	174	290
269	142	94
222	106	115
156	72	168
75	43	19
-12	7	-14
-102	-39	-90
-186	-95	-301
-249	-143	-394
-280	-170	-149
-269	-162	-20
-215	-123	-60
-127	-66	26
-21	-7	9
89	43	-36
186	90	-19
256	129	-62
290	164	-52
284	186	82
242	181	217
163	138	300
59	61	233
-54	-34	-72
-159	-123	-290
-239	-179	-349
-285	-192	-291
-288	-171	-116
-255	-126	10
-190	-83	-34
-105	-42	-51
-10	-8	-79
83	29	-117
166	77	-2
225	124	91
251	161	170
240	168	168
192	131	185
118	61	111
30	-27	-43
-52	-106	-44
-121	-160	-87
-168	-173	-52
-191	-154	-55
-190	-116	-84
-165	-70	-14
-115	-29	45
-42	11	141
44	51	135
130	97	-38
200	140	-265
238	171	-401
236	179	-368
194	157	37
125	106	216
41	37	76
-46	-35	121
-133	-102	21
-206	-156	-18
-262	-191	22
-291	-205	65
-281	-192	86
-230	-155	145
-135	-89	16
-18	-8	-165
105	72	-97
209	135	-94
275	168	14
292	168	40
266	142	8
203	106	-10
117	61	-297
20	19	-479
-72	-29	-256
-159	-78	-76
-228	-125	-161
-271	-163	-93
-281	-181	2
-253	-169	-15
-186	-127	-6
-88	-65	52
25	4	150
132	67	77
216	116	57
260	149	90
260	159	11
216	152	11
151	124	-8
68	80	-61
-18	21	22
-100	-44	84
-170	-104	108
-223	-153	270
-247	-175	292
-232	-171	195
-181	-140	343
-96	-86	302
8	-18	-19
112	58	-294
198	127	-735
253	183	-738
272	211	-494
258	208	-398
212	169	-219
137	97	-104
40	8	34
-69	-85	88
-174	-159	123
-256	-205	87
-299	-218	5
-295	-200	112
-248	-161	234
-169	-109	215
-75	-54	147
23	3	32
111	59	-22
184	113	7
236	158	-48
257	183	-178
244	185	-165
195	156	30
117	105	13
23	37	-27
-70	-31	122
-153	-97	112
-213	-150	66
-248	-185	-41
-251	-198	-129
-223	-179	-150
-161	-131	-48
-69	-54	169
39	30	127
147	106	-3
230	161	-289
277	180	-397
279	171	-111
242	139	91
172	96	133
87	43	139
-7	-13	203
-100	-70	181
-182	-125	29
-245	-158	-96
-273	-163	-326
-262	-133	-407
-212	-85	-153
-130	-30	142
-34	13	250
62	38	111
147	56	10
209	75	-143
244	101	-192
249	131	-142
219	142	-95
157	118	-89
62	51	16
-48	-42	40
-160	-140	-48
-247	-207	-54
-296	-229	-132
-298	-202	-35
-253	-148	-49
-180	-85	-53
-84	-27	-80
16	23	-103
111	70	-60
188	118	-12
240	162	47
256	193	51
238	195	103
184	165	80
107	103	61
15	21	16
-80	-62	71
-161	-132	117
-223	-179	167
-253	-195	222
-250	-180	41
-206	-138	-104
-126	-78	-206
-23	-6	-201
89	58	-147
186	108	-86
259	135	47
291	148	-23
284	145	-37
242	136	76
172	117	131
83	85	136
-16	35	68
-115	-32	-71
-203	-103	-302
-262	-162	-410
-287	-190	-295
-267	-183	-81
-209	-147	32
-123	-92	87
-26	-37	145
69	15	175
154	60	-13
212	104	-79
245	139	-77
245	166	-151
212	166	57
141	131	99
46	64	186
-64	-26	212
-169	-113	17
-250	-181	-176
-296	-211	-227
-297	-206	-136
-258	-173	-246
-181	-117	-267
-80	-52	-211
32	15	24
139	77	126
223	126	54
271	158	81
279	166	-39
244	150	-85
180	116	85
99	70	104
11	19	-69
-71	-32	-93
-150	-84	-169
-217	-129	3
-269	-164	96
-288	-179	-34
-267	-168	-127
-199	-131	-144
-93	-72	-63
33	-5	-145
154	58	-63
244	108	36
288	140	150
288	160	204
249	164	200
182	154	225
99	122	97
9	68	-53
-82	-3	-127
-163	-84	-161
-228	-148	-72
-260	-183	-78
-258	-177	-105
-214	-139	4
-137	-81	-186
-40	-20	-147
63	33	26
155	77	-21
225	110	21
257	137	64
253	150	34
208	140	-4
132	99	-4
35	28	-7
-67	-54	9
-163	-127	-3
-237	-173	65
-279	-179	155
-287	-156	174
-259	-115	107
-198	-75	-24
-109	-38	-112
-3	-3	-193
107	41	-170
206	98	-105
274	155	-99
302	198	-47
291	202	-2
237	161	-89
153	80	-65
54	-17	116
-44	-104	275
-130	-157	241
-194	-167	-53
-226	-145	-372
-227	-106	-646
-197	-63	-543
-139	-29	-78
-62	-1	110
21	26	134
103	56	119
169	88	155
209	119	174
216	134	-18
191	129	-64
133	96	-150
54	40	-244
-34	-29	-101
-122	-100	82
-195	-155	159
-245	-185	108
-260	-182	10
-241	-154	-2
-188	-105	13
-111	-48	122
-18	3	123
77	49	96
160	88	22
216	121	-153
245	144	-70
241	157	-123
201	147	-235
133	108	-202
46	43	-238
-50	-37	-193
-145	-118	84
-225	-179	233
-277	-207	133
-289	-196	45
-260	-156	-49
-188	-98	20
-83	-37	124
37	17	181
156	63	225
249	104	196
306	142	133
319	171	41
285	185	-226
215	170	-529
119	121	-412
12	40	-330
-96	-52	-300
-189	-137	-59
-258	-192	1
-295	-206	-53
-292	-182	24
-251	-133	63
-174	-77	98
-70	-20	126
42	34	36
151	85	-18
234	135	29
276	171	124
276	185	149
234	165	134
158	112	100
63	36	119
-32	-40	141
-119	-101	91
-189	-137	78
-239	-148	-31
-261	-139	-398
-251	-120	-391
-206	-94	-114
-128	-58	-223
-29	-13	-38
77	40	-2
166	93	-75
226	133	-54
245	153	-116
225	143	53
171	110	160
96	58	202
11	-4	-58
-77	-64	-221
-152	-117	-141
-211	-153	-190
-239	-166	-177
-233	-158	-4
-191	-131	91
-123	-93	109
-37	-46	102
56	4	23
143	61	-179
215	121	-186
262	174	58
278	211	104
255	210	322
198	168	371
107	83	352
-1	-20	308
-111	-116	-89
-203	-180	-507
-262	-201	-712
-281	-187	-530
-259	-151	-353
-201	-109	-163
-117	-67	74
-20	-27	20
77	18	31
162	70	71
222	118	53
245	156	169
238	166	183
198	150	59
136	110	19
60	58	14
-21	2	4
-102	-56	16
-181	-111	-18
-245	-161	-62
-281	-190	-40
-279	-190	22
-228	-152	-39
-133	-81	-63
-12	4	-133
106	84	-104
198	137	57
249	162	53
254	158	43
229	142	12
175	119	25
111	86	-11
34	39	-72
-48	-24	-49
-134	-96	-16
-210	-160	-25
-260	-195	-46
-269	-194	44
-234	-157	99
-159	-98	14
-59	-34	34
44	21	128
136	64	63
203	99	19
242	129	-82
251	153	-294
230	162	-239
180	149	-28
105	104	30
12	32	20
-90	-50	-32
-182	-127	-126
-253	-181	-185
-287	-199	-70
-280	-182	87
-232	-137	87
-151	-83	142
-48	-27	250
56	21	314
154	60	87
228	96	-279
273	129	-395
283	162	-362
260	180	-254
202	171	-109
111	122	-131
1	37	-57
-117	-66	127
-223	-163	-8
-292	-223	-55
-319	-230	-2
-291	-188	72
-221	-118	40
-118	-48	3
-6	8	6
99	45	-151
184	79	-156
242	115	-225
269	159	-132
263	195	25
226	198	40
156	157	64
63	65	-24
-43	-49	-94
-148	-158	58
-232	-228	221
-285	-246	225
-298	-222	168
-271	-166	28
-205	-101	-166
-109	-34	-399
7	27	-200
121	88	55
216	139	113
275	178	182
288	191	155
261	171	99
196	127	-8
115	64	-25
25	3	18
-61	-54	159
-141	-102	117
-207	-135	-30
-250	-157	-101
-257	-154	-156
-223	-127	-219
-151	-75	-374
-51	-9	-183
50	53	49
137	104	211
194	128	352
216	131	279
207	119	141
175	96	-136
130	62	-284
67	15	-379
-7	-43	-325
-91	-108	-211
-169	-161	-127
-232	-189	29
-258	-180	-12
-243	-139	-19
-188	-81	24
-101	-18	14
-2	35	-40
96	77	-77
175	110	12
234	137	120
257	157	192
250	161	163
208	142	76
139	96	-53
49	29	-168
-49	-46	-126
-143	-115	-116
-223	-163	-30
-269	-182	35
-279	-171	42
-249	-135	126
-184	-85	58
-93	-28	50
11	27	-7
111	77	-10
195	117	-70
245	149	-193
261	166	-150
236	168	-165
178	143	-15
93	92	133
-2	13	139
-98	-77	133
-179	-155	-110
-235	-206	-425
-256	-213	-51
-241	-181	74
-194	-123	-93
-121	-60	-41
-35	-6	-81
54	35	57
137	67	-10
203	98	70
244	130	37
253	155	0
229	157	-19
169	126	-129
84	63	-67
-16	-17	-1
-114	-92	127
-195	-141	48
-253	-157	-56
-277	-140	-277
-262	-108	-261
-216	-72	-238
-138	-44	-116
-39	-18	178
67	7	44
167	40	72
242	77	44
279	112	70
276	132	124
236	130	87
165	101	160
77	48	-30
-22	-21	-402
-115	-90	-441
-194	-144	-176
-249	-174	-12
-267	-170	83
-248	-133	78
-190	-77	124
-104	-12	186
-2	45	204
98	89	263
181	115	311
238	129	170
262	132	-178
252	130	-380
211	118	-365
141	90	-368
51	45	-287
-48	-15	-170
-150	-81	-20
-235	-139	248
-289	-179	173
-303	-191	180
-267	-176	172
-190	-134	82
-81	-71	61
38	-2	-44
144	69	-78
222	129	-201
258	170	-147
257	181	8
219	164	23
161	121	43
84	61	84
-1	-4	75
-89	-66	60
-170	-119	2
-236	-154	-63
-271	-168	-171
-264	-161	-173
-217	-131	-105
-130	-84	-53
-22	-22	-87
88	44	-186
180	106	-269
242	153	-211
262	174	-86
248	169	-67
199	132	65
123	68	86
32	-9	90
-64	-92	80
-156	-157	83
-227	-195	102
-264	-199	130
-270	-173	184
-236	-125	112
-168	-68	25
-75	-15	-107
30	37	-99
128	83	-114
209	125	-178
258	161	-209
269	179	-182
238	175	3
175	143	155
89	85	320
-4	10	385
-92	-62	360
-165	-119	90
-211	-148	-337
-229	-148	-412
-214	-122	-273
-172	-82	-62
-104	-39	59
-24	-2	-43
55	25	-52
127	45	-227
180	65	-402
210	88	-189
216	113	-158
198	130	-44
151	122	76
78	81	-9
-18	1	84
-122	-100	155
-221	-195	175
-285	-252	8
-303	-254	-86
-269	-201	-118
-189	-113	-208
-83	-16	-32
30	64	-75
129	119	-131
200	149	-65
238	160	15
244	155	119
222	137	83
172	98	91
104	40	162
20	-28	101
-63	-90	37
-141	-134	26
-197	-145	-25
-228	-130	-20
-226	-100	-72
-193	-64	-75
-137	-32	-48
-61	0	52
24	32	160
111	72	139
184	119	25
238	153	-100
256	169	-23
234	154	74
175	110	141
93	47	189
-3	-26	-45
-100	-95	-273
-180	-151	-331
-236	-186	-279
-259	-196	-190
-248	-179	-192
-202	-139	15
-130	-80	85
-42	-13	-23
54	50	-39
144	104	-53
216	140	-36
255	164	-40
261	169	86
229	158	74
164	123	32
76	62	138
-22	-17	186
-116	-105	240
-195	-174	16
-248	-209	-429
-267	-199	-625
-250	-153	-382
-199	-88	74
-120	-21	343
-28	30	359
69	67	308
154	94	108
212	118	-203
241	142	-379
234	157	-430
192	150	-345
124	110	-173
38	43	74
-55	-42	145
-143	-123	57
-214	-182	22
-255	-203	172
-259	-187	96
-227	-144	-49
-159	-87	118
-68	-25	133
32	36	89
129	91	41
207	136	49
259	168	-189
273	174	-395
248	154	-271
184	101	-172
93	26	-103
-14	-57	-147
-119	-130	-83
-209	-178	24
-270	-192	-14
-295	-179	-40
-278	-144	20
-223	-97	68
-139	-46	110
-32	3	108
80	53	105
182	102	87
260	147	60
299	179	138
292	188	101
245	169	-6
158	119	-67
48	47	-172
-66	-32	-76
-173	-101	67
-253	-151	0
-297	-173	-65
-296	-171	-124
-251	-150	-103
-166	-114	57
-55	-68	127
65	-8	156
179	57	172
265	125	118
313	178	20
314	203	-13
275	190	43
202	140	-40
110	68	-158
11	-13	7
-84	-81	-50
-169	-130	-302
-241	-157	-27
-288	-164	-152
-306	-162	-252
-285	-148	-132
-223	-121	-379
-125	-81	-374
-10	-28	-276
106	33	-111
200	95	-35
256	141	78
269	168	167
242	165	213
184	137	43
104	85	-132
13	18	-12
-81	-50	80
-163	-115	259
-229	-159	281
-262	-178	230
-261	-167	192
-218	-131	67
-141	-78	-33
-42	-15	-134
64	45	-109
159	99	-38
228	138	110
257	165	213
245	168	119
202	152	-105
130	113	-425
46	56	-636
-40	-10	-515
-120	-81	-198
-188	-139	-33
-235	-180	-29
-256	-194	21
-244	-181	62
-195	-141	46
-110	-81	47
0	-6	11
115	69	9
212	136	15
275	181	35
291	198	135
261	183	196
198	141	260
115	82	316
29	15	310
-52	-52	300
-125	-108	228
-182	-150	54
-224	-173	-63
-239	-173	-261
-223	-156	-453
-170	-119	-460
-88	-69	-412
12	-11	-265
110	52	-153
188	112	-148
234	160	-228
239	183	-189
204	178	-150
139	137	-104
55	70	130
-39	-11	119
-130	-90	76
-208	-149	113
-259	-177	78
-275	-176	39
-253	-153	86
-191	-115	180
-102	-69	130
5	-18	-5
107	40	-50
194	99	192
251	153	167
269	182	7
253	182	-107
204	148	-313
132	88	-250
44	15	-45
-47	-53	169
-136	-110	141
-210	-150	64
-260	-171	-20
-277	-174	-113
-255	-155	-147
-195	-113	-91
-104	-53	164
1	17	189
102	85	-30
181	138	-403
229	166	-447
242	166	90
224	144	82
180	104	-117
119	51	-4
46	-9	32
-33	-72	42
-111	-131	-74
-181	-173	-84
-229	-186	-130
-249	-175	-91
-231	-138	65
-176	-91	117
-91	-36	70
14	19	-32
118	76	-129
206	131	-32
262	180	129
278	210	175
251	203	192
184	157	81
90	75	32
-16	-24	-60
-117	-110	-158
-201	-169	-197
-256	-188	-227
-275	-175	-179
-256	-139	-69
-203	-98	-2
-122	-57	-69
-27	-17	-84
68	25	-115
150	74	-104
206	120	-74
234	157	-19
226	174	65
190	162	74
127	119	102
46	48	102
-41	-34	83
-126	-118	48
-198	-182	6
-242	-212	-24
-248	-205	-25
-217	-162	46
-150	-99	99
-58	-28	164
42	36	194
135	90	130
209	129	71
254	160	-39
266	180	-223
245	180	-255
196	157	-279
122	101	-333
32	20	-9
-63	-70	116
-154	-150	-69
-226	-196	-148
-268	-205	-238
-276	-179	-182
-245	-134	-187
-181	-82	-140
-92	-32	76
8	16	256
104	64	376
178	115	184
226	161	-124
239	188	-170
219	186	-126
172	145	-94
105	72	143
21	-16	260
-69	-101	134
-157	-164	77
-229	-197	-93
-270	-200	-256
-272	-181	-332
-229	-142	-324
-149	-93	-115
-42	-35	-16
69	31	-2
166	98	68
234	158	-49
260	193	-172
245	197	100
191	168	190
110	110	-108
13	35	-151
-88	-37	-161
-180	-98	-194
-250	-141	-18
-287	-166	-5
-285	-178	56
-239	-179	61
-151	-159	25
-32	-116	53
97	-46	59
215	42	156
302	136	163
346	210	194
337	244	166
280	230	65
195	174	-92
93	95	-64
-8	13	-43
-104	-54	-187
-186	-105	-101
-253	-141	-126
-296	-167	-37
-306	-181	79
-272	-176	-7
-194	-145	16
-79	-86	-41
52	-4	-39
171	80	-61
254	150	-72
288	191	-47
276	197	-60
226	171	-53
151	125	-62
62	61	-34
-30	-7	1
-120	-77	70
-200	-137	91
-258	-178	123
-281	-191	101
-263	-171	60
-207	-123	135
-115	-58	93
-9	11	-68
94	69	-176
175	118	-177
231	150	-139
253	168	-84
241	162	-25
199	131	-20
130	75	7
41	-5	-72
-56	-90	-157
-152	-160	-133
-227	-196	-130
-269	-192	-128
-272	-157	-88
-241	-107	-116
-179	-61	-234
-99	-28	-128
-10	-2	-116
81	29	-128
162	70	78
226	119	204
262	163	195
263	179	155
231	158	-20
166	99	-265
77	23	-168
-22	-51	33
-118	-108	169
-199	-139	297
-255	-155	249
-276	-154	142
-255	-143	21
-191	-116	-68
-93	-64	-270
22	7	-427
131	86	-391
211	150	-166
250	183	83
242	174	75
196	133	120
129	69	98
50	7	-15
-29	-50	-33
-108	-97	138
-178	-131	164
-233	-158	13
-256	-166	-51
-239	-151	-167
-178	-106	-100
-85	-35	65
25	44	53
132	118	13
214	169	49
263	193	-33
276	187	-43
254	164	-8
204	127	16
130	79	58
39	16	53
-60	-54	29
-157	-125	-21
-235	-184	-108
-280	-213	-107
-288	-206	-59
-256	-166	-71
-191	-103	3
-105	-38	-9
-10	18	-90
82	58	-74
162	85	-18
216	106	-8
245	119	-101
239	128	-151
202	122	-156
136	97	-113
49	47	-77
-44	-16	-82
-136	-86	-31
-209	-143	-20
-258	-178	7
-264	-179	48
-234	-150	28
-162	-97	78
-60	-27	190
52	41	302
155	103	343
231	145	281
268	169	28
266	170	-422
231	152	-494
170	117	-187
95	66	-163
6	1	-63
-88	-70	-3
-181	-140	-100
-256	-192	-34
-298	-215	-80
-291	-198	-29
-233	-147	-31
-133	-70	-53
-11	10	-82
107	79	-90
199	126	38
252	150	40
262	156	44
241	147	22
190	122	-36
120	84	-23
36	27	-70
-53	-36	-54
-144	-102	33
-219	-150	106
-269	-171	137
-279	-162	152
-248	-130	213
-178	-84	191
-83	-31	70
21	21	-116
120	72	-217
196	119	-245
242	153	-136
253	169	-121
229	153	-54
172	109	98
96	39	-18
8	-33	-18
-80	-97	143
-156	-137	149
-211	-154	-157
-240	-152	-324
-237	-133	-287
-205	-106	14
-143	-68	280
-61	-25	321
28	25	191
114	77	-238
186	123	-491
234	158	-598
254	173	-609
242	166	-137
196	129	343
117	66	369
15	-19	278
-97	-113	188
-202	-196	41
-276	-248	-134
-307	-256	-139
-285	-219	-214
-221	-150	-202
-122	-67	-164
-15	11	-69
86	77	71
169	129	103
228	170	161
258	197	164
257	203	176
226	179	160
163	121	152
76	41	78
-25	-45	17
-120	-114	-12
-199	-153	-39
-248	-156	-69
-260	-130	-137
-236	-94	-174
-176	-53	-120
-94	-17	60
1	17	50
90	51	-52
162	84	-133
205	110	-239
216	122	-232
198	115	-195
158	87	-129
101	41	-43
33	-16	-2
-40	-79	10
-115	-131	39
-182	-173	57
-231	-188	90
-247	-175	89
-224	-135	56
-159	-77	48
-61	-8	38
46	61	82
150	120	129
229	166	162
269	190	142
275	190	70
245	165	-69
184	119	-249
103	57	-25
8	-11	213
-93	-75	-1
-185	-127	-187
-258	-163	-331
-296	-178	-195
-289	-174	24
-237	-150	-25
-149	-106	-9
-37	-42	-165
76	33	-374
171	110	-273
236	170	-59
259	201	-21
245	193	71
199	148	124
126	76	119
35	-7	162
-61	-83	124
-154	-141	20
-228	-175	-86
-271	-184	94
-277	-173	150
-244	-141	30
-174	-96	-63
-80	-37	-200
23	25	-251
122	83	-214
202	127	-63
252	153	74
266	157	141
245	138	19
191	108	15
110	63	31
17	11	44
-79	-47	103
-162	-100	124
-225	-138	-193
-253	-154	-560
-243	-137	-201
-195	-93	-193
-118	-35	-403
-26	21	-170
67	58	151
143	72	285
194	66	260
212	53	161
205	43	7
176	41	-150
132	38	-265
72	26	-209
0	-4	-117
-83	-52	1
-168	-103	77
-236	-143	132
-273	-157	126
-263	-141	105
-209	-101	52
-117	-47	18
-11	7	62
86	56	-8
159	101	21
197	143	8
205	177	-38
187	194	21
151	182	21
103	131	30
44	49	62
-21	-52	61
-85	-144	33
-137	-204	-8
-167	-215	-34
-169	-179	-55
-140	-115	-32
-88	-43	-2
-21	15	-39
53	59	-48
126	90	-91
187	121	-81
229	153	-28
244	177	-63
222	182	-30
166	150	-11
80	83	-41
-26	-8	-32
-131	-99	-8
-221	-168	0
-277	-200	32
-300	-196	104
-285	-168	91
-235	-125	49
-156	-81	-79
-55	-32	-200
50	21	-150
151	79	-159
224	131	-70
259	165	34
251	171	-55
203	142	26
130	88	29
42	17	-20
-42	-52	-79
-123	-108	-259
-189	-144	-239
-239	-160	-290
-260	-159	-291
-249	-140	-38
-197	-105	94
-112	-59	166
-5	-8	296
99	41	200
184	85	53
236	119	42
245	138	44
225	143	-15
172	127	-69
107	90	-37
26	29	-32
-60	-48	-119
-143	-127	-133
-210	-186	-11
-247	-208	-84
-244	-187	-230
-201	-130	-106
-126	-57	27
-37	13	130
52	68	284
131	106	292
194	132	-15
234	154	-392
253	170	-394
242	169	-106
201	141	44
127	83	86
33	3	111
-70	-83	20
-165	-150	-77
-232	-184	-126
-264	-184	-11
-259	-157	-83
-217	-114	-142
-145	-66	-36
-55	-21	-65
43	24	30
135	72	81
206	114	37
242	144	-9
239	153	10
198	135	6
128	96	28
44	43	10
-43	-13	-6
-121	-66	34
-186	-109	14
-231	-141	32
-248	-157	24
-232	-150	69
-179	-116	78
-96	-57	31
7	14	14
109	85	-19
193	139	-30
242	168	54
255	166	123
234	141	95
184	101	31
117	48	-82
35	-9	-228
-51	-67	-277
-139	-122	-233
-215	-167	-147
-269	-190	29
-280	-186	60
-249	-155	-81
-175	-102	-119
-75	-38	-59
33	27	-48
128	84	99
195	128	219
231	153	129
236	156	-2
215	138	-282
172	102	-392
113	50	-246
37	-11	-19
-51	-70	225
-141	-121	268
-222	-155	118
-269	-165	-198
-277	-149	-536
-236	-109	-429
-153	-53	-2
-45	9	139
64	65	202
158	106	120
223	128	9
253	136	137
251	131	160
219	118	31
165	96	-57
88	57	-81
-5	1	-103
-108	-69	-118
-203	-144	-117
-273	-200	-65
-306	-224	-45
-287	-203	-12
-223	-144	-51
-124	-64	-20
-11	19	1
97	88	-28
184	135	74
241	158	112
262	164	145
249	153	155
207	123	137
140	81	169
58	23	116
-32	-39	-7
-116	-98	-48
-187	-138	-105
-233	-155	-115
-248	-150	-75
-228	-124	-122
-174	-87	-222
-94	-39	-326
4	12	-365
102	66	-280
184	119	11
237	158	194
249	174	186
222	166	83
162	127	-105
79	66	-167
-12	-5	-12
-103	-78	76
-185	-143	62
-248	-191	123
-280	-217	-31
-272	-210	-40
-223	-175	38
-132	-108	-69
-16	-21	-71
102	71	-72
202	153	-109
263	202	-130
281	215	-68
258	190	34
203	140	79
128	76	101
44	9	59
-41	-50	-35
-125	-102	-109
-200	-141	-142
-259	-169	-118
-286	-181	26
-273	-171	132
-217	-138	65
-121	-85	31
2	-13	-18
128	63	-13
237	131	7
306	183	26
326	206	51
300	194	13
229	153	-21
131	85	-50
19	7	-60
-91	-71	-27
-187	-134	47
-259	-177	16
-299	-192	49
-298	-178	28
-253	-141	-114
-172	-85	-27
-61	-17	69
56	52	-132
162	112	-266
236	153	-30
267	168	108
257	155	-6
211	120	-72
140	68	-72
58	11	-85
-29	-49	-143
-118	-103	-238
-195	-142	-462
-257	-167	-412
-287	-171	32
-278	-154	163
-228	-118	208
-140	-68	213
-34	-13	-19
75	43	24
167	92	117
234	130	94
263	154	222
262	159	229
231	143	30
172	109	-189
97	59	-203
7	2	-40
-88	-56	-86
-180	-108	-114
-252	-144	-138
-291	-166	-103
-288	-166	-23
-238	-142	-26
-143	-98	11
-22	-34	47
106	41	45
216	114	-9
287	170	-17
312	200	22
287	196	52
225	160	36
132	100	9
25	24	-50
-89	-53	-155
-190	-125	-170
-269	-179	-66
-310	-207	118
-300	-202	119
-244	-167	44
-145	-103	38
-28	-25	-39
89	53	-38
184	117	-60
249	160	-50
276	174	-83
266	169	-128
225	141	-63
158	99	24
70	43	45
-24	-18	-3
-121	-81	33
-203	-134	-27
-259	-170	-28
-279	-180	-25
-261	-164	-86
-206	-126	-30
-125	-76	4
-29	-18	45
66	37	75
149	90	50
208	132	32
238	162	-35
234	168	-151
198	145	-89
138	97	-62
60	27	-121
-22	-45	-37
-101	-107	48
-166	-143	19
-214	-155	-85
-234	-143	-157
-225	-118	-90
-180	-87	65
-105	-47	118
-8	-2	162
93	51	149
183	106	181
244	153	169
261	178	-14
238	171	-236
175	133	-463
92	68	-408
-6	-11	-260
-102	-89	-173
-186	-149	-88
-249	-183	-46
-279	-191	29
-273	-174	-19
-229	-141	9
-152	-96	77
-52	-45	7
50	10	-61
144	68	-168
215	122	-110
253	168	33
257	191	119
228	183	219
170	139	225
90	68	152
-1	-19	55
-93	-103	17
-170	-166	1
-223	-196	-53
-244	-194	-41
-228	-162	-28
-177	-109	-51
-100	-46	-33
-7	17	-27
85	78	-77
163	125	36
215	157	87
236	168	53
223	160	42
183	132	-7
121	92	-43
46	39	-206
-36	-22	-259
-122	-85	-183
-200	-143	-129
-258	-184	11
-285	-196	52
-269	-179	78
-209	-127	98
-113	-59	46
7	15	-12
126	79	-96
229	124	-33
296	151	28
320	162	-30
297	156	-55
234	134	-55
140	95	-55
27	34	-48
-89	-38	-15
-191	-112	-16
-264	-169	-59
-304	-195	-107
-297	-188	-98
-251	-148	-3
-170	-92	0
-69	-27	27
38	32	16
140	85	6
221	123	82
269	149	104
275	158	144
240	144	81
169	109	-22
75	55	-78
-28	-9	-54
-123	-70	16
-201	-119	-109
-255	-149	-203
-277	-159	-45
-267	-149	52
-223	-126	70
-143	-92	15
-40	-47	-103
75	7	-176
181	67	-165
259	123	-178
295	165	-123
280	183	84
223	166	99
133	120	57
27	49	-80
-79	-28	-309
-172	-100	-254
-243	-151	-68
-285	-182	40
-290	-189	32
-257	-175	84
-187	-145	-4
-87	-97	-124
28	-33	-34
140	43	36
234	120	115
289	181	57
302	210	51
277	201	39
219	158	-98
139	93	12
49	23	47
-45	-39	40
-135	-90	106
-217	-131	-12
-277	-162	-45
-303	-178	-29
-280	-174	-28
-208	-137	35
-97	-70	158
34	14	196
155	98	169
244	161	-44
285	190	-279
280	187	-409
234	161	-542
159	115	-200
66	56	176
-36	-14	304
-136	-95	320
-228	-174	152
-289	-233	34
-310	-251	-241
-278	-223	-368
-204	-151	-329
-100	-56	-267
11	33	-113
111	103	-15
188	141	70
234	160	51
253	163	-52
244	158	-31
207	139	34
144	103	80
60	45	65
-35	-28	81
-126	-98	57
-197	-152	6
-236	-173	-18
-237	-162	-35
-204	-126	0
-142	-78	-5
-60	-25	44
28	27	68
115	76	105
189	119	124
238	153	67
253	168	-59
234	158	-131
175	123	-10
97	68	-53
2	3	-50
-94	-62	19
-180	-121	19
-245	-164	63
-281	-184	-43
-281	-184	-113
-244	-158	-108
-169	-112	-102
-67	-50	-116
43	19	-41
149	85	82
228	137	130
268	168	115
266	174	14
226	155	-97
154	112	-353
61	52	-280
-37	-14	106
-130	-78	144
-207	-129	95
-255	-163	-16
-264	-178	-76
-237	-170	-122
-173	-144	-93
-81	-101	-151
22	-44	-271
121	19	-134
199	82	-89
245	132	28
258	165	57
234	165	-60
181	138	-193
106	89	-150
16	26	0
-80	-38	47
-169	-92	9
-240	-129	-13
-279	-150	76
-280	-149	59
-240	-131	100
-163	-101	183
-60	-54	289
48	2	331
150	64	192
229	123	82
273	174	-176
280	200	-646
248	195	-685
184	158	-320
98	87	-166
-1	2	-43
-102	-86	49
-189	-157	80
-252	-196	234
-280	-209	240
-269	-189	253
-218	-148	178
-136	-92	92
-34	-30	-18
71	34	-103
164	95	-80
226	144	-39
252	179	37
239	187	-69
194	168	-231
127	117	-142
49	46	49
-34	-35	84
-113	-115	81
-181	-173	48
-228	-199	-22
-244	-189	-64
-223	-147	-97
-166	-85	-99
-86	-18	-72
7	40	-41
96	85	-42
165	115	-41
208	137	16
226	149	48
216	150	9
183	135	-16
125	97	1
48	32	2
-43	-48	-3
-134	-127	29
-208	-186	61
-252	-208	45
-253	-192	10
-214	-142	15
-141	-77	69
-50	-10	149
46	47	133
133	92	16
200	122	-80
241	143	-186
245	154	-233
219	151	-168
161	128	-195
80	87	-236
-15	24	-306
-111	-46	-234
-195	-118	-22
-259	-174	7
-287	-203	184
-277	-205	172
-228	-176	61
-142	-122	13
-34	-51	-102
78	27	-189
179	103	-22
252	164	260
285	201	91
278	210	68
231	185	-174
156	131	-379
61	58	-46
-38	-22	265
-136	-98	486
-218	-158	636
-277	-196	608
-300	-210	275
-282	-196	-320
-221	-159	-776
-117	-97	-924
8	-17	-922
131	63	-664
229	132	-179
282	170	-128
283	171	-13
241	139	-7
167	91	219
81	39	104
-4	-7	136
-84	-42	196
-157	-78	186
-223	-111	179
-269	-145	202
-285	-166	179
-255	-163	120
-174	-126	112
-56	-60	30
80	20	28
202	96	23
285	153	58
320	182	62
302	186	42
251	170	-4
175	137	-121
86	89	-137
-10	25	-74
-108	-48	-84
-201	-118	-90
-274	-170	-43
-315	-192	16
-311	-179	41
-255	-141	43
-158	-88	48
-36	-31	-13
87	23	-38
191	76	-103
262	123	-151
296	165	-115
288	188	-102
242	183	-129
165	141	-103
64	71	-17
-46	-13	-3
-150	-95	2
-234	-154	-29
-282	-186	-46
-291	-188	-37
-262	-168	-2
-193	-129	26
-101	-80	40
5	-20	100
107	43	149
194	101	204
251	148	242
273	169	94
258	166	-119
207	138	-203
132	96	-442
39	41	-299
-60	-17	70
-161	-78	68
-247	-138	-10
-310	-189	-198
-336	-219	-238
-313	-217	-276
-240	-178	-270
-124	-105	-166
14	-12	-80
154	78	7
265	150	114
333	191	249
346	200	256
314	183	155
241	144	33
138	93	-88
23	29	-245
-91	-38	-245
-186	-105	-211
-258	-158	37
-291	-186	144
-287	-187	110
-242	-159	216
-166	-110	61
-68	-48	95
39	14	142
140	74	161
223	129	81
271	169	-132
279	189	-102
242	183	-44
171	145	7
75	81	6
-29	-1	-115
-128	-81	-297
-214	-144	-476
-274	-178	-436
-307	-182	-234
-300	-161	-1
-259	-124	137
-178	-83	159
-70	-40	189
50	0	173
167	41	108
261	83	37
320	119	34
335	140	17
302	137	-7
231	106	-4
123	49	2
-2	-20	43
-126	-87	44
-225	-129	19
-278	-142	-7
-279	-125	12
-233	-85	54
-150	-36	65
-55	15	41
40	62	28
122	106	-6
187	145	36
224	174	68
231	182	-214
202	161	-408
136	108	-271
42	30	-121
-61	-58	-92
-158	-138	22
-229	-195	-45
-262	-222	-181
-262	-219	-171
-228	-191	-154
-168	-145	-61
-91	-87	-13
2	-18	53
98	53	64
184	119	59
245	164	46
271	183	-81
258	174	-76
210	140	40
132	88	34
41	26	130
-53	-33	199
-144	-89	162
-217	-131	218
-267	-157	93
-279	-158	-241
-253	-135	-239
-187	-93	-86
-95	-42	-120
7	3	8
104	38	31
179	58	7
230	72	133
249	87	194
240	105	168
201	120	122
137	121	-22
52	98	-316
-43	47	-435
-137	-24	-453
-216	-102	-290
-263	-163	-75
-276	-192	-137
-246	-185	24
-180	-143	-14
-86	-80	-105
21	-5	19
126	63	35
211	117	71
261	150	84
269	158	125
236	143	127
171	108	125
86	59	87
-7	1	43
-101	-56	25
-183	-105	32
-248	-141	86
-285	-153	86
-285	-142	0
-242	-106	-250
-157	-53	-302
-44	5	-100
75	56	40
180	89	90
254	103	55
291	100	65
291	90	-34
262	77	-90
207	63	115
130	47	84
34	20	-45
-70	-18	-82
-174	-65	-189
-252	-112	-198
-288	-144	-214
-276	-152	-147
-217	-129	26
-126	-81	152
-25	-17	222
68	49	145
143	110	54
195	153	-166
221	174	-349
216	170	-273
181	135	-214
117	74	-68
29	-5	27
-70	-86	58
-166	-152	94
-237	-189	30
-274	-195	-15
-269	-173	-79
-225	-132	-13
-148	-87	37
-51	-39	52
52	9	66
150	61	37
226	114	52
269	162	30
275	192	51
240	189	34
171	151	-47
80	83	-118
-19	1	-76
-110	-77	34
-186	-129	25
-241	-158	61
-263	-163	61
-258	-151	140
-213	-127	213
-136	-96	107
-36	-49	-107
70	12	-257
165	85	-262
230	152	-394
252	200	-279
230	209	-115
172	174	-219
97	103	-200
13	8	2
-64	-86	175
-128	-162	107
-170	-206	74
-190	-215	69
-186	-192	38
-159	-147	84
-113	-85	28
-48	-18	-96
25	47	-130
104	104	-72
172	145	-31
225	171	60
245	174	156
229	160	216
178	125	192
99	76	38
3	16	-116
-94	-47	-50
-178	-110	-26
-241	-159	-183
-271	-185	-32
-264	-182	-72
-223	-150	-218
-144	-92	-238
-45	-25	-229
60	39	-44
154	92	16
219	129	186
251	150	290
245	153	346
208	142	231
149	114	6
69	68	-249
-21	6	-509
-116	-64	-242
-207	-131	-32
-274	-181	-158
-307	-202	-181
-291	-192	-154
-228	-154	-41
-126	-99	116
-10	-37	119
104	24	83
198	78	30
261	125	-9
288	160	11
280	179	-41
242	171	-71
171	140	0
83	84	8
-18	7	14
-117	-70	57
-201	-138	57
-258	-181	20
-281	-194	-40
-263	-177	-36
-209	-133	-30
-122	-75	-56
-16	-5	-51
91	63	-24
184	122	46
245	162	24
266	179	19
245	166	121
190	128	63
109	72	-91
15	7	-226
-81	-56	-248
-172	-114	-53
-242	-157	158
-288	-179	237
-295	-176	175
-257	-145	-39
-178	-93	-223
-67	-26	-269
51	40	-261
159	93	-277
236	125	-116
269	136	80
262	132	95
223	116	84
161	92	20
84	51	-6
-2	-4	-92
-91	-70	-79
-172	-137	-24
-232	-182	-37
-257	-194	-13
-240	-166	9
-179	-107	57
-90	-34	74
10	33	79
102	86	65
170	123	47
211	147	26
226	162	8
216	165	-9
188	149	-22
139	106	-81
74	41	-67
-8	-35	61
-95	-108	61
-177	-160	9
-237	-182	-45
-262	-174	-30
-250	-147	-49
-197	-105	-158
-112	-56	-127
-10	-6	-137
94	50	-137
182	104	-89
239	147	-64
258	169	0
234	165	22
178	129	13
96	68	0
5	1	82
-87	-66	201
-168	-118	263
-231	-152	267
-264	-163	11
-263	-150	-372
-228	-119	-363
-153	-69	-270
-52	-13	-111
57	46	265
155	92	251
223	121	101
252	131	-66
244	126	-123
202	110	-209
137	90	-278
59	61	-261
-30	19	-213
-124	-38	-8
-213	-106	-9
-282	-173	-3
-318	-216	-82
-304	-226	-109
-237	-189	-41
-126	-119	-34
9	-32	-4
140	48	17
248	110	56
311	149	52
326	166	66
294	169	62
229	154	81
139	119	74
42	63	67
-52	-11	69
-139	-89	24
-208	-151	8
-253	-180	22
-268	-175	24
-249	-141	32
-194	-94	19
-107	-44	-25
1	3	-38
111	49	-55
205	98	0
265	143	200
280	177	476
253	183	473
189	154	135
104	97	-553
8	23	-937
-85	-45	-747
-170	-97	-382
-244	-126	1
-295	-142	348
-316	-151	308
-300	-153	213
-237	-147	-3
-130	-119	-236
4	-63	-378
145	15	-330
265	103	-194
340	170	-56
355	202	71
312	188	132
226	135	104
115	61	113
2	-12	93
-100	-72	40
-180	-118	42
-235	-144	85
-259	-158	119
-251	-154	103
-206	-131	118
-127	-87	82
-24	-24	22
83	45	-59
178	112	-129
242	158	-124
265	179	-100
249	174	-77
201	147	-44
129	102	-24
44	43	-26
-49	-23	0
-141	-90	-18
-226	-145	-16
-281	-181	107
-300	-184	294
-269	-159	391
-195	-108	319
-91	-43	-75
25	20	-747
127	77	-877
201	119	-393
238	148	87
238	155	85
206	139	225
150	100	112
76	38	32
-6	-36	-120
-88	-108	-295
-162	-159	-190
-221	-183	-74
-253	-180	31
-258	-154	117
-227	-116	175
-160	-68	147
-65	-17	101
44	41	-2
151	102	-78
231	153	-37
270	185	-62
266	186	-32
223	156	-50
154	97	64
72	26	110
-8	-44	58
-83	-102	139
-148	-140	56
-197	-157	-27
-223	-152	-162
-219	-127	-207
-178	-90	-151
-107	-43	-93
-14	6	-77
81	55	-109
165	98	-69
222	132	-51
245	157	-75
234	163	24
187	147	248
115	106	313
24	44	256
-71	-27	-23
-162	-95	-475
-230	-145	-668
-267	-173	-312
-267	-178	90
-232	-165	94
-170	-140	93
-85	-107	74
12	-59	79
110	4	38
195	80	4
256	153	29
279	201	-23
262	208	-17
202	168	19
113	93	65
9	2	130
-93	-81	85
-178	-139	-43
-241	-168	-76
-271	-173	-57
-268	-162	-69
-226	-133	-68
-150	-90	-25
-45	-29	-30
69	43	-50
175	117	-50
250	175	-33
280	205	62
269	202	120
216	170	47
136	118	-32
41	56	-100
-56	-8	-154
-151	-77	-72
-232	-141	-38
-285	-192	-16
-300	-223	10
-269	-213	81
-191	-167	127
-83	-90	54
41	0	-37
154	79	-161
239	137	-200
284	166	-202
291	170	-105
261	150	-37
201	113	-23
120	62	-72
26	0	-114
-70	-65	-95
-158	-125	-32
-226	-163	20
-260	-175	99
-259	-157	149
-224	-117	68
-156	-67	109
-69	-15	-17
25	34	-103
111	80	-31
181	116	-62
222	147	-51
234	162	-2
212	157	-65
161	128	-119
89	78	-62
0	12	16
-92	-59	109
-178	-124	108
-245	-174	105
-281	-198	-57
-279	-192	-170
-231	-162	-93
-148	-104	-108
-39	-37	-98
71	32	-40
166	92	19
230	138	121
259	171	184
253	186	72
216	182	-203
158	153	-205
80	99	-5
-12	18	-205
-105	-71	-182
-190	-152	150
-252	-205	257
-277	-218	294
-260	-196	164
-204	-148	-9
-117	-88	-173
-16	-24	-283
85	37	-187
170	94	-257
228	143	-312
252	171	-206
244	171	-149
201	137	-26
136	76	8
56	2	28
-26	-64	54
-106	-107	34
-175	-126	51
-227	-124	55
-256	-118	46
-251	-107	45
-209	-90	53
-129	-57	47
-22	-9	86
97	51	152
203	110	172
270	150	141
296	163	19
269	147	-182
212	108	-88
130	62	66
40	14	0
-52	-34	74
-142	-84	72
-223	-129	2
-278	-165	-113
-299	-179	-255
-272	-163	-315
-195	-120	-277
-84	-54	-123
42	16	-42
155	81	71
237	130	85
278	161	52
280	174	45
245	165	25
184	132	32
102	77	8
-2	1	16
-112	-82	-58
-215	-155	-127
-287	-196	-103
-312	-200	-52
-285	-165	-28
-211	-103	-78
-107	-33	-59
4	30	34
103	78	90
178	112	54
226	132	136
245	149	130
238	150	-96
203	135	-86
140	99	-8
56	35	79
-40	-42	46
-139	-124	-58
-222	-189	-141
-273	-224	-219
-285	-219	-200
-253	-178	-201
-181	-112	-88
-84	-35	-104
28	40	-175
132	105	-235
212	150	-89
258	174	105
262	177	82
234	155	225
170	113	137
90	51	52
0	-19	10
-92	-89	-60
-174	-142	28
-237	-175	66
-269	-182	135
-263	-163	116
-221	-122	112
-141	-69	60
-38	-8	32
68	53	80
162	110	-63
228	156	-151
257	183	-169
249	181	-530
206	150	-478
138	88	-51
50	9	-48
-40	-71	64
-130	-137	40
-202	-177	13
-249	-188	-2
-262	-171	-54
-239	-137	9
-181	-91	12
-99	-36	97
-1	21	121
94	78	137
175	126	98
236	162	40
262	174	-86
262	163	-79
230	129	42
172	80	43
99	21	62
9	-39	42
-85	-93	20
-174	-136	-13
-242	-163	-48
-274	-169	-90
-262	-151	-120
-203	-110	-104
-109	-56	-53
4	7	-15
109	65	-41
190	116	-81
231	150	-94
234	168	-90
202	165	-46
145	140	67
69	95	44
-16	27	29
-105	-52	-27
-189	-131	-115
-252	-192	89
-281	-222	110
-267	-210	-3
-210	-164	-59
-120	-94	-75
-16	-17	-80
85	51	-76
165	106	-31
216	143	-109
239	165	-124
233	166	-135
199	148	-62
141	106	4
64	39	52
-26	-39	79
-115	-117	24
-189	-173	-81
-237	-195	-211
-245	-181	-58
-218	-137	104
-158	-83	141
-77	-26	130
14	23	9
103	65	-2
175	105	-112
225	143	-157
244	175	-138
229	191	-301
184	174	-149
113	116	64
26	24	132
-67	-81	102
-158	-177	52
-228	-236	48
-269	-246	7
-272	-209	-55
-234	-141	-92
-160	-65	-93
-61	0	-79
42	48	60
136	85	151
207	116	178
245	147	155
253	171	-81
229	183	-268
175	166	-124
105	112	-44
18	31	-81
-75	-62	-107
-162	-144	-198
-228	-192	-104
-262	-204	-20
-259	-181	39
-215	-138	22
-139	-88	50
-42	-34	72
59	23	17
151	86	56
222	148	60
257	198	29
260	218	-38
224	197	-22
157	131	-12
66	37	40
-34	-61	116
-129	-141	100
-211	-187	0
-263	-198	-145
-285	-181	-147
-262	-145	-43
-202	-100	34
-111	-48	16
-2	8	-34
105	67	-53
194	121	-74
248	162	-54
263	179	31
241	166	17
188	127	7
111	68	-42
24	3	-195
-67	-63	-129
-153	-120	-86
-224	-162	-100
-264	-180	85
-271	-173	186
-235	-144	-9
-162	-94	-89
-62	-35	-32
45	27	-111
140	86	-130
214	134	-128
253	168	-273
252	178	-184
216	162	-63
150	114	-26
64	45	231
-30	-38	300
-119	-115	264
-190	-169	163
-233	-189	-51
-244	-175	-177
-219	-136	-122
-167	-84	20
-91	-32	-16
-3	14	-374
86	54	-566
164	89	-273
222	121	-120
245	142	67
236	149	186
189	129	218
109	82	339
12	7	315
-88	-76	305
-175	-151	152
-234	-200	-161
-259	-213	-517
-245	-187	-509
-194	-131	-122
-118	-62	190
-26	3	326
66	58	382
150	95	213
210	122	-119
245	142	-407
251	158	-414
230	164	-196
180	150	-76
111	109	-10
22	41	-31
-75	-39	53
-169	-118	131
-245	-173	39
-288	-194	70
-291	-180	87
-247	-141	91
-162	-88	111
-50	-30	97
71	27	14
182	83	-64
261	132	6
299	171	-40
288	192	-86
238	179	19
156	134	15
56	60	-1
-45	-23	-88
-139	-101	-179
-214	-159	-137
-264	-188	-116
-285	-192	-86
-269	-174	-36
-218	-136	14
-135	-84	30
-34	-19	52
69	53	72
158	120	0
214	170	12
234	195	85
214	185	61
170	147	35
110	84	13
42	13	-105
-26	-54	-256
-88	-111	-283
-142	-143	-349
-179	-157	-72
-191	-151	238
-177	-131	119
-134	-102	24
-67	-66	-252
12	-26	-311
93	21	-185
163	69	-118
211	117	-40
229	150	-21
212	160	-8
163	137	36
85	87	130
-5	19	94
-98	-52	56
-178	-111	79
-232	-147	166
-260	-158	196
-258	-148	57
-225	-123	26
-163	-86	202
-77	-36	217
27	27	129
132	98	140
222	161	-51
278	197	-375
285	194	-572
245	147	-418
169	67	-272
69	-23	-223
-34	-101	-67
-124	-150	-95
-197	-167	-90
-246	-164	-75
-269	-149	21
-262	-131	76
-221	-110	119
-143	-77	124
-41	-24	9
67	45	110
166	118	38
234	178	-13
263	207	202
254	198	236
209	153	233
141	83	163
59	4	107
-24	-68	200
-105	-122	121
-170	-153	-78
-208	-158	-309
-215	-140	-447
-189	-103	-554
-132	-55	-295
-54	-4	86
32	48	120
117	94	199
188	132	20
234	158	-121
245	165	14
221	144	-128
159	100	-382
72	32	-267
-24	-45	-45
-118	-118	-76
-194	-173	-44
-248	-198	0
-271	-196	77
-262	-173	77
-225	-131	57
-155	-79	68
-62	-16	-4
39	49	99
132	116	147
202	169	141
234	198	149
230	195	107
197	155	103
147	93	65
85	17	-49
20	-50	-159
-47	-104	-229
-116	-137	-223
-177	-153	-144
-215	-153	-62
-222	-137	-2
-188	-110	136
-119	-64	188
-26	-8	47
72	55	-63
162	114	-161
226	156	-133
255	174	-52
245	165	-53
199	131	31
119	77	92
20	12	116
-86	-58	53
-180	-122	-61
-249	-166	-44
-280	-184	-69
-274	-171	-227
-233	-131	-309
-163	-74	-203
-75	-13	-120
23	37	129
114	71	246
191	93	159
239	106	126
254	117	-67
234	121	-206
181	113	-169
105	83	-197
14	29	-315
-78	-43	-289
-162	-117	-114
-228	-178	150
-267	-206	260
-270	-199	405
-236	-163	524
-163	-107	240
-63	-39	-151
46	33	-447
151	106	-538
234	174	-411
280	225	-74
280	241	26
242	210	-58
166	132	118
67	25	155
-37	-88	326
-132	-171	352
-202	-207	225
-245	-192	107
-253	-144	-335
-232	-90	-566
-183	-44	-529
-111	-17	-201
-23	1	93
72	20	22
162	50	56
230	91	80
262	124	82
257	139	45
211	126	19
135	90	36
44	38	64
-47	-16	75
-136	-64	11
-209	-105	-56
-260	-136	-165
-280	-159	4
-260	-162	150
-200	-140	130
-103	-89	65
14	-14	-44
130	68	-107
224	143	-137
280	186	-20
296	195	-11
269	168	-9
214	116	36
136	53	18
42	-11	22
-55	-64	-5
-150	-112	32
-228	-143	69
-276	-162	80
-285	-160	25
-252	-135	-91
-182	-88	-206
-86	-22	-133
21	50	137
122	114	121
202	157	53
251	171	-40
262	155	-247
238	116	-242
183	65	-229
102	8	-222
7	-46	-227
-92	-99	-62
-180	-139	-28
-245	-165	-59
-277	-169	-13
-264	-145	-30
-214	-102	1
-127	-45	68
-22	10	161
82	57	94
170	93	103
229	118	-24
255	139	-68
245	152	14
206	148	50
139	116	152
50	55	208
-48	-28	325
-143	-113	408
-222	-174	300
-269	-196	2
-275	-177	-315
-242	-129	-664
-174	-70	-860
-82	-19	-536
16	19	26
107	47	12
176	69	-76
216	93	-153
229	114	-151
207	123	90
159	113	150
91	77	152
10	18	42
-77	-52	-133
-158	-118	-169
-222	-166	29
-255	-184	2
-251	-169	7
-207	-127	46
-129	-71	8
-30	-12	76
72	43	125
162	88	169
229	123	152
266	150	141
275	168	77
252	170	49
199	150	-62
117	104	-302
14	32	-279
-99	-50	-40
-201	-127	41
-274	-182	130
-306	-200	145
-288	-186	93
-228	-145	3
-136	-90	-141
-35	-28	-176
63	35	-214
147	95	-149
206	145	-79
237	174	-32
236	180	-18
203	150	-1
143	95	26
66	22	19
-22	-51	26
-108	-112	33
-181	-152	41
-232	-169	54
-250	-164	68
-232	-142	61
-178	-105	9
-93	-57	-56
10	1	81
113	62	32
198	122	-143
251	171	-192
262	201	-260
236	199	-147
175	164	-76
95	96	-52
3	7	-30
-93	-85	51
-177	-161	132
-243	-202	161
-277	-203	38
-272	-173	-67
-225	-121	-40
-143	-69	-115
-42	-23	-176
59	14	-291
145	47	-143
204	84	145
232	116	110
226	138	-12
198	132	-49
147	95	-12
82	26	103
6	-51	160
-70	-114	136
-141	-144	2
-193	-137	-322
-216	-105	-400
-208	-64	-182
-164	-32	15
-91	-11	140
0	9	151
95	35	172
175	77	98
231	126	3
250	169	-50
233	182	-163
180	160	-214
104	98	-176
11	16	-91
-85	-67	-68
-174	-137	25
-242	-179	147
-284	-192	213
-287	-178	147
-250	-141	-12
-178	-87	-200
-77	-24	-260
33	38	-61
136	94	101
214	131	149
257	149	111
261	145	32
231	127	-36
170	96	-41
91	52	-30
1	0	-36
-91	-62	-17
-173	-123	-2
-237	-173	-165
-270	-196	-74
-267	-191	177
-226	-156	94
-151	-98	159
-52	-32	13
52	36	-289
151	101	-320
229	159	-268
273	205	-234
279	228	0
242	211	164
166	150	35
62	54	114
-50	-58	61
-160	-157	64
-243	-215	135
-288	-225	35
-291	-192	-48
-253	-139	-238
-181	-82	-276
-84	-33	-174
26	9	-149
132	51	-119
225	97	-12
284	140	80
306	171	69
283	177	44
224	149	52
133	93	54
31	21	152
-75	-50	195
-168	-110	159
-243	-152	69
-288	-171	-143
-296	-169	-330
-262	-142	-282
-191	-98	-151
-88	-41	-135
32	19	37
147	72	159
236	110	120
284	131	89
288	140	2
251	135	-101
182	117	-134
93	82	-67
-7	30	-75
-104	-34	-42
-191	-103	21
-255	-160	38
-286	-189	48
-277	-187	84
-226	-152	126
-140	-95	82
-34	-28	30
76	38	-62
170	96	-159
236	142	-84
265	171	16
254	182	-39
212	166	-114
143	123	-226
56	60	-252
-42	-16	-81
-138	-92	82
-224	-157	86
-282	-196	79
-307	-213	20
-285	-200	-77
-217	-163	-45
-115	-104	11
8	-29	36
129	47	-30
231	116	-84
297	166	-111
319	191	-90
297	187	-7
238	161	42
151	115	54
48	54	51
-58	-11	4
-161	-77	18
-241	-132	85
-287	-168	-92
-292	-174	-291
-253	-150	-93
-176	-99	141
-72	-34	57
35	31	41
132	85	-78
204	121	-189
245	141	-147
251	145	-34
221	131	119
161	102	-32
75	51	-74
-25	-16	-72
-126	-94	-47
-212	-166	49
-267	-216	37
-280	-232	87
-250	-206	38
-183	-147	32
-89	-66	41
13	15	56
111	87	87
192	137	-51
245	168	-99
263	179	52
252	171	46
209	150	-77
140	112	20
52	56	29
-44	-13	-210
-141	-83	-463
-226	-140	-338
-280	-175	-62
-299	-179	-32
-273	-157	127
-209	-115	108
-113	-64	-46
1	-11	-126
114	41	-135
211	93	18
275	138	64
300	170	169
277	174	196
214	148	97
122	88	-42
18	7	-82
-86	-75	-86
-172	-138	-134
-235	-175	-32
-266	-182	-18
-267	-165	26
-236	-131	62
-170	-87	58
-80	-35	64
29	25	8
136	86	-55
225	139	-185
273	174	-147
275	182	-40
234	161	22
158	116	39
65	54	-59
-33	-15	-101
-124	-80	-40
-203	-139	-88
-260	-182	-106
-285	-201	-90
-271	-192	-61
-215	-155	48
-123	-92	77
-7	-16	130
107	62	183
206	130	196
269	183	168
295	210	12
277	211	-82
228	183	-52
151	127	-219
56	49	-229
-40	-35	-27
-134	-115	-39
-209	-175	-59
-258	-207	-11
-271	-210	138
-248	-186	215
-189	-141	126
-103	-84	-42
-2	-13	-182
99	58	-312
184	127	-395
241	174	-372
258	194	-168
236	175	64
178	130	98
97	61	98
6	-13	91
-85	-81	68
-161	-130	15
-218	-158	24
-251	-167	-42
-255	-155	-60
-227	-125	-2
-166	-83	-40
-78	-28	-14
28	30	79
132	86	186
216	130	276
266	162	258
275	171	96
244	165	-228
181	137	-582
95	92	-371
1	30	-61
-95	-43	-83
-182	-118	24
-248	-185	86
-285	-227	59
-280	-233	-43
-231	-201	-22
-137	-131	-37
-21	-41	-101
100	53	26
198	131	53
259	177	91
273	190	40
245	170	-7
191	130	-56
115	79	-188
30	25	-201
-59	-29	-124
-148	-83	-80
-228	-129	-32
-281	-164	46
-300	-176	52
-270	-160	32
-194	-115	40
-85	-54	40
37	11	3
149	68	24
232	110	-5
276	137	24
287	153	158
266	158	225
216	149	187
144	120	108
54	67	-83
-46	-5	-193
-149	-85	-80
-232	-154	-182
-281	-192	-236
-289	-195	-147
-253	-162	-119
-177	-108	4
-80	-48	50
21	9	-35
115	55	-59
189	92	-83
234	120	-154
245	135	-176
225	135	-130
170	110	-70
90	65	-64
-5	2	-9
-101	-63	68
-186	-123	50
-245	-160	65
-271	-171	63
-259	-159	64
-209	-125	59
-132	-81	49
-34	-29	93
68	24	76
159	78	79
229	129	81
265	171	-17
266	199	16
234	203	147
172	179	249
89	119	270
-4	36	-71
-101	-56	-331
-186	-141	-568
-251	-196	-412
-283	-216	169
-275	-198	48
-227	-155	-87
-143	-101	-229
-39	-46	-427
69	4	-359
164	50	-289
230	94	-72
257	131	26
244	152	50
196	143	48
121	101	43
33	28	52
-58	-53	102
-137	-127	164
-198	-173	126
-231	-181	119
-229	-155	49
-191	-107	11
-121	-50	38
-30	8	43
66	60	22
154	108	5
214	147	24
241	171	35
232	179	45
187	162	43
119	121	80
31	58	129
-63	-17	135
-154	-94	15
-232	-158	-92
-277	-199	-32
-281	-209	-27
-240	-183	-40
-157	-125	-126
-48	-44	-489
66	40	-489
166	112	-200
237	156	13
270	164	135
270	143	104
241	104	103
191	61	44
123	21	39
44	-13	-9
-43	-44	-112
-132	-81	-123
-213	-118	-152
-274	-151	-88
-299	-164	-3
-281	-150	56
-216	-106	115
-116	-41	110
3	28	-24
119	89	-113
213	132	-79
269	161	-122
282	168	-94
253	160	-95
186	129	-60
97	77	20
-8	4	9
-108	-76	60
-194	-144	48
-252	-187	43
-276	-192	22
-260	-168	-9
-211	-121	-14
-135	-67	11
-42	-15	115
53	34	163
141	82	141
211	127	51
252	165	-69
256	180	-174
226	166	-147
161	120	-41
70	51	10
-27	-26	130
-124	-94	155
-201	-145	15
-250	-175	-33
-262	-182	-138
-236	-171	-312
-174	-135	-273
-84	-80	-176
17	-11	-46
111	61	-16
188	122	-153
234	161	-98
245	169	4
228	154	-57
178	117	-127
111	70	-144
25	15	-125
-66	-43	-39
-157	-102	13
-235	-153	45
-282	-183	65
-295	-184	59
-262	-153	77
-191	-102	116
-92	-41	172
20	17	173
131	66	87
225	110	-60
290	149	-170
319	181	-149
302	195	-24
250	177	47
157	120	49
40	27	30
-85	-79	32
-195	-173	113
-274	-225	143
-308	-229	140
-294	-186	49
-237	-119	-92
-150	-46	-215
-46	20	-221
56	71	-48
147	113	-43
215	143	-196
254	161	-322
257	158	-199
223	128	-34
154	76	-20
60	6	140
-45	-65	107
-145	-126	-39
-228	-166	-143
-279	-181	-282
-295	-178	-280
-271	-154	-71
-210	-115	34
-119	-60	39
-6	2	119
111	69	132
219	131	129
295	173	125
326	193	192
306	183	130
245	153	74
157	100	34
49	35	-13
-58	-36	-26
-157	-107	-76
-232	-163	-24
-280	-195	22
-290	-194	103
-260	-163	71
-192	-104	-144
-94	-33	-223
18	35	-145
125	97	-218
206	139	-106
252	169	13
254	178	38
216	168	107
150	132	11
66	76	6
-24	2	-47
-107	-80	-86
-174	-149	-154
-216	-195	-150
-233	-209	-241
-222	-190	-277
-181	-147	-98
-118	-87	20
-37	-24	49
49	36	28
132	89	29
200	130	33
241	158	138
251	166	134
223	149	128
164	110	137
81	50	121
-15	-21	80
-110	-86	87
-189	-137	3
-245	-164	-154
-267	-164	-48
-253	-143	-105
-204	-107	-278
-124	-63	-217
-25	-13	-179
80	38	-18
172	90	87
239	139	-2
269	173	-141
262	183	-218
216	161	-12
140	106	3
44	28	-12
-57	-53	5
-152	-127	-2
-226	-176	19
-264	-192	-11
-269	-184	-21
-232	-151	-35
-161	-100	42
-63	-37	52
39	31	67
135	95	75
206	148	110
245	174	178
245	180	170
211	156	102
151	113	-26
71	53	-78
-18	-13	-133
-106	-79	-197
-186	-138	-172
-246	-183	-238
-276	-207	-110
-266	-204	20
-215	-173	22
-126	-116	170
-12	-39	138
110	45	14
222	128	-86
301	196	-114
336	241	-257
321	250	-309
260	219	-262
164	153	-173
49	56	-72
-67	-50	-61
-169	-145	126
-247	-208	204
-295	-233	278
-307	-219	194
-285	-178	56
-232	-122	-35
-148	-64	-122
-45	-8	-68
63	48	-24
164	101	-168
239	147	-351
275	175	-84
271	180	89
226	154	84
151	93	64
52	15	19
-48	-66	106
-144	-135	106
-221	-175	156
-263	-184	102
-272	-164	-5
-242	-123	-80
-177	-71	-223
-84	-14	-230
21	41	-42
122	95	60
205	137	-31
257	166	-85
269	169	-125
245	148	-186
184	103	-100
100	40	102
4	-26	183
-93	-91	233
-181	-142	202
-247	-178	111
-281	-190	9
-279	-183	-183
-236	-151	-243
-156	-97	-169
-51	-29	-90
60	43	-5
158	108	29
226	154	-19
254	178	-101
245	179	-192
203	160	-155
138	122	-56
60	67	61
-23	-5	123
-103	-85	113
-170	-156	124
-210	-196	97
-217	-192	110
-184	-147	40
-120	-69	-243
-38	10	-406
44	71	-251
117	105	-259
170	115	-145
203	119	60
216	124	75
206	131	121
170	127	201
104	94	216
16	28	121
-86	-60	10
-178	-145	-152
-247	-204	-243
-277	-219	-199
-267	-198	-54
-225	-154	-7
-154	-103	25
-68	-54	57
24	-4	81
115	50	78
195	110	36
248	165	100
263	197	64
236	191	-28
169	144	-25
77	71	7
-27	-9	6
-123	-76	58
-202	-123	-19
-255	-149	-311
-277	-162	-289
-262	-162	-230
-211	-149	-201
-124	-117	-3
-15	-61	13
101	10	65
203	87	47
275	150	-7
310	187	68
300	192	281
255	165	454
180	117	337
82	55	116
-26	-10	-298
-132	-72	-718
-218	-123	-696
-274	-157	-265
-291	-171	-12
-272	-163	60
-217	-136	188
-138	-94	48
-47	-42	-27
51	16	-9
142	79	-14
216	134	16
260	174	-4
261	190	30
214	171	94
131	120	188
25	45	123
-81	-32	-62
-170	-101	-139
-231	-145	-168
-258	-163	-97
-248	-157	-56
-205	-133	96
-129	-99	203
-31	-57	15
78	-11	11
175	41	-45
245	92	-164
276	135	-195
261	162	-154
209	163	-48
133	135	30
46	78	135
-39	4	86
-125	-77	4
-203	-143	-48
-267	-188	-48
-304	-200	-49
-300	-178	22
-253	-129	94
-160	-64	60
-39	2	-37
89	61	-236
202	105	-180
284	134	-30
328	150	-6
332	155	68
299	149	74
229	123	68
132	78	83
15	12	34
-104	-61	-20
-210	-129	-102
-282	-173	-99
-312	-179	-149
-290	-153	-176
-226	-104	-135
-132	-49	-170
-27	3	2
74	44	120
159	83	87
215	117	30
242	145	-9
234	159	-1
190	143	-12
117	96	-33
22	21	-95
-80	-62	-35
-175	-135	10
-248	-181	98
-288	-195	130
-289	-183	85
-252	-151	-7
-176	-103	-180
-75	-44	-300
41	29	-375
152	104	-93
239	171	178
291	210	130
296	209	144
257	165	210
180	89	169
85	6	61
-18	-69	-85
-114	-122	-207
-194	-151	-151
-253	-161	-69
-282	-161	7
-280	-152	103
-239	-130	-202
-161	-97	-530
-53	-46	-295
65	15	36
175	78	121
262	128	181
302	160	98
297	165	-25
248	143	-54
169	104	-77
69	47	-55
-31	-14	-42
-124	-74	2
-201	-120	17
-252	-143	-8
-269	-145	-58
-250	-121	-67
-193	-84	-31
-106	-35	45
-1	15	137
103	64	59
188	109	-57
245	143	-101
262	162	-44
241	158	-19
186	128	15
106	75	29
12	5	60
-86	-64	127
-173	-124	133
-243	-163	150
-279	-178	135
-277	-171	95
-233	-145	4
-151	-102	-103
-43	-45	-195
75	22	-171
182	91	-162
260	149	-171
297	183	-160
288	189	-181
242	161	-118
165	110	-51
71	45	7
-26	-22	20
-120	-83	23
-204	-132	-37
-262	-169	-79
-289	-185	37
-276	-182	98
-221	-157	99
-128	-110	49
-15	-51	-86
98	16	-112
191	83	93
251	141	143
271	187	54
256	209	-91
212	203	-255
144	164	-247
59	94	-233
-37	4	-155
-134	-86	-76
-222	-159	7
-281	-199	2
-304	-204	-97
-280	-182	31
-214	-141	176
-116	-93	45
-2	-39	13
107	20	85
198	82	127
257	142	63
276	186	-32
254	199	-56
194	171	-21
107	106	27
4	20	-28
-99	-68	8
-187	-137	-70
-246	-177	-8
-270	-187	127
-255	-175	13
-202	-148	-37
-119	-106	-116
-18	-52	-172
87	13	-177
175	84	-193
239	148	-108
263	190	10
253	201	68
211	180	100
145	127	37
67	61	48
-18	-12	112
-105	-79	74
-186	-135	48
-252	-171	64
-285	-183	112
-277	-166	113
-224	-121	-32
-132	-58	-205
-18	12	-382
93	75	-423
184	121	-255
242	148	-80
262	155	28
248	145	40
202	116	182
132	70	210
46	9	152
-47	-57	98
-135	-120	-31
-209	-160	-46
-256	-171	-118
-270	-158	-182
-248	-124	-181
-195	-84	-161
-118	-39	-168
-26	7	-133
69	55	-3
156	104	54
216	142	113
245	161	99
237	147	49
196	104	74
131	39	71
54	-24	90
-24	-76	106
-99	-109	100
-166	-126	10
-214	-135	-90
-236	-137	-169
-224	-126	-187
-167	-94	-169
-77	-36	-213
34	40	-136
140	116	-57
216	169	-60
256	185	35
253	162	68
216	112	38
159	51	31
89	-5	22
7	-51	40
-79	-89	84
-164	-117	94
-231	-138	56
-267	-141	76
-259	-122	74
-207	-84	117
-123	-28	90
-26	27	-112
66	75	-353
139	109	-538
188	131	-265
210	148	113
203	147	178
169	126	138
107	77	-7
26	1	-42
-62	-86	-3
-140	-160	24
-193	-200	29
-213	-199	-54
-202	-160	-23
-169	-107	10
-120	-56	-35
-59	-20	10
12	11	-57
93	45	-95
172	89	-88
241	138	-113
273	174	0
257	180	-75
192	148	-114
91	82	-36
-24	5	-27
-130	-67	-3
-213	-120	16
-267	-153	7
-287	-167	-18
-280	-171	-25
-239	-159	-53
-164	-125	-92
-58	-69	-46
62	6	164
178	87	360
263	155	389
306	194	253
296	198	-77
244	171	-453
169	123	-568
78	63	-420
-14	-4	-234
-104	-70	-21
-186	-135	116
-252	-186	130
-288	-210	95
-281	-202	-15
-231	-160	-101
-135	-93	-66
-22	-16	-3
91	53	64
182	108	186
238	143	241
256	161	213
242	161	74
203	147	-113
143	113	-125
64	60	-118
-28	-6	-121
-125	-77	-118
-215	-138	-232
-277	-175	-169
-299	-183	-23
-273	-159	-38
-204	-113	-38
-103	-53	19
15	9	74
128	67	76
221	115	52
278	148	36
297	162	-50
269	154	-104
204	122	-52
110	72	-2
5	12	-30
-98	-47	-31
-185	-101	37
-242	-134	38
-263	-153	27
-250	-152	29
-202	-131	14
-125	-100	-2
-31	-48	23
69	13	74
162	80	98
232	140	112
269	180	37
265	182	-137
225	152	-265
154	95	-313
62	23	-179
-35	-41	-88
-126	-94	-145
-206	-129	-56
-262	-155	31
-287	-170	111
-276	-174	160
-224	-159	181
-135	-115	137
-24	-46	36
96	41	-76
199	127	-135
267	189	-139
290	215	-68
266	199	-38
203	153	-83
115	88	-21
12	19	-163
-91	-47	-140
-183	-108	-40
-255	-157	-83
-300	-189	14
-304	-196	-4
-267	-181	-88
-189	-135	-237
-81	-71	-211
40	-1	79
155	66	97
248	122	59
302	163	90
313	182	68
284	178	70
221	147	26
132	89	-3
31	15	-47
-74	-66	-57
-168	-134	68
-242	-176	152
-281	-183	316
-281	-160	408
-237	-111	213
-159	-49	-62
-52	12	-523
58	72	-747
158	125	-345
226	161	-76
254	171	63
245	157	215
197	110	108
125	43	72
38	-30	-56
-51	-96	-133
-135	-140	-198
-206	-162	-167
-253	-162	-86
-272	-145	-101
-256	-121	-24
-203	-89	17
-120	-49	61
-14	-2	64
97	51	68
195	106	69
266	155	63
299	182	0
287	185	2
241	159	11
163	110	-47
68	43	40
-33	-26	38
-130	-92	49
-214	-143	63
-269	-174	-70
-285	-180	-116
-262	-160	-77
-195	-120	-9
-102	-63	-5
6	0	-45
109	60	-82
190	111	-84
238	148	-40
250	164	64
225	157	162
169	129	147
95	81	116
8	18	20
-81	-49	-110
-162	-112	-195
-226	-159	-188
-262	-184	-201
-263	-182	-254
-229	-153	-109
-158	-105	-35
-59	-44	115
46	18	281
147	75	172
225	117	87
273	147	-138
287	160	-330
263	153	-201
210	130	34
129	84	-38
29	21	-168
-82	-53	-148
-182	-123	-94
-258	-174	115
-291	-191	48
-279	-171	60
-221	-123	-47
-130	-59	-192
-28	1	-54
69	50	-53
151	86	32
207	114	48
237	135	84
234	149	145
201	142	209
136	108	210
46	43	116
-53	-39	131
-152	-118	101
-229	-171	-87
-272	-185	-166
-274	-160	-179
-240	-110	-470
-173	-51	-517
-85	1	-152
13	39	34
106	68	-47
181	88	29
228	100	18
240	104	-37
216	95	1
167	71	-16
96	35	76
14	-11	87
-69	-61	41
-147	-109	11
-208	-148	2
-241	-166	-18
-237	-163	100
-194	-131	122
-110	-78	13
-4	-8	39
107	63	-115
200	126	-114
259	171	26
277	191	21
255	187	19
206	161	-26
133	115	-72
48	54	-112
-46	-16	-86
-136	-86	-27
-215	-149	41
-269	-188	43
-290	-200	-142
-271	-181	-251
-213	-134	-25
-125	-68	95
-20	4	80
81	75	44
171	130	14
234	168	77
261	177	0
249	162	1
200	121	-47
122	62	-134
30	-6	-207
-65	-72	-186
-153	-129	-46
-221	-168	28
-262	-182	82
-270	-171	29
-247	-140	-145
-188	-92	-176
-102	-35	11
3	23	10
109	77	14
199	119	19
259	145	22
279	153	64
262	139	13
216	109	31
147	64	-11
61	10	-4
-28	-45	-7
-121	-98	-17
-202	-136	17
-258	-159	4
-276	-156	9
-243	-127	29
-165	-84	65
-54	-24	65
61	37	51
163	96	2
229	140	-103
253	170	-49
240	178	199
195	162	228
131	126	8
51	67	-71
-35	-2	-432
-123	-78	-710
-200	-148	-247
-256	-200	-88
-277	-229	-131
-259	-224	-88
-205	-191	-128
-120	-131	-27
-23	-57	-56
78	21	-28
164	96	-30
228	154	34
259	190	101
253	195	56
209	170	98
135	117	68
43	45	-18
-53	-30	149
-143	-98	167
-211	-142	87
-249	-163	152
-256	-155	-9
-228	-127	-46
-169	-85	-56
-85	-34	-69
14	19	-72
111	71	-49
193	117	95
245	150	149
261	161	175
241	153	189
193	122	-11
122	75	-372
41	21	-306
-46	-35	-229
-130	-89	-313
-206	-134	-88
-261	-170	43
-279	-185	132
-251	-175	142
-178	-135	-107
-71	-68	-302
48	12	-291
158	88	-82
233	144	104
262	166	103
244	151	110
191	110	112
114	51	155
29	-4	166
-56	-53	90
-133	-93	10
-198	-123	-148
-238	-143	-118
-247	-149	-88
-221	-135	-91
-157	-96	-59
-65	-37	-132
39	38	-99
135	112	-37
209	169	-48
245	199	-11
245	194	28
212	161	31
155	106	24
86	41	42
14	-23	81
-55	-80	70
-119	-121	80
-170	-150	36
-205	-157	-27
-218	-147	-40
-205	-121	-22
-161	-87	20
-89	-42	36
-2	7	15
90	56	-52
167	104	-140
219	139	-202
232	159	-204
206	150	-158
145	113	-57
62	51	24
-30	-21	24
-118	-89	-19
-187	-140	-77
-232	-160	-1
-245	-153	99
-226	-124	125
-174	-83	91
-98	-38	-87
-4	5	-130
93	43	-130
175	83	-166
237	116	68
260	139	156
245	144	95
194	123	17
116	82	-246
23	19	-173
-69	-48	-70
-155	-108	-147
-217	-151	100
-252	-170	191
-253	-168	53
-222	-144	-15
-158	-109	-117
-70	-59	-155
25	-5	-224
117	51	-207
190	104	-84
237	141	67
252	162	130
233	161	91
188	138	93
118	97	33
33	40	-35
-60	-25	-63
-152	-94	-63
-229	-151	-141
-277	-189	0
-287	-196	232
-256	-176	199
-182	-126	110
-84	-60	16
25	9	-32
125	71	-63
204	120	-60
252	154	-4
262	170	-29
241	171	-78
189	154	-172
114	116	-249
22	55	-207
-71	-21	-179
-163	-98	-47
-234	-166	58
-276	-205	38
-277	-206	42
-237	-174	-20
-158	-111	-21
-52	-37	-5
61	36	-6
169	97	102
245	136	181
286	154	126
285	151	25
250	134	-47
184	103	-177
101	61	-154
7	11	-39
-89	-43	-7
-178	-99	103
-249	-148	62
-287	-175	-28
-282	-179	-121
-232	-152	-211
-138	-97	-142
-21	-22	-78
95	56	-47
189	121	-28
245	164	51
254	174	79
228	157	60
169	117	94
94	65	79
10	8	130
-77	-49	172
-159	-103	-40
-227	-145	-246
-267	-170	-187
-273	-170	-151
-235	-142	-118
-160	-92	2
-59	-28	-89
44	36	-162
138	91	-127
204	131	-140
236	154	-53
234	161	57
200	147	61
143	110	77
71	50	130
-7	-32	192
-86	-119	128
-152	-192	68
-199	-232	-47
-221	-227	-103
-210	-179	-31
-169	-107	-83
-101	-28	-16
-13	43	-97
83	99	-162
170	136	-122
234	159	-215
258	169	-128
245	165	-16
195	138	80
119	94	61
30	30	-8
-59	-40	29
-141	-107	139
-208	-154	164
-255	-174	123
-272	-168	93
-255	-137	-23
-199	-93	31
-109	-40	-6
0	11	-107
110	61	-51
200	108	-334
255	145	-524
272	169	-108
250	168	25
195	138	-72
113	79	-55
16	-1	-115
-86	-85	-44
-178	-153	26
-248	-189	79
-285	-192	90
-279	-164	74
-235	-121	-32
-156	-70	-7
-57	-21	112
46	24	101
144	69	77
224	112	37
271	149	104
280	168	66
253	162	-58
188	127	-176
95	67	-252
-12	-6	-184
-116	-79	-132
-203	-135	-37
-260	-169	-1
-281	-175	38
-268	-158	79
-221	-123	52
-139	-77	37
-37	-24	-12
75	31	41
180	82	53
261	127	-19
302	160	-37
302	171	49
260	162	91
180	126	53
80	66	31
-26	-7	-25
-128	-84	-91
-210	-144	-132
-268	-181	-115
-288	-183	-141
-269	-154	-126
-208	-102	-76
-115	-41	81
-8	20	234
98	74	191
181	114	110
231	149	-172
244	170	-527
221	174	-479
167	154	-102
93	104	16
4	23	4
-91	-74	103
-173	-164	46
-234	-228	58
-259	-246	70
-246	-222	-57
-194	-162	-166
-117	-87	-110
-24	-16	-26
67	47	24
149	98	90
209	137	160
244	165	122
249	174	14
221	162	54
160	120	40
74	57	-14
-28	-17	-30
-131	-85	-109
-218	-136	-64
-276	-168	10
-296	-179	-48
-271	-174	-96
-206	-149	-171
-106	-103	-109
12	-37	-4
131	40	141
231	121	228
292	188	162
308	227	28
276	233	-39
207	205	39
116	148	-93
19	68	-257
-78	-21	-197
-159	-114	-62
-224	-190	-219
-260	-233	-194
-263	-236	-92
-231	-195	-182
-162	-129	-28
-69	-56	13
31	4	22
121	45	17
189	74	24
228	97	22
236	126	38
215	153	87
169	161	28
98	131	2
8	65	-103
-91	-27	-108
-183	-121	43
-250	-183	63
-277	-200	18
-253	-174	15
-189	-121	-4
-97	-60	-37
7	-2	-13
101	47	14
175	93	-12
229	133	14
253	166	6
248	177	16
212	161	10
148	115	-83
63	47	-48
-36	-24	19
-133	-92	-25
-215	-141	-12
-272	-175	4
-292	-189	-16
-275	-183	30
-218	-156	-31
-131	-101	-116
-24	-29	-132
86	50	-161
180	119	-132
242	166	-32
266	183	87
252	171	126
204	139	140
135	95	118
50	41	56
-37	-17	40
-125	-78	-50
-201	-133	-96
-257	-173	-100
-277	-183	-172
-256	-165	-178
-194	-116	-18
-103	-52	149
1	11	141
99	63	61
172	100	-24
214	122	-185
225	132	-279
208	131	-135
170	112	-156
111	71	-138
40	11	-96
-40	-58	-62
-120	-120	82
-189	-159	3
-229	-163	164
-234	-137	121
-200	-94	-118
-129	-46	-33
-36	-4	-17
64	33	-67
155	65	-71
225	98	-38
255	124	-39
251	141	6
209	137	0
138	106	21
52	53	-99
-40	-9	-279
-121	-67	-118
-186	-114	81
-227	-143	97
-241	-154	26
-225	-151	66
-181	-129	161
-108	-90	130
-18	-31	110
81	38	135
170	109	211
234	161	278
259	183	186
242	171	-78
187	137	-392
107	86	-419
21	30	-308
-62	-24	-269
-136	-78	-149
-194	-130	-41
-237	-176	24
-259	-202	45
-251	-198	49
-204	-159	49
-119	-88	34
-8	0	2
110	83	-40
208	147	-102
268	182	-192
276	191	-110
241	174	-8
171	141	25
83	88	112
-14	17	124
-104	-60	79
-185	-133	13
-247	-181	-54
-277	-192	-69
-269	-170	-45
-221	-123	20
-133	-69	68
-23	-22	19
89	15	-101
188	50	-57
256	88	-14
290	130	-90
288	169	14
252	183	66
186	162	26
97	103	-27
-5	16	-83
-111	-74	-96
-204	-144	-133
-272	-183	-127
-302	-186	-92
-287	-163	-2
-229	-123	130
-138	-74	256
-28	-19	225
83	41	85
178	101	-26
244	152	-198
269	183	-302
257	180	-127
208	143	-126
132	78	-83
41	-2	87
-53	-83	-52
-144	-147	-63
-218	-187	-150
-263	-202	-215
-277	-190	-113
-249	-156	13
-187	-102	127
-96	-39	93
8	28	4
107	90	-208
187	139	-261
236	174	-68
245	185	20
225	171	91
171	129	133
96	66	80
8	-13	116
-80	-95	87
-156	-158	74
-208	-189	82
-234	-181	6
-225	-142	-48
-184	-86	-126
-118	-29	-105
-32	15	35
63	49	68
155	76	38
234	104	16
279	132	3
287	157	28
249	162	12
169	138	-55
62	85	-222
-53	11	-255
-161	-66	-113
-248	-136	-42
-303	-184	-51
-319	-210	-101
-298	-215	-32
-236	-195	48
-134	-148	56
-6	-71	60
130	26	43
249	130	46
326	218	112
346	264	178
306	261	155
222	209	28
113	127	-255
-1	35	-353
-101	-48	-219
-182	-116	-130
-237	-166	-67
-267	-196	-21
-264	-211	15
-232	-200	-12
-164	-164	16
-67	-98	29
40	-15	-11
140	70	-43
216	141	-28
258	183	52
258	193	130
227	170	137
166	125	8
90	66	-157
2	2	-232
-88	-58	-211
-170	-110	-127
-237	-143	36
-273	-160	91
-274	-157	95
-237	-134	130
-164	-101	64
-66	-54	-10
40	-1	-55
139	58	-56
216	117	-15
259	162	99
262	182	159
224	169	-3
154	123	-135
63	56	-264
-31	-17	-348
-121	-81	-101
-193	-123	-11
-239	-147	-78
-256	-157	42
-241	-156	-17
-194	-144	-8
-118	-115	25
-22	-63	13
81	6	7
172	85	-45
238	152	-41
263	189	-50
251	189	3
200	150	56
122	91	52
32	23	-68
-60	-38	-85
-143	-90	-78
-212	-127	-39
-252	-154	196
-261	-163	232
-234	-153	186
-170	-119	87
-81	-62	-88
22	7	-103
120	76	13
201	131	-66
249	165	-249
262	171	-205
242	153	-241
194	115	-223
123	66	-48
39	9	66
-51	-51	8
-141	-108	-19
-218	-158	0
-272	-186	-51
-285	-188	-11
-256	-163	4
-183	-108	16
-76	-37	33
41	37	41
152	103	21
234	147	24
276	166	51
280	163	-14
245	142	4
184	108	1
102	65	-75
7	14	-64
-91	-43	-22
-182	-101	37
-253	-149	15
-287	-174	-57
-279	-171	-62
-228	-135	-29
-144	-79	48
-42	-14	141
57	45	181
141	92	164
203	122	14
236	138	-71
238	143	-123
212	131	-316
161	98	-327
85	39	-114
-5	-36	-26
-98	-116	-49
-180	-177	-71
-239	-202	-109
-260	-190	-97
-245	-144	5
-191	-85	130
-110	-26	184
-10	26	221
95	70	195
188	110	-123
255	149	-214
284	179	-19
273	189	-235
216	166	-136
128	106	-39
20	20	-138
-94	-75	59
-194	-157	21
-264	-204	95
-300	-211	122
-287	-181	-25
-232	-124	-87
-142	-61	-185
-35	1	-275
72	52	-106
162	92	-7
223	122	-37
248	143	44
241	151	85
202	140	147
139	106	109
57	47	9
-36	-29	-150
-130	-109	-149
-213	-173	-149
-267	-205	-107
-285	-199	5
-258	-159	20
-191	-101	70
-98	-37	43
9	19	37
111	66	26
194	109	34
248	145	-18
271	174	-27
260	183	-10
215	165	26
139	113	47
44	34	8
-59	-54	16
-156	-131	-13
-230	-177	-8
-269	-189	-34
-269	-169	-4
-229	-131	-2
-158	-84	-9
-63	-34	-6
38	16	-59
132	69	-47
210	119	-28
255	160	-56
265	178	-57
238	168	-33
175	126	-2
90	65	-25
-7	-6	-60
-103	-72	-24
-187	-126	-45
-248	-164	-95
-279	-180	-179
-273	-175	-140
-232	-149	-44
-156	-99	-10
-54	-36	51
57	32	80
162	93	155
242	136	96
283	155	-76
283	153	-59
244	131	57
172	96	65
82	48	56
-18	-9	7
-117	-72	-8
-203	-133	4
-266	-177	-76
-291	-189	-143
-272	-167	-320
-212	-113	-301
-116	-45	-63
-6	26	-123
101	81	-101
184	118	-106
236	138	-162
249	145	-4
233	139	-3
184	117	59
117	76	95
34	13	96
-52	-59	172
-136	-127	203
-202	-174	247
-237	-185	170
-237	-162	59
-196	-113	1
-126	-54	-184
-37	3	-231
54	49	-68
136	85	37
198	110	41
230	127	-69
234	135	-125
208	130	-169
154	108	-180
76	70	-164
-19	19	-34
-122	-37	42
-218	-93	7
-290	-137	51
-321	-169	11
-300	-175	-110
-228	-155	-134
-112	-110	-64
21	-46	-83
147	23	10
238	84	119
283	120	118
280	132	140
245	123	20
191	100	-113
127	72	-81
61	42	-18
-11	10	20
-91	-34	14
-175	-84	-19
-248	-134	9
-291	-171	-19
-287	-174	-50
-229	-138	-79
-125	-66	-124
1	20	-68
118	103	-54
207	161	-100
252	182	-64
251	174	1
210	141	26
141	97	32
56	46	64
-38	-8	102
-129	-65	101
-207	-122	65
-259	-170	72
-276	-196	94
-250	-196	-96
-185	-166	-134
-88	-107	-24
27	-30	-144
139	48	-51
237	121	15
299	174	-43
320	202	-7
300	202	-160
242	174	-132
159	120	-23
62	52	-63
-39	-20	-22
-130	-88	-34
-209	-140	-27
-267	-174	1
-297	-184	-12
-291	-171	-32
-249	-137	-58
-172	-87	-32
-68	-27	-26
42	34	-26
140	86	29
214	124	35
251	144	0
251	143	-14
216	123	-17
156	88	-8
76	39	-5
-15	-20	80
-112	-81	166
-195	-133	143
-257	-166	48
-278	-170	-93
-255	-147	-282
-189	-97	-219
-94	-38	72
14	22	10
116	75	-119
194	113	-156
239	140	-264
245	153	-201
221	150	-100
166	128	-20
90	85	-6
2	16	21
-89	-61	38
-168	-135	10
-229	-189	15
-258	-208	-5
-248	-192	72
-199	-145	108
-119	-83	117
-20	-13	175
84	51	145
172	104	-65
237	147	-152
266	174	-76
263	192	-69
230	186	23
170	155	123
90	96	192
-1	13	190
-96	-79	127
-182	-161	15
-245	-214	-228
-273	-227	-332
-262	-195	-214
-213	-134	-256
-130	-62	-268
-35	3	-91
61	51	-166
143	85	-145
202	106	-16
231	125	-24
226	137	22
190	133	6
126	106	-31
42	48	-42
-49	-31	-6
-136	-111	39
-206	-166	61
-247	-183	78
-253	-163	42
-224	-114	5
-161	-56	-31
-77	-6	-23
21	32	11
115	63	74
194	95	155
245	123	216
262	148	224
244	151	112
195	131	-6
125	88	-112
40	29	-167
-47	-28	-131
-131	-78	-122
-204	-113	-239
-255	-136	-378
-277	-149	-139
-262	-150	75
-212	-131	49
-128	-92	120
-27	-32	65
78	36	12
170	99	-92
234	138	-178
260	147	-198
251	124	-21
208	80	171
137	24	99
51	-28	83
-42	-76	-124
-129	-113	-184
-201	-137	-55
-241	-144	-66
-245	-137	-66
-204	-113	32
-128	-69	97
-28	-15	77
78	48	53
171	108	-17
236	159	-65
259	186	-88
241	183	-51
186	150	1
109	88	17
18	16	25
-74	-55	-5
-156	-110	-5
-223	-142	-6
-262	-155	-20
-271	-152	-24
-245	-135	-65
-182	-107	-153
-91	-61	-40
15	0	39
118	70	-30
201	136	32
251	183	93
263	195	129
238	171	111
182	117	41
105	51	-9
16	-17	-10
-75	-76	-1
-158	-120	6
-226	-155	-24
-263	-174	-13
-267	-175	-56
-234	-156	-184
-162	-112	-162
-64	-49	-189
42	19	24
143	83	7
219	128	-412
261	153	-363
265	155	-26
232	138	-17
169	108	-61
83	62	16
-14	1	87
-111	-66	50
-195	-132	-77
-258	-178	-49
-285	-192	-51
-270	-175	-97
-214	-129	-112
-128	-71	-37
-24	-11	46
81	43	61
169	91	124
231	130	161
261	161	159
253	171	145
216	161	62
154	122	-46
70	59	-83
-20	-11	2
-113	-78	104
-191	-126	89
-246	-156	77
-263	-164	21
-245	-154	-32
-184	-127	-54
-90	-78	-97
20	-12	-129
128	65	-129
212	137	-53
262	183	-61
269	195	-16
239	168	3
180	110	-82
102	43	-120
14	-18	-252
-75	-68	-249
-160	-109	-142
-232	-139	-90
-276	-161	44
-285	-170	91
-249	-158	170
-174	-119	141
-67	-58	77
46	11	26
150	80	-51
225	131	-59
260	164	-31
258	170	8
222	157	38
160	120	86
78	65	75
-14	1	129
-110	-69	138
-197	-130	24
-262	-173	-95
-295	-183	-222
-281	-165	-366
-226	-124	-294
-132	-69	-99
-21	-14	30
92	39	33
193	85	-13
265	126	-37
302	159	-23
299	177	69
254	171	31
171	132	-31
62	67	-10
-59	-21	-3
-173	-110	-77
-260	-179	-111
-305	-215	-77
-302	-209	-21
-253	-174	-2
-172	-117	5
-70	-54	8
35	5	28
131	60	111
211	109	186
260	150	233
274	179	160
251	183	31
191	158	-241
102	103	-509
-1	27	-479
-106	-53	-198
-200	-123	54
-268	-171	71
-304	-194	63
-299	-192	54
-252	-171	71
-165	-129	40
-47	-68	-6
82	6	-16
199	87	-59
283	162	3
323	211	65
310	228	-8
257	202	-96
175	145	-22
85	68	-6
-10	-14	-36
-100	-89	-60
-184	-151	-35
-253	-186	95
-291	-196	24
-292	-179	-36
-245	-136	-9
-154	-78	19
-38	-13	4
80	45	-22
172	95	-43
229	123	-93
245	138	-57
228	138	-19
184	125	2
126	97	11
52	53	1
-30	-2	-20
-118	-61	-13
-197	-113	-30
-252	-145	-41
-269	-154	-16
-242	-135	-3
-175	-99	29
-80	-51	27
24	1	-30
123	51	-24
200	98	19
245	134	1
261	155	-17
238	155	-53
182	129	-97
101	78	-8
6	9	58
-93	-65	0
-181	-131	-105
-248	-176	-210
-284	-195	-231
-282	-185	-174
-244	-153	-122
-169	-103	-49
-66	-45	61
46	16	85
152	78	118
236	128	125
280	166	7
284	180	-49
249	170	-55
183	131	-30
94	66	-22
-4	-10	-59
-101	-88	-40
-187	-150	-59
-248	-186	-142
-273	-187	19
-255	-153	122
-198	-96	81
-109	-23	98
-6	43	-113
91	98	-194
166	134	-215
209	151	-136
216	153	-19
198	137	-15
155	106	60
95	53	34
26	-14	38
-46	-93	-15
-116	-164	30
-174	-208	75
-210	-215	45
-215	-181	9
-188	-120	-75
-125	-51	-14
-40	10	4
54	57	45
143	93	69
210	122	60
245	150	91
248	171	61
216	177	-8
162	153	-66
84	97	-241
-6	19	-374
-98	-62	-135
-184	-127	-30
-253	-167	-91
-291	-174	-53
-292	-161	-115
-253	-131	-41
-174	-96	79
-67	-53	13
44	-6	-71
151	41	-70
228	89	-49
268	124	11
269	143	51
237	142	45
175	119	63
94	79	51
0	22	41
-97	-41	16
-182	-106	25
-245	-157	57
-271	-181	26
-253	-173	57
-194	-131	124
-105	-66	186
-1	5	178
99	70	99
180	123	0
236	159	-239
257	178	-306
245	181	-234
200	158	-282
128	109	-290
33	31	-291
-69	-60	-120
-169	-148	-16
-245	-207	-24
-290	-228	47
-295	-210	65
-255	-164	162
-182	-109	187
-83	-50	159
26	6	52
130	63	-64
214	121	-65
265	171	-129
279	202	-175
253	198	-174
193	157	-165
107	84	-30
7	-3	68
-94	-82	70
-185	-141	80
-253	-175	31
-291	-186	111
-287	-174	213
-241	-147	231
-154	-99	152
-41	-33	-166
81	39	-345
189	110	-182
266	168	0
300	196	25
288	193	-23
234	158	-85
153	98	-154
54	20	-160
-47	-59	-154
-138	-131	-98
-213	-178	-18
-259	-196	1
-275	-181	57
-253	-142	39
-199	-91	-9
-115	-38	67
-12	9	85
94	51	49
189	90	-6
253	130	-54
277	164	3
259	181	-16
203	171	-80
119	132	-118
20	66	-39
-80	-14	70
-170	-91	5
-241	-150	-27
-284	-182	72
-287	-187	149
-247	-167	134
-164	-124	144
-48	-66	-21
77	-2	-187
188	64	-232
265	120	-322
296	155	-261
280	162	-189
229	140	-144
155	99	-84
72	45	-25
-12	-11	51
-91	-63	58
-168	-106	36
-232	-139	29
-274	-159	41
-282	-165	57
-251	-152	43
-178	-116	7
-72	-63	27
42	4	10
150	70	0
227	130	-6
262	169	-11
261	183	4
222	171	10
156	136	34
76	85	35
-14	24	74
-104	-39	58
-182	-99	-59
-244	-145	-67
-273	-170	4
-262	-169	10
-210	-139	32
-122	-87	17
-12	-22	-53
101	42	-84
196	97	-108
261	133	-159
280	149	-127
263	143	46
209	117	155
129	75	169
33	21	72
-63	-39	-236
-151	-96	-535
-217	-139	-397
-258	-163	-92
-264	-166	8
-237	-148	89
-178	-116	56
-93	-74	-34
9	-23	-129
111	32	-74
198	91	60
255	142	66
271	174	108
245	182	151
181	153	178
91	95	145
-7	19	77
-101	-51	-128
-178	-106	-265
-233	-134	-80
-260	-139	-56
-255	-126	-103
-218	-103	34
-151	-76	50
-58	-41	42
48	-1	1
154	48	-28
240	97	-30
291	138	-99
299	161	-74
262	152	-11
184	113	15
85	49	44
-24	-23	10
-127	-96	-124
-212	-151	-68
-262	-182	18
-279	-185	43
-258	-161	95
-199	-116	54
-113	-55	32
-12	10	-10
93	75	-72
180	128	-172
239	163	-162
261	177	56
242	166	83
190	133	11
112	81	-44
20	19	-185
-72	-45	-259
-158	-102	-157
-224	-142	-48
-266	-164	-43
-276	-164	11
-250	-145	31
-187	-111	9
-93	-62	3
15	-7	39
122	51	65
207	104	54
257	142	87
265	157	84
236	144	54
175	106	2
99	48	-71
18	-15	-130
-63	-76	-163
-136	-121	-192
-199	-151	-137
-241	-158	-4
-251	-147	-9
-221	-118	28
-152	-77	22
-52	-27	-22
58	28	5
158	80	-31
230	126	-43
262	160	-3
254	174	50
212	165	60
148	128	84
63	68	113
-28	-6	247
-120	-79	377
-200	-135	265
-253	-162	9
-269	-152	-223
-240	-113	-371
-172	-56	-282
-78	1	-157
23	48	-273
111	80	-268
170	97	-154
196	102	-155
191	97	-182
159	82	-312
109	53	-328
44	12	-143
-21	-43	-16
-88	-101	159
-142	-150	201
-181	-177	204
-194	-176	164
-180	-152	79
-141	-107	61
-85	-57	14
-18	-7	71
56	39	80
128	81	43
195	121	53
245	157	34
269	180	24
258	181	0
204	154	-32
117	96	-20
7	17	-2
-102	-62	-13
-193	-131	-12
-253	-171	-13
-278	-182	-16
-269	-164	-25
-227	-127	-37
-156	-80	-38
-61	-26	-36
41	29	-18
141	84	-28
219	131	-34
261	164	-2
255	171	5
211	153	38
135	106	155
44	42	371
-54	-28	614
-151	-94	509
-234	-137	17
-296	-149	-488
-314	-129	-990
-285	-83	-1023
-203	-28	-432
-86	14	103
40	29	54
147	15	91
214	-14	-92
245	-35	-113
250	-28	-181
241	10	-182
224	64	-135
190	104	-3
125	100	82
24	40	120
-105	-55	124
-231	-150	118
-313	-206	118
-329	-200	90
-271	-142	92
-162	-57	65
-38	22	52
70	77	37
150	106	30
197	123	20
222	140	10
228	160	-4
212	168	-31
170	147	-24
93	89	-28
-7	6	-30
-116	-83	-30
-207	-151	-30
-264	-183	-26
-281	-179	-24
-259	-151	-24
-205	-111	-33
-128	-68	-46
-36	-23	-54
64	30	-59
159	88	-48
234	140	-25
274	178	-7
269	185	11
223	161	51
145	110	104
52	44	147
-42	-24	249
-130	-83	374
-206	-130	207
-262	-161	-142
-291	-174	-338
-281	-165	-666
-233	-129	-631
-144	-76	-118
-36	-11	78
70	46	110
159	89	-58
211	105	-176
234	101	-338
228	85	-391
204	62	-215
165	37	-108
107	4	66
28	-39	69
-63	-89	155
-152	-136	155
-214	-163	96
-231	-158	60
-194	-115	36
-117	-45	65
-22	30	37
66	94	40
135	130	14
180	143	31
205	139	47
212	131	78
203	120	59
169	101	42
106	64	27
17	12	-8
-84	-54	-3
-181	-117	-3
-251	-159	24
-282	-174	13
-273	-158	5
-228	-120	-11
-153	-72	-49
-59	-18	-93
41	36	-106
137	90	-27
211	137	90
252	166	102
248	171	5
204	145	-64
132	96	-106
44	32	-199
-43	-31	-184
-123	-85	5
-189	-125	38
-239	-151	-63
-262	-163	-23
-253	-159	-46
-205	-137	-211
-119	-95	-145
-10	-38	61
102	26	-59
193	85	-135
248	128	-125
261	150	-133
236	149	-2
179	123	38
104	76	104
16	11	142
-75	-61	130
-160	-127	37
-228	-170	-22
-262	-184	7
-258	-165	69
-213	-121	161
-136	-66	69
-40	-11	-119
58	40	-222
148	86	-190
216	125	-50
254	155	38
260	166	-31
229	153	-33
165	110	-85
75	47	-132
-27	-25	-70
-126	-91	-43
-206	-136	8
-259	-159	22
-280	-159	56
-262	-139	65
-212	-106	32
-126	-58	-57
-19	-4	-114
100	54	-25
207	110	124
283	150	164
316	171	164
300	171	160
241	151	61
154	113	-166
52	63	-330
-50	2	-255
-144	-61	-260
-226	-124	-257
-279	-171	-147
-300	-196	-10
-278	-195	32
-213	-162	-65
-112	-108	-51
7	-38	-46
122	32	24
214	95	51
268	140	40
276	160	61
244	154	30
181	121	70
97	68	119
2	4	180
-91	-58	177
-174	-107	95
-236	-137	28
-269	-143	-67
-263	-131	-265
-224	-103	-239
-150	-65	-2
-52	-20	-17
50	27	-27
148	72	8
221	115	-20
265	143	7
273	154	-24
248	142	-20
191	106	-46
107	51	-85
9	-17	-74
-95	-86	-22
-189	-144	47
-259	-179	42
-288	-185	-35
-273	-162	-122
-212	-111	-71
-120	-49	-40
-12	18	-40
93	79	17
178	126	-9
234	153	-2
251	161	75
236	149	167
190	117	234
122	74	127
36	22	-54
-53	-31	-262
-143	-80	-456
-215	-116	-414
-264	-137	-149
-281	-144	5
-262	-138	-42
-205	-122	-25
-118	-97	65
-10	-60	102
103	-9	65
204	51	55
275	113	41
302	161	11
280	174	17
214	150	17
117	89	56
12	8	89
-87	-68	74
-163	-125	-16
-214	-151	-211
-239	-152	-181
-237	-134	-2
-208	-110	-61
-152	-80	-48
-70	-39	-10
26	12	-29
124	77	22
205	140	-45
251	192	-151
257	209	-127
219	189	-20
151	131	44
60	49	49
-35	-35	0
-124	-111	15
-198	-164	39
-243	-190	-4
-257	-191	-35
-236	-167	-54
-181	-124	-95
-99	-66	-95
0	-1	-25
98	66	-46
186	124	13
245	163	45
270	177	34
256	164	36
206	129	9
129	79	85
37	22	192
-55	-36	278
-139	-87	225
-206	-129	13
-250	-158	-251
-262	-163	-260
-239	-145	-322
-180	-104	-345
-91	-50	-72
12	7	5
111	57	10
189	88	-86
233	108	-197
238	115	-204
212	117	-168
161	108	-66
93	84	-5
10	37	74
-81	-30	95
-170	-107	108
-242	-171	125
-282	-205	76
-281	-196	28
-233	-152	3
-144	-85	87
-36	-18	164
74	43	110
169	89	112
237	129	-59
275	165	-230
279	190	-198
251	193	-91
187	164	2
95	100	-32
-15	8	-19
-128	-85	-64
-222	-157	-55
-281	-191	-57
-300	-189	-20
-274	-160	-28
-211	-120	-68
-120	-78	-55
-14	-33	-170
94	16	-111
190	74	-3
261	133	24
295	180	52
287	201	56
236	182	46
152	129	44
50	50	25
-55	-35	72
-151	-108	26
-225	-160	4
-267	-181	68
-273	-177	-50
-242	-150	-215
-177	-108	-157
-86	-58	-97
14	-9	-105
110	36	2
184	77	-12
231	110	31
244	136	111
223	150	87
178	140	-40
107	104	-101
20	38	-116
-81	-45	-107
-175	-128	-7
-255	-186	-80
-300	-205	-41
-298	-179	26
-249	-122	10
-162	-55	17
-53	4	-26
57	45	-40
155	77	-51
226	103	-43
266	127	89
269	147	105
244	148	1
186	123	-23
105	70	-120
10	2	-149
-86	-70	-66
-172	-127	98
-232	-164	145
-260	-175	40
-250	-165	-39
-201	-137	-117
-123	-92	-107
-24	-33	-101
80	39	-74
170	110	-33
234	165	-1
261	192	25
248	184	7
200	148	-6
125	89	-23
34	25	17
-63	-38	43
-158	-93	48
-236	-135	25
-288	-162	-135
-304	-169	-208
-275	-155	-17
-201	-121	91
-91	-74	118
36	-17	134
162	40	29
262	96	-16
325	147	-67
339	183	-112
306	197	-153
234	177	-130
127	120	-89
7	33	-67
-112	-64	-166
-210	-148	-111
-279	-195	52
-304	-196	-30
-287	-167	-20
-236	-119	-48
-159	-71	-43
-66	-32	-17
32	7	-53
127	50	22
205	103	74
253	153	87
262	183	105
231	178	74
162	130	-39
68	52	-76
-33	-35	-56
-126	-109	-90
-198	-154	-92
-245	-170	-53
-262	-163	-11
-248	-144	8
-202	-114	38
-124	-74	104
-24	-21	115
85	38	46
181	98	-46
248	142	-76
274	165	-72
259	161	-58
210	132	-84
136	91	-149
50	36	-145
-40	-22	-88
-127	-84	-111
-204	-139	-59
-259	-176	17
-281	-188	-3
-260	-166	147
-195	-115	196
-96	-45	162
21	28	81
135	93	-130
229	143	-236
281	174	-233
296	185	-207
262	169	-125
192	126	1
93	56	53
-18	-27	107
-125	-103	123
-213	-159	95
-267	-178	134
-281	-167	129
-260	-134	-35
-207	-98	-128
-130	-62	-100
-41	-31	-70
52	3	-92
143	47	-147
216	97	-145
262	141	-101
270	166	3
241	161	0
175	123	59
86	65	44
-17	1	-84
-115	-58	-44
-199	-105	16
-259	-137	25
-282	-156	0
-271	-159	-18
-218	-144	-37
-134	-109	-36
-28	-54	-100
84	17	-100
180	91	-120
248	153	-127
275	191	-57
259	197	-45
206	168	23
130	109	64
37	33	178
-53	-50	160
-136	-125	106
-198	-179	101
-237	-206	-12
-244	-198	-46
-215	-160	-50
-156	-98	-63
-69	-25	-79
28	45	89
123	102	113
200	137	-1
245	150	-88
251	143	-186
219	121	-223
159	87	-278
79	45	-71
-10	-3	-1
-101	-54	-63
-181	-101	-44
-244	-139	-18
-276	-160	142
-273	-161	229
-229	-140	219
-145	-100	117
-36	-44	-38
83	24	-249
191	97	-397
270	164	-234
306	210	-101
299	223	-34
244	194	-11
157	126	16
49	35	113
-61	-61	111
-161	-145	134
-237	-198	69
-278	-216	14
-282	-201	-96
-253	-164	-170
-191	-107	-161
-104	-41	-125
-3	27	39
99	91	37
186	145	31
245	178	46
266	183	0
245	164	-7
191	121	-76
109	65	-96
16	1	-82
-77	-60	-91
-162	-116	-39
-227	-159	24
-264	-183	68
-269	-185	60
-233	-164	19
-159	-121	46
-56	-62	50
59	4	8
164	69	-1
242	127	36
277	168	95
273	188	120
234	180	159
167	143	123
85	85	-197
-5	13	-262
-96	-59	-66
-184	-119	-300
-253	-157	-259
-295	-171	-64
-295	-164	-70
-252	-139	-3
-170	-105	-126
-61	-59	-162
52	-6	-198
156	51	-106
231	106	13
270	153	33
269	171	54
232	158	42
164	112	113
74	43	106
-21	-29	104
-112	-91	55
-184	-127	53
-228	-139	46
-238	-130	5
-215	-108	25
-161	-79	-4
-83	-44	1
10	-2	0
105	48	-32
184	103	-95
239	150	-80
255	174	-41
234	171	-35
175	136	40
96	76	41
3	5	42
-89	-64	42
-168	-120	-67
-229	-157	-125
-262	-176	-261
-264	-176	-332
-232	-157	-70
-164	-117	74
-70	-62	49
36	2	19
133	64	-24
211	114	16
251	144	-12
253	149	-32
221	133	-32
161	100	-1
80	53	26
-8	1	21
-99	-54	36
-178	-103	-53
-236	-139	-37
-263	-154	28
-255	-145	-109
-209	-117	-106
-130	-72	8
-33	-21	-27
68	31	22
158	81	18
222	126	0
253	159	74
250	174	-21
212	165	-125
150	121	-56
70	54	-63
-14	-26	-72
-96	-101	-46
-168	-156	-71
-217	-181	-2
-244	-175	46
-236	-148	98
-193	-103	102
-116	-50	91
-17	8	-20
90	68	-224
184	129	-269
245	174	-215
266	196	-114
241	183	-86
175	133	6
89	57	149
-8	-31	87
-101	-111	52
-180	-166	-5
-233	-192	19
-260	-191	94
-257	-169	103
-221	-135	140
-153	-96	52
-63	-49	-26
39	3	-120
139	61	-175
219	120	-210
266	166	-173
269	193	-48
234	183	-70
159	143	-44
65	77	-23
-34	-2	10
-125	-78	87
-195	-135	138
-242	-167	119
-257	-171	-17
-240	-151	-50
-190	-111	-135
-113	-60	-91
-14	-5	80
89	48	42
183	95	134
253	130	-7
289	152	-243
288	159	-115
251	147	-39
181	115	-7
85	62	155
-23	-7	118
-135	-86	-77
-231	-156	-111
-296	-200	-108
-316	-208	-109
-288	-177	-66
-217	-121	-7
-116	-51	-42
-3	13	-157
104	63	-86
191	102	-5
245	126	-66
266	142	-71
249	143	-87
198	125	-55
115	79	-9
15	12	16
-91	-61	36
-185	-126	3
-255	-162	30
-287	-169	133
-281	-150	191
-235	-116	246
-156	-77	288
-50	-30	184
64	23	10
172	89	-319
257	155	-572
301	207	-468
299	227	-269
248	202	-22
162	134	64
54	40	26
-55	-54	22
-153	-136	-37
-231	-189	44
-276	-214	33
-288	-212	18
-261	-190	4
-195	-149	-12
-100	-87	10
16	-12	39
130	67	151
223	136	200
279	185	117
291	203	-31
262	191	-86
202	160	-226
121	110	-286
35	51	-133
-54	-12	-68
-137	-79	19
-209	-139	39
-262	-184	59
-281	-204	78
-263	-192	43
-205	-149	52
-111	-85	-25
2	-10	-94
111	60	-139
201	117	-68
252	157	14
262	174	93
237	171	134
180	145	57
102	99	18
13	33	-91
-81	-40	-230
-170	-111	-122
-242	-167	69
-286	-195	185
-290	-198	181
-248	-173	23
-165	-127	-144
-53	-68	-209
64	-1	-249
169	63	-257
241	120	-143
273	160	13
266	174	91
226	158	46
161	116	36
77	52	-94
-12	-17	-236
-103	-77	-64
-178	-115	-24
-234	-127	-103
-257	-121	-41
-245	-105	-9
-200	-86	45
-126	-66	6
-32	-38	52
69	1	163
165	58	205
242	122	222
283	177	176
284	203	70
242	185	-185
162	126	-268
56	40	-133
-55	-50	-133
-157	-126	-126
-234	-170	-77
-278	-183	-96
-285	-171	-48
-255	-142	-2
-191	-104	26
-103	-56	2
-4	-3	-5
93	56	40
172	115	1
226	158	-68
245	181	32
229	170	82
182	127	-50
111	58	-25
32	-22	6
-55	-100	12
-133	-159	68
-194	-190	3
-226	-191	-83
-226	-164	-69
-191	-121	-60
-126	-71	-57
-42	-21	-19
51	26	19
138	74	95
208	119	129
250	158	15
257	182	-20
229	183	-69
167	154	-333
81	95	-357
-20	18	-139
-120	-64	54
-208	-133	134
-267	-179	149
-292	-195	135
-277	-183	42
-222	-148	-48
-133	-90	-96
-22	-21	-135
90	55	-137
187	123	5
249	174	-15
269	197	-219
249	186	-331
195	145	-172
118	79	24
28	1	122
-63	-78	164
-151	-143	116
-224	-186	68
-270	-200	8
-281	-184	-64
-251	-144	-121
-181	-90	-39
-82	-29	37
26	26	132
128	72	185
204	106	133
249	135	70
259	153	-123
241	160	-291
194	145	-212
125	106	16
38	41	24
-57	-39	-17
-151	-118	-6
-226	-177	18
-269	-200	30
-271	-186	19
-229	-142	-54
-154	-82	-112
-55	-18	-124
48	40	-125
142	88	-24
214	130	-15
252	158	77
250	171	116
210	164	84
139	127	7
46	66	-44
-50	-12	-98
-138	-90	-173
-204	-155	-27
-241	-195	98
-241	-207	160
-206	-192	74
-142	-150	5
-53	-88	-35
42	-8	-58
139	75	-65
214	153	-171
261	207	-182
269	230	-222
244	215	-247
186	164	-105
104	90	91
11	5	149
-89	-77	130
-180	-144	52
-253	-190	-48
-295	-213	-91
-296	-205	-64
-253	-170	-48
-175	-115	-17
-76	-48	39
31	19	23
125	76	15
198	119	0
242	145	-8
254	160	-1
234	158	-10
184	138	-89
111	100	-86
20	38	26
-81	-35	-20
-173	-108	-48
-240	-162	1
-274	-183	26
-267	-169	111
-223	-127	119
-142	-70	123
-42	-13	17
64	36	-166
159	77	-175
228	109	-183
262	136	-172
257	150	-118
216	148	-44
150	116	14
63	57	43
-30	-21	53
-122	-102	34
-202	-166	97
-259	-199	87
-281	-196	20
-264	-163	-60
-206	-114	-58
-112	-54	-123
2	2	-167
116	56	-59
211	106	-112
273	154	-24
295	187	3
273	194	-30
216	170	69
135	110	70
38	28	42
-60	-58	-20
-151	-127	-87
-221	-171	-104
-262	-184	-55
-271	-173	-4
-243	-145	-15
-181	-109	46
-95	-64	85
6	-9	13
106	54	-15
188	117	-63
242	170	-218
254	196	-244
229	189	-42
170	148	182
87	81	127
-3	3	0
-94	-72	-101
-170	-135	-313
-232	-177	-295
-262	-192	-67
-263	-185	19
-228	-154	81
-154	-103	196
-52	-40	195
61	29	123
166	97	47
245	155	-14
288	193	-61
287	204	-84
244	182	-50
166	126	20
67	45	14
-35	-43	-44
-133	-119	-40
-210	-170	-104
-256	-185	-18
-264	-170	330
-236	-135	323
-174	-92	156
-87	-45	-100
11	4	-419
107	56	-500
189	108	-488
244	153	-175
262	171	-58
242	161	50
186	113	109
98	44	79
0	-30	66
-99	-94	-72
-180	-136	-53
-236	-160	-48
-262	-164	22
-258	-158	24
-223	-137	53
-160	-105	97
-74	-51	135
26	11	142
125	78	41
208	136	-14
259	174	-107
269	188	-105
241	174	45
180	139	64
98	88	23
7	23	-10
-83	-47	-112
-165	-115	-161
-227	-167	-129
-261	-191	-39
-259	-182	-49
-217	-142	-2
-142	-83	-1
-43	-14	-32
59	48	-24
150	99	-32
212	135	84
245	155	121
242	159	84
208	140	21
150	103	-151
70	43	-308
-18	-26	-173
-109	-93	53
-190	-141	30
-250	-167	66
-276	-168	81
-267	-152	16
-217	-122	-36
-134	-83	-121
-25	-34	-133
93	26	-82
199	89	30
279	147	98
314	189	108
301	197	-26
242	171	-32
151	117	155
42	46	51
-63	-27	-173
-160	-87	-267
-237	-127	-161
-286	-149	-106
-306	-153	-204
-287	-149	-120
-231	-138	-18
-135	-117	40
-14	-80	22
116	-21	27
234	50	34
312	128	45
341	187	87
311	209	4
231	183	-65
116	116	-162
-10	27	-147
-128	-60	-65
-222	-125	-87
-280	-160	-115
-303	-167	-67
-288	-157	8
-241	-136	34
-160	-107	95
-55	-66	159
63	-8	249
178	61	289
267	131	205
318	185	127
317	210	-155
269	200	-517
191	160	-325
91	97	42
-15	19	76
-117	-62	57
-210	-143	20
-281	-210	76
-318	-248	36
-308	-245	-48
-247	-195	-111
-143	-108	-212
-15	-6	-151
106	84	-93
202	147	-32
255	177	24
266	178	84
241	164	49
192	136	0
124	100	-23
42	45	-63
-47	-23	-49
-142	-97	-14
-223	-160	85
-274	-189	29
-281	-183	-54
-245	-142	-61
-168	-87	-84
-66	-31	-80
40	17	-108
135	57	-71
209	99	-8
253	139	65
262	171	100
238	183	104
179	158	72
97	94	33
1	9	21
-95	-79	-57
-180	-145	-27
-241	-179	25
-271	-181	-79
-268	-159	-218
-229	-126	-180
-155	-85	-44
-54	-38	-88
54	14	-71
157	70	-12
234	120	-28
271	155	29
269	166	70
231	151	54
165	113	62
82	56	68
-10	-8	-72
-104	-76	-89
-189	-136	10
-256	-184	54
-287	-206	2
-275	-195	-93
-218	-152	-168
-122	-82	-211
-5	-2	32
107	70	141
198	126	45
253	155	-85
268	166	-176
245	158	-268
195	139	-291
121	106	-47
30	59	117
-68	-4	176
-165	-74	-6
-243	-137	-189
-288	-178	-135
-294	-185	-27
-253	-160	122
-176	-113	105
-74	-57	38
37	-6	56
140	38	46
225	77	26
277	111	-2
295	139	-26
273	154	-40
216	140	-29
129	96	8
26	25	-35
-82	-54	-93
-178	-119	1
-248	-156	145
-280	-154	58
-273	-127	-70
-226	-89	-19
-145	-53	127
-48	-23	183
51	8	89
141	43	-49
209	89	-131
251	135	-239
257	170	-214
230	175	-48
172	145	-46
89	81	-70
-15	-3	-81
-120	-85	-69
-213	-150	-60
-273	-184	-30
-292	-190	3
-267	-171	22
-200	-130	24
-106	-77	-1
1	-12	51
103	55	102
187	119	175
245	168	190
269	188	3
259	181	-200
211	142	-350
132	84	-334
33	11	-71
-72	-59	124
-170	-122	167
-243	-164	74
-281	-182	-66
-280	-175	-192
-242	-144	-261
-172	-95	-203
-76	-34	-111
29	27	38
131	80	96
212	117	83
260	131	65
266	130	-5
234	112	11
170	83	40
86	41	54
-6	-9	136
-99	-64	116
-182	-122	74
-248	-167	34
-280	-188	-64
-273	-178	-142
-222	-135	-82
-126	-70	39
-9	6	77
111	76	108
210	130	18
269	164	-234
283	178	-408
257	174	-291
200	153	-124
127	114	-89
44	55	-38
-39	-15	85
-122	-89	205
-194	-149	93
-243	-183	-3
-259	-184	-27
-236	-151	-42
-178	-97	-13
-94	-34	19
3	26	-100
98	77	-239
175	114	-153
229	141	-69
251	154	22
236	147	83
184	117	-6
106	62	-76
9	-5	-21
-93	-79	-35
-182	-142	-69
-248	-185	-38
-279	-202	-42
-272	-192	-17
-231	-159	2
-159	-107	68
-64	-42	169
39	30	199
138	96	61
216	150	7
266	181	49
275	186	-92
242	166	-16
175	126	87
90	70	127
-5	6	196
-98	-61	78
-178	-123	-72
-234	-170	-186
-258	-187	-324
-243	-173	-263
-191	-124	-72
-108	-57	-185
-7	12	-80
89	69	103
169	106	57
216	124	66
231	129	29
214	127	-81
172	119	-222
111	95	-224
38	50	-161
-42	-15	-71
-125	-89	-17
-197	-155	29
-247	-192	101
-260	-196	170
-233	-162	240
-162	-100	205
-63	-28	124
47	40	-141
148	96	-323
216	134	-315
253	157	-306
248	158	-155
212	138	-25
154	99	101
82	45	72
0	-16	64
-81	-72	120
-159	-120	60
-224	-151	57
-262	-161	24
-264	-155	17
-229	-130	30
-156	-92	1
-58	-39	-23
46	21	16
141	81	119
212	132	143
252	166	56
253	181	-41
224	169	-172
166	135	-249
86	81	-179
-5	12	-76
-103	-57	-76
-189	-123	-88
-255	-168	-215
-282	-185	-242
-271	-174	-13
-217	-138	-35
-129	-93	130
-26	-40	299
79	7	235
169	51	152
232	94	-122
262	134	-247
259	166	-142
223	171	-24
156	144	-14
65	78	17
-37	-13	5
-137	-110	13
-222	-183	61
-269	-216	71
-277	-207	18
-245	-164	-39
-176	-106	-100
-86	-44	-172
14	11	-200
111	62	-182
195	111	0
253	154	143
279	183	229
263	186	256
212	158	-4
129	98	-238
29	20	-157
-72	-57	-159
-162	-120	-264
-223	-156	-181
-253	-165	-85
-248	-151	36
-213	-120	-74
-152	-78	-151
-71	-29	-10
18	24	-34
107	76	87
181	115	133
229	138	134
242	136	116
216	113	44
160	67	-38
81	11	-95
-15	-47	-23
-108	-100	24
-189	-136	81
-245	-152	1
-266	-143	-55
-249	-116	-126
-194	-72	-79
-107	-21	87
-3	28	35
100	74	18
186	109	104
241	137	110
261	151	-4
245	153	-35
199	134	-43
131	92	-106
44	30	-163
-50	-43	-153
-145	-112	-218
-223	-162	-253
-273	-182	-91
-287	-173	94
-257	-143	246
-190	-102	213
-96	-58	209
12	-9	65
117	43	-20
204	103	-92
262	157	-90
279	190	130
253	190	61
187	148	-67
93	74	-204
-14	-12	-339
-115	-87	-320
-191	-135	-157
-241	-156	-58
-255	-157	-38
-239	-149	-15
-194	-135	80
-123	-115	171
-30	-74	194
75	-8	147
175	77	-17
254	162	44
295	224	-112
283	243	-402
229	211	-432
142	139	-145
42	48	99
-53	-43	196
-140	-121	304
-209	-180	230
-256	-212	215
-273	-218	70
-253	-195	-118
-195	-142	-182
-105	-67	-162
0	14	-124
100	85	-93
175	132	-8
216	150	-79
226	143	-165
206	121	-136
170	93	-124
118	62	-61
52	26	63
-26	-21	40
-113	-75	24
-197	-127	29
-259	-166	17
-285	-181	-34
-262	-166	28
-200	-126	158
-104	-65	171
8	1	222
118	66	191
211	128	74
275	178	-157
300	211	-334
280	219	-251
224	195	-17
132	135	-19
25	47	-112
-83	-55	-90
-176	-152	-170
-241	-219	-179
-273	-245	-77
-267	-224	-18
-225	-164	16
-150	-87	74
-55	-7	82
45	57	39
140	106	36
212	135	76
253	151	38
254	157	-12
221	145	-46
154	116	-41
67	62	-45
-30	-11	-50
-125	-90	6
-204	-157	21
-257	-192	44
-274	-195	56
-255	-164	26
-198	-112	51
-113	-51	21
-12	8	-141
93	64	-117
182	112	-106
245	150	-126
270	171	-17
257	168	-16
204	137	-109
125	80	-101
29	9	-86
-66	-63	-226
-152	-121	-99
-218	-158	-45
-258	-173	-43
-264	-169	83
-239	-152	152
-178	-115	164
-87	-62	19
18	3	-3
123	74	-173
206	138	-239
258	182	-50
267	194	4
237	174	8
172	124	5
86	56	37
-8	-21	52
-101	-90	70
-178	-145	38
-233	-181	-114
-255	-187	-192
-240	-168	-160
-190	-126	-29
-110	-68	136
-15	-7	230
85	49	124
172	98	-22
241	134	-80
275	158	-101
275	168	36
238	156	36
167	119	13
72	63	-32
-35	-10	-105
-139	-83	-86
-228	-148	-123
-282	-186	-75
-302	-198	-86
-277	-184	-13
-217	-147	39
-125	-95	1
-18	-30	14
90	39	-19
183	106	-16
245	162	76
269	195	119
255	200	78
207	171	26
132	116	-96
42	41	-80
-49	-35	-58
-137	-103	-90
-209	-151	-82
-255	-171	-29
-263	-166	51
-236	-135	5
-170	-91	-36
-77	-37	-85
26	16	-119
121	66	-108
192	110	-65
234	144	56
241	164	112
216	160	75
170	130	87
104	75	123
22	4	9
-64	-65	-137
-151	-123	-364
-222	-157	-509
-267	-161	-245
-278	-145	-79
-248	-120	-25
-182	-93	-9
-88	-64	18
21	-36	102
128	1	106
216	48	161
275	103	184
300	150	152
280	174	29
225	169	-96
137	123	-157
31	51	-33
-85	-37	-18
-188	-119	-61
-264	-178	13
-300	-196	12
-285	-181	47
-226	-135	35
-133	-75	20
-27	-9	31
75	48	1
153	96	-24
203	131	-23
216	152	3
204	156	-84
166	137	-128
107	95	-92
35	33	3
-44	-39	32
-120	-109	-82
-185	-161	-90
-224	-185	-51
-231	-177	98
-198	-141	129
-132	-83	19
-42	-15	-33
55	51	-205
144	106	-323
210	149	-269
242	169	-129
239	169	-27
200	149	9
136	106	56
56	47	102
-31	-23	112
-117	-94	60
-190	-157	22
-243	-196	15
-263	-210	19
-248	-192	140
-195	-148	238
-111	-85	162
-7	-12	64
97	62	-176
186	131	-419
245	186	-395
269	219	-163
259	226	137
214	197	122
143	132	76
52	45	21
-46	-53	-82
-144	-143	-129
-227	-209	-168
-279	-237	-36
-295	-227	-7
-263	-186	68
-195	-124	113
-99	-53	51
9	18	-3
111	85	-136
192	138	-188
242	175	-116
253	191	-97
229	174	-57
170	131	32
93	64	-29
5	-15	20
-79	-92	112
-150	-153	78
-198	-184	60
-221	-186	13
-210	-160	-27
-174	-114	-23
-114	-61	51
-36	-5	99
49	45	107
135	92	104
205	131	-61
252	162	-185
262	174	-80
234	165	-38
169	125	-33
77	55	-30
-28	-29	-92
-130	-111	-89
-213	-171	-120
-267	-190	-105
-286	-173	-93
-269	-122	-20
-218	-60	33
-141	-1	7
-48	48	2
49	77	-38
138	94	-65
208	100	83
248	103	142
258	96	82
234	82	-12
181	56	-207
104	18	-215
13	-27	-242
-84	-78	-149
-174	-123	147
-245	-160	412
-281	-174	502
-272	-162	447
-213	-122	90
-113	-53	-625
8	28	-834
126	110	-511
215	171	-241
259	201	9
254	191	159
207	145	109
135	79	130
52	4	43
-28	-60	-90
-100	-112	-177
-161	-143	-211
-209	-161	-122
-239	-166	1
-241	-155	75
-211	-133	95
-148	-94	127
-57	-43	109
45	17	112
141	81	91
216	131	61
260	170	40
265	185	34
236	174	56
175	138	41
95	80	39
2	6	14
-92	-70	-20
-176	-138	-45
-236	-182	-50
-262	-189	-58
-250	-165	-68
-200	-113	4
-120	-51	99
-23	10	111
72	64	43
154	106	-128
208	139	-374
229	163	-462
214	171	-261
170	158	7
103	115	68
24	46	96
-55	-43	110
-126	-131	52
-178	-200	14
-205	-230	-14
-201	-215	-54
-168	-162	-108
-107	-84	-128
-30	-4	-106
51	62	-5
124	105	100
180	126	171
212	135	158
221	138	39
204	137	-133
166	128	-203
105	101	-264
26	49	-131
-65	-21	177
-160	-101	181
-239	-169	192
-286	-208	149
-292	-212	-39
-255	-179	-174
-180	-123	-131
-79	-53	-65
32	15	-95
135	79	3
214	130	18
261	161	70
265	169	110
229	152	120
161	110	82
72	53	-147
-20	-8	-337
-106	-66	-242
-178	-112	-180
-231	-144	-137
-259	-164	87
-259	-167	78
-226	-152	52
-153	-114	-16
-53	-52	45
63	23	163
172	103	63
253	166	-84
288	202	-315
275	204	-517
221	175	-301
139	124	130
46	57	267
-47	-17	278
-135	-94	201
-212	-163	121
-262	-214	-12
-280	-232	-211
-255	-208	-197
-184	-148	-145
-80	-59	-193
37	32	-144
144	107	-47
222	151	-35
258	165	47
257	154	127
223	127	188
169	98	209
99	62	138
21	19	-30
-63	-33	-187
-145	-90	-195
-215	-144	-257
-263	-181	-159
-277	-188	28
-252	-163	37
-187	-108	2
-93	-38	0
15	32	-28
122	93	-43
210	131	14
268	153	54
286	154	84
267	143	86
212	117	114
132	77	113
36	23	149
-64	-41	215
-161	-102	112
-235	-152	3
-276	-171	-72
-274	-160	-292
-228	-117	-381
-142	-59	-127
-35	0	-50
72	48	-50
159	84	25
211	109	-28
229	125	-55
211	131	-163
170	126	-116
113	97	-82
41	45	-145
-38	-25	-130
-121	-102	-125
-195	-164	-69
-250	-196	-35
-269	-194	20
-245	-160	84
-178	-105	140
-84	-42	171
23	20	175
125	78	95
205	127	34
257	165	134
272	185	200
251	180	237
196	144	186
114	85	-44
16	6	-263
-87	-72	-371
-176	-138	-400
-243	-180	-409
-277	-192	-311
-273	-181	-139
-234	-145	16
-163	-93	54
-66	-28	25
40	41	22
143	110	62
224	164	112
266	188	57
266	177	47
226	134	34
161	72	51
80	6	72
-1	-47	98
-77	-84	169
-144	-107	118
-201	-121	84
-241	-131	-53
-250	-135	-201
-224	-125	-273
-156	-92	-315
-56	-37	-193
54	27	-115
153	85	11
222	123	17
249	134	-114
239	124	-62
201	106	-82
140	83	-111
67	53	20
-17	15	145
-108	-41	164
-194	-109	89
-258	-167	-9
-285	-195	-110
-261	-178	-195
-190	-117	-5
-87	-30	54
27	50	-94
125	106	-162
196	128	-291
231	127	-50
236	117	111
212	109	150
169	99	189
102	75	39
16	26	-13
-81	-49	-15
-174	-131	22
-246	-195	14
-281	-222	24
-271	-198	-36
-217	-141	-16
-130	-69	17
-28	-3	-4
72	51	-14
162	96	-100
231	132	-101
268	165	-121
269	179	-86
234	170	-36
164	129	11
69	62	60
-32	-15	82
-128	-86	101
-202	-135	94
-249	-163	142
-262	-170	141
-242	-162	24
-189	-140	-159
-110	-104	-312
-12	-50	-283
91	20	-136
184	95	-3
253	162	123
280	204	111
268	214	44
216	190	-64
144	138	-120
54	68	-26
-38	-9	10
-129	-84	26
-206	-143	-3
-259	-180	-22
-277	-189	-56
-255	-169	-109
-193	-126	-77
-100	-68	-11
5	-7	37
105	48	-11
184	94	-56
231	126	-79
244	140	-87
222	138	-40
172	113	-114
101	70	-117
12	11	-16
-84	-53	65
-174	-112	152
-245	-155	81
-281	-175	34
-278	-169	66
-231	-138	65
-149	-88	96
-43	-25	41
68	43	-89
167	103	-122
240	149	-260
275	171	-243
268	170	-137
225	147	-168
151	103	-180
62	43	-119
-32	-23	25
-122	-89	20
-198	-148	24
-253	-186	-20
-277	-200	-65
-267	-183	41
-218	-137	81
-136	-71	80
-31	0	119
75	66	135
170	120	120
230	155	48
254	171	-59
241	171	-189
195	151	-294
125	106	-127
42	43	144
-46	-35	228
-126	-117	207
-191	-181	130
-230	-215	46
-232	-211	-35
-195	-174	-124
-123	-113	-140
-30	-41	-121
72	29	-104
165	94	-84
234	147	-95
271	183	-91
273	204	-10
242	195	-32
175	157	-93
89	89	-97
-13	7	-35
-114	-76	166
-205	-140	258
-269	-177	246
-298	-183	-9
-287	-163	-349
-240	-126	-168
-162	-77	-109
-64	-26	-256
36	26	-15
128	76	-106
199	117	-196
241	143	-75
245	145	100
214	121	155
155	69	48
69	3	-1
-22	-66	-79
-113	-122	-16
-186	-154	-82
-236	-159	-105
-253	-142	-88
-240	-112	-26
-193	-78	32
-117	-40	47
-22	-2	84
81	43	39
175	94	17
245	143	-14
275	177	54
263	186	90
212	158	79
133	99	84
42	25	31
-48	-49	-88
-130	-108	-62
-195	-144	152
-239	-158	222
-253	-153	225
-234	-136	49
-178	-104	-158
-90	-56	-453
16	6	-722
121	75	-402
206	135	-54
251	174	69
255	174	101
216	141	48
155	83	115
74	18	45
-10	-38	-10
-91	-82	-82
-162	-112	-114
-221	-134	-11
-256	-150	12
-262	-155	31
-229	-139	9
-159	-100	-77
-58	-36	-75
55	40	38
162	110	38
242	160	22
280	175	51
275	166	9
230	134	-21
155	90	61
64	37	105
-31	-23	59
-122	-85	66
-199	-142	7
-255	-181	-87
-278	-187	-123
-262	-158	-45
-209	-100	-116
-126	-32	-190
-22	29	-103
82	71	-117
174	97	-18
238	113	39
270	125	15
266	134	8
230	130	1
163	104	5
72	47	-91
-30	-25	-63
-134	-101	21
-223	-158	57
-280	-184	77
-295	-181	87
-262	-154	130
-186	-117	127
-80	-71	127
38	-19	53
149	45	-5
234	116	-58
280	179	-200
285	221	-287
250	224	-214
181	182	-113
89	104	-100
-12	10	-87
-111	-81	-166
-195	-150	-128
-258	-192	-94
-287	-210	-102
-281	-202	34
-237	-177	-111
-161	-130	-144
-59	-67	-22
48	5	8
149	79	76
225	138	64
262	179	51
260	186	20
219	166	17
152	121	36
67	61	11
-22	-5	4
-110	-71	17
-185	-125	59
-241	-160	110
-264	-168	129
-253	-153	122
-202	-114	79
-115	-59	39
-6	0	-30
105	60	-97
199	110	14
258	150	21
279	171	-55
260	171	-93
209	153	-228
132	106	-209
42	41	-282
-56	-32	-228
-151	-104	-12
-232	-163	48
-281	-196	71
-292	-198	-18
-256	-174	-58
-178	-127	-38
-75	-68	28
39	-6	-4
141	53	9
221	106	13
263	147	1
273	170	0
248	171	-42
193	144	13
111	91	9
12	16	61
-92	-66	75
-184	-136	26
-252	-182	-42
-281	-192	-67
-270	-167	-14
-217	-116	-27
-131	-52	-9
-30	13	39
72	70	128
162	116	119
222	148	130
245	162	144
237	160	-56
194	134	-67
125	89	-92
44	29	-238
-41	-36	-339
-122	-97	-400
-189	-144	-327
-236	-171	-227
-253	-181	-70
-240	-165	-24
-188	-130	37
-108	-80	121
-10	-14	121
94	51	127
183	114	80
245	157	50
268	175	59
253	168	14
204	131	-7
127	80	21
33	15	-33
-64	-50	-69
-160	-110	-67
-235	-157	-82
-280	-178	-47
-287	-175	-31
-253	-143	-50
-181	-89	-34
-82	-23	80
28	41	115
132	93	4
214	126	74
262	138	85
269	135	-39
242	118	12
183	92	-28
102	53	-147
11	8	-192
-80	-44	-177
-159	-96	-44
-221	-137	31
-253	-163	37
-253	-166	36
-215	-145	37
-140	-102	30
-41	-42	12
69	27	-17
171	98	-27
245	155	14
280	192	37
275	197	-10
226	170	-63
150	112	-20
57	37	-1
-42	-41	-16
-135	-110	11
-214	-159	21
-268	-182	-30
-289	-179	-23
-271	-154	-87
-213	-111	-154
-124	-57	21
-19	1	52
85	57	-97
172	104	-181
230	139	-241
254	155	-214
242	150	-228
199	123	-160
128	76	-7
36	12	38
-66	-53	67
-167	-116	68
-249	-159	89
-297	-178	66
-296	-167	75
-242	-137	119
-145	-90	91
-20	-37	37
107	22	10
214	78	-54
286	131	-129
314	174	5
301	194	170
253	185	147
175	142	91
85	72	31
-18	-12	-163
-120	-94	-287
-211	-157	-137
-277	-190	-110
-310	-192	-178
-298	-171	-185
-241	-127	-98
-151	-74	26
-38	-11	-3
74	51	71
167	105	39
230	145	-21
255	165	-30
244	162	-41
202	135	-4
135	93	31
51	35	79
-39	-29	58
-129	-90	14
-205	-144	-63
-257	-178	-125
-273	-185	-195
-249	-163	-128
-185	-113	5
-94	-48	94
11	18	127
113	72	127
194	112	133
245	132	45
262	142	-25
245	139	-32
196	122	21
124	89	0
32	35	-62
-66	-35	-121
-162	-111	-162
-237	-173	-130
-280	-202	18
-281	-195	170
-240	-153	97
-158	-87	35
-55	-14	-35
52	52	-211
148	108	-236
216	148	-176
252	171	-114
253	179	-64
216	160	-43
159	113	-35
79	41	-102
-10	-40	-74
-95	-116	-34
-164	-170	55
-212	-190	155
-229	-180	77
-214	-147	72
-173	-103	155
-105	-54	120
-20	-5	-7
72	45	-41
158	96	-187
222	141	-246
245	170	-98
229	174	-134
169	150	-45
80	97	57
-17	26	32
-107	-49	-2
-174	-119	-19
-214	-170	14
-227	-195	-25
-212	-188	-42
-174	-153	-71
-113	-94	-92
-33	-24	-59
56	41	-18
141	97	6
211	135	7
252	160	37
258	171	-2
234	174	-30
180	158	98
106	115	144
17	48	106
-80	-38	92
-176	-125	54
-253	-190	17
-299	-214	-108
-300	-194	-243
-255	-142	-284
-172	-77	-265
-65	-13	-137
42	38	82
138	77	160
207	105	60
245	126	60
249	133	144
222	123	56
162	88	-48
82	33	-114
-12	-30	-182
-106	-90	-170
-188	-136	-86
-247	-163	-23
-272	-169	-32
-262	-158	-20
-214	-127	-5
-134	-82	14
-35	-19	-14
72	49	-43
169	114	-16
241	162	-10
273	182	-5
269	174	12
228	139	28
159	89	51
70	29	70
-23	-35	101
-117	-95	129
-194	-142	130
-250	-170	103
-269	-173	5
-247	-149	-131
-187	-101	-197
-96	-44	-165
8	17	-162
110	72	-123
193	120	-20
245	155	-64
259	171	-125
237	168	-127
181	134	-243
98	77	-249
3	2	-48
-95	-74	32
-180	-139	109
-241	-178	87
-271	-189	44
-262	-173	13
-218	-135	-15
-142	-86	87
-43	-26	111
61	34	69
158	89	-26
229	131	-3
262	154	-25
261	156	-76
223	135	-53
159	97	-34
77	45	-17
-14	-12	-3
-103	-71	19
-184	-127	-51
-245	-166	-143
-273	-183	-138
-263	-170	-32
-217	-129	-40
-135	-71	-29
-32	-4	0
74	59	20
169	113	17
236	153	-43
268	178	-38
262	183	-33
224	165	29
151	116	69
58	41	94
-47	-47	105
-147	-131	53
-226	-189	20
-274	-208	34
-282	-189	32
-255	-140	-83
-191	-83	-127
-105	-25	-100
5	24	-86
121	68	-40
234	110	3
318	150	-23
358	174	-142
341	173	-123
261	139	-109
136	74	-76
-8	-6	-117
-142	-87	-98
-241	-145	77
-295	-175	70
-303	-178	-16
-277	-160	-97
-228	-130	-12
-157	-92	-48
-70	-44	-63
28	11	-50
128	70	-68
212	121	37
263	157	62
269	163	124
231	140	84
159	98	49
68	43	30
-23	-12	57
-107	-60	-15
-175	-101	-114
-229	-130	-38
-259	-144	-66
-259	-143	-46
-221	-120	7
-144	-77	22
-40	-17	-89
77	45	-91
175	103	-34
245	142	11
267	161	54
250	157	13
197	130	19
122	88	-48
34	32	-106
-57	-34	-157
-145	-99	-206
-221	-154	-151
-267	-184	2
-277	-185	67
-242	-156	43
-168	-104	34
-65	-44	37
46	16	42
151	68	32
230	114	21
274	151	21
280	175	61
245	183	90
182	163	46
92	113	21
-12	35	-25
-118	-51	-163
-208	-130	-127
-273	-185	-122
-297	-206	-168
-277	-196	-94
-218	-166	-91
-125	-120	-92
-14	-64	-86
99	-2	-48
198	68	-11
268	139	24
300	195	30
288	221	16
242	204	36
166	148	19
72	62	45
-28	-28	118
-125	-106	137
-209	-157	124
-269	-174	65
-297	-169	-4
-281	-147	-27
-223	-112	46
-126	-64	184
-10	-7	16
105	55	-215
198	118	-306
253	162	-395
267	181	-419
244	168	-438
192	127	-257
117	67	-63
31	-1	31
-63	-68	46
-158	-126	91
-237	-169	121
-289	-191	57
-302	-189	29
-269	-161	-20
-194	-115	56
-94	-56	87
18	4	105
122	59	141
204	104	133
258	138	133
276	162	104
260	168	33
208	153	-44
127	111	29
24	47	32
-85	-32	-42
-182	-106	-141
-253	-160	-190
-285	-183	-92
-274	-176	30
-223	-144	51
-135	-98	-32
-28	-44	-59
86	13	-87
189	75	-121
266	132	-176
302	179	-131
295	200	-90
242	183	-81
160	128	4
58	47	26
-44	-40	98
-136	-114	115
-207	-158	72
-256	-170	31
-273	-159	-36
-260	-133	-145
-215	-101	-201
-137	-63	-63
-38	-21	-27
68	31	-30
166	85	16
234	130	-12
262	157	3
252	157	44
203	130	118
128	82	180
41	21	196
-48	-40	154
-131	-96	-4
-199	-136	-161
-245	-158	-248
-260	-159	-235
-239	-137	-89
-181	-96	32
-95	-46	-79
7	11	-133
107	63	-118
188	109	-167
238	139	-114
251	151	-83
228	142	4
175	110	19
104	61	29
20	2	79
-67	-56	89
-150	-106	142
-215	-138	141
-256	-153	150
-259	-148	38
-218	-124	-64
-139	-88	-101
-35	-38	-108
78	19	-19
175	76	-11
245	122	-14
275	152	-51
263	157	-106
221	137	-141
152	99	-179
67	46	-107
-28	-11	28
-125	-69	77
-212	-123	-28
-276	-162	-86
-303	-176	-252
-286	-162	-341
-225	-119	-66
-130	-56	62
-18	12	130
89	68	194
178	110	129
238	132	124
260	141	107
248	139	22
202	129	11
128	101	-18
34	51	-135
-66	-15	-154
-161	-94	-193
-232	-161	-31
-269	-203	48
-264	-209	-53
-222	-182	45
-144	-131	-4
-46	-67	15
62	1	34
165	72	36
245	139	103
291	194	112
294	224	42
252	213	-142
172	162	-210
76	81	-272
-28	-9	-283
-123	-89	-174
-197	-142	-47
-250	-170	45
-273	-177	63
-269	-170	84
-229	-150	46
-152	-111	4
-48	-53	19
66	25	-6
170	106	-47
245	166	-16
275	193	5
261	177	28
209	130	69
135	65	66
50	2	83
-35	-53	72
-120	-100	24
-195	-137	-15
-253	-166	-31
-279	-174	-12
-263	-155	41
-206	-108	54
-112	-42	4
0	26	-54
107	88	-114
194	131	-174
245	161	-300
261	177	-289
238	180	-104
183	163	-46
104	116	-16
12	37	20
-84	-62	21
-166	-159	45
-225	-227	55
-248	-247	100
-236	-216	142
-189	-153	91
-118	-77	-1
-32	-9	-63
60	45	-176
148	88	-143
222	124	-15
266	158	-7
277	179	-1
245	178	24
175	143	57
79	77	-20
-29	-7	0
-130	-89	13
-211	-150	-185
-262	-180	-119
-281	-178	155
-266	-157	139
-217	-121	11
-136	-77	-112
-34	-26	-258
75	31	-268
172	90	-56
240	141	10
266	171	-74
245	175	3
196	150	-38
122	103	-9
42	41	34
-38	-17	49
-115	-70	51
-182	-116	0
-233	-152	84
-257	-176	60
-245	-184	-18
-194	-173	-1
-112	-133	-31
-11	-65	-95
91	17	-205
175	104	-178
234	174	-61
253	211	-59
238	208	-19
192	162	5
120	85	0
27	-5	-35
-72	-88	-56
-166	-148	14
-240	-172	77
-277	-166	45
-276	-136	-64
-234	-94	-53
-159	-51	-12
-60	-11	7
42	26	125
139	63	111
214	99	35
257	130	-104
265	150	-157
237	149	102
181	125	278
103	76	243
13	12	128
-81	-56	-63
-164	-116	-160
-228	-157	-135
-260	-173	-118
-251	-163	-46
-202	-133	-202
-118	-84	-387
-15	-27	-210
89	33	-86
172	93	-31
231	139	9
253	169	-10
242	174	-32
202	153	-65
136	103	-3
52	35	15
-43	-38	9
-138	-108	60
-223	-159	84
-274	-185	57
-288	-184	53
-259	-161	58
-191	-118	24
-97	-63	46
9	-3	64
108	59	1
191	116	-28
244	162	-105
265	183	-116
251	183	-22
205	154	9
130	99	54
38	29	38
-60	-45	-13
-157	-111	-44
-232	-159	-94
-279	-180	-78
-286	-177	-13
-255	-153	13
-185	-113	-70
-88	-64	-149
22	-11	-211
128	43	-245
214	98	-115
269	144	24
283	174	138
257	186	147
192	165	85
103	114	28
-2	38	-49
-104	-46	53
-194	-123	186
-255	-179	9
-281	-201	-196
-269	-192	-249
-218	-156	-195
-134	-102	-222
-30	-35	-147
80	32	81
175	96	55
245	145	61
273	174	-17
261	174	-64
210	140	9
136	85	-10
49	16	32
-37	-53	86
-116	-109	79
-182	-148	24
-232	-165	28
-256	-164	53
-248	-145	-3
-205	-112	-122
-124	-63	-145
-20	-3	-40
89	61	-32
182	121	-34
245	165	-2
265	185	-137
245	174	-114
196	140	-48
122	88	-40
34	22	79
-60	-44	69
-152	-108	77
-231	-157	39
-276	-183	-17
-281	-183	-50
-237	-154	-43
-151	-101	37
-39	-31	84
77	41	53
174	105	-69
241	151	-82
269	174	-112
262	174	-89
219	149	-54
154	103	-114
65	39	-66
-33	-33	-41
-134	-105	-43
-222	-162	-37
-278	-195	-32
-297	-201	24
-271	-176	107
-207	-132	134
-115	-72	87
-8	-7	36
96	57	-83
184	117	-169
249	162	-138
280	190	-99
275	190	-141
234	161	-93
159	105	52
64	32	5
-40	-43	7
-136	-110	-13
-217	-155	-32
-267	-175	58
-281	-170	166
-259	-140	209
-201	-94	106
-116	-37	49
-14	22	-131
88	76	-362
175	116	-273
234	137	-65
259	140	-6
248	127	87
205	100	97
140	58	186
60	7	200
-24	-52	31
-109	-111	-145
-181	-160	-196
-234	-183	-110
-253	-178	-160
-236	-142	-186
-177	-85	-165
-89	-19	-119
14	41	-115
113	93	-47
192	131	-20
238	156	20
242	165	158
214	155	246
154	123	285
74	68	213
-17	1	14
-109	-64	-332
-191	-117	-289
-253	-148	-33
-282	-155	-11
-279	-148	36
-234	-130	64
-154	-110	65
-48	-79	29
68	-29	-4
175	36	-86
262	115	-234
310	183	-256
313	221	-215
267	209	-194
184	148	-164
74	56	-100
-42	-44	13
-150	-125	71
-232	-177	53
-279	-192	38
-287	-183	61
-259	-155	49
-198	-114	79
-111	-65	221
-8	-6	275
97	57	268
190	122	235
255	171	29
287	200	-249
276	200	-241
229	168	-107
150	112	-113
51	36	-120
-55	-46	-105
-157	-126	-48
-241	-188	-119
-292	-219	-103
-305	-214	-165
-271	-171	-206
-194	-102	-104
-87	-25	-52
30	43	-2
136	90	-60
215	117	68
257	123	171
261	120	159
230	112	164
172	95	124
96	64	13
7	19	-76
-82	-39	-133
-162	-99	-177
-221	-144	-117
-245	-165	-32
-233	-153	15
-186	-112	29
-108	-54	87
-14	7	63
82	60	14
164	102	-72
221	129	-194
245	143	-143
234	141	-31
189	126	20
118	89	94
31	33	134
-62	-37	152
-149	-110	106
-217	-166	125
-259	-191	113
-262	-182	-157
-231	-142	-350
-163	-85	-368
-71	-23	-204
28	30	-109
120	72	-44
192	108	17
234	139	14
242	163	-1
218	169	60
166	148	106
92	94	61
6	14	103
-83	-79	-10
-162	-158	-4
-218	-206	57
-245	-213	-20
-236	-183	-50
-191	-131	-3
-121	-67	-44
-34	-9	-75
56	42	-68
138	85	-135
201	123	-140
236	155	-82
239	171	-8
210	170	-23
154	138	11
75	80	155
-16	0	178
-111	-81	-17
-191	-147	-278
-249	-186	-344
-272	-190	-282
-258	-166	-135
-206	-119	138
-125	-68	176
-30	-18	238
65	25	224
148	65	82
209	104	-78
242	139	-238
245	165	-229
216	166	-222
158	134	-64
74	67	-33
-26	-23	-51
-126	-114	7
-210	-183	20
-262	-210	130
-277	-196	97
-248	-150	94
-184	-89	80
-97	-32	-10
2	22	-112
97	68	-204
179	116	-131
238	158	-62
266	183	21
258	181	89
216	139	66
145	71	29
60	-10	-14
-30	-80	-93
-116	-124	-150
-189	-142	-53
-244	-141	23
-269	-137	74
-262	-127	94
-209	-108	37
-117	-64	-2
5	4	20
132	92	82
238	171	93
296	215	21
296	213	-76
245	163	-159
159	86	-167
61	6	-108
-36	-59	-38
-121	-106	-9
-191	-140	-16
-244	-163	38
-271	-176	69
-267	-168	48
-224	-133	67
-142	-71	55
-36	5	-117
74	77	-156
169	129	-105
231	150	-238
254	148	-302
242	127	-149
202	100	79
139	65	207
60	21	172
-26	-33	-20
-117	-94	-136
-195	-145	-125
-249	-178	-123
-264	-181	-46
-241	-157	-1
-177	-113	16
-87	-59	72
13	-4	112
110	55	138
188	112	158
238	161	119
254	188	66
236	183	9
184	145	-115
105	78	-252
12	1	-225
-85	-71	-99
-170	-123	-183
-233	-151	-196
-262	-158	-117
-260	-148	-113
-221	-122	-63
-148	-85	13
-52	-32	24
51	29	20
147	89	65
216	134	52
253	161	-8
251	163	-30
212	143	53
148	105	52
67	55	19
-16	-9	40
-96	-76	18
-162	-138	-15
-208	-183	-19
-228	-195	19
-215	-173	55
-172	-121	25
-100	-54	-26
-12	11	-18
79	66	9
159	110	144
216	144	184
241	168	5
230	177	-125
187	161	-308
115	113	-382
28	36	-231
-64	-53	-42
-151	-135	32
-214	-192	-44
-251	-213	-33
-253	-199	-30
-219	-161	-18
-155	-109	-19
-67	-53	-12
31	8	49
125	71	37
203	135	41
253	183	39
263	204	53
237	190	41
175	139	19
91	68	44
-6	-12	19
-102	-84	-52
-183	-137	-162
-241	-171	-151
-270	-183	47
-262	-176	132
-218	-147	90
-142	-97	43
-43	-30	-172
60	40	-387
156	107	-280
226	160	-4
260	186	19
253	185	44
210	156	97
140	101	22
55	27	53
-38	-53	28
-126	-125	39
-199	-176	43
-248	-192	-25
-262	-179	-39
-243	-142	-46
-186	-95	-31
-103	-47	-37
-6	-1	-30
91	42	-7
174	91	-17
234	138	-12
260	175	56
251	190	43
205	166	-27
128	109	-17
30	26	-71
-74	-59	-179
-170	-131	-157
-241	-173	-80
-277	-186	-107
-274	-175	-127
-232	-145	-89
-158	-105	-23
-60	-53	4
44	7	22
143	72	57
224	131	6
269	174	60
278	191	119
245	174	150
183	132	191
96	67	63
-1	-9	-70
-99	-82	-158
-183	-136	-259
-247	-166	-228
-277	-167	-21
-273	-145	3
-228	-110	-29
-147	-68	-25
-43	-27	-43
68	12	-1
169	55	-41
245	101	22
280	147	130
279	174	173
238	178	90
164	138	-21
68	68	-188
-36	-19	-268
-136	-99	-113
-221	-152	15
-273	-171	-5
-291	-165	-65
-273	-145	-126
-218	-121	-140
-130	-94	-44
-24	-55	-55
87	1	-52
189	71	-27
260	143	-8
288	192	15
271	202	25
215	169	65
129	103	72
31	25	91
-67	-45	61
-156	-97	67
-226	-128	104
-271	-143	1
-284	-150	-133
-262	-142	-95
-199	-120	-48
-101	-79	-51
17	-24	-29
136	37	-19
238	95	-33
302	136	-25
322	160	5
296	161	-36
226	137	-32
129	90	-35
17	23	6
-92	-54	22
-187	-124	-3
-251	-170	45
-279	-175	119
-263	-145	216
-213	-91	216
-134	-31	138
-38	18	9
58	53	-328
145	83	-457
209	106	-260
242	131	-181
236	144	-260
194	131	-276
124	89	-49
34	18	81
-59	-57	147
-147	-117	84
-212	-145	-106
-251	-140	-218
-259	-118	-203
-233	-93	-12
-176	-78	150
-94	-68	168
1	-51	119
98	-19	107
181	34	54
239	93	29
262	142	3
252	164	-2
207	150	34
137	106	20
48	43	-30
-50	-26	-43
-143	-89	-93
-222	-136	-159
-267	-164	-139
-276	-167	-144
-245	-148	-142
-177	-106	-28
-84	-48	80
21	14	87
121	72	151
203	119	129
254	150	66
269	164	16
245	158	-2
192	131	21
110	84	-14
13	20	-24
-87	-48	-126
-174	-110	-183
-241	-153	-79
-277	-171	-21
-277	-161	-51
-241	-131	-77
-168	-85	-83
-71	-32	-7
35	24	140
134	80	237
212	127	222
255	160	143
262	168	-75
234	150	-320
176	106	-324
102	50	-291
17	-9	-105
-69	-69	50
-150	-121	-32
-212	-166	-20
-249	-191	-1
-247	-194	12
-202	-167	-19
-122	-105	-3
-14	-22	-2
97	68	-113
191	144	-89
245	191	49
257	200	135
226	178	104
165	135	46
86	79	-24
0	14	-145
-83	-56	-127
-159	-125	-85
-218	-185	-145
-256	-215	-90
-262	-210	-64
-236	-171	-37
-172	-104	-3
-81	-31	37
24	37	74
126	90	95
207	127	152
257	153	112
266	165	114
238	162	97
175	136	8
91	85	-70
-4	15	-175
-98	-60	-238
-177	-126	-179
-236	-170	-173
