File Name: not saved
Channel 2: 'Channel 2', 11600 values, raw ADC, no filters.
Channel 3: 'Channel 3', 11600 values, raw ADC, no filters.
Channel 4: 'Channel 4', 11600 values, raw ADC, no filters.

340	136	-5
262	143	-6
133	156	-4
12	155	-7
-55	121	-23
-63	41	-30
-46	-68	-31
-53	-182	-30
-116	-264	-26
-214	-301	-23
-296	-288	-21
-302	-244	-28
-206	-187	-28
-36	-125	-21
142	-58	-19
262	15	-24
288	100	-35
236	179	-32
155	241	-26
98	267	-13
86	251	-21
99	192	-28
100	96	-19
62	-22	-27
-15	-153	-27
-104	-268	-26
-172	-344	-23
-197	-351	-14
-186	-281	-12
-156	-145	-19
-121	20	-32
-89	168	-25
-41	260	-25
35	282	-30
140	250	-24
251	196	-14
330	149	-9
341	125	-2
269	113	3
130	88	-7
-46	28	-18
-218	-69	-20
-352	-182	-14
-419	-272	-24
-409	-301	-36
-321	-257	-53
-177	-151	-48
-6	-20	-18
151	95	-22
258	163	-30
292	174	-40
262	150	-35
190	106	-20
111	74	-17
52	55	-12
18	45	-9
-1	30	-13
-25	-4	-18
-71	-57	-27
-138	-123	-19
-209	-181	-20
-256	-212	-43
-257	-205	-44
-206	-157	-46
-111	-83	-42
13	2	-23
140	71	-17
251	115	-16
330	130	-4
363	123	-10
346	116	-22
274	116	-22
151	124	-28
-15	123	-23
-198	93	-25
-370	17	-17
-484	-94	-2
-509	-207	-4
-435	-281	-18
-278	-275	-26
-92	-182	-34
71	-31	-47
169	127	-35
197	238	-22
181	269	-20
166	227	-16
183	135	-1
226	35	1
261	-43	-13
239	-96	-26
145	-130	-27
-1	-159	-26
-144	-182	-30
-227	-190	-21
-214	-170	-22
-128	-116	-28
-18	-42	-37
63	30	-47
87	82	-38
66	106	-21
36	116	-31
29	121	-20
51	135	-13
77	147	-32
74	134	-26
18	85	-23
-77	-4	-17
-175	-105	-13
-238	-188	-13
-245	-221	-19
-199	-196	-14
-127	-131	-8
-55	-53	-23
3	15	-26
52	65	-24
104	103	-24
154	139	-32
188	180	-34
186	210	-31
139	219	-36
57	189	-26
-30	117	-4
-88	15	2
-101	-93	-8
-74	-181	-1
-36	-230	-13
-17	-230	-12
-25	-191	-19
-46	-130	-30
-47	-69	-32
-6	-24	-45
81	5	-36
183	25	-31
260	48	-27
279	81	-31
234	109	-23
139	110	-20
29	64	-17
-70	-24	-15
-151	-131	-29
-210	-211	-27
-258	-228	-27
-291	-173	-26
-303	-72	-31
-277	18	-45
-215	67	-46
-122	64	-32
-19	36	-19
72	22	-8
141	47	-9
188	106	-15
214	168	-11
226	201	-7
222	190	-7
194	150	-4
135	101	-7
42	60	-11
-68	17	-8
-172	-47	-21
-245	-139	-30
-263	-244	-27
-231	-311	-27
-156	-298	-20
-65	-191	-27
14	-21	-32
62	148	-39
78	257	-39
78	275	-26
84	223	-17
119	136	-16
184	58	-27
262	4	-30
311	-38	-22
290	-89	-22
175	-151	-27
-18	-205	-26
-247	-225	-19
-438	-192	-20
-530	-116	-31
-491	-30	-27
-333	36	-24
-104	67	-32
132	76	-37
322	84	-35
428	109	-25
439	145	-13
373	164	-14
250	139	-17
90	65	-25
-69	-40	-16
-204	-137	-4
-286	-192	-9
-312	-190	-6
-297	-148	-21
-264	-93	-35
-242	-53	-29
-225	-35	-24
-194	-28	-19
-121	-4	-22
10	57	-24
184	148	-33
357	241	-30
468	294	-21
476	272	-17
387	171	-12
229	18	-15
57	-131	-24
-84	-233	-34
-177	-256	-15
-227	-217	-18
-248	-153	-36
-256	-100	-35
-249	-74	-26
-224	-54	-9
-172	-16	-12
-96	59	-15
-7	151	-12
82	213	-20
161	199	-17
228	92	-25
278	-68	-45
302	-216	-35
297	-283	-26
242	-246	-17
136	-130	-8
-3	2	-15
-156	84	-13
-276	93	-10
-342	43	-8
-333	-15	-18
-260	-41	-30
-144	-15	-42
-16	52	-40
96	132	-37
172	197	-29
208	230	-13
203	225	-8
163	182	-18
97	110	-30
14	16	-17
-79	-87	-19
-164	-179	-28
-231	-242	-32
-258	-256	-32
-241	-225	-27
-177	-160	-27
-84	-83	-34
21	-7	-39
116	59	-19
186	119	-1
228	168	-6
238	197	-17
224	199	-13
182	166	-30
117	106	-27
27	29	-16
-75	-48	-32
-173	-113	-41
-248	-160	-49
-281	-191	-44
-271	-205	-40
-221	-196	-30
-145	-162	-20
-56	-95	-14
29	-7	-21
111	85	-48
184	168	-33
245	218	-36
287	236	-34
299	223	-6
269	182	-8
196	122	-16
85	45	-4
-49	-42	21
-178	-135	3
-277	-214	-19
-325	-262	-10
-315	-272	-12
-256	-241	-14
-170	-176	-23
-83	-98	-34
-10	-20	-30
43	45	-32
86	99	-27
128	135	-26
166	158	-40
190	165	-26
181	153	-9
133	119	-4
54	63	-19
-26	-3	-22
-80	-77	-10
-93	-141	-9
-67	-182	-15
-33	-192	-25
-10	-170	-23
-14	-121	-34
-30	-60	-28
-33	-2	-26
1	48	-28
76	88	-21
170	118	-22
244	147	-18
262	169	-17
209	174	-14
85	150	-31
-85	94	-38
-262	11	-24
-405	-74	-24
-487	-134	-44
-481	-151	-42
-390	-119	-28
-226	-52	-24
-18	23	-13
189	83	0
346	110	-8
435	103	-14
439	68	-8
373	25	-12
273	-13	-13
166	-38	-26
68	-44	-26
-14	-46	-19
-91	-52	-27
-165	-76	-30
-234	-114	-28
-280	-158	-31
-286	-180	-25
-241	-163	-22
-151	-101	-15
-37	-11	-17
74	81	-38
155	141	-39
197	158	-37
202	142	-37
183	115	-20
154	99	-12
121	96	-8
84	88	-12
32	56	-21
-48	-11	-19
-162	-89	-23
-299	-144	-34
-425	-147	-33
-500	-93	-29
-480	-15	-26
-347	43	-17
-119	45	-24
150	0	-28
386	-56	-39
523	-76	-44
534	-26	-28
439	70	-24
302	160	-15
175	183	-11
92	116	-18
41	-16	-11
-18	-156	-10
-115	-240	-20
-252	-240	-15
-383	-169	-16
-451	-76	-37
-415	-4	-32
-274	30	-31
-84	41	-30
94	63	-13
204	114	-13
245	190	-12
250	262	-17
256	301	-23
274	279	-32
276	195	-31
212	64	-30
57	-92	-19
-173	-243	-8
-402	-362	-2
-539	-425	14
-516	-408	-9
-331	-313	-19
-54	-165	-8
211	-12	-18
383	98	-28
425	139	-42
366	117	-34
268	68	-34
181	35	-37
120	36	-22
72	54	-20
6	61	-9
-91	29	-16
-203	-40	-17
-291	-110	-16
-321	-130	-33
-287	-69	-56
-202	58	-64
-112	205	-48
-44	301	-41
-8	309	-26
18	225	-5
60	89	-4
131	-38	-8
212	-121	-9
266	-141	-19
254	-123	-26
166	-98	-15
23	-88	5
-124	-99	-3
-224	-117	-19
-252	-130	-25
-218	-127	-30
-159	-110	-21
-111	-89	-26
-85	-58	-26
-71	-15	-35
-41	48	-38
21	132	-24
115	221	-26
210	278	-33
269	283	-30
273	223	-16
216	110	-15
122	-18	-25
23	-125	-19
-60	-181	-16
-123	-181	-26
-169	-147	-29
-207	-102	-35
-234	-68	-30
-237	-50	-32
-206	-39	-33
-134	-19	-21
-36	17	-12
66	67	-16
148	118	-32
195	150	-23
205	157	-34
194	131	-51
172	85	-40
148	26	-26
117	-40	-12
71	-103	14
7	-159	29
-70	-200	13
-141	-223	-11
-183	-224	-31
-185	-206	-36
-148	-176	-41
-88	-141	-50
-25	-99	-39
21	-37	-38
46	52	-23
50	174	-5
44	305	-21
31	410	-26
22	438	-29
18	372	-12
18	209	6
16	-7	-15
8	-213	-27
-13	-346	-23
-49	-384	-23
-89	-333	-34
-108	-236	-36
-86	-131	-5
-12	-47	-13
98	22	-26
212	92	-21
291	174	-11
306	256	-8
257	305	-13
166	282	-13
65	181	-25
-20	23	-33
-87	-134	-46
-149	-240	-20
-217	-259	-10
-294	-206	-50
-350	-127	-53
-358	-68	-29
-295	-58	-7
-163	-80	-15
2	-91	-26
152	-47	-15
245	65	-10
262	224	-9
216	369	-9
140	430	1
60	370	-6
-4	187	-15
-57	-61	-16
-111	-300	-30
-172	-447	-28
-234	-470	-20
-271	-376	-21
-261	-222	-26
-184	-74	-35
-51	20	-30
107	52	-26
251	56	-34
336	76	-23
344	137	-28
276	233	-35
160	313	-42
28	330	-53
-87	244	-48
-168	80	-45
-203	-114	-36
-195	-265	-25
-144	-322	-15
-63	-273	-1
27	-155	1
104	-22	-7
139	74	-9
119	109	-13
52	90	-14
-24	48	-17
-75	14	-14
-70	15	-21
-16	49	-25
46	103	-17
75	147	-16
33	153	-10
-64	106	-24
-173	16	-34
-224	-93	-26
-186	-186	-20
-64	-235	-23
90	-223	-20
208	-162	-16
248	-80	-27
206	-4	-25
122	47	-20
50	77	-35
32	93	-32
63	101	-25
113	95	-27
136	68	-26
100	13	-32
8	-54	-24
-116	-111	-23
-229	-131	-24
-299	-107	-13
-304	-53	-34
-245	-4	-38
-134	9	-25
0	-15	-38
123	-55	-35
208	-79	-15
237	-54	-24
210	21	-27
151	123	-24
96	215	-24
63	271	-18
61	272	-30
66	222	-19
46	134	4
-20	23	12
-129	-98	14
-249	-214	-1
-338	-300	-11
-362	-332	-6
-321	-299	-24
-239	-204	-35
-143	-74	-35
-55	60	-33
29	168	-23
122	236	-43
234	267	-54
346	261	-39
432	222	-23
454	137	-13
394	9	-7
262	-144	3
98	-282	-26
-64	-356	-48
-207	-334	-33
-329	-223	-23
-438	-67	-21
-518	63	-34
-546	119	-35
-474	92	-36
-287	17	-39
-12	-45	-29
279	-40	-16
493	37	9
563	160	17
478	272	-4
291	325	1
82	298	-2
-70	191	-18
-141	39	-12
-151	-126	-11
-142	-268	-21
-156	-362	-31
-191	-384	-26
-225	-322	-23
-212	-191	-28
-135	-29	-32
-12	110	-44
116	179	-43
205	162	-32
226	86	-34
180	8	-37
100	-23	-23
18	14	-21
-37	88	-21
-64	150	-18
-69	158	-31
-70	95	-32
-70	-4	-24
-72	-92	-22
-71	-125	-25
-59	-102	-22
-31	-46	-18
17	4	-15
86	24	-17
171	14	-16
265	-8	-20
354	-20	-14
414	-17	-7
418	-10	-16
358	-16	-19
225	-43	-37
34	-78	-40
-184	-100	-41
-392	-92	-39
-554	-48	-24
-630	6	-13
-601	46	-9
-469	50	-11
-262	22	-16
-38	-17	-27
148	-31	-44
254	6	-44
273	95	-22
226	209	-27
154	298	-38
94	313	-23
54	228	-10
28	57	-9
-14	-152	-22
-78	-330	-23
-153	-423	-32
-209	-405	-39
-214	-292	-33
-158	-135	-39
-54	9	-17
57	106	1
153	160	2
215	185	-10
250	209	-11
266	235	-3
266	235	-13
242	178	-17
179	55	-28
74	-108	-35
-61	-253	-22
-195	-319	-25
-297	-277	-38
-343	-151	-29
-333	-5	-28
-280	87	-31
-203	94	-27
-115	32	-32
-26	-46	-30
55	-79	-23
123	-37	-26
170	58	-13
200	168	-8
216	236	-17
237	237	-8
257	180	-7
262	92	6
225	7	-6
126	-57	-27
-25	-104	-18
-193	-134	-18
-316	-153	-36
-350	-155	-49
-281	-129	-31
-156	-75	-32
-34	5	-32
27	85	-26
10	145	-37
-53	170	-44
-108	162	-40
-109	130	-19
-49	83	-7
39	26	-14
107	-47	-32
123	-142	-20
84	-246	-4
17	-332	-5
-36	-363	1
-55	-325	1
-38	-219	0
1	-85	-18
46	32	-36
87	103	-27
126	120	-35
167	115	-37
201	117	-32
216	144	-33
199	182	-25
140	193	-28
46	149	-30
-56	47	-23
-151	-76	-17
-222	-176	-22
-259	-213	-43
-269	-182	-49
-250	-113	-31
-208	-43	-24
-147	4	-33
-67	40	-35
17	89	-30
98	171	-16
167	279	-18
216	365	-11
245	385	0
245	299	-12
214	126	-18
149	-84	-23
50	-258	-18
-67	-354	-22
-184	-363	-11
-269	-312	-9
-300	-236	-26
-262	-154	-13
-164	-68	-21
-30	33	-36
105	147	-30
206	244	-11
253	294	-13
245	261	-28
193	162	-17
123	34	-18
51	-66	-34
-14	-104	-35
-80	-90	-31
-148	-58	-26
-215	-52	-22
-264	-88	-32
-277	-141	-5
-234	-171	8
-142	-140	-32
-32	-56	-45
58	43	-48
99	106	-28
90	109	-19
57	59	-26
41	3	-7
68	-23	-11
132	-3	-8
196	39	0
210	59	-14
147	31	-19
18	-44	-5
-125	-135	-3
-226	-200	-22
-243	-217	-51
-175	-184	-56
-60	-122	-28
54	-46	-28
131	32	-27
158	117	-21
137	208	-30
94	283	-34
41	320	-16
-12	291	-4
-53	204	-14
-72	86	3
-59	-21	7
-18	-83	-2
29	-97	-15
46	-90	-44
9	-101	-67
-83	-148	-64
-187	-218	-46
-250	-278	-35
-216	-278	-24
-79	-202	-14
118	-64	1
299	90	-11
387	214	-19
350	270	2
208	250	-6
25	168	-20
-133	54	-15
-222	-56	-15
-237	-143	-32
-207	-189	-26
-169	-190	-25
-149	-159	-34
-141	-105	-40
-130	-50	-44
-91	0	-35
-17	38	-26
83	71	-19
184	106	-8
263	137	-7
312	159	-15
321	150	-23
295	109	-27
234	38	-31
136	-30	-23
2	-70	-14
-154	-64	-15
-305	-20	-17
-410	31	-20
-433	54	-20
-369	24	-18
-229	-53	-40
-63	-144	-38
85	-204	-25
186	-195	-34
236	-107	-30
245	34	-35
226	186	-32
186	296	-15
118	332	-16
19	279	-35
-100	161	-43
-208	8	-24
-271	-131	-10
-262	-227	-19
-191	-258	-18
-97	-230	-15
-16	-164	1
17	-91	5
13	-34	-7
-1	-5	-16
16	3	-24
82	10	-14
184	32	-26
287	68	-30
342	106	-23
322	120	-26
223	87	-20
72	3	-21
-94	-107	-23
-235	-201	-27
-321	-245	-30
-340	-211	-32
-289	-114	-23
-187	12	-20
-57	121	-42
60	174	-37
144	169	-27
184	119	-30
188	63	-33
179	29	-39
172	31	-32
169	55	-23
151	71	-14
99	55	-16
2	-6	-19
-124	-97	-13
-244	-187	-13
-316	-234	-13
-320	-212	-7
-259	-125	-22
-159	2	-35
-55	120	-17
34	192	-10
103	197	-12
157	151	-28
200	90	-39
221	51	-33
202	56	-26
136	87	-29
33	110	-27
-79	84	-18
-162	-5	-7
-191	-133	-8
-170	-250	-12
-120	-304	-7
-72	-274	-15
-48	-174	-19
-40	-52	-32
-26	41	-40
18	87	-18
97	90	-18
186	85	-18
245	92	-16
244	116	-28
172	131	-17
52	109	-19
-69	36	-21
-158	-64	-22
-191	-153	-25
-173	-191	-31
-129	-166	-38
-82	-99	-30
-44	-29	-26
-12	11	-27
26	15	-31
78	7	-20
140	16	-18
192	64	-44
210	139	-40
175	215	-27
94	254	-28
-18	237	-17
-126	166	-16
-207	56	-25
-240	-62	-34
-229	-171	-34
-195	-249	-31
-158	-281	-15
-130	-260	-8
-109	-185	-17
-80	-71	-3
-19	47	-2
75	134	-18
188	162	-27
289	127	-27
339	58	-18
318	-4	-16
225	-34	-24
90	-28	-24
-52	-12	-34
-165	-17	-47
-236	-60	-35
-264	-122	-30
-264	-163	-16
-242	-143	-7
-191	-58	-12
-108	60	-9
5	153	-9
127	174	-24
232	117	-16
285	25	-14
275	-36	-41
208	-19	-39
115	71	-28
33	181	-8
-16	237	-5
-29	189	-11
-28	48	1
-42	-124	-9
-91	-250	-25
-173	-286	-34
-261	-246	-27
-316	-181	-23
-300	-149	-25
-202	-157	-26
-33	-177	-37
164	-149	-26
337	-40	-14
438	131	-33
439	308	-52
346	414	-42
184	410	-33
-3	313	-19
-176	168	-15
-303	27	0
-366	-87	8
-363	-176	8
-304	-252	0
-207	-309	-17
-98	-322	-24
5	-274	-35
82	-160	-31
129	-20	-38
157	95	-32
172	147	-32
193	143	-32
212	124	-18
221	132	-13
199	178	-14
140	222	-25
46	211	-18
-67	114	-27
-173	-49	-26
-241	-214	-19
-255	-304	-20
-214	-283	-15
-136	-183	-17
-44	-62	-21
33	18	-23
81	41	-26
95	37	-44
87	53	-52
70	110	-53
59	185	-43
55	228	-26
53	190	-20
40	82	-15
8	-51	-5
-42	-144	-21
-101	-158	-38
-151	-110	-17
-178	-52	-25
-178	-45	-18
-156	-98	-15
-112	-174	-21
-53	-203	-13
22	-134	-23
109	17	-27
197	193	-32
262	305	-30
284	298	-22
245	178	-13
154	12	-14
31	-127	-17
-89	-192	-17
-175	-182	-18
-221	-135	-17
-227	-99	-18
-204	-88	-16
-161	-91	-22
-99	-74	-24
-20	-29	-28
69	39	-32
154	98	-33
211	123	-33
229	110	-36
206	79	-35
159	54	-19
106	53	-2
60	68	9
18	82	0
-29	81	-18
-91	62	-28
-164	32	-40
-231	-5	-21
-269	-56	8
-269	-126	-1
-226	-207	-15
-149	-260	-23
-56	-237	-27
39	-113	-35
125	87	-30
194	287	-30
233	391	-25
231	337	-21
188	144	-21
111	-93	-15
17	-259	-37
-74	-272	-34
-149	-149	-31
-205	22	-43
-245	127	-42
-262	106	-20
-242	-17	-2
-168	-157	-23
-33	-216	-24
141	-162	-16
314	-24	-9
428	108	-5
439	166	-6
358	131	-11
210	50	-38
50	-13	-39
-75	-21	-25
-150	15	-20
-185	46	-15
-209	24	-14
-232	-63	-9
-244	-181	-22
-223	-262	-46
-147	-265	-25
-21	-187	-2
129	-58	-12
258	63	-24
329	147	-36
322	183	-38
245	196	-50
116	199	-52
-34	195	-40
-179	166	-27
-298	97	-21
-369	-16	-16
-378	-140	-8
-328	-235	-11
-237	-259	-20
-133	-200	-28
-46	-81	-31
15	53	-30
54	158	-26
95	206	-34
152	201	-28
222	162	-16
280	120	-18
296	91	-15
252	71	-25
152	51	-30
31	12	-21
-75	-47	-21
-141	-116	-23
-163	-171	-24
-158	-196	-27
-137	-188	-25
-116	-151	-18
-86	-107	-4
-45	-66	0
4	-38	-5
53	-8	-14
90	25	-15
114	62	-11
127	92	-18
138	91	-27
150	56	-21
148	-5	-9
114	-61	-32
40	-86	-41
-68	-69	-25
-186	-27	-37
-280	3	-46
-325	-4	-49
-321	-51	-54
-270	-109	-30
-185	-131	-7
-72	-83	-12
70	35	-9
238	186	-2
405	313	-12
529	365	-7
562	324	-31
478	210	-61
285	62	-37
38	-75	-40
-202	-175	-12
-378	-227	12
-459	-237	-2
-458	-218	-12
-392	-188	-34
-303	-159	-14
-197	-136	-17
-90	-118	-21
20	-92	-24
124	-44	-42
207	32	-39
256	126	-34
258	210	-24
214	252	-17
136	233	-26
40	155	-25
-59	51	2
-139	-42	-6
-191	-102	-2
-204	-126	4
-178	-130	-17
-123	-135	-18
-49	-137	-21
27	-119	-12
97	-59	-33
153	43	-62
196	161	-54
225	244	-58
231	254	-42
210	181	-21
156	57	-22
74	-60	-23
-30	-127	-29
-132	-134	-30
-222	-103	-15
-281	-77	-9
-315	-78	-16
-317	-104	-12
-285	-119	-5
-221	-93	-3
-114	-21	-17
16	78	-24
150	158	-35
253	190	-34
299	171	-20
273	127	-19
195	84	-7
90	54	-3
-6	28	-8
-71	-22	-6
-102	-105	-4
-104	-206	-8
-98	-277	-23
-84	-278	-34
-62	-198	-27
-26	-63	-27
28	65	-36
93	138	-46
154	135	-36
190	79	-30
198	20	-27
175	1	-9
135	30	6
85	80	-19
28	105	-47
-35	76	-23
-111	-4	-27
-191	-98	-26
-263	-166	-14
-311	-178	-25
-313	-145	-30
-262	-91	-38
-169	-41	-46
-50	-10	-41
70	15	-31
171	51	-30
242	106	-10
279	170	-7
290	215	-4
275	223	-1
234	179	-20
160	101	-22
53	17	-28
-79	-49	-30
-221	-88	-22
-333	-105	-30
-393	-114	-27
-389	-127	-13
-310	-147	-26
-181	-160	-30
-35	-152	-36
92	-114	-33
176	-43	-14
210	41	-20
203	119	-28
176	171	-55
162	180	-43
167	153	1
186	95	-2
194	30	7
150	-31	-7
29	-79	-27
-157	-110	-18
-358	-131	-17
-502	-135	-21
-509	-123	-30
-364	-90	-28
-99	-35	-14
199	28	-20
428	86	-46
516	124	-50
458	142	-38
302	143	-31
123	139	-21
-13	131	-12
-88	110	-6
-117	62	20
-134	-27	28
-159	-148	4
-189	-270	-12
-212	-344	-50
-206	-330	-55
-175	-224	-51
-126	-49	-50
-79	124	-13
-28	241	-9
36	261	-15
123	197	-24
226	84	-23
306	-20	-23
326	-85	-22
248	-107	-13
83	-110	-12
-124	-124	-9
-303	-157	-14
-397	-193	-27
-389	-207	-39
-300	-171	-35
-172	-85	-33
-40	34	-25
74	150	-27
172	231	-34
262	261	-25
333	249	-27
366	210	-34
339	162	-19
252	116	-8
126	76	-11
0	29	-8
-98	-24	-5
-157	-86	-14
-191	-147	-31
-218	-192	-32
-251	-208	-32
-272	-183	-32
-255	-120	-25
-181	-29	-35
-51	62	-23
97	135	-15
222	171	-36
282	174	-33
269	145	-32
203	103	-43
112	59	-24
28	15	0
-38	-24	12
-87	-64	3
-121	-97	-22
-148	-116	-26
-162	-116	-32
-161	-93	-42
-143	-55	-42
-110	-9	-38
-65	30	-34
-10	60	-35
60	81	-32
135	89	-22
203	86	-16
241	70	-21
234	37	-23
175	-13	-19
86	-65	-12
-12	-106	-2
-97	-123	-12
-159	-114	-12
-205	-95	2
-236	-80	-19
-250	-86	-37
-232	-105	-31
-170	-114	-26
-63	-93	-27
57	-23	-20
149	77	-10
178	174	-23
139	222	-20
68	206	-13
10	135	-12
5	43	-11
46	-31	-19
102	-69	-14
113	-82	-10
56	-93	-13
-55	-120	-17
-172	-163	-14
-232	-196	-36
-206	-186	-43
-107	-118	-33
21	-9	-40
128	103	-22
189	174	-25
206	189	-39
205	156	-36
198	113	-32
186	84	-28
151	80	-40
75	80	-36
-39	56	-34
-165	-6	-41
-263	-98	-27
-312	-182	-22
-303	-222	-20
-250	-195	-3
-176	-116	-7
-94	-21	-10
-4	59	-16
101	106	-13
214	132	-13
320	157	-25
375	193	-23
363	233	-35
265	244	-42
105	198	-28
-80	87	-19
-248	-62	-12
-363	-206	-9
-411	-296	-2
-392	-315	9
-317	-278	-1
-206	-218	-21
-80	-166	-33
41	-123	-34
139	-74	-27
211	4	-30
257	107	-32
280	210	-30
288	266	-19
274	238	0
232	131	-9
151	-17	-25
37	-144	-24
-93	-202	-33
-215	-186	-32
-303	-122	-32
-338	-59	-40
-319	-28	-40
-253	-26	-22
-150	-19	-20
-30	27	-15
94	121	-4
201	236	-9
271	318	-16
291	324	-30
257	240	-38
175	96	-36
77	-55	-11
-25	-167	-23
-115	-212	-36
-191	-202	-29
-258	-160	-16
-308	-117	-3
-325	-86	-13
-285	-65	-21
-174	-51	-15
-2	-30	-5
192	0	-18
355	38	-19
446	72	-12
446	99	-22
368	104	-35
245	82	-35
117	37	-32
-7	-20	-28
-125	-66	-30
-241	-90	-43
-344	-85	-36
-403	-61	-31
-391	-38	-19
-285	-24	-17
-98	-23	-26
124	-15	-15
317	8	-9
419	45	-23
407	80	-32
291	85	-13
123	49	-19
-43	-11	-21
-156	-61	-14
-197	-71	-23
-178	-36	-18
-136	20	-10
-108	48	-7
-116	21	-20
-156	-63	-13
-199	-163	-19
-215	-223	-44
-178	-205	-39
-92	-115	-42
20	7	-41
120	112	-26
180	166	-25
192	171	-28
172	154	-23
150	135	-18
131	126	-21
118	109	-15
89	66	-9
27	-5	-31
-65	-86	-39
-168	-148	-36
-243	-170	-26
-262	-149	-13
-221	-109	-20
-130	-71	-18
-23	-51	-6
76	-32	-20
153	12	-26
209	92	-16
245	198	-18
260	285	-22
242	307	-20
184	233	-19
87	81	-19
-29	-100	-9
-138	-240	-18
-214	-292	-36
-244	-251	-31
-231	-153	-21
-185	-50	-16
-123	14	-23
-50	27	-20
22	10	-26
86	4	-36
128	35	-26
140	107	-27
124	190	-20
91	239	-27
58	219	-34
32	123	-5
8	-20	3
-40	-170	-5
-124	-275	-17
-236	-317	-26
-331	-294	-32
-354	-233	-41
-263	-160	-41
-71	-93	-31
161	-29	-17
346	38	-22
418	113	-19
358	182	-9
210	227	-20
60	224	-21
-28	171	-17
-29	93	-20
19	17	-18
55	-28	-22
30	-38	-32
-62	-28	-25
-178	-27	-15
-263	-53	-22
-276	-103	-30
-210	-149	-28
-101	-158	-33
6	-114	-30
79	-25	-30
117	83	-32
133	177	-25
148	233	-36
160	243	-31
163	211	-23
142	147	-7
95	56	12
28	-53	-3
-43	-165	-9
-104	-258	-24
-156	-304	-23
-197	-292	-16
-231	-229	-18
-240	-136	-20
-209	-48	-37
-129	15	-32
-12	46	-34
111	61	-38
206	75	-28
249	93	-30
239	114	-27
198	124	-20
159	120	-10
127	103	14
102	83	-5
57	64	-40
-22	41	-35
-130	5	-28
-240	-55	-25
-310	-129	-27
-313	-192	-27
-243	-210	-18
-118	-163	-25
21	-61	-53
141	60	-53
216	160	-40
236	202	-15
204	183	-11
140	122	-21
63	49	-32
-3	-8	-34
-49	-38	-15
-69	-49	-12
-79	-45	-9
-93	-42	-6
-121	-43	-5
-158	-52	-11
-183	-68	-18
-170	-87	-15
-103	-98	-25
7	-85	-28
130	-37	-33
228	45	-40
269	143	-31
253	223	-1
194	257	-4
121	233	-19
48	158	4
-18	56	-12
-91	-48	-27
-175	-145	-32
-264	-236	-30
-343	-312	-23
-374	-359	-42
-336	-358	-50
-228	-291	-44
-74	-159	-29
93	8	-28
237	160	-36
328	254	-11
360	274	10
336	235	11
269	161	16
172	82	-8
65	11	-23
-42	-52	-32
-134	-109	-46
-203	-154	-43
-239	-166	-28
-237	-134	-17
-202	-66	-29
-138	14	-28
-48	74	-14
58	98	-12
167	93	-18
262	93	-24
325	123	-27
331	183	-36
267	238	-34
136	241	-21
-39	159	-29
-226	-1	-19
-374	-189	-11
-448	-337	-8
-425	-392	-15
-319	-345	-28
-156	-228	-23
16	-94	-26
154	11	-38
231	68	-38
245	91	-19
214	97	-12
166	105	-12
123	113	-11
97	117	-27
84	106	-24
69	83	-25
44	49	-20
0	18	-12
-63	-13	-26
-132	-47	-31
-193	-85	-28
-228	-117	-32
-224	-131	-34
-177	-110	-30
-95	-53	-35
4	31	-26
100	118	-8
170	187	-7
207	218	-8
215	215	-2
206	190	-11
184	143	-11
150	78	-10
91	-11	-32
0	-122	-32
-115	-242	-30
-231	-338	-30
-310	-378	-28
-320	-344	-34
-248	-244	-32
-116	-114	-35
36	2	-40
166	71	-22
238	96	-20
245	100	-30
204	117	-32
131	162	-14
44	219	3
-37	250	-9
-108	215	-15
-156	106	-19
-175	-49	-8
-164	-195	-7
-130	-273	-31
-95	-262	-48
-70	-175	-42
-66	-56	-23
-68	48	-32
-55	114	-35
-8	145	-30
69	162	-35
157	181	-21
216	201	-12
230	199	-12
186	153	-21
107	57	-13
23	-75	11
-44	-205	20
-91	-298	-2
-126	-334	-19
-161	-320	-18
-191	-268	-34
-202	-196	-43
-173	-115	-59
-96	-25	-63
15	66	-49
129	150	-28
212	205	-23
245	221	-34
221	199	-20
159	154	-20
77	110	-32
-6	77	-24
-85	49	-18
-155	9	-10
-205	-52	-9
-229	-125	-5
-213	-181	-1
-161	-184	-16
-78	-124	-36
11	-19	-36
91	85	-30
147	145	-26
179	149	-19
193	109	-24
196	71	-21
191	61	-10
171	81	-8
125	98	-14
52	75	-22
-42	0	-30
-143	-108	-31
-226	-200	-33
-271	-237	-32
-263	-204	-40
-210	-131	-43
-115	-58	-39
-4	-14	-39
104	6	-33
184	32	-23
227	94	-12
230	189	3
200	282	16
149	312	20
86	237	11
22	67	1
-42	-141	-10
-107	-309	-22
-170	-370	-27
-225	-311	-35
-260	-176	-40
-271	-30	-37
-250	68	-37
-201	104	-45
-131	96	-35
-48	86	-27
39	96	-22
135	120	-4
232	125	-15
325	78	-27
392	-17	-15
407	-130	-5
351	-209	-8
226	-218	-8
49	-161	-10
-136	-77	-26
-281	-14	-30
-358	-4	-30
-353	-36	-45
-289	-65	-48
-189	-52	-40
-80	15	-40
24	114	-35
113	193	-18
180	213	-15
216	169	-23
204	91	-23
145	21	-12
46	-18	-4
-59	-27	-9
-144	-39	-6
-185	-77	-5
-180	-141	-25
-150	-202	-18
-118	-221	-9
-100	-168	-24
-89	-54	-22
-65	81	-30
-14	190	-46
69	241	-50
164	233	-50
238	191	-30
261	147	-17
229	118	-21
148	97	-22
50	66	-18
-44	12	-13
-115	-64	-21
-165	-143	-24
-195	-202	-22
-210	-224	-19
-205	-208	-17
-170	-165	-27
-110	-109	-26
-30	-51	-25
53	6	-32
123	58	-31
172	103	-14
202	127	-12
219	123	-21
225	93	-19
212	44	-28
167	0	-29
85	-28	-26
-33	-32	-32
-163	-23	-30
-273	-13	-28
-335	-13	-21
-329	-25	-14
-258	-39	-30
-139	-47	-42
-1	-43	-22
126	-29	-11
214	-15	-13
245	-3	-35
209	6	-24
119	19	9
0	34	-3
-112	47	-10
-180	47	-12
-190	29	-13
-149	-1	-20
-81	-31	-19
-15	-49	-10
33	-57	-17
63	-65	-19
91	-90	-24
127	-123	-21
170	-149	-19
203	-131	-34
207	-49	-37
172	76	-28
111	196	-34
45	253	-25
-3	206	-16
-28	70	-21
-47	-95	-24
-81	-215	-32
-142	-242	-30
-221	-175	-21
-285	-65	-30
-298	24	-29
-238	51	-9
-111	19	-20
48	-21	-38
195	-21	-44
287	50	-40
306	174	-18
258	300	-22
165	366	-20
59	341	-1
-33	229	-4
-98	70	-8
-130	-78	-5
-144	-181	-6
-148	-230	-17
-155	-246	-21
-162	-259	-8
-160	-278	-21
-129	-292	-35
-58	-268	-35
52	-177	-34
178	-16	-50
277	179	-47
317	340	-42
266	406	-46
148	350	-31
-4	197	-32
-136	15	-26
-218	-124	-28
-240	-171	-27
-225	-135	-23
-205	-61	-17
-202	-10	-9
-215	-14	-8
-218	-71	-6
-183	-143	-20
-95	-181	-32
38	-159	-28
186	-83	-18
311	14	-16
382	96	-22
393	138	-22
351	135	-19
269	105	-13
159	66	-17
26	33	-12
-117	7	-2
-252	-14	-12
-351	-32	-15
-392	-51	-21
-360	-61	-31
-268	-60	-32
-145	-44	-36
-26	-13	-34
61	32	-20
111	79	-21
134	109	-16
147	117	-12
163	95	-12
194	50	-8
232	-3	-20
262	-48	-6
262	-76	-12
219	-90	-24
120	-95	-16
-25	-106	-20
-185	-122	-8
-310	-133	-19
-354	-119	-43
-295	-61	-43
-143	34	-40
46	150	-57
207	244	-66
287	287	-46
267	251	-19
172	150	-12
56	21	-8
-41	-99	-2
-103	-175	-15
-143	-205	-27
-198	-204	-28
-280	-203	-28
-383	-211	-33
-453	-224	-37
-439	-216	-36
-311	-163	-22
-79	-60	-16
199	68	-23
439	187	-15
569	259	-1
558	268	3
428	233	-6
234	179	-4
44	125	-6
-87	77	-17
-145	19	-14
-152	-58	-9
-137	-151	-21
-136	-230	-36
-152	-257	-30
-173	-218	-32
-172	-125	-37
-128	-16	-41
-43	68	-38
65	110	-30
162	118	-28
219	122	-20
226	143	-21
186	182	-23
119	209	-25
48	189	-19
-17	110	-14
-75	-11	-16
-130	-130	-21
-195	-207	-33
-262	-218	-40
-327	-176	-38
-366	-110	-33
-352	-49	-38
-271	-11	-30
-115	16	-24
97	43	-16
333	86	0
534	135	-4
645	168	-6
631	165	-9
484	113	-13
249	25	0
-10	-82	-4
-223	-179	-16
-338	-249	-25
-348	-277	-42
-281	-261	-37
-186	-209	-40
-105	-128	-36
-53	-38	-20
-28	45	-19
-7	117	-24
20	174	-15
45	233	-17
53	287	-27
25	325	-19
-36	317	-21
-110	233	-24
-161	71	-31
-167	-131	-35
-123	-305	-28
-50	-388	-8
19	-349	-11
64	-225	-22
82	-86	-22
85	1	-37
92	6	-30
113	-35	-20
139	-63	-13
161	-25	-12
163	77	-18
148	191	-1
122	248	-8
87	213	-38
40	105	-51
-37	-15	-50
-157	-82	-51
-303	-86	-47
-433	-53	-48
-501	-44	-24
-468	-89	8
-330	-163	26
-128	-214	26
82	-181	7
245	-59	4
344	104	-11
389	233	-17
405	260	-19
406	189	-25
383	64	-35
324	-38	-46
210	-77	-34
60	-56	-31
-91	-26	-28
-201	-34	-31
-255	-90	-36
-262	-159	-32
-251	-186	-28
-252	-133	-31
-261	-13	-30
-253	123	-27
-190	213	-27
-61	227	-24
110	174	-32
266	109	-27
346	69	-20
326	68	-22
212	81	-24
58	65	-23
-81	2	-19
-170	-97	-20
-205	-188	-16
-207	-233	-13
-200	-215	-26
-193	-151	-32
-177	-77	-24
-132	-19	-25
-50	14	-28
59	38	-31
172	68	-23
259	112	-24
299	153	-11
288	166	-7
237	140	-6
161	81	-7
69	8	-27
-23	-56	-31
-113	-111	-32
-188	-155	-20
-239	-198	-18
-256	-232	-11
-239	-235	-13
-195	-182	-41
-142	-62	-44
-97	97	-37
-63	251	-36
-39	340	-27
-5	338	-27
55	244	-26
153	108	-21
271	-27	-11
373	-125	4
414	-181	0
355	-209	-6
193	-232	-14
-40	-250	-24
-276	-252	-17
-443	-214	-11
-486	-127	-26
-403	-12	-34
-231	100	-32
-25	174	-28
156	192	-32
280	168	-36
338	128	-31
338	101	-18
291	96	-13
209	101	-19
88	91	-16
-52	48	-36
-188	-19	-32
-285	-97	-15
-319	-152	-30
-286	-160	-18
-208	-124	-19
-122	-60	-24
-55	3	-22
-18	47	-24
11	68	-24
58	74	-20
137	86	-11
239	116	-28
321	163	-17
339	203	-7
262	205	-12
107	143	-15
-85	13	-19
-248	-154	-10
-339	-308	-20
-333	-390	-20
-248	-371	-11
-122	-260	-16
4	-104	-21
100	35	-22
157	116	-31
175	131	-32
167	114	-34
143	101	-42
115	116	-40
84	147	-36
52	157	-38
18	115	-30
-24	19	-20
-68	-95	-26
-117	-178	-22
-158	-192	-22
-181	-145	-37
-185	-74	-35
-172	-25	-23
-149	-25	-18
-119	-58	-3
-86	-85	-1
-34	-65	-17
41	6	-19
142	97	-23
245	165	-25
317	170	-20
320	117	-25
239	35	-33
94	-35	-31
-72	-68	-22
-211	-68	-19
-285	-57	-12
-285	-58	-11
-234	-72	-7
-162	-86	-12
-91	-72	-17
-25	-22	-24
41	57	-30
107	138	-30
164	195	-40
174	214	-36
113	205	-39
-22	181	-52
-194	155	-51
-338	121	-50
-380	70	-39
-275	-13	-13
-39	-120	16
260	-230	23
521	-311	10
652	-337	-2
614	-304	1
433	-225	4
187	-132	-16
-32	-51	-16
-151	7	-21
-150	43	-23
-63	71	-29
35	97	-45
80	118	-30
30	127	-42
-101	115	-50
-262	81	-36
-392	27	-28
-443	-33	-13
-394	-97	-16
-273	-149	-21
-122	-179	-27
17	-171	-25
111	-112	-19
158	-5	-19
162	129	-24
143	247	-42
122	310	-44
106	291	-27
96	205	-26
86	91	-35
67	-8	-25
34	-61	-19
-14	-80	-30
-72	-90	-33
-131	-124	-14
-172	-185	-24
-181	-239	-36
-152	-240	-16
-90	-156	-14
-9	0	-24
71	174	-14
130	301	9
159	335	5
156	268	-5
133	142	1
99	12	-3
61	-85	-17
19	-133	-20
-27	-153	-23
-81	-164	-24
-138	-178	-25
-190	-191	-24
-225	-184	-34
-227	-151	-43
-190	-93	-38
-117	-27	-32
-21	32	-30
82	82	-36
172	123	-28
242	161	-18
280	189	-21
291	199	-13
269	178	-15
209	125	-21
106	52	-15
-35	-21	-14
-191	-79	-11
-332	-119	-15
-409	-149	-24
-392	-177	-27
-289	-199	-36
-125	-197	-41
44	-153	-36
175	-58	-37
241	66	-34
250	185	-26
228	255	-21
202	251	-9
180	179	-5
148	68	-5
90	-36	-8
-3	-114	-24
-118	-154	-34
-223	-168	-31
-280	-169	-32
-278	-161	-30
-226	-139	-30
-147	-99	-28
-67	-40	-26
-2	27	-30
52	90	-26
107	139	-40
158	174	-64
194	193	-62
194	197	-42
152	178	-15
80	131	8
8	60	11
-28	-17	23
-18	-76	28
18	-105	25
36	-107	20
5	-108	0
-88	-133	-12
-199	-184	-27
-271	-235	-42
-248	-238	-37
-118	-166	-34
79	-24	-41
270	137	-47
383	252	-40
375	268	-31
266	186	-28
101	54	-32
-61	-64	-36
-182	-125	-28
-250	-126	-17
-279	-103	-12
-281	-93	-14
-268	-106	-19
-225	-124	-21
-147	-109	-25
-35	-39	-20
86	70	-18
187	177	-28
245	238	-39
250	233	-45
216	174	-21
163	98	-16
107	35	-46
52	-1	-56
-7	-25	-43
-81	-49	-39
-158	-80	-25
-221	-104	-10
-244	-107	-1
-217	-81	21
-148	-33	19
-57	12	12
28	43	5
91	54	-15
132	58	-25
161	66	-30
184	78	-23
202	81	-33
198	60	-35
156	14	-32
71	-46	-32
-44	-93	-31
-162	-109	-27
-251	-99	-19
-288	-86	-23
-271	-98	-17
-210	-138	-18
-124	-188	-14
-34	-204	-17
52	-158	-28
127	-47	-25
190	96	-27
231	215	-23
238	275	-26
209	259	-27
141	187	-27
49	94	-27
-51	14	-25
-136	-41	-26
-191	-82	-25
-215	-111	-27
-210	-134	-25
-190	-137	-27
-172	-106	-32
-161	-32	-37
-150	63	-40
-119	153	-33
-48	196	-39
82	179	-46
263	110	-20
465	19	11
624	-53	2
678	-90	-8
589	-95	1
363	-87	-11
50	-100	-27
-263	-145	-32
-509	-214	-27
-626	-272	-2
-610	-280	-10
-491	-222	-38
-321	-92	-51
-142	67	-45
14	221	-20
136	328	-8
222	372	-16
266	358	-10
271	300	5
238	215	6
172	112	-3
85	-5	-12
-13	-124	-23
-109	-233	-35
-198	-309	-32
-262	-334	-28
-294	-304	-26
-272	-227	-27
-194	-123	-30
-71	-19	-32
65	68	-30
182	131	-27
248	166	-35
254	178	-27
212	171	-23
139	148	-24
60	114	-27
-18	72	-29
-95	26	-28
-165	-25	-26
-216	-78	-18
-230	-127	-22
-191	-162	-33
-101	-173	-22
16	-147	-6
123	-85	-8
191	0	-8
211	87	-11
199	149	-18
182	171	-31
183	159	-36
196	120	-42
204	77	-29
172	39	-3
91	6	-21
-39	-29	-34
-187	-72	-27
-315	-123	-19
-390	-167	-23
-407	-182	-33
-374	-163	-36
-311	-110	-40
-232	-45	-28
-140	11	-22
-30	50	-22
101	74	-13
245	100	-12
373	134	-15
450	174	-9
439	203	-14
342	195	-22
171	137	-10
-22	36	-6
-187	-77	-3
-286	-173	-12
-314	-223	-22
-295	-222	-35
-262	-177	-47
-248	-109	-40
-247	-36	-36
-229	34	-27
-145	93	-24
29	132	-11
283	148	-5
553	130	-8
746	84	-6
775	21	-16
608	-41	-23
288	-89	-22
-91	-120	-24
-405	-142	-21
-565	-166	-25
-550	-192	-36
-402	-211	-48
-210	-198	-55
-60	-145	-56
-2	-49	-63
-28	62	-71
-91	154	-55
-131	202	-29
-107	201	-3
-10	174	18
138	150	35
288	149	32
392	158	29
406	149	26
309	87	1
111	-35	-6
-140	-187	-21
-374	-312	-26
-509	-353	-29
-501	-287	-35
-350	-139	-43
-112	38	-39
121	180	-40
270	250	-55
317	249	-37
281	205	-35
230	152	-36
204	103	-36
209	55	-13
204	-8	-8
137	-84	-17
-17	-159	-8
-231	-204	-21
-437	-202	-21
-553	-158	-23
-535	-95	-28
-392	-42	-38
-182	-12	-34
25	5	-33
183	31	-33
274	78	-30
314	133	-28
319	174	-14
302	170	-17
258	114	-13
178	25	-5
68	-59	-2
-55	-113	-10
-164	-127	-21
-232	-118	-21
-253	-112	-34
-231	-114	-36
-180	-119	-32
-115	-103	-32
-43	-47	-36
34	41	-36
111	139	-32
181	210	-21
225	230	-15
234	198	-17
204	137	-15
143	66	-21
62	1	-25
-21	-55	-29
-100	-113	-25
-170	-168	-23
-223	-212	-27
-250	-230	-35
-244	-206	-37
-198	-144	-30
-112	-57	-20
3	38	-12
124	125	-13
236	194	-6
313	244	-20
343	268	-19
320	261	-9
244	209	-15
115	110	-25
-40	-22	-12
-202	-166	-2
-333	-280	-16
-402	-337	-19
-392	-325	-36
-312	-249	-34
-181	-140	-42
-40	-30	-47
75	52	-30
148	100	-12
184	118	4
202	126	-8
223	138	-11
245	154	-18
260	156	-11
225	123	-15
124	46	-33
-35	-61	-27
-208	-170	-11
-336	-235	-17
-361	-236	-38
-272	-177	-30
-109	-94	-35
53	-30	-40
141	-2	-33
124	-5	-8
32	-3	-5
-63	32	-35
-90	109	-36
-16	199	-25
126	256	-22
258	250	-40
302	174	-20
229	66	-6
54	-37	-24
-150	-104	-24
-310	-135	-17
-383	-150	-16
-369	-166	-27
-288	-187	-23
-178	-186	-21
-52	-137	-19
85	-34	-11
225	99	-5
342	213	-5
406	268	-13
387	252	2
285	186	-17
135	115	-42
-16	71	-40
-130	55	-51
-201	37	-53
-239	-11	-46
-269	-104	-36
-299	-211	-31
-311	-287	-21
-273	-296	-15
-167	-232	-15
-7	-127	-18
161	-31	-20
284	25	-14
330	44	-17
299	51	-14
223	72	-14
139	110	-25
72	139	-36
17	134	-33
-46	77	-28
-125	-9	-30
-212	-85	-33
-276	-108	-40
-285	-79	-24
-228	-27	-3
-116	6	5
20	-7	0
144	-51	-3
234	-86	-7
284	-68	-17
299	5	-14
280	100	-23
237	164	-21
164	156	-23
65	77	-27
-50	-33	-30
-168	-120	-38
-272	-150	-35
-344	-123	-23
-372	-70	-9
-340	-27	-13
-247	-7	-21
-97	1	-22
83	18	-17
245	56	-21
351	106	-25
365	147	-29
292	154	-38
170	131	-24
43	95	-20
-42	57	-25
-76	28	-25
-76	-13	-30
-71	-79	-41
-94	-173	-35
-144	-263	-8
-199	-308	-10
-227	-268	-26
-201	-144	-41
-127	19	-33
-35	160	-20
39	225	-34
65	210	-34
39	150	-30
-17	98	-11
-65	98	-3
-78	135	-17
-34	166	-17
49	130	-15
143	4	-9
205	-183	-9
208	-362	-14
142	-454	-11
30	-416	-14
-85	-260	-31
-164	-59	-36
-172	106	-38
-111	188	-36
-4	179	-34
107	125	-23
188	81	-8
214	83	-15
187	122	-16
129	166	-22
62	174	-20
9	130	-29
-37	49	-36
-82	-36	-21
-133	-96	-17
-188	-122	-16
-236	-125	-27
-255	-127	-37
-232	-138	-43
-172	-142	-36
-85	-119	-30
6	-51	-26
89	49	-20
157	153	-20
212	218	-18
257	221	-19
270	170	-19
239	92	-25
139	21	-17
-20	-22	-3
-205	-41	-4
-358	-55	-13
-425	-86	-18
-374	-130	-19
-215	-176	-24
-3	-198	-21
202	-187	-26
341	-139	-24
387	-70	-17
346	3	-22
257	70	-28
151	125	-20
58	165	-14
-12	178	-19
-68	158	-24
-119	104	-32
-178	28	-34
-243	-43	-27
-305	-90	-27
-338	-102	-26
-318	-93	-25
-225	-86	-25
-60	-95	-12
137	-115	-23
322	-111	-46
432	-57	-48
439	58	-37
358	200	-28
216	299	-9
71	294	1
-38	162	-12
-107	-51	-15
-152	-263	-4
-195	-373	10
-249	-345	4
-294	-200	-9
-296	-25	-25
-235	94	-28
-118	118	-31
13	67	-38
107	10	-43
138	9	-35
110	80	-15
66	193	-24
54	273	-30
103	274	-24
196	183	-33
284	45	-35
310	-86	-28
241	-167	-21
81	-188	-12
-119	-176	-9
-300	-155	-13
-405	-139	-13
-415	-120	-14
-339	-84	-17
-207	-24	-33
-55	52	-50
86	118	-38
198	157	-18
270	158	-15
300	134	-21
281	98	-30
223	58	-27
127	18	-15
8	-27	-11
-118	-70	-9
-232	-105	-15
-319	-112	-28
-364	-88	-28
-361	-43	-34
-311	-1	-28
-215	13	-31
-89	-3	-35
54	-41	-38
200	-68	-48
327	-60	-32
413	-16	-20
446	47	-18
409	91	-20
306	89	-12
149	32	1
-26	-54	2
-187	-137	-8
-297	-179	-17
-343	-173	-24
-330	-129	-29
-272	-76	-30
-195	-31	-30
-110	-3	-27
-23	25	-35
69	67	-31
159	127	-31
232	187	-35
268	221	-27
249	201	-9
181	134	-12
78	43	-19
-29	-33	-9
-115	-72	-13
-169	-77	-12
-191	-68	-17
-188	-76	-23
-166	-110	-32
-122	-148	-33
-56	-154	-21
21	-98	-27
100	15	-23
159	149	-13
188	240	-17
188	244	-7
170	161	3
145	26	-23
115	-93	-24
74	-154	-12
2	-151	-26
-94	-113	-28
-202	-81	-34
-285	-72	-43
-317	-82	-51
-282	-71	-40
-198	-21	-25
-92	67	-26
9	155	-26
87	195	-13
142	171	-7
182	95	-24
210	15	-28
216	-31	-25
195	-32	-23
136	-11	-20
48	-9	-16
-49	-46	-13
-133	-117	-17
-189	-177	-21
-213	-195	-34
-210	-153	-39
-187	-74	-36
-148	4	-31
-90	53	-32
-14	70	-33
75	80	-31
159	104	-21
222	151	-20
245	197	-20
222	200	-11
156	138	-8
65	10	-4
-35	-139	-7
-124	-260	-4
-184	-313	1
-202	-291	-6
-169	-219	-9
-91	-135	-20
10	-67	-38
101	-16	-41
151	32	-32
144	98	-43
89	182	-36
18	261	-19
-31	301	-25
-29	275	-32
15	187	-27
69	60	-24
91	-58	-15
52	-136	-8
-49	-166	-22
-180	-162	-19
-291	-147	-17
-350	-136	-20
-336	-122	-27
-262	-86	-35
-154	-13	-30
-34	86	-24
86	182	-16
205	233	-19
318	215	-16
407	143	-18
446	49	-21
417	-24	-16
310	-57	-29
144	-60	-37
-40	-67	-31
-199	-102	-35
-303	-167	-14
-330	-227	1
-288	-242	-7
-195	-188	-18
-72	-76	-24
54	49	-28
162	139	-28
229	164	-27
241	129	-40
201	72	-25
130	31	-22
51	26	-25
-15	45	-27
-63	62	-37
-110	52	-23
-168	7	-17
-244	-57	-31
-315	-120	-35
-354	-160	-25
-325	-171	-8
-217	-154	11
-55	-111	4
123	-47	-13
269	35	-26
350	121	-22
360	185	-35
314	204	-36
231	168	-13
127	87	-3
11	-3	-6
-110	-63	-26
-218	-79	-23
-291	-52	-23
-310	-16	-25
-267	0	-19
-180	-18	-19
-79	-59	-25
6	-91	-31
57	-88	-39
83	-39	-46
103	39	-39
132	125	-34
175	191	-41
212	223	-24
216	222	-2
175	193	-5
83	145	5
-32	80	-3
-139	-8	-10
-206	-113	-8
-223	-229	-18
-188	-332	-16
-126	-402	-24
-60	-413	-29
-5	-356	-35
33	-238	-33
60	-85	-36
86	70	-33
117	193	-24
151	259	-32
175	265	-23
170	227	-19
128	162	-34
51	93	-46
-42	25	-38
-124	-39	-28
-170	-100	-15
-170	-149	-16
-135	-169	-14
-89	-153	-5
-49	-98	-6
-23	-24	-11
0	44	-20
35	89	-25
87	106	-30
143	112	-30
180	123	-32
174	153	-31
122	188	-27
39	203	-25
-42	170	-22
-102	81	-28
-136	-48	-26
-160	-175	-20
-195	-256	-18
-247	-263	-5
-296	-201	-11
-304	-100	-21
-243	-2	-26
-109	56	-30
63	70	-29
223	59	-27
323	51	-27
342	64	-25
297	93	-22
214	109	-21
127	88	-19
44	18	-24
-39	-78	-23
-134	-160	-23
-234	-189	-25
-312	-158	-26
-330	-90	-31
-262	-30	-13
-118	-10	-7
77	-27	-18
263	-48	-16
399	-29	-22
450	48	-12
415	161	-5
320	252	-12
194	264	-11
60	174	-15
-68	9	-16
-185	-163	-23
-285	-274	-27
-357	-291	-21
-389	-227	-17
-366	-130	-24
-291	-52	-34
-185	-17	-40
-71	-13	-24
14	-10	-19
60	22	-40
74	85	-40
82	162	-30
118	225	-32
194	244	-23
292	221	-18
368	153	-13
369	60	-17
262	-39	-32
68	-134	-20
-161	-207	-26
-339	-246	-40
-405	-235	-47
-337	-178	-45
-175	-94	-35
4	-6	-26
129	54	-20
160	88	-23
115	102	-19
42	122	-5
2	160	16
20	202	3
83	215	-4
140	171	-7
140	62	-14
63	-88	-12
-74	-222	-19
-216	-285	-18
-307	-263	-23
-308	-176	-30
-227	-82	-34
-101	-27	-38
24	-25	-44
114	-46	-44
162	-42	-40
181	15	-30
192	120	-19
199	225	-22
194	270	-23
158	230	-22
86	117	-16
-15	-21	-8
-117	-127	-15
-191	-174	-18
-222	-167	-17
-206	-140	-22
-166	-125	-28
-112	-129	-41
-55	-133	-28
12	-107	-19
92	-31	-27
178	81	-28
253	194	-41
280	267	-46
244	279	-40
136	236	-21
-6	160	-12
-142	83	-13
-227	13	-3
-247	-49	-4
-215	-120	7
-167	-202	4
-132	-275	-14
-121	-313	-20
-122	-278	-25
-106	-171	-36
-52	-15	-30
39	139	-19
147	244	-40
234	274	-39
269	238	-18
252	170	-17
192	104	-16
111	58	-2
31	18	-13
-43	-35	-19
-114	-114	-16
-183	-211	-24
-245	-288	-21
-281	-309	-35
-279	-256	-33
-226	-144	-34
-133	-16	-42
-27	90	-35
66	149	-41
128	166	-47
159	162	-35
171	161	-18
184	162	-28
205	150	-48
231	103	-21
245	10	18
236	-111	10
189	-224	-7
105	-283	-11
-6	-269	-33
-129	-183	-24
-242	-55	-8
-319	70	-21
-337	158	-21
-282	191	-5
-163	177	0
-8	135	-19
138	91	-26
227	62	-26
229	49	-24
150	45	-9
26	31	-6
-95	-1	-23
-175	-52	-28
-203	-108	-24
-197	-147	-31
-178	-159	-23
-160	-143	-21
-138	-112	-32
-93	-80	-29
-10	-50	-31
104	-20	-27
221	26	-21
300	96	-29
313	177	-35
258	244	-37
158	264	-32
48	219	-27
-37	110	-18
-88	-32	-17
-109	-174	-24
-117	-274	-24
-121	-319	-30
-124	-301	-31
-115	-237	-36
-84	-137	-34
-29	-20	-25
42	93	-24
115	189	-20
175	248	-27
209	262	-34
212	237	-15
188	181	-11
138	116	-15
69	48	-12
-12	-13	-20
-102	-67	-22
-191	-113	-23
-264	-142	-34
-314	-149	-35
-321	-129	-30
-280	-97	-30
-195	-64	-24
-87	-40	-30
22	-19	-37
109	23	-28
162	97	-19
190	195	-5
209	275	2
238	282	5
269	174	-15
278	-34	-7
234	-278	7
113	-460	-1
-66	-509	-13
-259	-410	-19
-397	-222	-12
-433	-41	-27
-352	51	-27
-191	43	-29
-14	-18	-27
126	-48	-32
201	5	-48
216	139	-43
199	291	-36
171	372	-31
133	336	-22
85	194	-28
12	15	-34
-69	-122	-8
-140	-163	-17
-177	-121	-30
-173	-43	-40
-150	12	-40
-136	20	-23
-152	-1	-19
-182	-11	3
-191	22	-10
-125	98	-9
27	174	8
238	205	2
439	164	-4
549	58	-11
508	-68	-28
328	-168	-45
49	-208	-43
-245	-192	-46
-469	-149	-34
-573	-108	-27
-546	-89	-27
-392	-88	-20
-157	-87	-10
122	-74	-12
384	-42	-11
566	5	-15
619	55	-28
523	103	-27
309	143	-38
49	170	-35
-169	171	-34
-281	135	-36
-277	58	-17
-199	-46	-9
-112	-144	-13
-75	-204	-6
-99	-196	-11
-154	-133	-20
-191	-46	-17
-175	26	-25
-99	54	-27
8	43	-42
106	20	-30
167	21	-26
183	61	-37
172	127	-30
150	185	-27
119	194	-11
76	137	-14
13	27	-28
-66	-96	-29
-147	-190	-23
-204	-229	-28
-225	-210	-23
-205	-160	-23
-157	-103	-28
-91	-61	-20
-19	-34	-20
52	-9	-25
123	27	-30
179	85	-16
203	150	-16
175	205	-15
101	228	-13
-10	207	-20
-116	152	-16
-184	77	-22
-193	5	-36
-150	-53	-36
-83	-97	-13
-26	-134	-7
-1	-173	-11
-10	-208	-16
-29	-227	-31
-41	-206	-35
-31	-137	-24
-6	-24	-20
25	100	-42
48	194	-38
64	229	-19
80	189	-23
100	100	-19
122	-7	-17
124	-90	-18
93	-129	-20
18	-126	-15
-77	-101	-4
-155	-77	-14
-174	-60	-19
-116	-57	-15
10	-48	-21
164	-24	-17
299	18	-7
374	72	-11
389	121	-23
340	150	-40
245	143	-48
120	104	-40
-33	37	-36
-198	-43	-33
-358	-119	-27
-475	-171	-40
-518	-186	-40
-473	-157	-25
-351	-92	-15
-191	-4	-24
-40	80	-13
69	139	5
139	165	4
181	156	5
213	122	-7
242	84	-16
252	53	-21
226	35	-30
151	30	-26
41	23	-30
-77	6	-35
-170	-32	-30
-221	-89	-19
-228	-154	-11
-209	-209	-18
-181	-233	-22
-149	-212	-21
-110	-142	-30
-61	-41	-39
-10	68	-42
28	160	-36
45	210	-34
49	219	-34
63	190	-27
115	139	-20
216	82	-19
337	26	-15
423	-26	-11
415	-76	-17
283	-118	-17
56	-149	-12
-189	-162	-19
-363	-152	-27
-407	-120	-16
-317	-77	-22
-150	-32	-23
16	11	-18
121	48	-14
151	80	-21
132	103	-30
106	112	-15
101	99	-17
110	61	-20
110	7	-13
68	-48	-25
-20	-85	-34
-138	-92	-34
-249	-75	-31
-320	-44	-32
-331	-24	-30
-287	-21	-31
-205	-30	-34
-101	-26	-31
1	7	-32
83	79	-37
121	168	-35
107	233	-26
50	244	-19
-20	181	-15
-56	60	-13
-20	-78	-8
94	-189	-5
241	-241	-8
350	-233	1
355	-187	6
237	-141	-11
30	-114	-22
-174	-104	-17
-287	-92	-28
-268	-49	-36
-129	25	-25
52	123	-16
195	208	-8
234	244	-19
175	214	-30
59	130	-35
-53	25	-35
-125	-67	-29
-154	-124	-35
-157	-147	-32
-158	-148	-24
-162	-145	-21
-152	-151	-28
-111	-149	-35
-30	-123	-33
69	-62	-38
157	29	-40
192	135	-24
171	227	-20
105	275	-22
32	277	-16
-20	235	-20
-35	162	-21
-22	74	-20
-1	-21	-9
6	-113	-7
-12	-192	-12
-50	-242	0
-102	-248	-5
-147	-200	-18
-172	-106	-31
-163	12	-44
-117	127	-40
-35	207	-30
69	239	-19
170	222	-13
239	170	-30
256	96	-38
216	15	-30
133	-66	-26
34	-140	-31
-58	-198	-30
-129	-231	-35
-174	-232	-26
-197	-204	-16
-197	-161	-19
-169	-118	-13
-104	-88	-11
-6	-58	-7
101	-20	-4
179	51	-10
197	157	-18
144	268	-13
41	341	-7
-65	334	-20
-126	229	-20
-121	49	-21
-60	-143	-27
13	-286	-21
51	-337	-28
32	-297	-31
-38	-208	-32
-117	-118	-35
-162	-58	-40
-150	-24	-35
-77	11	-30
22	69	-34
114	153	-32
175	228	-30
202	259	-28
203	218	-30
191	122	-41
171	9	-52
133	-76	-35
76	-106	-15
-6	-93	-14
-102	-61	-11
-193	-44	2
-259	-46	17
-285	-52	-2
-269	-40	-16
-210	6	-19
-120	74	-22
-7	135	-17
111	162	-25
216	145	-21
296	98	-24
326	36	-6
302	-16	15
234	-62	11
130	-114	-9
15	-176	-29
-99	-230	-40
-202	-254	-45
-290	-224	-44
-354	-134	-39
-379	-18	-24
-347	89	-19
-250	150	-38
-93	165	-49
97	155	-34
268	150	-26
373	166	-22
394	180	-11
320	157	-11
184	68	-11
36	-69	-13
-87	-217	-22
-156	-312	-25
-170	-316	-25
-151	-237	-22
-123	-118	-18
-108	-17	-25
-108	34	-33
-108	39	-37
-85	31	-38
-23	48	-36
75	96	-30
186	158	-24
273	195	-10
300	182	-7
248	117	-11
133	24	-3
-12	-63	-16
-148	-123	-20
-239	-151	-20
-273	-159	-23
-262	-156	-22
-223	-143	-25
-172	-118	-21
-112	-71	-32
-42	-7	-36
43	63	-27
139	116	-14
228	145	-9
280	151	-21
283	147	-23
227	142	-30
124	138	-30
8	126	-25
-100	84	-19
-180	10	-23
-227	-84	-45
-251	-169	-49
-260	-211	-43
-257	-198	-41
-232	-131	-38
-174	-41	-30
-68	41	-26
75	102	-12
236	133	4
373	149	12
446	150	8
429	133	0
318	82	-6
143	-13	-14
-52	-137	-18
-222	-249	-24
-330	-301	-20
-366	-261	-24
-332	-144	-29
-250	-5	-32
-138	91	-36
-23	103	-19
78	40	-11
143	-39	-27
167	-71	-24
152	-17	-24
122	106	-37
105	231	-27
122	286	-24
183	225	-25
258	64	-10
301	-134	1
263	-292	-9
128	-356	-33
-89	-316	-30
-320	-202	-27
-488	-68	-20
-530	43	-27
-436	119	-44
-259	162	-40
-76	189	-38
42	206	-31
69	213	-19
35	198	-8
9	153	-8
44	75	-15
155	-15	-15
296	-95	-9
383	-150	-4
355	-170	-7
196	-166	-14
-37	-153	-25
-256	-145	-30
-366	-142	-30
-342	-129	-34
-207	-94	-27
-36	-24	-21
101	67	-31
170	161	-31
175	224	-34
156	236	-38
140	197	-27
132	124	-25
114	46	-35
59	-17	-32
-35	-56	-16
-151	-79	-21
-245	-93	-21
-288	-107	-24
-270	-121	-20
-206	-126	-21
-120	-117	-32
-36	-86	-31
39	-36	-30
111	23	-23
183	87	-21
245	142	-10
279	179	-14
262	189	-24
190	170	-6
75	122	-8
-53	51	-18
-163	-32	-23
-232	-116	-30
-259	-188	-24
-250	-240	-25
-225	-254	-18
-185	-228	-24
-132	-158	-31
-60	-55	-36
26	55	-37
118	150	-24
198	206	-17
245	215	-17
253	185	-27
222	132	-26
169	72	-24
102	14	-17
30	-41	-5
-50	-96	5
-141	-141	-1
-239	-164	-24
-321	-148	-41
-361	-90	-50
-330	-3	-30
-214	83	-11
-34	134	-18
170	131	-14
346	77	-8
450	-5	-20
462	-79	-21
393	-114	-9
275	-107	-9
141	-70	-19
19	-34	-27
-86	-24	-19
-170	-55	-24
-236	-113	-28
-277	-171	-40
-288	-198	-30
-262	-171	-16
-205	-89	-23
-127	32	-34
-49	155	-46
18	244	-51
75	284	-51
125	267	-28
175	210	-18
229	140	-7
260	84	0
250	45	3
178	26	-2
48	3	-24
-113	-33	-21
-260	-90	-18
-354	-157	-20
-362	-212	-24
-290	-240	-25
-162	-225	-22
-17	-170	-31
105	-85	-36
182	10	-32
210	102	-33
201	174	-22
172	218	-9
143	225	-30
113	191	-29
76	123	-27
21	34	-28
-60	-51	-20
-156	-116	-30
-248	-149	-30
-303	-145	-23
-300	-123	-18
-232	-92	-20
-114	-58	-26
19	-25	-19
133	14	-24
203	61	-23
223	109	-20
196	142	-19
144	149	-22
81	118	-23
16	57	-15
-40	-18	-10
-83	-89	-13
-100	-138	-14
-92	-157	-19
-61	-140	-27
-28	-99	-35
-10	-41	-28
-17	10	-17
-41	37	-25
-57	30	-32
-40	-6	-26
27	-49	-8
126	-70	-10
219	-43	-35
262	27	-34
229	108	-28
117	162	-40
-35	154	-45
-182	85	-45
-286	-13	-28
-321	-96	-15
-295	-129	-6
-215	-114	5
-102	-75	7
27	-47	8
152	-49	-7
255	-66	-15
319	-72	-14
327	-43	-17
283	18	-25
207	88	-34
123	125	-31
49	114	-30
-6	60	-30
-55	-8	-28
-113	-64	-26
-187	-98	-19
-270	-108	-21
-341	-110	-28
-378	-105	-35
-370	-85	-40
-311	-32	-35
-209	56	-26
-68	163	-11
102	251	-3
292	283	-21
470	251	-31
592	162	-30
608	55	-31
503	-31	-31
285	-87	-47
18	-112	-36
-229	-130	-28
-390	-151	-13
-447	-173	7
-413	-182	-12
-332	-161	-24
-247	-111	-34
-172	-43	-20
-101	14	-21
-21	48	-26
69	60	-11
152	62	-16
199	76	-18
187	103	-23
127	131	-28
44	139	-17
-18	106	-13
-42	33	-12
-31	-61	-19
-13	-143	-32
-14	-183	-22
-48	-171	-30
-100	-119	-36
-130	-50	-20
-117	14	-26
-49	59	-20
46	93	-15
138	121	-12
188	150	-17
184	177	-27
136	185	-27
70	158	-21
13	83	-19
-24	-35	-29
-43	-177	-24
-56	-305	-17
-78	-390	-16
-110	-400	-13
-148	-332	-21
-172	-204	-32
-167	-51	-27
-119	88	-25
-32	187	-34
75	240	-24
170	257	-20
224	253	-9
214	241	-22
151	215	-46
61	164	-35
-20	78	-28
-57	-34	-27
-52	-143	-27
-24	-219	-15
-5	-237	-9
-16	-191	0
-56	-106	-9
-98	-8	-20
-111	71	-33
-79	114	-43
-8	120	-43
71	96	-48
131	58	-25
155	22	-15
150	3	-16
124	11	-14
92	40	-11
42	74	-17
-36	77	-12
-147	28	-10
-269	-76	-28
-354	-202	-15
-361	-300	-13
-271	-317	-13
-101	-231	-13
89	-66	-34
239	112	-44
306	233	-26
296	257	-16
241	191	-9
182	83	-5
140	-6	-19
107	-42	-19
47	-28	-24
-54	-4	-23
-194	-9	-24
-333	-61	-25
-422	-139	-25
-426	-194	-23
-343	-183	-26
-201	-97	-41
-42	33	-42
99	150	-36
210	201	-26
296	168	-21
358	77	-16
401	-18	-17
406	-64	-11
358	-43	-7
254	21	-16
109	81	-20
-46	85	-21
-181	25	-15
-276	-80	-29
-325	-175	-39
-342	-218	-33
-331	-190	-32
-295	-111	-22
-228	-24	-31
-119	42	-49
20	77	-34
175	102	-15
314	136	-14
399	187	-11
411	235	-13
341	237	-19
205	174	-20
28	51	-11
-153	-92	-15
-308	-204	-30
-405	-245	-30
-435	-211	-30
-402	-134	-32
-312	-47	-31
-189	16	-29
-50	49	-20
90	63	-22
219	75	-20
328	88	-13
397	97	-15
409	96	-3
351	76	-1
229	41	-8
68	0	-7
-91	-45	-20
-206	-94	-26
-256	-149	-27
-248	-201	-26
-206	-235	-32
-162	-229	-32
-133	-175	-27
-111	-86	-28
-80	18	-27
-17	103	-32
71	155	-31
159	171	-30
206	170	-29
187	159	-30
103	140	-32
-17	108	-33
-123	47	-32
-180	-38	-25
-173	-129	-23
-122	-195	-22
-56	-210	-18
-6	-167	-7
18	-83	-2
24	12	-6
30	85	-4
56	119	-9
102	118	-17
159	104	-19
200	95	-24
211	106	-33
183	125	-32
121	134	-25
38	106	-26
-46	28	-28
-116	-92	-28
-162	-224	-25
-174	-320	-22
-153	-346	-17
-98	-286	-14
-23	-160	-19
56	-7	-32
118	118	-22
147	174	-21
138	169	-30
106	119	-19
71	72	-22
48	58	-41
40	86	-43
28	129	-30
-11	148	-26
-93	113	-32
-206	22	-31
-312	-93	-12
-366	-195	5
-338	-242	-6
-228	-222	-19
-77	-150	-13
66	-55	-33
154	32	-33
178	96	-26
151	136	-32
115	157	-22
92	161	-17
92	140	-12
98	95	-14
90	22	-23
54	-60	-21
-2	-131	-13
-66	-174	-21
-119	-178	-31
-150	-153	-40
-162	-116	-40
-156	-85	-19
-134	-59	-17
-95	-37	-14
-33	-6	-21
48	37	-30
137	89	-40
207	139	-41
244	177	-23
232	191	-27
184	180	-29
111	142	-23
32	84	-20
-50	11	-15
-130	-62	-6
-202	-125	-14
-259	-158	-17
-285	-155	-16
-273	-121	-30
-225	-68	-31
-152	-14	-25
-69	30	-30
10	58	-31
94	77	-32
196	88	-34
318	89	-26
451	77	-16
549	43	-6
566	-7	-7
467	-70	1
253	-127	-6
-24	-165	-9
-281	-177	-6
-444	-163	-18
-473	-131	-16
-386	-90	-22
-241	-43	-21
-105	4	-16
-20	53	-32
14	100	-38
24	138	-25
42	164	-30
83	168	-34
123	148	-12
133	105	-15
87	48	-30
-14	-13	-34
-141	-67	-31
-247	-109	-24
-296	-130	-27
-280	-134	-27
-215	-121	-30
-129	-97	-36
-42	-62	-39
38	-14	-40
114	41	-37
183	102	-31
238	150	-26
255	174	-15
228	161	-15
151	104	-2
50	18	14
-43	-77	-3
-113	-152	-9
-149	-185	-21
-163	-166	-22
-168	-103	-19
-168	-26	-22
-149	38	-26
-89	67	-22
15	59	-27
151	32	-33
283	14	-25
370	19	-32
374	50	-21
309	91	-18
192	110	-24
66	93	-21
-44	43	-12
-130	-24	-8
-199	-87	-22
-260	-138	-35
-310	-174	-36
-333	-203	-32
-314	-219	-39
-241	-210	-40
-124	-155	-37
11	-48	-26
132	89	-17
223	215	-16
275	291	-17
291	291	-20
275	233	-13
226	145	-19
133	71	-20
4	23	-7
-154	-15	-10
-302	-66	-16
-402	-143	-19
-419	-229	-16
-343	-282	-20
-194	-272	-40
-12	-183	-32
158	-45	-31
281	94	-29
345	190	-15
346	221	-32
302	197	-30
234	150	-24
149	101	-20
57	66	-19
-32	39	-37
-123	12	-37
-215	-18	-29
-302	-45	-23
-371	-67	-31
-402	-84	-30
-378	-99	-27
-279	-116	-19
-108	-131	-8
109	-129	-8
330	-96	-6
498	-29	-9
580	50	-17
551	113	-24
428	130	-18
245	98	-13
57	34	-14
-104	-27	-14
-215	-61	-17
-279	-66	-19
-305	-59	-16
-304	-66	-27
-287	-98	-32
-253	-137	-30
-198	-155	-34
-125	-121	-37
-41	-35	-32
42	82	-31
115	185	-41
165	241	-25
190	238	-13
193	187	-4
175	123	-2
135	65	-2
71	28	-2
-13	-1	-27
-107	-35	-37
-190	-83	-28
-237	-140	-17
-233	-192	-17
-173	-224	-31
-75	-221	-38
38	-181	-49
135	-105	-41
192	-3	-32
204	115	-39
175	225	-30
125	298	-22
64	305	-8
4	240	-12
-47	109	-27
-91	-47	-31
-124	-182	-18
-152	-254	0
-170	-259	-14
-182	-210	-23
-180	-142	-23
-158	-85	-24
-112	-44	-19
-40	-9	-18
44	41	-19
128	113	-24
190	190	-17
216	240	-20
206	235	-19
169	169	-18
120	58	-18
74	-57	-9
32	-145	-23
-11	-183	-42
-66	-174	-53
-143	-135	-45
-232	-82	-30
-311	-24	-19
-342	30	-15
-296	77	-15
-162	109	-9
46	123	16
279	116	18
482	104	-11
588	95	-9
566	96	-4
417	95	-37
186	64	-35
-66	-18	-12
-273	-148	-21
-392	-291	-35
-417	-393	-40
-378	-401	-33
-316	-306	-27
-262	-138	-24
-228	38	-31
-194	161	-34
-130	201	-34
-16	171	-30
144	121	-21
321	89	-21
462	94	-16
522	120	-24
476	131	-25
341	103	-17
155	24	-19
-33	-77	-24
-180	-166	-22
-264	-214	-24
-291	-209	-20
-271	-164	-16
-221	-97	-22
-153	-29	-21
-76	30	-22
7	77	-32
86	114	-30
149	139	-29
184	152	-27
172	147	-27
124	120	-30
42	79	-30
-46	23	-20
-121	-35	-12
-160	-87	-33
-161	-121	-35
-130	-126	-8
-90	-110	-10
-58	-76	-11
-45	-36	-28
-45	-2	-26
-43	25	-9
-25	45	-25
19	68	-20
82	95	-22
139	113	-19
171	112	-11
152	89	-6
84	45	-8
-23	-6	-16
-139	-51	-21
-240	-86	-35
-296	-112	-47
-292	-140	-52
-228	-166	-46
-107	-174	-36
41	-144	-30
193	-57	-23
310	70	-23
369	204	-16
359	287	-16
291	290	-23
191	213	-25
92	94	-27
15	-13	-26
-37	-68	-19
-77	-70	-26
-127	-47	-32
-202	-41	-33
-297	-70	-18
-385	-129	-5
-430	-182	-23
-400	-200	-19
-287	-173	-27
-107	-113	-18
101	-46	-10
288	18	-27
415	79	-8
455	147	-2
414	211	-9
313	248	-16
190	218	-9
77	102	-4
-11	-77	-7
-76	-260	-11
-132	-373	-23
-187	-376	-20
-236	-276	-21
-258	-131	-26
-236	-7	-35
-161	58	-34
-46	74	-35
72	84	-36
160	122	-33
193	195	-35
172	269	-25
117	292	-25
49	235	-35
-16	104	-36
-78	-53	-26
-139	-186	-23
-195	-256	-19
-230	-259	-17
-222	-213	-12
-156	-136	-10
-44	-43	-23
86	58	-23
200	156	-14
267	227	-16
283	244	-26
260	202	-25
216	118	-24
163	31	-21
105	-19	-26
35	-20	-30
-41	6	-18
-119	17	-15
-181	-23	-19
-215	-108	-32
-221	-203	-33
-202	-260	-30
-170	-246	-22
-126	-166	-28
-76	-61	-34
-15	25	-25
45	76	-24
95	98	-14
116	122	-18
107	169	-34
83	231	-30
58	269	-22
47	244	-20
46	138	-19
39	-35	-20
0	-223	-16
-75	-362	-4
-167	-413	-1
-245	-359	-17
-272	-234	-20
-238	-79	-27
-150	58	-43
-33	147	-38
87	179	-31
198	166	-32
292	134	-23
363	104	-20
396	90	-17
365	85	-21
255	75	-26
83	38	-17
-116	-32	-14
-274	-121	-17
-352	-202	-31
-331	-240	-38
-237	-216	-31
-125	-138	-13
-35	-34	-16
8	61	-15
20	130	-25
24	165	-34
39	179	-11
57	183	-19
62	181	-20
35	160	-23
-20	113	-28
-76	41	-30
-103	-33	-21
-86	-90	-13
-36	-118	-11
17	-121	-17
42	-124	-38
33	-143	-37
11	-176	-18
8	-198	1
52	-171	-4
139	-82	-16
229	55	-31
272	193	-34
239	272	-30
128	257	-26
-16	153	-23
-149	3	-26
-226	-134	-8
-238	-209	-4
-201	-206	-12
-147	-142	-12
-97	-59	-23
-64	6	-26
-44	34	-33
-21	30	-40
11	15	-28
52	17	-30
96	45	-35
136	105	-33
170	170	-35
191	215	-25
193	221	-20
166	178	-18
107	103	-15
19	15	-20
-83	-57	-23
-173	-107	-21
-235	-136	-16
-257	-163	-20
-243	-195	-25
-201	-228	-17
-142	-244	-23
-68	-218	-33
16	-143	-28
105	-29	-30
186	92	-36
237	181	-35
241	211	-24
189	179	-18
101	108	-17
-1	28	-18
-80	-35	-19
-122	-77	-33
-124	-102	-30
-102	-121	-24
-81	-136	-28
-72	-133	-28
-88	-103	-24
-111	-36	-16
-124	55	-16
-101	145	-3
-38	215	-5
61	244	-19
167	228	-21
241	177	-23
248	99	-22
178	7	-18
48	-86	-22
-94	-165	-20
-200	-216	-2
-239	-226	-13
-213	-196	-27
-150	-142	-34
-93	-88	-31
-67	-46	-34
-69	-23	-41
-78	-2	-32
-59	34	-30
0	97	-28
86	169	-20
170	224	-12
225	228	-18
234	170	-20
204	65	-16
147	-41	-21
77	-116	-19
-7	-133	-10
-96	-98	-11
-181	-37	-24
-234	17	-30
-222	41	-38
-130	38	-34
25	15	-17
201	-6	-18
339	-16	-5
388	-11	-3
342	3	-6
227	13	-15
89	13	-22
-23	-4	-25
-92	-35	-30
-125	-74	-23
-152	-114	-27
-188	-143	-25
-237	-157	-24
-277	-148	-33
-285	-119	-30
-240	-76	-26
-144	-22	-26
-27	31	-25
87	84	-30
171	129	-32
216	164	-28
222	183	-26
198	183	-21
154	158	-20
93	106	-20
22	43	-19
-57	-28	-23
-134	-90	-22
-197	-137	-21
-232	-168	-26
-235	-178	-27
-203	-170	-23
-142	-135	-21
-61	-78	-25
27	-1	-27
115	83	-22
193	154	-16
248	195	-16
275	197	-20
262	168	-29
212	116	-28
124	60	-29
10	9	-33
-110	-39	-34
-221	-89	-36
-295	-139	-25
-321	-184	-17
-300	-208	-10
-231	-192	-4
-129	-133	-9
-15	-45	-8
89	48	-13
172	119	-21
226	150	-18
245	139	-15
231	103	-8
187	57	-19
118	11	-35
34	-32	-31
-56	-75	-21
-149	-112	-52
-232	-134	-78
-307	-119	-52
-366	-64	-21
-398	18	-16
-383	98	-9
-296	138	3
-124	125	-7
117	70	-9
387	13	4
619	-11	0
736	13	-17
701	62	-21
508	89	-27
237	57	-31
-48	-37	-22
-259	-154	-19
-350	-236	-10
-331	-240	-19
-245	-165	-32
-154	-54	-27
-92	32	-34
-64	56	-33
-50	24	-28
-21	-21	-26
35	-34	-26
104	15	-37
159	104	-32
180	191	-24
156	229	-21
101	203	-4
31	127	-5
-33	34	-26
-87	-49	-31
-130	-118	-25
-172	-175	-27
-208	-230	-23
-234	-265	-28
-241	-261	-32
-217	-190	-30
-163	-54	-24
-85	106	-18
11	239	-24
110	301	-22
196	278	-25
251	202	-15
261	118	-6
219	61	-11
132	34	-9
18	16	-14
-96	-26	-19
-190	-104	-24
-249	-192	-26
-271	-254	-36
-262	-250	-32
-231	-181	-36
-172	-76	-35
-87	21	-21
23	74	-20
150	87	-16
268	84	-21
355	99	-22
392	134	-23
366	174	-18
287	183	-16
172	128	-19
48	18	-23
-69	-113	-31
-163	-212	-24
-230	-251	-13
-262	-225	-15
-264	-158	-33
-237	-85	-31
-178	-21	-15
-94	30	-15
8	82	-27
111	137	-26
200	183	-16
254	200	-24
260	170	-27
209	98	-31
106	9	-34
-33	-62	-28
-190	-103	-17
-331	-114	-20
-426	-118	-9
-444	-139	-4
-369	-174	-19
-200	-202	-23
26	-195	-19
259	-133	-17
439	-24	-20
523	97	-12
496	192	-11
383	238	-18
236	233	-31
97	198	-40
-6	147	-40
-78	84	-39
-141	7	-21
-213	-85	-15
-291	-174	-10
-350	-232	-21
-357	-226	-47
-305	-150	-44
-206	-33	-36
-96	74	-44
-5	123	-22
61	105	-6
126	43	-8
210	-7	-1
322	-3	-5
425	57	0
469	138	-13
399	181	-15
214	139	-21
-39	18	-28
-279	-135	-24
-426	-257	-28
-452	-294	-15
-371	-244	-19
-245	-138	-22
-125	-31	-24
-42	39	-36
16	68	-35
74	81	-38
144	103	-39
222	148	-46
266	195	-47
251	215	-18
169	181	-13
45	100	-18
-80	-1	-32
-172	-84	-23
-225	-119	-11
-248	-115	-8
-259	-97	-3
-263	-100	-17
-250	-133	-16
-191	-179	-17
-77	-196	-18
83	-154	-26
245	-46	-22
371	96	-23
417	215	-26
383	272	-20
280	244	-27
151	150	-25
22	38	-20
-84	-51	-15
-166	-99	-19
-222	-113	-34
-254	-115	-28
-260	-123	-28
-234	-133	-31
-178	-127	-17
-101	-92	-24
-16	-19	-32
59	66	-30
117	129	-24
151	139	-15
163	100	-15
154	37	-17
125	-8	1
79	-4	6
22	45	-9
-33	105	-27
-76	123	-30
-96	62	-32
-93	-66	-40
-76	-218	-32
-53	-320	-19
-30	-316	-24
-1	-192	-44
44	0	-48
109	187	-35
179	294	-24
228	284	-12
234	183	-12
179	46	-25
81	-59	-15
-38	-103	-8
-142	-94	-13
-209	-66	-20
-245	-64	-31
-251	-101	-25
-245	-157	-23
-228	-192	-22
-191	-173	-20
-128	-95	-27
-36	16	-24
69	114	-19
167	168	-26
234	168	-34
266	135	-27
260	103	-19
232	88	-9
182	92	3
115	91	-11
25	64	-12
-81	5	-7
-183	-74	-35
-262	-138	-51
-291	-162	-41
-269	-133	-7
-203	-67	-25
-118	5	-48
-32	57	-18
44	77	-11
107	68	-10
164	51	-22
212	43	-29
242	45	-19
242	55	-20
202	57	-17
124	37	-30
16	-2	-39
-107	-55	-30
-230	-105	-27
-333	-139	-30
-405	-149	-18
-417	-127	-12
-354	-84	-32
-210	-19	-28
-6	50	-26
214	113	-38
401	155	-20
498	168	-21
496	149	-28
396	102	-23
238	38	-14
68	-32	-5
-75	-99	-5
-175	-157	-2
-229	-192	-7
-247	-199	-9
-241	-175	-10
-217	-119	-26
-184	-48	-37
-140	14	-38
-86	50	-40
-18	56	-40
63	45	-27
158	37	-17
251	53	-11
317	88	-11
333	122	-9
275	130	-11
154	97	-30
-9	24	-36
-169	-61	-23
-285	-130	-31
-333	-166	-40
-313	-166	-33
-243	-143	-37
-149	-111	-31
-56	-69	-32
25	-11	-30
94	70	-25
151	159	-22
189	228	-15
198	244	-16
170	198	-14
99	101	-20
-4	-11	-20
-123	-94	-21
-231	-129	-18
-300	-122	-10
-308	-100	-13
-251	-89	-19
-132	-99	-28
21	-113	-23
167	-105	-25
271	-56	-30
308	29	-22
275	130	-18
197	211	-18
110	247	-17
44	231	-20
14	174	-21
8	102	-23
5	33	-25
-16	-20	-25
-58	-60	-29
-111	-96	-17
-152	-137	-10
-162	-182	-16
-138	-227	-26
-93	-252	-27
-39	-246	-25
9	-199	-36
50	-114	-33
90	-9	-31
126	99	-30
154	182	-24
159	228	-14
131	233	-9
69	203	-23
-15	151	-21
-108	85	-20
-187	12	-28
-245	-68	-27
-270	-151	-32
-259	-222	-28
-203	-259	-9
-98	-245	-4
49	-175	-10
213	-68	-21
346	43	-16
407	125	-9
366	153	-14
245	125	-7
84	75	0
-57	35	-21
-141	31	-41
-165	56	-21
-162	86	-24
-176	84	-43
-223	29	-53
-290	-63	-54
-332	-154	-31
-311	-192	-19
-216	-158	-9
-79	-54	-23
52	68	-43
137	157	-34
169	180	-15
172	134	-21
189	62	-23
234	3	-12
285	-18	-18
300	-5	-18
238	9	-16
100	-2	-10
-69	-48	-10
-206	-109	-23
-259	-153	-25
-218	-151	-24
-121	-101	-25
-20	-24	-18
46	53	-12
77	110	-21
92	149	-31
119	174	-24
161	189	-14
193	186	-14
178	144	-10
102	60	-12
-24	-56	-17
-161	-174	-20
-262	-254	-32
-304	-272	-34
-291	-229	-31
-245	-144	-33
-187	-51	-44
-122	28	-46
-39	90	-44
64	135	-42
181	162	-16
280	168	-14
335	140	-9
319	81	-1
241	-1	-5
130	-84	-19
19	-145	-31
-69	-177	-34
-136	-184	-31
-182	-181	-10
-212	-175	-11
-215	-165	-11
-181	-135	0
-108	-77	-17
-12	8	-32
69	102	-33
109	177	-34
97	215	-28
53	210	-18
16	174	-20
14	123	-24
50	77	-23
93	43	-21
100	16	-19
42	-14	-19
-67	-53	-22
-191	-95	-23
-273	-129	-33
-283	-149	-22
-221	-139	-13
-115	-106	-28
-10	-53	-20
75	3	-17
132	56	-30
182	98	-46
228	127	-46
267	144	-19
278	150	-17
241	143	-23
145	121	-19
13	78	-10
-124	15	2
-235	-64	-5
-295	-144	-21
-308	-211	-25
-280	-247	-20
-226	-243	-19
-149	-195	-25
-52	-111	-25
54	-8	-22
159	93	-38
239	171	-41
276	210	-28
266	205	-18
216	166	-28
140	106	-27
54	35	-15
-39	-32	-22
-136	-93	-18
-233	-142	-18
-310	-176	-21
-333	-187	-34
-287	-163	-32
-162	-102	-34
11	-8	-26
183	96	-10
302	183	-20
343	233	-24
306	228	-22
228	177	-12
153	99	-18
104	24	-15
84	-32	-16
65	-60	-20
17	-68	-21
-72	-64	-34
-190	-64	-35
-291	-71	-30
-339	-88	-22
-310	-111	-11
-208	-136	-8
-70	-158	-11
62	-168	-17
162	-150	-35
214	-96	-40
226	-5	-40
208	103	-48
172	193	-41
128	236	-28
72	205	-23
6	110	-19
-65	-15	-19
-134	-127	-18
-190	-192	-12
-226	-195	-6
-240	-153	-11
-231	-96	-16
-198	-45	-15
-142	-13	-12
-65	14	-10
26	52	-15
121	112	-25
204	183	-25
255	235	-24
266	243	-27
228	192	-24
144	101	-21
28	-4	-21
-102	-88	-26
-224	-137	-23
-310	-153	-19
-342	-154	-25
-310	-157	-17
-215	-158	-16
-81	-145	-13
65	-104	-20
188	-23	-21
267	82	-17
291	178	-31
270	228	-33
222	211	-33
162	138	-29
101	43	-26
39	-40	-24
-31	-87	-24
-118	-98	-25
-214	-97	-22
-304	-106	-27
-355	-136	-34
-345	-170	-9
-259	-174	-5
-104	-118	-39
89	7	-36
279	170	-23
417	319	-30
475	392	-19
446	353	-11
346	210	-15
207	12	-19
59	-171	-16
-70	-288	-10
-178	-313	-10
-253	-268	-31
-304	-190	-41
-321	-121	-39
-304	-78	-46
-248	-49	-32
-153	-21	-15
-38	24	-17
75	75	-7
164	116	-13
216	132	-27
225	124	-38
196	112	-31
137	105	-18
57	110	-22
-42	103	-39
-156	58	-38
-264	-31	-21
-353	-150	-18
-382	-249	-18
-325	-283	-35
-182	-230	-15
23	-104	-3
241	41	-9
411	154	-5
484	197	-19
450	180	-19
326	129	-27
171	88	-16
36	70	-10
-39	74	-16
-62	77	-15
-61	59	-20
-85	16	-30
-159	-44	-41
-280	-102	-38
-415	-139	-26
-500	-154	-30
-487	-147	-42
-347	-124	-26
-105	-91	-4
184	-49	0
439	-4	-19
600	43	-10
625	80	-6
523	103	-22
343	103	-17
142	80	-22
-22	41	-18
-130	-3	-30
-186	-45	-33
-211	-80	-27
-235	-94	-34
-264	-88	-37
-295	-57	-31
-298	-13	-24
-253	35	-16
-157	68	-16
-23	77	-20
115	61	-13
225	32	-19
279	10	-23
276	2	-22
226	8	-20
147	15	-31
54	3	-30
-32	-33	-31
-113	-86	-41
-182	-127	-44
-234	-141	-40
-262	-116	-24
-252	-67	-15
-195	-20	-9
-93	5	3
38	4	-1
172	-1	0
276	13	-1
317	64	-16
280	141	-17
184	211	-25
59	237	-27
-54	194	-33
-126	91	-38
-156	-35	-37
-157	-143	-24
-161	-204	-16
-182	-216	-25
-214	-192	-11
-231	-160	-13
-199	-124	-24
-107	-82	-28
31	-23	-30
172	51	-22
274	124	-35
306	171	-38
269	174	-36
191	133	-34
101	72	-34
18	24	-38
-54	10	-24
-125	19	-26
-195	33	-21
-254	19	-14
-276	-26	-12
-235	-92	1
-127	-145	-11
25	-159	-10
182	-125	-10
299	-61	-20
346	3	-15
331	46	-31
269	64	-37
192	65	-25
123	64	-34
70	61	-44
23	56	-41
-28	34	-28
-97	-5	-17
-178	-57	-6
-262	-105	1
-329	-133	-10
-356	-134	-19
-333	-113	-6
-259	-78	-12
-148	-34	-31
-16	16	-32
111	80	-31
214	154	-32
273	225	-46
280	268	-54
238	261	-26
155	194	-10
54	76	-12
-43	-60	-19
-111	-179	-16
-143	-250	-13
-142	-263	-8
-122	-232	-12
-96	-176	-24
-72	-120	-18
-48	-76	-26
-10	-38	-34
46	0	-40
122	52	-42
196	114	-32
244	171	-21
245	207	-15
196	198	-9
107	147	9
3	63	-16
-100	-23	-39
-187	-94	-36
-253	-133	-31
-291	-149	-35
-304	-157	-39
-279	-163	-31
-214	-168	-27
-120	-151	-26
-9	-94	-24
92	4	-19
166	120	-25
205	215	-22
212	252	-14
201	221	-14
175	137	-14
140	43	-2
86	-22	13
11	-50	-17
-84	-57	-34
-189	-72	-31
-277	-116	-21
-324	-176	-13
-300	-217	-28
-200	-202	-33
-35	-117	-35
154	18	-39
317	152	-31
406	233	-8
401	233	1
318	168	-11
192	79	-13
71	12	-22
-17	-9	-26
-74	5	-20
-126	23	-13
-199	14	-26
-291	-29	-32
-375	-95	-38
-394	-145	-46
-325	-160	-35
-162	-127	-21
52	-63	-13
255	6	-23
391	62	-20
435	99	-20
399	121	-24
311	129	-21
196	121	-19
71	87	-13
-54	24	-16
-174	-56	-15
-263	-134	-23
-308	-179	-18
-299	-177	-21
-248	-135	-43
-189	-83	-43
-150	-42	-36
-130	-29	-30
-107	-31	-14
-44	-17	-8
81	30	-7
245	112	-8
399	197	-19
468	241	-11
411	215	-3
245	119	-21
26	-18	-22
-172	-150	-20
-296	-232	-21
-325	-253	-30
-291	-222	-40
-229	-160	-30
-166	-94	-38
-107	-29	-47
-40	32	-34
44	95	-26
136	158	-29
210	208	-30
236	233	-24
198	225	-18
115	182	-14
18	109	-5
-52	20	-6
-84	-74	-14
-83	-158	-18
-72	-222	-15
-84	-252	-19
-113	-242	-30
-152	-195	-33
-166	-118	-35
-132	-29	-21
-48	49	-12
66	104	-9
179	125	-10
256	121	-5
279	101	-5
245	84	-24
171	77	-30
72	77	-34
-31	74	-40
-123	51	-38
-195	6	-30
-244	-59	-44
-267	-120	-43
-276	-153	-20
-271	-144	-15
-253	-95	-15
-207	-27	-14
-120	38	-13
11	80	-11
170	96	-12
314	95	-26
391	84	-30
358	71	-27
212	50	-25
0	16	-30
-200	-35	-30
-311	-92	-24
-291	-138	-12
-158	-164	-9
27	-164	-11
192	-144	-9
284	-107	-8
300	-58	-4
266	5	-18
223	74	-40
195	131	-47
179	162	-28
155	147	-24
105	95	-28
31	30	-29
-50	-13	-22
-120	-13	-23
-173	25	-22
-214	70	-21
-263	76	-27
-321	22	-28
-362	-80	-35
-356	-182	-25
-275	-230	-28
-121	-192	-20
67	-77	-16
237	75	-19
334	203	-19
342	262	-28
280	244	-5
184	166	-1
97	62	-14
28	-30	-22
-25	-98	-21
-77	-137	-24
-140	-160	-37
-204	-169	-40
-250	-168	-39
-259	-152	-30
-221	-116	-30
-141	-64	-31
-41	-4	-21
58	56	-18
144	108	-14
205	149	-15
238	171	-18
240	180	-23
208	162	-26
142	116	-25
49	45	-16
-53	-38	-8
-150	-119	-18
-216	-180	-15
-245	-205	-16
-231	-191	-19
-181	-141	-21
-109	-68	-43
-29	9	-41
46	77	-13
112	120	-17
166	134	-30
205	116	-27
226	79	-31
226	33	-21
196	-3	-19
132	-25	-24
35	-33	-17
-87	-39	-27
-212	-56	-28
-314	-95	-26
-366	-147	-27
-355	-198	-25
-280	-227	-34
-156	-213	-22
-3	-149	-3
145	-38	-7
265	103	-4
336	250	-9
346	368	-24
295	429	-21
196	405	-25
77	298	-16
-39	124	-23
-128	-62	-30
-183	-214	-29
-213	-286	-28
-229	-272	-17
-240	-195	-22
-239	-106	-27
-212	-46	-20
-137	-35	-21
-10	-57	-32
150	-81	-23
302	-71	-30
407	-22	-36
430	57	-23
365	135	-28
236	186	-23
79	191	-17
-67	148	-22
-182	68	-32
-253	-27	-35
-279	-117	-30
-267	-182	-17
-221	-204	-11
-147	-186	-12
-61	-144	-14
16	-96	-24
74	-64	-33
105	-43	-39
118	-17	-41
124	33	-35
130	113	-35
136	196	-30
130	244	-15
102	225	-12
44	135	-17
-30	11	-16
-107	-93	-10
-167	-136	-6
-202	-116	-15
-214	-64	-24
-209	-32	-20
-189	-42	-21
-150	-86	-25
-82	-119	-30
16	-97	-35
128	-6	-31
231	126	-32
291	244	-40
288	295	-28
216	257	-12
96	153	-19
-48	24	-16
-183	-85	-14
-281	-153	-14
-328	-188	-7
-313	-211	-6
-240	-237	-6
-121	-263	-5
20	-264	-9
149	-225	-4
238	-123	1
270	24	-1
260	183	-15
222	305	-40
186	353	-44
162	319	-40
133	215	-43
77	90	-35
-31	-20	-38
-182	-85	-48
-338	-99	-38
-436	-88	-17
-436	-74	-13
-321	-78	-11
-130	-90	-18
78	-94	-25
245	-67	-20
336	-2	-34
355	85	-33
324	160	-26
273	180	-27
216	131	-16
153	26	-9
76	-94	-28
-16	-181	-22
-115	-205	-20
-204	-164	-35
-269	-92	-31
-304	-24	-27
-310	5	-22
-287	-5	-23
-231	-33	-16
-135	-54	-9
-5	-41	-15
141	8	-19
269	74	-22
339	136	-25
327	174	-30
237	183	-33
94	161	-30
-60	114	-21
-193	43	-28
-281	-47	-35
-325	-151	-23
-325	-245	-15
-286	-305	-19
-208	-304	-15
-95	-229	-8
43	-90	-13
186	81	-20
311	236	-15
389	325	-21
409	324	-27
373	233	-23
295	85	-27
184	-63	-34
66	-164	-21
-48	-190	-15
-144	-151	-30
-213	-89	-16
-250	-49	-12
-257	-56	-21
-239	-103	-24
-203	-149	-38
-157	-150	-28
-101	-86	-34
-42	26	-36
17	140	-30
75	215	-35
120	233	-26
151	200	-17
163	155	-16
155	122	-11
125	104	-9
72	78	-11
-4	24	-19
-100	-66	-34
-199	-166	-27
-279	-230	-18
-308	-227	-26
-267	-151	-25
-156	-37	-23
5	64	-23
175	113	-10
311	106	-13
373	67	-24
360	31	-25
280	24	-23
175	41	-25
68	58	-27
-13	48	-14
-67	8	-13
-106	-50	-32
-143	-102	-34
-187	-125	-20
-232	-122	-30
-258	-109	-35
-247	-107	-20
-191	-121	-20
-103	-135	-17
-11	-125	-10
55	-64	-18
75	43	-22
49	171	-34
5	283	-20
-25	335	-8
-14	310	-23
41	215	-6
116	87	-8
172	-46	-22
180	-154	-25
124	-227	-25
34	-265	-26
-57	-286	-43
-113	-289	-46
-116	-268	-48
-75	-211	-14
-7	-104	-5
63	45	-16
133	206	-4
201	340	-6
260	400	-9
294	365	-29
271	252	-15
178	100	-13
17	-43	-27
-164	-139	-41
-310	-187	-52
-369	-204	-32
-333	-215	-35
-237	-228	-44
-130	-224	-67
-59	-170	-35
-30	-51	7
-15	113	8
24	265	12
99	341	1
191	299	4
250	155	-12
230	-25	-26
123	-163	-28
-42	-209	-30
-204	-167	-25
-312	-86	-28
-339	-30	-28
-299	-31	-29
-223	-77	-36
-144	-118	-17
-76	-108	-1
-10	-34	-16
65	71	-18
150	162	-22
228	200	-30
280	180	-33
288	131	-34
254	90	-35
186	65	-30
103	51	-15
17	17	-15
-64	-44	-20
-140	-122	-15
-203	-184	-14
-237	-196	-25
-231	-158	-34
-174	-90	-32
-79	-29	-27
33	1	-30
132	11	-27
195	26	-36
211	75	-44
181	154	-36
121	233	-34
39	261	-31
-43	206	-25
-119	79	-16
-170	-76	-19
-186	-196	-10
-160	-253	-8
-98	-238	-15
-18	-190	-16
57	-147	-23
104	-121	-27
111	-100	-26
84	-51	-29
35	46	-31
-14	174	-20
-47	286	-20
-54	322	-26
-35	251	-33
12	91	-23
71	-93	4
128	-234	30
167	-281	17
169	-240	-7
132	-151	6
62	-66	-10
-18	-29	-24
-83	-33	-21
-107	-52	-22
-88	-44	-27
-30	9	-50
41	103	-44
97	207	-40
114	279	-51
82	291	-48
6	238	-41
-92	138	-52
-186	24	-28
-253	-71	2
-278	-129	-17
-262	-150	-20
-221	-147	-30
-170	-149	-44
-125	-169	-44
-87	-202	-22
-43	-227	-9
18	-204	-30
107	-117	-40
204	26	-16
283	180	0
319	290	-4
299	312	11
238	237	20
172	104	-4
126	-36	-21
106	-133	-11
85	-173	-24
27	-167	-24
-87	-144	-18
-237	-127	-35
-369	-111	-42
-412	-82	-44
-336	-22	-34
-161	62	-31
49	150	-30
211	211	-21
271	227	-19
232	198	-24
139	141	-32
50	80	-24
-6	19	-15
-34	-26	-14
-60	-58	-34
-109	-72	-39
-176	-67	-31
-226	-51	-24
-226	-38	-27
-160	-52	-37
-52	-98	-24
56	-159	-33
128	-195	-32
151	-164	-15
140	-53	-15
128	108	-11
127	260	-6
131	333	-11
117	294	-6
66	153	-5
-20	-29	-17
-113	-185	-15
-182	-271	-11
-203	-281	-17
-180	-238	-6
-130	-174	-14
-77	-107	-53
-28	-33	-52
16	48	-42
66	137	-27
120	217	-11
163	261	-25
175	257	-27
139	199	-28
68	106	-24
-13	2	-23
-71	-96	-14
-96	-181	-7
-87	-248	-30
-70	-286	-48
-75	-286	-43
-105	-234	-18
-148	-133	-4
-167	-2	-7
-132	127	-5
-32	224	-10
110	264	-38
249	244	-32
336	181	-13
337	83	-3
254	-21	-8
118	-115	-22
-22	-173	-19
-123	-179	-19
-161	-135	-24
-141	-58	-16
-91	8	-10
-47	30	-40
-36	-5	-56
-60	-72	-44
-103	-122	-49
-124	-106	-32
-97	-5	-27
-14	141	-32
105	268	-36
216	318	-27
280	261	-17
261	139	-20
169	8	-21
33	-79	-23
-98	-107	-5
-191	-100	-17
-232	-103	-19
-229	-141	-4
-212	-196	-17
-193	-233	-26
-178	-207	-25
-150	-117	-19
-91	7	-10
3	116	-10
122	174	-18
238	178	-22
314	150	-21
336	125	-28
294	113	-33
199	108	-18
72	86	-9
-63	29	-23
-184	-51	-22
-271	-135	-21
-308	-190	-34
-290	-209	-21
-221	-190	-31
-116	-151	-32
-3	-104	-32
99	-51	-48
172	7	-45
212	79	-29
222	154	-20
202	218	-22
158	252	-12
91	241	-7
10	185	-12
-79	88	4
-160	-30	-4
-225	-153	-15
-260	-251	-14
-267	-298	-24
-244	-280	-14
-195	-196	-17
-130	-81	-14
-52	28	-15
30	93	-26
114	105	-30
194	85	-33
268	72	-23
320	95	-39
331	143	-31
280	187	-23
158	181	-52
-20	103	-47
-214	-24	-31
-361	-157	-18
-408	-238	-23
-325	-251	-16
-140	-208	-2
81	-144	-14
261	-90	-10
341	-48	-9
312	0	-15
211	75	-33
101	170	-22
28	256	-22
10	289	-9
23	247	9
31	139	-30
-2	8	-40
-83	-99	-25
-188	-157	-28
-279	-163	-24
-321	-149	-19
-299	-141	-36
-210	-151	-35
-81	-165	-30
63	-156	-22
193	-106	-36
279	-15	-43
313	101	-15
287	209	-14
224	279	-19
139	290	-20
64	235	-25
10	122	-25
-28	-17	-20
-70	-152	-18
-137	-242	-21
-229	-269	-24
-321	-237	-20
-382	-166	-15
-371	-92	-15
-279	-38	-18
-125	-9	-16
54	8	-20
214	38	-23
319	89	-18
358	150	-28
334	187	-22
262	179	-7
158	116	-22
41	19	-48
-72	-71	-52
-163	-130	-17
-214	-140	-9
-217	-118	-35
-178	-90	-32
-115	-76	-18
-46	-76	-19
6	-70	-20
31	-40	-32
26	26	-52
0	123	-30
-36	230	-11
-64	317	-18
-65	350	-25
-30	316	-21
40	203	-24
127	32	-10
194	-169	3
206	-337	-19
149	-421	-37
33	-391	-34
-100	-263	-8
-195	-102	-3
-215	24	-27
-150	64	-30
-26	20	-24
110	-47	-7
212	-64	-2
260	16	-14
251	174	-19
198	330	-38
120	388	-10
20	294	2
-91	76	-25
-208	-176	-29
-308	-354	-32
-365	-395	-30
-354	-312	-38
-275	-166	-43
-157	-34	-49
-29	43	-46
71	78	-32
129	112	-30
151	171	-20
165	248	-5
188	290	-4
228	250	1
263	121	-8
269	-51	-30
219	-196	-34
106	-257	-29
-46	-224	-17
-201	-141	-12
-317	-72	-12
-366	-56	-18
-347	-89	-34
-280	-119	-38
-193	-101	-41
-106	-19	-37
-20	98	-30
75	193	-25
187	221	-25
312	178	-25
417	100	-11
459	31	-2
404	4	-5
248	10	8
33	13	3
-178	-20	-17
-318	-97	-19
-355	-187	-31
-300	-245	-32
-199	-229	-36
-103	-137	-42
-39	-4	-30
-3	121	-26
32	197	-25
86	211	-19
156	181	-21
214	134	-20
226	93	-22
172	61	-21
69	30	-17
-46	-16	-12
-139	-77	-15
-188	-135	-41
-200	-169	-40
-201	-158	-30
-202	-106	-38
-205	-31	-39
-184	38	-41
-119	79	-32
-4	84	-14
130	64	-7
248	41	8
306	30	2
296	38	-3
225	49	2
132	50	-11
46	22	-16
-14	-36	-21
-56	-108	-13
-99	-171	-23
-155	-199	-51
-217	-188	-57
-268	-140	-39
-279	-81	-49
-232	-21	-53
-129	30	-34
4	77	-32
136	129	-23
237	187	-21
285	237	-21
277	256	-14
225	224	-5
139	138	-21
43	14	-32
-52	-114	-30
-137	-213	-31
-203	-260	-19
-245	-254	-27
-250	-210	-10
-213	-147	6
-125	-79	-11
3	-6	-21
144	59	-10
262	114	-16
314	142	-3
280	134	10
171	96	-7
26	43	-20
-101	3	-38
-166	-12	-35
-165	-6	-30
-119	-6	-23
-77	-39	-26
-67	-107	-16
-94	-187	-28
-132	-229	-38
-147	-192	-29
-117	-75	-42
-54	85	-59
9	221	-50
42	277	-34
44	236	-36
39	136	-18
63	41	-5
136	1	-1
240	23	-12
320	67	-9
325	85	1
226	37	-15
44	-57	-23
-158	-160	-31
-310	-212	-15
-364	-191	-18
-316	-114	-27
-198	-27	-23
-54	25	-30
78	30	-23
178	11	-11
245	6	-9
280	36	-18
275	88	-24
222	123	-24
122	105	-20
-5	25	-15
-134	-90	-8
-228	-190	-15
-273	-226	-30
-264	-183	-38
-232	-77	-41
-182	45	-33
-132	142	-23
-75	182	-21
4	165	-10
105	104	-10
212	27	-26
296	-34	-38
309	-64	-38
228	-58	-45
60	-30	-53
-148	-2	-36
-325	-1	-24
-406	-39	-10
-356	-109	-9
-195	-179	-19
10	-205	-35
180	-161	-34
254	-48	-19
221	99	-8
118	225	12
16	287	4
-23	267	-11
18	179	-15
115	67	-20
206	-27	-26
234	-75	-26
172	-80	-25
48	-58	-33
-93	-41	-36
-203	-46	-33
-253	-79	-18
-247	-126	-9
-208	-168	-19
-159	-186	-26
-106	-161	-25
-47	-90	-36
23	20	-32
99	147	-23
159	252	-35
184	310	-31
165	296	-26
107	218	-12
34	104	-5
-31	-9	-16
-81	-93	-23
-122	-138	-30
-165	-153	-26
-214	-159	-28
-246	-166	-28
-234	-174	-34
-152	-158	-22
-7	-101	-17
163	-6	-14
302	104	-9
360	185	-17
326	205	-28
224	154	-30
106	59	-14
21	-35	-22
-8	-92	-17
1	-93	-17
14	-59	-28
-7	-31	-26
-71	-40	-27
-160	-92	-28
-233	-160	-22
-252	-210	-12
-207	-208	-14
-109	-149	-33
10	-41	-52
115	81	-46
181	192	-44
202	274	-38
182	317	1
133	316	1
69	261	-23
-1	156	-21
-68	7	-9
-129	-154	8
-177	-286	12
-209	-351	3
-224	-332	-10
-221	-244	-13
-198	-125	-16
-150	-21	-27
-74	41	-41
33	68	-55
155	79	-43
268	97	-40
344	128	-35
363	161	-29
319	169	-30
225	137	-14
105	71	-15
-12	-5	-24
-111	-58	-36
-193	-79	-49
-260	-67	-41
-315	-51	-24
-344	-50	-23
-329	-67	-14
-253	-92	0
-117	-95	6
56	-60	0
223	3	-8
336	72	-11
373	117	-16
336	120	-19
245	81	-20
143	23	-11
44	-28	-18
-43	-54	-38
-136	-56	-44
-241	-40	-44
-352	-15	-25
-436	11	-17
-452	36	-41
-363	53	-60
-172	51	-40
81	21	-13
331	-35	-4
506	-90	-4
566	-116	-15
506	-85	-21
366	-2	-24
195	92	-26
46	145	-42
-57	116	-50
-117	12	-33
-151	-127	-35
-178	-233	-40
-205	-263	-23
-226	-210	-2
-222	-112	4
-180	-17	2
-99	48	-1
5	93	-13
103	144	-16
166	219	-33
171	300	-38
122	341	-18
34	290	-4
-60	141	6
-133	-65	-18
-165	-249	-27
-162	-339	-24
-148	-309	-21
-148	-191	-24
-178	-62	-44
-227	13	-36
-262	11	-29
-241	-38	-26
-141	-87	-39
25	-89	-35
224	-37	-35
391	39	-32
478	103	-5
476	128	13
392	121	28
262	104	9
132	95	-20
17	99	-30
-83	94	-29
-174	59	-27
-258	-18	-36
-318	-118	-40
-331	-207	-38
-272	-246	-41
-148	-210	-40
18	-111	-37
172	16	-32
273	128	-29
297	191	-27
252	193	-23
167	147	-23
75	86	-39
-8	41	-27
-80	27	-9
-144	34	0
-205	35	2
-247	-1	-6
-253	-84	-5
-210	-190	-13
-127	-277	-20
-30	-296	-22
52	-224	-21
101	-75	-27
115	94	-24
117	215	-6
126	244	-18
150	189	-34
171	85	-35
161	-3	-36
100	-32	-38
-7	-1	-52
-135	55	-47
-243	83	-36
-295	45	-34
-276	-47	-16
-199	-158	-7
-87	-229	0
31	-224	-12
134	-147	-23
212	-29	-17
257	77	-18
267	139	-20
245	154	-27
199	135	-25
143	110	-20
89	87	-34
41	62	-36
-10	17	-8
-75	-60	-6
-166	-162	-3
-268	-254	9
-358	-297	-8
-400	-263	-13
-362	-160	-16
-245	-13	-24
-72	131	-25
107	227	-36
249	256	-44
322	225	-48
321	161	-47
261	98	-40
172	52	-19
77	27	4
-10	10	-20
-84	-13	-36
-148	-43	-25
-198	-72	-17
-235	-87	-12
-245	-77	-11
-224	-48	-13
-159	-26	-12
-51	-27	-18
89	-49	-20
245	-69	-14
381	-47	-32
466	39	-44
462	171	-45
358	292	-47
156	322	-38
-101	221	-23
-358	5	-20
-551	-240	-13
-623	-404	-11
-564	-416	-11
-392	-278	4
-177	-82	-13
29	65	-27
178	91	-22
258	7	-27
285	-103	-22
296	-137	-26
302	-49	-20
306	122	-10
287	278	-14
222	318	-20
107	215	-19
-32	19	-14
-159	-161	-11
-239	-243	-6
-257	-215	-38
-227	-127	-43
-174	-57	-24
-124	-45	-47
-85	-74	-43
-46	-75	-35
3	-2	-35
69	133	-23
147	268	-21
211	320	-30
245	253	-19
236	102	-1
184	-52	-11
103	-130	-22
9	-112	-18
-92	-41	-20
-185	6	-40
-262	-15	-26
-307	-95	-7
-304	-170	-13
-252	-178	-36
-156	-96	-26
-38	36	-18
74	144	-37
156	174	-45
202	126	-56
212	49	-37
198	6	-18
171	21	6
128	71	-2
69	102	-16
-8	68	-14
-98	-32	-23
-187	-157	-5
-254	-249	3
-282	-277	-3
-259	-245	-14
-182	-187	-18
-65	-137	-39
69	-100	-44
196	-57	-36
290	15	-43
331	118	-38
313	224	-36
245	287	-38
144	283	-29
28	215	-3
-89	115	3
-189	32	-5
-262	-18	-21
-295	-40	-20
-279	-66	-17
-218	-110	-26
-124	-162	-21
-22	-183	-25
68	-137	-30
132	-22	-33
172	126	-20
195	247	-13
207	290	-33
198	244	-41
151	143	-24
42	38	-19
-112	-32	-23
-274	-58	-24
-383	-68	-22
-382	-94	-28
-258	-152	-31
-55	-227	-24
147	-280	-7
273	-283	5
291	-225	-7
226	-125	-12
140	-15	-27
101	78	-30
132	145	-21
214	192	-28
287	215	-30
287	213	-21
192	164	-25
20	61	-31
-174	-74	-28
-333	-197	-42
-426	-256	-46
-445	-219	-19
-409	-102	-8
-342	40	-31
-262	138	-33
-172	150	-29
-63	71	-25
66	-46	-11
214	-136	-5
354	-150	7
459	-84	-1
490	27	2
428	125	-19
268	171	-37
52	155	-26
-170	96	-26
-337	23	-14
-408	-39	-22
-380	-85	-27
-282	-120	-30
-168	-147	-23
-77	-154	-27
-22	-129	-41
11	-60	-22
50	43	-21
113	158	-38
184	244	-42
234	275	-23
228	244	-10
156	169	-16
39	76	-28
-77	-14	-22
-147	-84	-8
-155	-135	-9
-113	-174	-16
-61	-196	-26
-34	-205	-29
-43	-189	-18
-68	-153	-22
-77	-101	-25
-37	-42	-17
56	16	-26
180	71	-25
297	123	-18
363	170	-17
346	199	-24
248	201	-24
91	169	-9
-87	99	-11
-247	11	-19
-352	-77	-22
-389	-141	-12
-354	-176	-27
-269	-183	-38
-162	-170	-28
-51	-147	-26
39	-113	-26
109	-67	-35
161	-10	-18
202	57	-8
234	117	-7
252	158	-26
242	170	-50
190	153	-31
94	114	-34
-39	65	-35
-182	8	-30
-300	-55	-26
-366	-120	-15
-366	-175	-28
-308	-196	-32
-213	-171	-24
-113	-88	-19
-23	30	-14
54	141	-7
130	210	-8
212	211	-21
295	155	-26
355	72	-20
363	1	-6
297	-41	-15
158	-64	-19
-19	-84	-23
-184	-122	-29
-292	-169	-19
-321	-204	-12
-276	-199	-36
-188	-142	-48
-89	-49	-42
-3	48	-32
68	122	-26
129	164	-35
183	179	-21
225	183	-28
234	183	-19
202	166	-3
121	110	-3
7	10	-6
-110	-120	-17
-199	-238	-9
-234	-301	-33
-212	-282	-38
-145	-200	-25
-63	-92	-25
11	-2	-29
54	43	-32
71	56	-26
72	62	-25
78	93	-21
102	145	-25
140	203	-24
175	231	-25
172	204	-23
114	121	-10
-3	1	1
-150	-122	-20
-281	-222	-53
-360	-272	-34
-361	-265	-16
-295	-207	-12
-182	-108	-6
-57	4	-4
59	101	-1
160	160	-15
239	177	-26
292	164	-27
306	149	-34
283	143	-33
216	145	-26
130	126	-25
41	58	-20
-28	-55	-16
-80	-190	-24
-118	-282	-32
-164	-291	-38
-221	-209	-36
-277	-74	-28
-311	47	-32
-291	106	-30
-210	98	-19
-77	65	-14
81	66	-20
225	126	-33
318	227	-35
338	298	-26
287	278	-22
179	145	-28
49	-60	-20
-63	-260	-2
-125	-381	3
-126	-393	2
-83	-322	-5
-32	-227	-9
-18	-160	-22
-54	-127	-33
-119	-105	-32
-169	-55	-36
-153	40	-32
-58	162	-42
83	261	-46
209	301	-40
260	268	-36
212	186	-12
97	95	-3
-30	27	-12
-107	-17	-14
-114	-47	-5
-75	-84	-6
-38	-121	-22
-44	-143	-18
-96	-130	-32
-162	-83	-43
-191	-19	-27
-156	35	-21
-54	54	-21
74	45	-29
182	35	-21
238	43	-17
231	79	-14
175	116	-4
97	120	-8
14	63	-16
-66	-47	-16
-138	-178	-22
-198	-275	-26
-235	-297	-32
-241	-230	-49
-207	-106	-30
-136	28	-12
-37	123	-28
77	158	-30
186	140	-24
274	106	-15
322	86	-13
318	105	-22
256	154	-41
145	201	-41
4	204	-30
-141	139	-29
-267	12	-30
-352	-151	-30
-385	-291	-20
-360	-368	-25
-272	-355	-30
-125	-264	-19
63	-136	-11
262	-13	-10
425	76	-12
506	123	0
482	139	1
366	148	-15
204	161	-25
47	174	-24
-67	178	-13
-136	155	-20
-178	100	-43
-221	31	-23
-273	-34	13
-321	-72	-9
-325	-80	-55
-262	-63	-55
-139	-49	-41
7	-51	-35
122	-79	-34
169	-118	-34
141	-142	-25
83	-131	-21
38	-74	-24
44	11	-23
95	94	-21
150	137	-27
154	116	-24
81	35	-22
-53	-76	-16
-199	-169	-15
-296	-209	-12
-304	-186	-17
-221	-112	-22
-86	-30	-11
46	30	-13
132	54	2
161	61	-12
140	81	-38
100	131	-31
63	206	-36
42	265	-18
36	265	-12
35	182	-13
26	32	-7
6	-135	-21
-28	-257	-41
-71	-296	-48
-118	-252	-32
-152	-159	-35
-165	-64	-35
-139	-2	-35
-76	25	-24
16	40	-20
107	67	-38
167	117	-30
170	179	-19
111	221	-4
16	218	-15
-72	161	-3
-117	57	6
-95	-62	-11
-16	-174	-5
82	-243	-11
151	-263	-29
163	-235	-38
110	-171	-37
26	-88	-44
-44	-4	-36
-60	64	-24
-12	112	-5
82	137	-6
178	143	-10
236	132	0
234	117	-17
172	97	-24
78	79	-36
-31	59	-33
-141	33	-34
-251	-4	-37
-355	-59	-31
-438	-126	-34
-470	-183	-28
-419	-211	-40
-277	-188	-33
-69	-114	-27
151	-8	-30
323	95	-19
402	161	-15
389	171	-15
311	129	-6
216	64	-14
139	-3	-25
78	-49	-9
14	-71	-26
-80	-79	-34
-200	-80	-24
-328	-84	-13
-417	-93	-9
-432	-107	-24
-360	-118	-15
-217	-117	-4
-45	-88	-12
111	-17	-25
225	89	-26
285	209	-17
301	295	-21
285	305	-27
256	227	-23
216	78	-13
166	-81	-18
98	-189	-19
16	-211	-12
-83	-160	-25
-182	-88	-42
-263	-51	-40
-310	-76	-45
-306	-135	-39
-258	-175	-34
-181	-135	-51
-105	-7	-43
-45	171	-40
-4	327	-20
42	390	21
121	338	26
242	195	21
386	22	2
498	-122	-1
526	-210	1
420	-243	-21
199	-243	-32
-75	-227	-44
-312	-192	-47
-428	-129	-52
-392	-33	-55
-229	82	-44
-16	182	-31
166	229	-23
255	205	-24
245	123	-14
161	24	-14
46	-51	-21
-64	-81	-18
-153	-66	-10
-215	-41	-9
-260	-37	-19
-281	-68	-31
-279	-123	-26
-248	-169	-24
-191	-175	-35
-118	-130	-42
-38	-47	-28
44	52	-15
125	147	-32
202	219	-45
260	268	-40
279	283	-23
245	258	-9
158	174	-5
41	43	-3
-67	-111	-2
-136	-242	-14
-154	-306	-18
-138	-287	-12
-122	-205	-6
-129	-108	-13
-158	-37	-25
-183	-9	-27
-169	-2	-35
-95	22	-45
33	83	-40
178	168	-25
292	228	-14
346	219	-16
330	131	-27
262	5	-33
169	-100	-30
67	-137	-11
-35	-105	-6
-138	-50	-3
-236	-30	-4
-306	-74	-21
-321	-155	-19
-269	-215	-36
-148	-200	-66
12	-97	-47
166	49	-16
273	171	-11
313	219	-7
290	187	-30
226	117	-33
139	66	-14
41	64	-17
-62	96	-12
-169	118	-20
-262	87	-20
-325	-2	-12
-342	-117	-18
-307	-208	-16
-235	-232	-22
-150	-184	-27
-69	-96	-21
6	-4	-8
85	60	-6
175	96	-33
269	110	-39
340	117	-25
346	112	-25
279	85	-21
143	27	-31
-18	-53	-33
-151	-130	-22
-223	-176	-23
-225	-175	-21
-189	-135	-21
-147	-86	-18
-116	-51	-21
-91	-45	-21
-53	-51	-25
9	-45	-33
89	1	-30
162	82	-32
202	178	-25
198	253	-22
163	279	-21
119	248	-25
86	169	-31
60	65	-32
21	-41	-22
-51	-133	-16
-159	-204	-36
-269	-245	-41
-337	-245	-27
-319	-199	-17
-208	-113	-7
-28	-11	2
166	81	-9
320	137	-22
401	149	-28
401	132	-35
335	106	-26
225	85	-24
89	66	-28
-63	32	-22
-214	-24	-19
-342	-101	-18
-416	-175	-24
-417	-217	-25
-344	-210	-18
-217	-159	-27
-76	-87	-19
46	-22	-19
129	18	-23
172	43	-25
196	68	-26
212	104	-26
229	147	-21
225	174	-14
194	169	-19
122	124	-25
20	57	-33
-98	-11	-32
-211	-59	-34
-303	-91	-43
-361	-118	-45
-370	-149	-31
-308	-178	10
-161	-175	4
69	-111	-19
345	26	-14
591	206	-1
714	372	6
655	453	-10
413	410	-11
60	251	-13
-287	28	-15
-513	-183	-32
-565	-326	-43
-465	-381	-30
-300	-359	-36
-172	-299	-40
-130	-225	-35
-166	-152	-36
-206	-82	-27
-182	-13	-10
-60	44	-13
128	85	-24
313	95	-20
417	87	-13
411	75	-11
314	82	-12
175	106	-19
58	126	-21
-16	117	-18
-53	60	-30
-87	-31	-35
-134	-124	-34
-202	-176	-34
-262	-165	-34
-285	-105	-36
-256	-29	-41
-177	23	-42
-68	37	-37
49	28	-39
159	32	-32
254	75	-12
334	150	-11
391	229	-8
409	262	12
368	228	3
262	129	4
105	6	-5
-77	-97	-18
-245	-160	-16
-366	-182	-32
-417	-195	-35
-392	-215	-33
-316	-242	-29
-203	-241	-32
-78	-182	-23
37	-55	-11
130	106	-13
196	244	-17
231	305	-21
237	259	-17
214	140	-17
163	5	-15
81	-87	-23
-22	-110	-18
-135	-85	-18
-231	-55	-25
-289	-59	-26
-291	-100	-31
-239	-143	-31
-143	-153	-37
-30	-96	-33
75	8	-32
157	121	-26
209	196	-24
231	209	-23
226	171	-18
195	113	-19
139	62	-20
58	31	-30
-39	10	-32
-141	-21	-16
-229	-69	-15
-281	-125	-48
-281	-170	-47
-227	-182	-21
-116	-157	-14
29	-101	-24
178	-37	-12
297	19	3
354	62	-11
334	90	-30
244	104	-42
114	99	-36
-20	70	-36
-122	15	-40
-176	-58	-32
-189	-129	-30
-180	-171	-20
-172	-169	-20
-174	-127	-6
-180	-62	5
-170	-1	1
-134	41	-9
-62	65	-20
33	83	-15
133	108	-13
216	144	-18
262	181	-29
262	197	-21
216	178	-16
132	126	-20
25	54	-18
-84	-12	-15
-174	-60	-24
-226	-90	-33
-232	-111	-32
-199	-135	-27
-142	-162	-20
-83	-176	-21
-29	-156	-19
16	-90	-30
63	12	-32
120	120	-38
184	195	-46
240	205	-42
262	144	-35
236	35	-32
155	-86	-30
39	-175	-19
-84	-208	-18
-184	-190	-8
-244	-135	-10
-256	-76	-20
-234	-30	-22
-191	-7	-24
-137	3	-26
-80	18	-23
-10	47	-32
67	99	-38
144	151	-32
204	183	-24
231	179	-8
212	132	0
152	56	10
68	-18	6
-21	-66	-2
-95	-86	-10
-149	-87	-12
-182	-98	-14
-201	-131	-21
-206	-184	-26
-187	-222	-32
-133	-204	-30
-43	-118	-38
69	18	-35
179	155	-31
255	236	-31
285	233	-32
266	157	-25
215	57	-19
150	-16	-25
83	-33	-35
12	-10	-24
-72	17	-4
-168	8	-13
-258	-49	-31
-315	-129	-35
-317	-190	-35
-250	-191	-24
-134	-127	-21
-5	-21	-40
104	88	-44
166	160	-30
183	191	-17
167	194	-19
138	197	-25
105	215	-32
70	244	-25
33	253	-19
-4	213	-28
-30	116	-11
-39	-27	-10
-32	-176	-17
-28	-296	-8
-40	-361	-11
-81	-372	-2
-132	-348	-10
-166	-297	-23
-147	-230	-26
-62	-135	-41
62	-13	-48
183	123	-43
245	244	-20
229	305	-7
131	278	-8
-3	166	-13
-128	6	-13
-210	-151	-12
-237	-250	-9
-223	-270	-5
-188	-224	-15
-152	-139	-33
-111	-59	-31
-61	-1	-25
3	35	-38
84	66	-43
166	113	-38
234	179	-27
268	256	-20
260	313	-31
201	324	-30
105	268	-18
-10	142	-27
-113	-24	-44
-175	-196	-43
-181	-326	-30
-133	-379	-22
-57	-345	-21
14	-240	-9
53	-102	-1
58	29	-12
46	125	-26
49	174	-17
87	190	1
156	183	-5
228	169	-9
254	149	-7
209	118	-11
86	71	-26
-84	7	-35
-252	-69	-30
-366	-144	-43
-407	-204	-45
-371	-238	-34
-281	-235	-30
-178	-187	-26
-80	-96	-43
-3	21	-41
58	137	-20
114	221	-14
169	251	-23
222	225	-26
261	159	-7
269	84	-8
232	17	-13
144	-34	-15
17	-80	-22
-117	-130	-19
-232	-181	-16
-295	-219	-10
-294	-223	-10
-233	-184	-8
-137	-114	-7
-37	-39	-21
46	14	-25
106	34	-13
148	32	-28
176	34	-43
206	57	-28
225	100	-30
216	142	-24
175	152	-20
87	113	-34
-28	32	-26
-147	-63	-19
-234	-136	-22
-274	-162	-31
-267	-131	-30
-224	-58	-22
-158	32	-49
-79	117	-60
14	178	-42
123	198	-25
241	171	-25
342	103	-27
388	7	0
346	-84	15
216	-140	2
27	-142	-3
-167	-95	-4
-304	-31	-9
-350	10	-9
-312	2	-12
-232	-51	-27
-158	-118	-36
-118	-149	-19
-105	-112	-15
-82	-16	-30
-12	106	-31
117	206	-27
272	251	-38
399	233	-42
436	178	-19
359	109	-19
196	39	-20
1	-32	-12
-164	-112	-15
-259	-196	-11
-281	-268	-19
-262	-292	-37
-231	-256	-50
-197	-163	-39
-158	-49	-30
-94	43	-40
2	97	-30
116	108	-4
216	101	3
275	97	-8
274	103	-34
216	110	-30
135	99	2
42	61	-8
-42	1	-12
-124	-62	-14
-204	-112	-24
-274	-140	-25
-319	-151	-30
-312	-151	-38
-247	-135	-38
-129	-100	-24
7	-37	-21
130	51	-22
213	141	-25
251	204	-38
251	215	-45
226	177	-26
187	109	-13
132	37	-13
62	-14	-17
-23	-49	-21
-107	-76	-23
-175	-105	-23
-208	-130	-21
-206	-135	-22
-180	-108	-24
-141	-44	-21
-104	30	-27
-59	86	-40
-5	102	-37
64	81	-31
141	45	-28
209	25	-16
248	30	-11
245	47	-12
200	53	-7
126	27	-19
40	-25	-19
-47	-82	-7
-126	-114	-2
-190	-110	-15
-228	-84	-23
-228	-59	-24
-183	-54	-36
-99	-60	-34
10	-50	-26
119	3	-25
203	103	-28
244	212	-21
238	279	-12
191	259	-4
116	150	-4
22	-9	-19
-82	-151	-15
-186	-219	-30
-277	-205	-48
-344	-137	-40
-371	-70	-34
-350	-45	-30
-277	-64	-32
-158	-98	-46
-10	-95	-49
153	-36	-41
302	68	-19
419	171	4
478	215	5
469	179	10
386	71	-2
245	-57	-20
70	-155	-22
-105	-188	-20
-247	-163	-23
-332	-109	-19
-345	-64	-17
-300	-49	-38
-217	-55	-46
-125	-62	-36
-44	-44	-21
14	7	-15
58	75	-12
102	136	-15
151	170	-18
198	174	-23
225	157	-19
211	127	-23
144	95	-16
34	54	-12
-94	1	-18
-213	-69	-24
-297	-138	-42
-338	-188	-23
-331	-194	-18
-281	-155	-17
-187	-87	-21
-51	-13	-29
107	40	-17
262	68	-25
371	85	-27
398	100	-37
334	121	-25
207	139	-14
64	136	-26
-46	95	-18
-108	17	-15
-129	-78	-21
-140	-155	-21
-166	-192	-21
-202	-179	-20
-224	-130	-17
-193	-70	-23
-101	-21	-26
37	12	-34
172	36	-31
254	67	-14
260	113	-32
193	171	-37
94	227	-29
2	250	-32
-57	213	-26
-85	113	-20
-92	-44	-22
-100	-226	-14
-113	-375	1
-126	-444	-23
-131	-404	-34
-115	-257	-30
-81	-44	-42
-30	162	-23
29	291	-11
92	308	-25
144	218	-20
178	77	-12
178	-50	-12
140	-103	-2
80	-72	-2
12	8	-13
-41	85	-17
-72	102	-21
-86	47	-43
-100	-55	-44
-126	-157	-25
-159	-208	-36
-178	-194	-23
-158	-126	-22
-86	-33	-25
26	51	-25
136	115	-15
216	154	-2
242	174	-9
214	171	-9
156	138	-7
85	69	-12
14	-21	-35
-63	-107	-45
-152	-149	-42
-248	-125	-47
-330	-52	-50
-370	28	-37
-339	66	-24
-237	34	-19
-86	-53	-12
85	-147	-8
238	-186	-20
350	-140	-29
409	-17	-35
409	132	-58
355	247	-31
253	279	-13
113	221	-22
-46	95	-11
-194	-56	-20
-300	-188	-18
-339	-272	-7
-300	-289	-16
-191	-246	-10
-46	-153	-9
98	-36	-19
203	71	-19
245	144	-24
224	166	-28
159	145	-28
89	106	-32
42	77	-24
39	71	-19
60	79	-10
81	76	-2
65	38	-18
-3	-33	-26
-114	-117	-28
-237	-180	-29
-331	-190	-18
-363	-151	-19
-324	-78	-28
-225	-9	-31
-92	37	-25
44	61	-24
157	82	-30
232	120	-20
262	174	-16
251	227	-21
198	237	-26
121	185	-26
29	71	-20
-58	-75	-12
-135	-205	-9
-193	-278	-12
-226	-275	-18
-232	-210	-24
-207	-117	-30
-154	-31	-46
-75	17	-43
14	21	-38
97	-7	-34
161	-37	-21
191	-46	-28
195	-10	-25
178	66	-22
151	156	-17
117	215	-11
77	213	-11
24	134	-20
-37	-5	-17
-104	-152	9
-164	-252	1
-198	-273	-15
-201	-215	-12
-167	-119	-19
-104	-24	-24
-21	38	-40
64	72	-45
140	99	-39
192	134	-36
205	182	-36
181	213	-23
118	202	-12
28	137	-19
-78	35	-24
-182	-61	-20
-272	-125	-13
-325	-144	-21
-333	-140	-19
-285	-144	-15
-185	-166	-17
-50	-188	-13
90	-173	-11
212	-92	-17
299	49	-26
346	204	-28
373	313	-31
385	325	-30
366	244	-39
299	113	-31
156	-12	-20
-55	-86	-23
-300	-112	-21
-503	-117	-30
-589	-138	-22
-511	-189	-13
-288	-246	-25
-1	-263	-23
253	-213	-16
388	-90	-19
381	65	-13
273	201	-14
144	269	-26
58	262	-32
39	201	-31
61	120	-27
71	45	-25
29	-12	-26
-71	-58	-30
-199	-108	-20
-300	-153	-12
-331	-186	-27
-286	-187	-34
-185	-153	-26
-65	-93	-36
36	-25	-28
107	36	-17
141	93	-20
152	148	-11
150	205	-20
143	247	-20
135	248	-11
123	182	-21
99	50	-32
50	-106	-30
-26	-231	-18
-126	-272	-15
-225	-225	-25
-290	-121	-26
-292	-23	-21
-229	21	-25
-114	9	-25
9	-28	-35
96	-32	-39
124	26	-31
99	138	-6
48	253	-19
6	310	-52
0	274	-22
32	153	0
84	-9	-3
129	-160	7
143	-260	-5
118	-305	-6
51	-308	-8
-40	-280	-18
-132	-233	-23
-195	-165	-30
-200	-75	-28
-136	25	-32
-15	119	-24
126	183	-25
242	214	-30
290	211	-31
257	189	-33
160	154	-30
39	110	-23
-64	51	-15
-127	-21	-19
-151	-98	-27
-156	-164	-29
-156	-200	-29
-161	-200	-27
-158	-169	-23
-136	-116	-24
-85	-57	-33
-12	7	-35
64	71	-28
128	137	-30
170	187	-32
189	204	-26
190	174	-12
172	102	-5
129	8	-9
52	-77	-12
-55	-127	-20
-172	-138	-19
-263	-123	-14
-299	-100	-14
-262	-87	-16
-167	-77	-20
-46	-61	-25
63	-25	-30
138	33	-32
175	99	-30
184	154	-26
184	178	-21
175	169	-23
161	134	-20
123	90	-19
59	43	-17
-24	-4	-16
-113	-54	-34
-189	-108	-29
-236	-153	-30
-245	-179	-40
-221	-174	-36
-166	-135	-36
-89	-76	-37
2	-9	-38
96	48	-36
179	92	-20
238	122	-15
263	150	-33
261	169	-9
230	169	22
183	130	15
117	39	2
31	-93	-30
-85	-236	-32
-224	-340	-10
-361	-358	-8
-459	-272	-18
-480	-105	-39
-397	87	-36
-226	235	-19
-13	289	-18
178	250	-23
297	157	-24
324	62	-27
273	16	-23
192	17	-24
115	39	-33
60	36	-24
23	-13	-23
-15	-100	-18
-68	-186	-17
-136	-229	-33
-191	-211	-35
-212	-152	-33
-183	-80	-25
-111	-24	-20
-14	16	-20
80	56	-32
151	116	-34
195	187	-31
207	239	-32
197	232	-25
163	152	-12
111	23	6
49	-101	0
-15	-171	1
-69	-171	0
-116	-127	-17
-151	-92	-11
-180	-95	-26
-195	-133	-45
-189	-165	-38
-144	-137	-37
-52	-34	-28
71	115	-18
198	248	-30
285	301	-48
306	265	-37
257	161	-16
157	51	-25
44	-20	-10
-49	-41	1
-113	-40	-10
-156	-51	-16
-191	-92	-39
-223	-145	-49
-239	-179	-51
-217	-171	-28
-148	-115	-5
-38	-37	-5
78	35	-11
159	90	-27
171	126	-28
123	155	-27
48	177	-20
-6	174	-19
-14	132	-21
25	40	-22
72	-79	-24
86	-187	-26
38	-240	-19
-61	-228	-26
-167	-167	-25
-226	-95	-8
-204	-48	-23
-110	-25	-37
19	-6	-31
128	36	-23
184	110	-20
186	192	-21
158	237	-22
125	211	-28
104	120	-23
89	-4	-23
56	-110	-27
-5	-166	-19
-93	-167	-3
-181	-140	-11
-240	-115	-25
-255	-102	-18
-228	-92	-13
-181	-59	-19
-129	5	-22
-75	90	-15
-4	166	-12
98	195	-10
230	171	-12
363	106	-24
451	34	-37
439	-22	-34
320	-51	-20
106	-63	-11
-138	-84	-18
-336	-118	-29
-431	-162	-27
-404	-190	-42
-279	-181	-50
-112	-123	-48
48	-31	-38
161	70	-33
216	153	-35
230	192	-25
214	185	-21
181	143	-20
133	88	-26
71	39	-17
-4	9	-8
-86	-1	-8
-162	-4	-11
-219	-9	-20
-252	-29	-17
-262	-65	-11
-249	-109	-4
-214	-150	-21
-156	-166	-31
-71	-150	-35
33	-95	-34
143	-8	-20
234	92	-4
279	185	1
273	244	-20
216	251	-30
136	198	-26
49	99	-15
-23	-23	-15
-80	-130	-31
-123	-195	-25
-166	-208	-27
-210	-170	-25
-245	-101	-17
-253	-27	-22
-212	31	-23
-116	66	-21
17	78	-19
160	71	-18
273	59	-24
331	45	-31
320	38	-20
257	41	-17
166	52	-34
75	63	-40
-2	59	-36
-60	32	-21
-111	-21	-16
-162	-92	-17
-217	-159	-23
-269	-200	-40
-296	-206	-46
-278	-175	-30
-211	-117	-16
-102	-47	-32
13	22	-30
105	84	-22
148	129	-22
138	160	-19
103	162	-21
78	132	-29
94	76	-21
151	-3	11
216	-85	-3
239	-153	-17
184	-191	-13
49	-196	-15
-116	-168	-11
-245	-118	-15
-277	-52	-19
-195	17	-33
-38	80	-34
122	130	-26
222	161	-19
234	168	-16
179	153	-24
103	121	-25
42	82	-17
8	38	-21
-24	-4	-34
-84	-46	-38
-173	-84	-43
-269	-113	-45
-321	-127	-36
-300	-120	-28
-200	-92	-23
-55	-45	-18
83	10	-20
178	65	-15
219	113	-11
225	145	-27
213	166	-24
195	165	-24
162	139	-34
105	84	-39
20	1	-35
-75	-94	-3
-151	-178	10
-187	-226	7
-183	-223	7
-162	-175	-12
-142	-103	-18
-137	-34	-23
-134	17	-32
-108	45	-31
-42	68	-34
58	93	-25
163	124	-28
229	147	-34
228	144	-30
156	105	-35
42	30	-31
-71	-52	-2
-153	-118	-1
-180	-147	-34
-156	-137	-27
-98	-105	-7
-30	-72	-13
30	-54	-11
70	-51	-21
91	-52	-27
96	-39	-33
93	-9	-33
93	41	-38
101	103	-41
116	150	-35
122	171	-34
105	150	-20
54	92	-18
-29	7	-16
-127	-81	-16
-217	-151	-12
-269	-188	-12
-274	-188	-15
-229	-162	-21
-148	-117	-39
-46	-61	-35
59	8	-33
155	92	-25
231	183	-26
276	261	-34
285	292	-21
253	252	-16
184	135	-13
94	-29	-21
-4	-183	-27
-96	-273	-34
-173	-263	-27
-229	-167	-25
-262	-26	-32
-271	96	-25
-243	156	-35
-174	142	-20
-71	79	-7
48	11	-6
161	-26	4
232	-19	5
245	13	5
206	43	-4
126	43	-12
33	7	-28
-48	-53	-34
-102	-118	-35
-130	-165	-34
-140	-186	-35
-147	-187	-41
-155	-174	-46
-163	-153	-38
-162	-125	-24
-139	-85	-30
-86	-24	-17
-3	57	-19
97	147	-30
198	230	-23
278	284	-23
319	298	-15
302	261	-13
229	185	-13
98	87	-18
-59	-13	-21
-215	-94	-26
-333	-151	-26
-383	-178	-11
-351	-187	-16
-239	-175	-23
-69	-142	-23
121	-86	-33
292	-8	-30
407	75	-16
438	139	-13
383	162	-19
262	136	-27
111	71	-27
-24	-2	-22
-120	-56	-27
-164	-80	-18
-175	-78	-18
-180	-77	-23
-195	-96	-23
-226	-133	-23
-247	-170	-25
-231	-173	-27
-164	-121	-28
-54	-17	-32
70	106	-28
175	210	-33
231	262	-26
237	256	-19
209	202	-9
175	127	-2
147	54	-15
119	-11	-24
76	-68	-20
-1	-119	-6
-117	-162	-3
-248	-183	-14
-361	-179	-9
-417	-144	-12
-387	-93	-21
-271	-40	-35
-97	3	-44
91	35	-42
245	64	-47
328	95	-40
329	131	-27
262	155	-30
158	145	-19
52	84	-3
-30	-23	-5
-82	-145	-15
-113	-241	-21
-139	-263	-24
-168	-207	-25
-189	-97	-21
-188	14	-24
-150	74	-24
-70	68	-25
30	15	-31
126	-30	-31
188	-17	-26
203	70	-20
176	203	-18
135	317	-16
99	343	-21
80	257	-21
72	84	-19
56	-112	-15
13	-256	-23
-61	-301	-42
-152	-249	-36
-228	-144	-40
-256	-45	-33
-216	11	-8
-115	17	-10
22	6	-20
156	17	-21
245	72	-30
273	158	-34
234	229	-27
145	239	-17
42	164	-8
-51	21	-13
-120	-133	-4
-166	-246	-11
-194	-274	-17
-210	-228	-16
-215	-143	-27
-202	-68	-32
-163	-33	-47
-96	-29	-52
-4	-27	-42
89	6	-30
169	74	-10
221	157	-16
242	213	-29
236	210	-28
206	147	-27
155	44	-27
84	-49	-23
-3	-109	-12
-96	-121	-9
-178	-103	-14
-229	-81	-16
-239	-70	-19
-211	-81	-14
-156	-98	-19
-90	-108	-17
-21	-101	-16
50	-63	-28
123	-2	-13
198	80	-12
251	164	-12
265	227	-12
223	238	-30
125	182	-24
-1	69	-11
-122	-65	-3
-208	-171	-2
-247	-209	-23
-242	-168	-51
-213	-81	-43
-170	-3	-30
-113	27	-29
-31	5	-41
71	-34	-40
179	-41	-30
259	16	-25
280	121	-19
234	215	-23
132	238	-26
16	161	-31
-81	8	-18
-139	-152	-14
-169	-248	-14
-188	-256	-23
-213	-202	-34
-232	-147	-20
-218	-137	-23
-152	-167	-21
-27	-185	-9
125	-126	-8
260	41	-20
333	277	-34
326	492	-20
254	579	-5
156	495	-6
65	268	-10
-3	-7	-14
-53	-223	-26
-105	-316	-31
-170	-296	-36
-247	-223	-47
-320	-166	-37
-363	-165	-33
-358	-196	-38
-287	-208	-43
-151	-151	-35
42	-19	-20
262	147	-10
468	279	-2
600	333	-13
614	296	-12
496	198	-15
266	88	-21
-8	-4	-25
-248	-69	-32
-389	-123	-26
-415	-174	-22
-347	-218	-22
-247	-237	-27
-162	-211	-23
-112	-139	4
-82	-44	6
-38	43	-30
32	103	-52
122	131	-46
192	151	-38
205	178	-17
151	211	-14
52	229	-16
-43	202	-15
-93	119	-18
-80	-4	-10
-32	-125	-10
9	-205	-17
6	-226	-20
-43	-202	-21
-110	-167	-24
-147	-148	-24
-123	-142	-30
-37	-126	-23
82	-71	-18
190	31	-30
251	154	-32
254	256	-34
214	291	-21
148	244	-18
71	139	-23
-12	8	-20
-101	-104	-25
-189	-178	-20
-262	-204	-9
-296	-200	-13
-277	-177	-24
-209	-145	-23
-116	-115	-30
-27	-86	-35
40	-57	-32
86	-18	-14
124	41	0
167	124	-11
212	217	-13
242	283	-12
228	283	-21
152	192	-25
30	26	-28
-102	-160	-41
-199	-289	-46
-228	-311	-23
-190	-217	-27
-117	-58	-48
-49	89	-43
-13	168	-31
-10	166	-23
-12	110	-20
3	58	-11
46	49	-8
105	90	-24
139	149	-35
122	188	-29
46	178	-31
-62	115	-32
-160	18	-15
-202	-92	2
-174	-190	9
-89	-268	-2
13	-316	-14
93	-322	-8
132	-281	-8
138	-191	-21
136	-68	-34
147	57	-43
172	155	-44
197	203	-43
186	203	-39
123	164	-42
12	106	-36
-115	41	-28
-213	-19	-23
-244	-74	-3
-205	-113	-9
-122	-126	0
-40	-112	-5
3	-78	-23
-6	-36	-21
-51	-6	-18
-91	4	-13
-100	6	-25
-59	19	-28
18	58	-32
106	122	-31
172	183	-30
195	209	-23
172	174	-19
114	88	-15
39	-22	-8
-39	-114	-19
-111	-160	-29
-174	-157	-31
-218	-127	-24
-241	-93	-33
-228	-72	-29
-176	-57	-13
-91	-36	-19
16	6	-15
118	64	-13
196	120	-23
234	155	-27
223	158	-28
170	135	-38
89	97	-51
-8	57	-16
-100	22	-7
-163	-11	-30
-185	-39	-20
-156	-66	-8
-89	-89	-22
-12	-106	-39
41	-123	-29
46	-144	-23
12	-167	-16
-32	-174	-16
-41	-144	-9
13	-67	-5
120	37	-15
237	136	-17
297	185	-31
253	159	-36
107	64	-35
-88	-56	-30
-260	-153	-21
-344	-192	-17
-318	-173	-19
-209	-118	-36
-75	-60	-23
37	-13	-20
107	27	-31
143	77	-19
165	138	-19
182	205	-16
189	251	-16
169	259	-18
113	223	-14
29	159	-16
-57	85	-16
-125	9	-20
-164	-71	-20
-182	-166	-32
-198	-263	-34
-212	-341	-30
-216	-362	-27
-183	-297	-27
-98	-154	-16
30	27	-14
170	189	-18
275	279	-14
313	290	-17
280	237	-23
212	165	-25
138	100	-21
90	55	-16
58	15	-15
26	-43	-23
-38	-121	-17
-134	-206	-21
-241	-261	-25
-315	-263	-30
-321	-204	-41
-251	-102	-42
-122	7	-47
22	92	-52
141	135	-50
212	143	-43
234	131	-42
212	121	-49
156	123	-47
75	136	-28
-29	147	-9
-138	135	11
-224	95	16
-251	22	13
-202	-60	31
-86	-130	22
52	-173	4
155	-179	-9
179	-170	-25
122	-162	-30
29	-167	-40
-38	-170	-33
-36	-142	-32
38	-63	-36
141	64	-29
210	202	-23
196	289	-21
99	278	-18
-40	165	-20
-168	-11	-33
-241	-173	-30
-253	-259	-34
-232	-248	-24
-206	-166	-27
-186	-65	-34
-161	4	-32
-102	36	-32
-1	48	-30
127	77	-31
238	129	-24
291	190	-21
266	218	-9
179	188	-13
69	97	-18
-24	-22	-28
-81	-127	-35
-104	-186	-30
-109	-189	-51
-110	-154	-42
-103	-99	-14
-79	-38	-1
-35	23	3
22	83	5
69	122	10
95	128	-1
94	89	-16
86	23	-21
87	-34	-30
107	-47	-34
136	-3	-28
144	74	-27
109	129	-12
24	113	-21
-89	17	-37
-195	-119	-31
-268	-229	-32
-289	-254	-32
-259	-187	-28
-191	-61	-22
-103	58	-19
-6	130	-17
89	149	-15
170	140	-7
216	136	-8
224	143	-17
190	138	-24
131	90	-25
63	-13	-15
-1	-144	-18
-64	-253	-28
-139	-289	-30
-229	-238	-26
-325	-131	-27
-393	-18	-35
-412	53	-42
-351	75	-44
-214	61	-45
-32	49	-43
156	58	-32
314	85	-21
429	114	-12
493	119	-7
506	98	-13
476	57	-6
399	13	-10
278	-34	-18
130	-92	-16
-17	-171	-19
-137	-264	-21
-206	-346	-16
-226	-372	-10
-213	-305	-11
-191	-143	-12
-175	77	-19
-166	294	-6
-145	438	-6
-98	475	-21
-20	401	-13
72	258	-18
148	97	-16
172	-33	-31
126	-112	-32
20	-145	-30
-119	-154	-36
-247	-162	-31
-325	-177	-43
-332	-195	-35
-267	-196	-29
-158	-164	-32
-30	-93	-36
85	11	-34
169	119	-29
216	204	-34
237	241	-38
234	225	-31
211	168	-23
170	91	-21
104	21	-19
17	-33	-23
-80	-71	-22
-172	-103	-20
-241	-131	-24
-273	-152	-34
-263	-150	-24
-216	-113	-32
-125	-44	-43
1	42	-5
154	120	-1
306	159	-7
431	153	-23
481	106	-36
431	43	-7
280	-14	-8
66	-51	-19
-151	-71	-9
-314	-79	-8
-386	-81	-20
-371	-78	-37
-307	-66	-38
-236	-49	-44
-188	-34	-44
-156	-33	-14
-109	-52	-13
-23	-82	-14
107	-98	-1
252	-74	1
361	-1	-13
399	108	-15
344	211	-7
222	262	-22
68	237	-23
-72	140	-19
-179	14	-24
-245	-98	-27
-276	-161	-31
-281	-174	-25
-261	-157	-31
-210	-131	-30
-133	-116	-31
-48	-96	-35
18	-51	-33
44	30	-30
27	137	-34
-14	235	-55
-38	284	-43
-7	259	-10
99	166	11
264	35	15
433	-91	-6
535	-182	-21
508	-227	-39
350	-235	-36
86	-227	-35
-198	-208	-32
-409	-185	-25
-477	-144	-31
-383	-78	-23
-175	14	-10
54	117	-19
228	201	-28
285	244	-25
237	236	-27
121	174	-21
-1	89	-26
-95	-1	-9
-148	-74	-3
-178	-119	-5
-207	-137	-8
-240	-136	-14
-267	-124	-16
-263	-101	-24
-218	-69	-22
-129	-24	-30
-17	29	-28
91	85	-26
174	132	-29
223	162	-37
240	166	-32
226	144	-23
184	106	-19
116	52	-19
24	-5	-22
-79	-68	-17
-169	-126	-22
-225	-173	-19
-231	-200	-26
-187	-198	-31
-112	-165	-26
-23	-103	-25
60	-23	-27
125	58	-25
172	129	-23
199	174	-22
210	197	-19
198	197	-27
169	183	-37
117	166	-35
51	137	-22
-22	90	-24
-92	15	-21
-152	-85	-20
-198	-195	-15
-225	-282	-5
-233	-320	-22
-217	-286	-18
-177	-192	-19
-103	-71	-30
2	32	-24
131	93	-11
263	114	-21
368	118	-43
407	131	-24
359	169	-4
226	203	-10
36	196	-13
-156	115	-8
-295	-37	-6
-347	-217	-10
-317	-356	-21
-235	-393	-35
-148	-320	-41
-89	-159	-41
-61	24	-44
-44	168	-58
-10	243	-58
55	253	-38
129	228	-21
172	189	-12
160	149	-13
83	97	-13
-29	27	-9
-123	-57	-1
-162	-138	-2
-136	-190	-15
-70	-196	-9
-7	-166	-6
21	-117	7
18	-75	0
10	-53	-28
30	-51	-40
95	-46	-42
188	-22	-35
273	32	-26
310	103	-21
278	166	-31
184	201	-46
61	189	-35
-68	131	-14
-182	43	-3
-269	-48	-4
-325	-121	-21
-342	-157	-36
-316	-153	-21
-246	-119	-14
-142	-70	-24
-27	-26	-27
72	7	-29
145	32	-28
193	58	-26
221	93	-24
237	131	-19
238	161	-15
212	161	-22
148	121	-48
50	48	-40
-53	-37	-9
-138	-110	-11
-176	-150	-12
-172	-151	-23
-139	-126	-24
-104	-94	-18
-72	-66	-30
-40	-48	-20
7	-31	-17
77	-11	-39
148	16	-40
196	49	-20
193	77	-11
134	98	-12
42	103	-18
-44	89	-22
-101	52	-21
-120	-1	-15
-123	-69	-12
-134	-130	-22
-164	-166	-23
-199	-162	-27
-209	-115	-29
-170	-40	-28
-77	39	-32
42	100	-35
152	127	-40
219	119	-37
233	85	-25
204	35	-20
152	-23	-8
94	-80	-7
29	-130	-27
-40	-163	-32
-120	-165	-29
-191	-132	-19
-231	-68	-7
-221	10	-11
-159	85	-11
-74	135	-18
6	158	-28
50	158	-18
58	145	-15
52	135	-16
68	124	-9
118	114	-15
194	90	-25
258	50	-28
262	-1	-18
179	-58	-27
18	-106	-36
-169	-142	-25
-316	-168	-28
-371	-192	-40
-317	-218	-35
-183	-241	-18
-22	-237	-17
114	-184	-17
195	-68	-56
216	98	-53
198	281	-17
164	424	-21
127	477	-18
91	409	-17
48	241	-6
0	20	-16
-52	-181	-16
-99	-306	-8
-133	-330	-17
-151	-270	-21
-157	-175	-20
-152	-91	-17
-137	-51	-31
-106	-51	-33
-47	-64	-21
34	-60	-12
131	-21	-13
216	40	-21
273	105	-32
276	145	-32
225	151	-23
125	130	-19
3	97	-12
-116	64	-18
-212	26	-25
-263	-25	-26
-269	-101	-24
-231	-185	-24
-161	-249	-32
-80	-259	-24
-8	-187	-34
41	-43	-44
67	135	-31
77	291	-25
82	372	-9
87	345	-4
99	229	-8
101	59	-27
80	-107	-29
28	-222	-21
-52	-263	-26
-144	-234	-19
-226	-167	-20
-264	-101	-21
-258	-54	-24
-195	-35	-26
-94	-26	-15
32	-6	-17
159	40	-13
262	114	-15
326	193	-25
338	250	-23
299	261	-28
216	222	-32
115	135	-21
13	28	-19
-71	-76	-33
-133	-154	-38
-176	-196	-33
-205	-202	-28
-222	-178	-19
-212	-133	-11
-169	-85	2
-81	-40	-6
44	-8	-29
183	10	-30
299	17	-42
355	20	-50
340	25	-42
257	34	-24
136	47	-24
9	53	-31
-99	45	-13
-176	14	-17
-225	-39	-15
-257	-101	-12
-279	-149	-8
-291	-160	-18
-281	-124	-31
-242	-53	-12
-165	30	-21
-53	95	-27
72	123	-20
191	117	-21
276	96	-21
312	81	-25
292	89	-31
223	102	-34
117	98	-13
-6	49	-17
-126	-45	-24
-229	-159	-20
-291	-248	-28
-310	-265	-12
-277	-206	-8
-205	-86	-15
-105	46	-8
4	141	-16
110	180	-16
204	168	-16
280	138	-21
333	122	-20
346	126	-24
321	138	-21
244	121	-25
126	61	-26
-4	-39	-31
-119	-151	-38
-195	-235	-30
-227	-264	-23
-224	-240	-23
-206	-182	-23
-186	-114	-21
-158	-56	-28
-112	-5	-37
-38	47	-39
57	113	-39
151	181	-30
215	230	-18
229	237	-14
187	186	-16
111	92	-11
27	-18	-9
-48	-110	-12
-111	-160	-8
-163	-167	-16
-206	-144	-21
-231	-121	-7
-221	-104	-25
-165	-93	-47
-71	-66	-33
36	-17	-28
126	56	-23
172	137	-20
172	194	-11
143	203	-4
110	164	-25
86	95	-26
68	24	-16
36	-25	-17
-20	-44	-18
-105	-52	-32
-195	-69	-37
-262	-108	-38
-279	-157	-42
-236	-190	-30
-145	-185	-31
-30	-130	-34
81	-41	-36
172	50	-34
238	116	-26
271	142	-21
269	136	-12
234	116	3
159	98	-2
59	79	-20
-48	52	-22
-148	4	-21
-217	-65	-23
-250	-140	-19
-242	-199	-20
-200	-218	-15
-132	-191	-23
-46	-126	-42
48	-40	-35
137	43	-37
204	116	-30
239	168	-11
234	200	-19
192	214	-28
134	205	-19
72	168	-6
18	97	3
-26	-2	-8
-66	-117	-17
-109	-216	-32
-152	-273	-32
-194	-270	-15
-222	-208	-33
-226	-108	-49
-201	-2	-53
-152	77	-35
-88	116	-19
-20	127	-20
39	129	-27
85	136	-30
116	143	1
139	135	-2
158	89	-19
175	7	-26
180	-86	-23
159	-147	-8
103	-150	-4
12	-101	3
-94	-31	6
-180	7	-6
-208	-11	-15
-167	-75	-21
-64	-131	-33
63	-129	-34
172	-46	-39
230	96	-36
228	233	-28
180	300	-32
107	261	-19
29	143	-30
-50	-3	-41
-130	-118	-34
-209	-175	-19
-275	-181	-19
-307	-168	-30
-285	-161	-28
-198	-160	-30
-70	-139	-32
67	-80	-31
178	20	-25
237	126	-23
237	197	-15
197	199	-16
139	140	-19
86	63	-3
46	13	-14
20	13	-36
-1	45	-36
-34	65	-26
-80	26	-15
-136	-80	-10
-188	-215	-1
-217	-314	-6
-205	-320	-23
-148	-224	-27
-52	-58	-30
57	106	-33
150	215	-30
198	244	-27
187	218	-40
123	170	-32
30	123	-26
-63	83	-23
-124	29	-9
-136	-46	-8
-97	-138	-7
-29	-218	-10
40	-251	-20
80	-227	-27
72	-157	-36
17	-72	-33
-62	-7	-23
-123	32	-16
-129	57	-7
-63	95	-16
57	158	-32
188	237	-34
271	301	-27
273	319	-26
191	261	-27
59	130	-24
-66	-41	-28
-154	-213	-26
-189	-336	-21
-195	-384	-20
-193	-349	-27
-193	-248	-29
-178	-110	-22
-117	27	-23
5	140	-27
171	219	-26
330	262	-15
422	274	-21
406	254	-27
288	192	-19
115	88	-21
-50	-46	-23
-163	-182	-25
-214	-275	-32
-225	-297	-25
-226	-241	-10
-236	-140	-9
-249	-46	-9
-242	0	-12
-195	-7	-26
-110	-41	-30
-7	-55	-37
83	-14	-34
142	80	-9
169	187	-3
172	251	-15
166	235	-14
148	138	-17
107	-2	-28
37	-131	-19
-56	-214	-21
-152	-236	-31
-213	-213	-32
-222	-167	-28
-168	-118	-29
-79	-66	-30
15	-6	-20
88	61	-26
133	132	-25
163	189	-20
188	215	-24
209	206	-17
214	166	-21
180	106	-30
95	35	-26
-27	-44	-17
-159	-127	-21
-256	-201	-35
-291	-244	-17
-264	-230	-15
-190	-145	-22
-99	-7	-23
-15	144	-37
44	258	-27
85	291	-23
107	247	-21
124	150	-12
139	57	-7
150	5	-15
152	0	-28
141	13	-21
111	0	-10
52	-63	-8
-31	-171	-16
-130	-274	-15
-221	-320	-11
-270	-277	-27
-260	-159	-28
-188	-17	-20
-72	93	-34
48	131	-34
143	111	-19
194	68	-24
202	47	-30
184	65	-34
159	99	-43
127	110	-33
89	69	-18
36	-19	-3
-28	-121	1
-95	-186	-26
-145	-183	-40
-178	-122	-45
-190	-36	-51
-195	34	-26
-197	66	-15
-189	68	-8
-153	67	3
-72	86	-4
48	122	-7
183	157	-18
289	154	-19
336	105	-16
311	17	-28
226	-77	-23
114	-148	-9
4	-181	-15
-86	-179	-22
-154	-160	-30
-199	-132	-24
-221	-100	-32
-208	-54	-52
-159	7	-43
-83	74	-33
-2	127	-31
58	150	-22
89	143	-15
95	117	-24
99	100	-40
115	97	-35
139	98	-12
149	84	4
110	28	4
16	-70	-27
-117	-190	-43
-241	-286	-32
-315	-321	-43
-311	-282	-40
-240	-183	-37
-129	-56	-31
-18	64	-17
74	155	-18
145	209	-16
198	227	-16
236	213	-5
245	174	-4
216	113	-11
145	35	-18
41	-44	-16
-68	-108	-12
-156	-143	-12
-200	-153	-26
-204	-142	-26
-179	-126	-18
-141	-107	-27
-99	-77	-36
-50	-32	-35
12	37	-33
86	116	-34
158	185	-24
215	215	-23
238	202	-14
222	145	-15
167	68	-23
89	1	-20
-1	-44	-19
-86	-65	-16
-159	-79	-19
-211	-94	-8
-234	-119	-16
-225	-144	-22
-180	-155	-20
-105	-142	-28
-14	-104	-35
81	-49	-35
162	11	-31
219	67	-32
244	115	-28
234	153	-27
188	168	-16
118	153	-9
29	99	-8
-63	16	-11
-150	-77	-16
-212	-153	-20
-248	-188	-34
-253	-179	-35
-223	-137	-32
-166	-83	-32
-90	-30	-31
-5	15	-31
74	59	-22
139	109	-18
188	161	-2
219	200	8
234	210	-22
234	180	-25
206	109	-7
148	12	-9
49	-89	-7
-74	-183	-9
-204	-251	-24
-304	-282	-34
-344	-263	-38
-315	-194	-42
-226	-87	-30
-109	32	-27
2	123	-27
86	163	-29
139	149	-37
172	105	-35
203	71	-36
229	66	-37
232	90	-29
194	109	-16
97	92	-15
-48	25	-14
-212	-64	-16
-344	-136	-31
-399	-156	-31
-351	-117	-36
-212	-56	-30
-26	-19	-17
151	-30	-26
269	-81	-32
302	-122	-14
261	-108	-14
175	-16	-2
90	121	-3
37	243	-18
23	283	-5
30	211	-16
29	56	-19
-10	-126	-32
-88	-258	-39
-190	-299	-18
-279	-240	-14
-321	-119	-17
-304	10	-10
-225	105	-4
-105	150	-13
30	155	-13
159	141	-23
269	132	-25
346	130	-25
381	119	-30
356	89	-31
269	32	-41
127	-37	-40
-42	-102	-33
-199	-140	-28
-304	-144	-34
-329	-122	-28
-280	-89	-14
-179	-58	-5
-62	-34	-23
40	-14	-42
111	11	-24
154	39	-16
172	62	-17
176	75	-12
171	70	-6
144	56	-25
95	45	-31
22	43	-25
-65	43	-26
-152	28	-19
-217	-18	-19
-250	-95	-24
-245	-176	-42
-205	-232	-26
-140	-229	-12
-60	-166	-13
24	-70	-14
103	22	-26
166	79	-22
207	99	-25
219	99	-31
198	106	-35
148	129	-35
71	150	-36
-20	135	-36
-112	68	-27
-188	-38	-28
-233	-144	-11
-239	-200	-1
-202	-174	-2
-140	-81	-6
-63	31	-13
5	110	-21
59	122	-25
99	77	-19
133	17	-27
169	-19	-27
202	-13	-17
219	25	-18
204	58	-32
143	65	-30
41	38	-18
-83	-12	-20
-197	-58	-25
-274	-88	-30
-306	-97	-22
-297	-91	-25
-262	-66	-27
-218	-16	-19
-169	62	-25
-107	165	-48
-19	256	-46
97	301	-31
234	268	-32
369	159	-15
462	6	-1
488	-143	6
431	-249	0
292	-294	-18
99	-296	-20
-112	-282	-25
-300	-272	-22
-420	-263	-20
-439	-240	-15
-352	-179	-27
-175	-81	-40
49	39	-28
258	150	-17
393	227	-12
420	260	-5
344	257	-14
207	235	-31
63	200	-18
-44	150	-28
-104	80	-28
-134	-15	-9
-167	-119	-23
-225	-210	-36
-300	-258	-40
-366	-251	-26
-383	-190	-30
-331	-98	-38
-213	-5	-30
-56	71	-26
98	124	-14
226	168	-12
309	211	-5
346	255	8
344	282	-6
300	264	-15
207	181	-15
75	32	-22
-75	-144	-31
-217	-296	-37
-320	-364	-41
-364	-334	-45
-344	-219	-35
-274	-76	-25
-168	41	-20
-40	103	-17
96	114	-16
226	110	-27
325	127	-41
368	171	-32
336	222	-30
234	233	-23
85	174	-15
-70	45	-7
-195	-117	0
-267	-260	-9
-287	-338	-24
-270	-332	-29
-226	-263	-36
-170	-170	-37
-101	-85	-31
-22	-20	-32
60	29	-25
135	81	-23
189	149	-18
216	222	-10
221	274	-18
198	269	-23
159	199	-18
103	71	-23
32	-75	-15
-40	-190	-21
-104	-244	-36
-143	-233	-36
-150	-190	-25
-129	-153	-21
-93	-142	-19
-51	-150	-16
-7	-135	-14
40	-71	-8
98	52	-21
156	201	-24
195	317	-20
194	345	-23
137	282	-23
38	153	-20
-71	19	-18
-154	-71	-16
-188	-106	-14
-175	-103	-25
-147	-97	-40
-138	-110	-33
-168	-131	-27
-225	-134	-26
-263	-97	-27
-245	-24	-29
-140	55	-30
38	117	-38
245	139	-30
423	134	-30
508	118	-23
496	103	-8
374	77	-3
198	22	3
-2	-71	-6
-180	-189	-16
-311	-281	-26
-380	-309	-30
-386	-249	-36
-328	-122	-42
-215	18	-31
-63	119	-23
100	158	-19
241	150	-21
324	131	-34
332	132	-27
273	154	-26
175	168	-36
67	142	-15
-16	63	-12
-71	-45	-11
-109	-148	-12
-148	-202	-31
-193	-205	-25
-240	-169	-27
-262	-125	-21
-237	-95	-4
-162	-74	-5
-47	-44	-12
70	10	-37
167	89	-23
215	168	-9
224	214	-12
200	209	-27
161	156	-41
111	83	-22
42	22	-20
-48	-9	-18
-161	-15	-24
-275	-17	-34
-360	-40	-30
-380	-92	-25
-321	-152	-30
-194	-187	-25
-25	-173	-9
141	-105	-17
268	-4	-21
333	89	-22
339	141	-30
301	135	-23
244	85	-27
182	19	-29
121	-35	-16
56	-63	-18
-24	-69	-25
-119	-70	-22
-221	-81	-24
-303	-95	-24
-338	-103	-24
-300	-87	-19
-190	-37	-7
-26	34	-10
151	113	-25
294	174	-28
363	201	-33
342	187	-36
248	134	-40
114	53	-36
-17	-42	-16
-118	-131	-15
-178	-196	-19
-207	-210	-14
-224	-170	7
-232	-95	4
-227	-18	-11
-187	23	-19
-109	8	-17
4	-53	-25
123	-120	-31
214	-144	-39
252	-97	-41
234	19	-32
182	162	-30
128	277	-30
95	323	-31
78	286	-19
57	185	-20
9	57	-19
-72	-55	-11
-173	-137	-12
-257	-178	-24
-289	-184	-20
-259	-160	-16
-177	-114	-26
-77	-48	-31
11	28	-37
69	98	-31
101	145	-27
122	155	-22
144	126	-25
163	72	-23
159	12	-24
113	-36	-16
22	-61	7
-89	-60	5
-182	-41	-6
-218	-21	-32
-185	-18	-50
-101	-46	-26
-4	-105	-16
59	-182	-27
77	-243	-30
57	-256	-29
39	-199	-24
46	-74	-32
90	84	-32
139	228	-32
163	301	-36
130	290	-35
44	196	-32
-67	61	-13
-165	-62	-11
-213	-144	-12
-210	-171	-14
-169	-159	-19
-115	-125	-18
-64	-89	-25
-15	-50	-12
38	-3	-18
102	51	-31
165	112	-20
209	155	-17
216	169	-13
190	144	-20
131	90	-30
62	26	-26
-5	-34	-20
-75	-77	-21
-142	-104	-20
-206	-116	-15
-247	-117	-16
-240	-105	-19
-172	-76	-16
-51	-30	-19
81	28	-30
182	92	-18
216	153	-12
186	201	-30
118	225	-32
59	211	-27
38	158	-19
52	70	-19
71	-34	-43
54	-125	-41
-16	-176	-36
-135	-179	-32
-258	-149	-27
-343	-117	-35
-354	-114	-31
-287	-147	-32
-161	-190	-19
-6	-207	4
145	-163	9
269	-51	-6
352	89	-25
385	208	-12
354	255	-7
266	218	-22
130	123	-33
-26	15	-35
-173	-62	-24
-281	-96	-26
-333	-103	-26
-331	-110	-25
-285	-139	-26
-211	-181	-42
-122	-209	-46
-28	-187	-28
69	-101	-22
162	34	-20
240	185	-14
288	311	0
296	391	-4
255	413	-19
175	385	-11
70	305	-14
-36	174	-28
-126	1	-25
-186	-199	-11
-214	-375	3
-217	-474	-4
-202	-451	-35
-178	-308	-44
-154	-91	-35
-124	122	-41
-91	257	-44
-46	282	-40
14	214	-34
86	106	-25
165	20	-18
234	-16	-17
274	-9	-13
269	1	-12
209	-18	-16
101	-82	-6
