File Name: not saved
Channel 2: 'Channel 2', 12720 values, raw ADC, no filters.
Channel 3: 'Channel 3', 12720 values, raw ADC, no filters.
Channel 4: 'Channel 4', 12720 values, raw ADC, no filters.

60	-140	-18
432	-292	-60
707	-344	-23
800	-254	0
693	-47	-11
429	189	-16
111	338	-44
-149	324	-46
-285	145	-4
-291	-104	1
-240	-303	-6
-204	-351	-18
-234	-238	-4
-308	-47	11
-355	101	21
-300	122	24
-117	26	-11
148	-97	-6
394	-123	0
523	7	-3
498	252	-18
365	483	-45
210	551	-55
117	386	-53
102	32	-54
125	-356	-71
111	-612	-61
14	-631	-89
-159	-423	-92
-336	-105	-76
-437	174	-65
-419	320	-5
-295	308	20
-126	199	33
16	80	49
93	11	34
108	7	3
89	35	10
62	59	14
41	56	3
18	25	9
-18	-21	-15
-65	-66	-30
-109	-110	-35
-130	-145	-56
-119	-173	-58
-87	-175	-50
-47	-148	-48
-12	-86	-26
13	-2	-13
42	77	-15
76	138	-6
109	174	-34
124	195	-41
103	210	-43
40	215	-57
-44	198	-47
-122	137	-51
-164	25	-39
-152	-122	-26
-97	-262	-21
-22	-349	-12
45	-355	18
86	-277	36
94	-151	12
78	-15	-18
59	93	-32
54	164	-34
81	205	-27
136	227	-23
207	233	-40
258	215	-32
250	160	-32
154	58	-40
-28	-70	-11
-260	-196	1
-472	-281	-8
-594	-296	-28
-581	-232	-49
-434	-112	-45
-204	26	-49
38	139	-45
223	190	-33
319	155	-30
331	45	-16
296	-93	2
261	-185	-7
251	-172	-34
267	-31	-26
280	183	-6
262	357	1
182	380	31
40	196	37
-137	-137	7
-307	-475	4
-415	-646	-23
-425	-557	-42
-337	-251	-37
-176	116	-42
8	362	-41
162	382	-40
253	215	-30
269	7	-34
238	-89	-48
179	-5	-45
107	189	-48
30	345	-26
-63	339	-19
-169	139	-36
-270	-145	-27
-330	-373	-5
-325	-427	8
-250	-311	-11
-134	-116	-23
-20	35	-5
58	76	37
96	37	-9
118	3	-68
154	45	-56
216	173	-72
284	313	-60
312	372	-24
265	305	10
141	140	-5
-23	-36	-26
-183	-143	-25
-303	-155	-32
-378	-116	-28
-420	-101	-32
-436	-155	-24
-407	-253	-11
-295	-319	-7
-78	-274	-17
221	-103	-21
518	125	-20
705	305	-16
706	337	16
518	211	3
211	1	-23
-94	-178	-27
-303	-233	-44
-375	-162	-46
-338	-37	-41
-250	39	-26
-160	4	8
-87	-126	8
-19	-268	-16
49	-326	4
111	-249	-12
143	-54	-38
130	174	-30
85	356	-49
42	438	-67
44	429	-42
97	345	-35
159	224	-48
169	80	-24
82	-78	-1
-96	-219	21
-303	-309	57
-455	-303	39
-480	-192	-6
-366	-19	2
-164	136	-31
49	193	-74
207	129	-56
272	-11	-53
251	-127	-48
172	-139	-31
84	-27	-36
17	147	-42
-5	271	-32
24	254	-16
96	82	-13
180	-171	-14
237	-383	-35
225	-457	-44
128	-372	-30
-35	-185	-29
-207	0	-32
-325	106	-11
-352	117	5
-274	78	1
-137	51	-2
6	79	-9
106	141	-20
147	192	-39
135	179	-72
102	98	-76
61	-3	-42
15	-61	2
-47	-32	26
-136	68	14
-239	177	-6
-327	214	-11
-358	136	-3
-304	-33	-45
-156	-224	-95
58	-344	-95
283	-344	-59
462	-235	-9
547	-81	16
528	48	12
422	120	19
271	139	43
121	149	9
-4	171	-33
-99	199	-48
-172	180	-89
-237	70	-102
-303	-127	-95
-361	-352	-79
-400	-495	-16
-398	-478	32
-350	-290	34
-252	-9	7
-116	240	-6
40	357	3
198	313	-4
318	175	-26
369	41	-53
329	-3	-66
211	47	-42
52	131	-9
-81	168	35
-142	96	48
-116	-65	32
-35	-251	43
39	-373	18
58	-384	-29
13	-286	-67
-51	-121	-71
-79	45	-44
-26	178	-37
89	251	-32
200	265	-32
237	230	-36
162	159	-19
11	76	-12
-130	8	-16
-176	-21	-15
-99	-7	-30
54	27	-40
184	43	-31
201	9	-14
78	-69	-10
-126	-156	-20
-307	-196	-32
-369	-161	-24
-280	-61	-11
-91	56	-13
111	136	-21
252	157	-28
299	131	-38
267	101	-66
203	93	-52
132	103	-31
54	95	-28
-45	28	-8
-174	-99	6
-310	-248	5
-404	-351	5
-415	-355	-16
-331	-257	-23
-183	-105	-30
-27	30	-44
88	103	-39
148	104	-28
171	76	-25
195	64	-21
237	90	-18
280	132	-24
291	153	-23
234	119	-19
104	31	-10
-60	-66	-19
-198	-127	-10
-259	-117	-17
-229	-48	-42
-142	31	-33
-60	77	-27
-35	60	-28
-77	0	-50
-157	-63	-47
-217	-83	-36
-203	-42	-38
-103	38	-47
58	115	-51
225	144	-43
342	105	-9
371	7	-2
311	-106	-9
181	-192	26
16	-224	37
-145	-190	44
-271	-116	28
-331	-28	-15
-310	40	-30
-203	83	-40
-40	96	-70
132	94	-67
267	96	-44
321	110	-24
288	135	-29
198	158	-30
92	158	0
1	119	-4
-61	38	-21
-114	-67	-27
-165	-166	-16
-213	-224	-11
-233	-222	-15
-193	-167	-22
-88	-90	-55
55	-33	-67
182	-17	-60
238	-38	-49
205	-68	-30
115	-71	-4
28	-26	42
-3	61	71
25	157	19
77	225	-24
90	237	-26
25	197	-24
-103	121	-17
-237	36	-23
-305	-40	-21
-271	-108	-41
-152	-167	-66
-11	-214	-76
85	-235	-71
107	-215	-67
78	-145	-61
49	-35	-24
68	83	5
139	179	30
228	225	32
269	227	-1
226	193	-16
99	144	13
-69	92	26
-221	25	11
-306	-64	-8
-319	-178	-34
-277	-283	-42
-217	-346	-40
-164	-322	-38
-126	-210	-48
-103	-41	-54
-92	130	-58
-87	247	-52
-80	294	-49
-51	285	-36
28	261	11
171	241	11
363	206	-6
540	120	-19
620	-44	-42
539	-263	-45
288	-470	-33
-51	-565	-33
-362	-501	-43
-523	-301	-41
-474	-61	-48
-257	110	-53
27	155	-33
258	100	6
360	36	9
331	50	-23
226	161	-28
105	305	-19
6	379	-15
-84	300	-17
-187	79	-2
-315	-182	-3
-435	-355	-20
-493	-361	-22
-447	-203	-24
-290	20	-13
-76	197	-12
121	260	-2
244	215	-5
278	138	-25
253	96	-33
221	121	-44
206	179	-31
203	209	-34
175	158	-40
93	25	-23
-48	-143	-21
-217	-282	-3
-358	-345	16
-431	-322	24
-418	-245	7
-337	-158	-17
-214	-92	-13
-76	-53	-11
65	-33	-15
202	-11	-30
314	23	-47
381	64	-57
373	101	-62
302	126	-54
194	132	-40
91	119	-27
38	82	-19
48	21	-6
97	-57	10
136	-140	0
129	-202	-21
65	-218	-46
-26	-175	-43
-105	-82	-9
-141	32	5
-132	134	-6
-100	190	-26
-71	193	-28
-61	155	-43
-54	106	-60
-35	76	-70
9	71	-68
62	81	-53
96	75	-37
81	32	-20
12	-54	26
-87	-163	68
-180	-248	48
-228	-263	35
-224	-186	4
-177	-35	-38
-110	131	-43
-39	244	-46
27	244	-30
85	132	-4
120	-42	-14
114	-190	-55
46	-232	-72
-81	-138	-44
-229	43	0
-337	215	-6
-351	282	-28
-256	206	-37
-89	30	-21
81	-144	-25
189	-222	-36
216	-161	-34
199	-14	-32
195	122	-41
245	161	-60
341	79	-38
425	-70	-29
438	-188	-6
354	-203	20
209	-111	-8
70	27	-34
-12	123	-38
-38	126	-45
-62	37	-54
-147	-88	-69
-317	-190	-52
-526	-238	-24
-679	-238	-8
-686	-218	26
-518	-189	-3
-226	-140	-26
99	-46	-18
351	101	-12
482	278	-19
495	430	-21
434	495	19
344	457	33
242	321	22
128	138	-1
-3	-38	-16
-136	-179	-23
-247	-272	-33
-307	-320	-48
-315	-325	-64
-285	-288	-67
-241	-209	-62
-190	-103	-50
-123	-4	-42
-28	64	-40
97	89	-23
222	84	-8
302	80	-4
306	101	-1
229	143	-14
105	182	-23
-13	182	-21
-90	122	-33
-125	19	-43
-144	-91	-16
-183	-162	-3
-249	-174	8
-316	-135	42
-332	-68	42
-260	-7	32
-98	35	15
116	58	0
317	72	-22
454	80	-38
502	74	-32
473	53	-57
391	20	-67
275	-11	-37
124	-25	-36
-65	-19	-53
-291	-1	-75
-523	3	-54
-697	-21	-20
-756	-72	-16
-647	-129	-17
-386	-160	-28
-12	-142	-23
374	-84	-23
689	-6	-19
846	62	-8
822	109	-15
641	134	-27
371	145	-40
97	142	-40
-112	115	-17
-218	43	-10
-232	-72	-27
-194	-213	-38
-153	-326	-25
-140	-375	-6
-157	-322	-18
-183	-199	-29
-189	-49	-22
-165	71	-16
-112	130	-8
-54	138	-7
-14	127	-7
10	136	0
29	174	13
56	221	-1
89	238	-44
106	200	-57
78	110	-7
-14	1	-6
-161	-85	-52
-321	-120	-63
-445	-108	-47
-480	-76	-30
-408	-55	-25
-249	-58	-30
-36	-75	-30
189	-71	-30
391	-24	-25
537	71	-7
608	191	-40
579	289	-42
451	322	-24
244	261	-19
5	118	4
-201	-78	-7
-329	-272	-19
-361	-411	-24
-321	-457	-19
-253	-403	-30
-188	-273	-36
-136	-111	-37
-79	32	-48
6	124	-42
122	157	-24
248	148	4
337	123	58
346	109	69
275	112	32
133	122	23
-28	124	-1
-177	106	-24
-291	59	-43
-378	-6	-52
-432	-82	-59
-445	-150	-57
-393	-188	-49
-260	-182	-51
-52	-125	-53
189	-33	-59
394	61	-45
498	120	-27
486	119	-19
381	63	1
241	-11	4
124	-54	-9
59	-44	-11
34	13	-20
16	68	-30
-26	75	-31
-94	8	-31
-165	-106	-31
-205	-204	-27
-191	-230	-18
-130	-157	-2
-55	-7	-19
0	165	-46
13	301	-27
-13	372	-33
-52	371	-43
-76	301	-14
-60	179	-14
-4	12	-20
71	-173	-34
133	-340	-38
143	-439	-27
81	-432	-33
-57	-326	-10
-233	-174	17
-389	-51	16
-459	-8	11
-399	-45	1
-212	-107	-13
52	-116	-13
309	-31	-26
476	129	-40
506	296	-44
415	382	-40
253	345	-21
94	207	-23
-12	39	-19
-54	-92	-25
-55	-145	-40
-53	-138	-27
-72	-111	-26
-119	-94	-39
-174	-94	-58
-222	-82	-43
-248	-40	-10
-250	35	-5
-229	117	4
-166	171	-18
-47	181	-36
130	155	-48
341	123	-50
529	108	-28
623	106	-25
565	95	-24
358	38	-12
64	-60	8
-222	-178	22
-409	-260	22
-447	-275	9
-360	-218	-8
-215	-125	-33
-93	-44	-51
-35	2	-47
-40	18	-55
-68	35	-57
-78	80	-47
-43	147	-39
18	201	-36
80	202	-33
112	131	-26
107	14	-17
77	-102	-11
40	-169	-3
6	-166	-5
-26	-115	-4
-62	-63	0
-101	-41	1
-130	-53	-3
-126	-70	-18
-77	-65	-34
18	-23	-27
127	34	-15
212	77	-52
238	81	-49
175	53	-40
40	31	-60
-141	34	-52
-316	71	-51
-438	108	-42
-470	100	-24
-404	24	-8
-261	-99	10
-82	-214	13
89	-264	-4
226	-230	-21
322	-131	-15
396	-29	-3
461	35	7
519	48	21
544	43	3
505	58	-21
383	110	-28
190	171	-27
-22	196	-20
-195	142	-26
-288	24	-23
-305	-102	-20
-282	-169	-20
-276	-137	-23
-312	-34	-28
-377	71	-37
-426	116	-37
-410	71	-30
-304	-17	-42
-122	-81	-46
91	-60	-54
283	36	-54
413	150	-45
459	201	-42
416	148	-25
294	13	-12
107	-137	-17
-105	-226	-15
-299	-224	-12
-416	-157	-30
-425	-86	-33
-325	-57	-22
-159	-74	-9
12	-95	14
140	-68	15
207	23	13
231	150	6
245	244	-6
266	258	-29
287	179	-30
278	48	-8
222	-62	-16
119	-107	-16
9	-79	-32
-80	-12	-46
-138	40	-25
-188	50	-14
-263	20	-13
-375	-21	-39
-480	-45	-50
-502	-42	-21
-385	-23	-27
-129	-7	-26
178	0	-39
404	2	-45
439	13	-42
261	31	-55
-42	48	-41
-319	39	-34
-431	-5	-43
-333	-79	-48
-89	-153	-38
171	-194	-19
324	-190	18
325	-148	38
221	-88	32
114	-29	47
86	25	55
159	90	24
280	174	8
366	265	-9
363	323	-38
266	301	-51
127	174	-83
8	-25	-85
-55	-230	-64
-79	-355	-34
-101	-344	-35
-173	-213	-50
-296	-33	-45
-432	100	-51
-516	126	-30
-491	46	-20
-341	-72	-5
-99	-152	-14
161	-136	-28
358	-35	-29
439	92	-52
405	179	-60
274	181	-51
111	117	-30
-32	28	-2
-125	-36	32
-163	-54	55
-170	-51	62
-167	-53	44
-172	-82	7
-178	-122	-17
-173	-142	-32
-141	-111	-48
-77	-23	-53
7	86	-58
85	181	-59
130	222	-52
131	208	-45
98	160	-42
53	104	-47
26	59	-36
30	20	-16
57	-23	-5
81	-76	-7
72	-127	-12
16	-160	-2
-74	-158	-14
-166	-120	-31
-217	-68	-38
-200	-23	-36
-111	4	-21
25	20	-16
167	40	-2
276	74	29
332	114	24
334	135	-9
297	119	-21
230	57	-35
132	-28	-63
-11	-102	-62
-214	-132	-58
-459	-102	-54
-708	-28	-47
-879	57	-44
-887	113	-53
-681	119	-59
-273	70	-55
245	-15	-36
739	-105	-27
1060	-169	-23
1132	-179	13
950	-134	38
608	-53	43
241	29	24
-39	72	3
-176	56	9
-198	-16	0
-173	-111	-3
-172	-186	-1
-214	-208	-10
-276	-175	-22
-303	-102	-35
-250	-14	-52
-130	66	-60
9	142	-50
101	215	-68
105	282	-52
25	321	5
-85	295	-4
-166	194	-43
-178	35	-25
-124	-124	-6
-48	-230	-10
3	-246	-7
-5	-187	-24
-67	-106	-38
-153	-55	-44
-214	-62	-41
-223	-102	-43
-170	-124	-38
-69	-83	-32
44	26	-20
154	161	18
232	260	9
265	278	-8
252	215	1
195	106	-4
106	8	-8
9	-53	-17
-76	-78	-18
-132	-89	-19
-156	-109	-25
-158	-144	-32
-145	-175	-30
-129	-173	-35
-105	-125	-43
-62	-48	-35
4	36	-23
89	98	-14
172	127	-15
232	131	-24
245	134	-22
213	138	-20
144	136	-19
64	113	-17
-12	51	-24
-72	-42	-37
-123	-144	-43
-169	-217	-34
-212	-235	-38
-247	-194	-46
-262	-111	-42
-253	-21	-48
-210	48	-53
-144	84	-48
-58	90	-32
35	84	9
135	80	38
238	83	24
335	83	20
413	70	16
446	31	-7
418	-30	-20
312	-100	10
141	-164	26
-56	-199	22
-228	-199	9
-318	-161	-15
-300	-89	-41
-189	11	-95
-32	120	-105
101	215	-108
159	277	-90
123	271	-74
26	198	-72
-72	71	-44
-122	-63	-24
-105	-162	5
-46	-199	16
-2	-179	34
-20	-143	13
-116	-131	-23
-253	-165	-48
-372	-215	-64
-412	-233	-30
-347	-166	-1
-204	-5	12
-29	202	14
119	374	22
215	438	35
258	379	20
275	225	-3
291	58	-1
311	-44	-24
318	-66	-31
283	-38	-30
190	-23	-43
42	-63	-35
-126	-160	-44
-271	-261	-49
-345	-304	-50
-330	-251	-35
-227	-116	-25
-69	41	-43
94	160	-43
225	203	-31
288	182	-33
283	140	-6
219	121	7
125	137	-36
26	161	-53
-57	153	-40
-121	82	-38
-166	-43	-30
-194	-180	-31
-208	-281	-25
-202	-311	-21
-175	-270	-28
-123	-186	-26
-56	-94	-25
15	-17	-12
80	40	-3
131	86	4
165	123	8
180	148	-6
175	145	-10
147	110	-17
96	45	-24
21	-23	-30
-60	-79	-25
-139	-106	-29
-195	-112	-28
-225	-105	-18
-222	-97	-7
-188	-91	-8
-133	-72	-21
-62	-38	-28
16	16	-45
94	81	-54
154	134	-40
184	165	-30
175	165	-15
133	143	-5
69	106	-10
4	64	-2
-45	18	-2
-76	-31	-6
-89	-77	-14
-96	-111	-17
-100	-123	-18
-96	-113	-23
-71	-81	-25
-17	-43	-30
61	-8	-33
149	20	-33
216	41	-27
252	67	-20
245	93	-36
214	106	-74
172	100	-67
131	69	-35
77	27	-12
-10	-11	29
-147	-25	58
-321	-17	12
-489	-1	-49
-589	-5	-66
-561	-42	-49
-388	-104	-25
-113	-163	-41
175	-179	-37
389	-132	-36
466	-29	-40
404	93	-12
254	183	-10
89	207	2
-31	154	22
-88	51	22
-96	-65	19
-92	-157	0
-95	-202	-27
-104	-199	-44
-104	-171	-52
-82	-135	-53
-38	-103	-62
12	-81	-59
46	-59	-47
61	-35	-42
64	1	-41
72	45	-53
99	97	-59
135	144	-56
163	179	-42
158	194	-10
112	181	14
37	144	36
-42	86	69
-105	14	64
-141	-58	16
-156	-121	-13
-158	-158	-45
-153	-160	-61
-138	-123	-62
-101	-56	-56
-37	26	-28
41	109	-3
118	170	21
169	198	5
175	190	-21
145	151	-42
86	91	-63
15	18	-71
-49	-55	-62
-97	-128	-43
-118	-191	-32
-113	-242	-14
-88	-270	0
-61	-264	1
-63	-227	9
-113	-154	62
-210	-55	71
-311	49	38
-350	147	15
-260	221	-51
-22	267	-74
312	279	-70
626	262	-76
790	212	-75
720	135	-76
428	36	-55
25	-63	-40
-333	-144	-53
-513	-192	-84
-475	-201	-35
-278	-182	3
-44	-151	-12
113	-122	8
151	-101	-9
97	-79	-8
30	-47	11
21	1	-4
81	68	-14
163	147	-21
193	224	-14
119	283	-21
-47	301	-27
-246	255	-22
-392	136	9
-424	-45	40
-331	-238	22
-160	-379	10
14	-407	13
120	-311	20
127	-135	-29
52	35	-91
-52	120	-111
-128	88	-105
-127	-23	-84
-43	-127	-70
97	-149	-41
237	-67	-28
323	67	-31
317	168	-20
229	163	-3
100	48	7
-11	-110	0
-57	-222	-3
-30	-221	8
42	-102	-4
101	71	-51
94	225	-62
1	301	-42
-147	298	-27
-285	241	-8
-348	171	-7
-291	112	-10
-136	54	-12
59	-6	-13
209	-77	-26
245	-134	-30
159	-163	-10
-11	-158	-1
-182	-131	3
-279	-112	-4
-264	-116	-26
-161	-132	-30
-14	-131	-27
107	-85	-15
172	11	-2
183	123	-16
169	205	-31
162	221	-42
170	166	-42
172	71	-38
139	-14	-28
54	-63	-22
-75	-71	-17
-212	-60	3
-318	-52	7
-370	-57	-1
-372	-64	-21
-350	-54	-43
-319	-21	-54
-272	32	-64
-180	89	-55
-12	130	-26
238	147	-12
523	135	-40
766	90	-57
878	8	-4
818	-108	40
600	-233	54
301	-322	74
16	-336	14
-186	-244	-63
-277	-72	-98
-299	103	-81
-298	204	-35
-315	185	-35
-342	71	-50
-345	-60	-48
-291	-121	-50
-174	-64	-46
-28	72	-44
93	208	-48
143	256	-29
116	190	-17
36	51	5
-53	-74	18
-125	-119	1
-172	-82	2
-206	-13	2
-234	13	7
-244	-40	9
-210	-151	-12
-117	-238	-37
23	-233	-23
167	-120	-9
258	61	-35
257	227	-66
169	301	-37
37	265	-1
-74	148	-1
-123	11	-17
-100	-91	-50
-34	-130	-60
39	-121	-64
83	-87	-52
89	-58	-49
66	-44	-29
34	-42	1
10	-45	11
1	-48	27
14	-47	7
42	-34	-5
81	-6	-4
118	38	-27
141	92	-23
150	135	-14
141	150	-25
131	127	-21
121	75	-18
111	8	-30
79	-52	-59
6	-94	-59
-110	-123	-32
-241	-144	-7
-336	-167	31
-346	-178	12
-255	-163	-4
-88	-104	6
88	0	-35
199	123	-55
203	239	-85
105	310	-97
-44	323	-53
-178	279	-29
-248	205	-15
-236	117	-21
-156	25	-27
-43	-67	-16
66	-166	-11
150	-258	3
188	-326	5
178	-344	3
127	-292	17
54	-179	8
-9	-37	-1
-29	88	-1
16	161	-15
117	171	-17
236	139	-5
317	89	-34
314	40	-61
214	0	-53
42	-42	-24
-150	-86	15
-314	-120	-6
-422	-122	-12
-473	-78	1
-480	0	-22
-453	77	-51
-389	110	-89
-276	85	-97
-104	26	-87
114	-17	-76
331	5	-64
486	93	-50
524	208	-5
425	275	18
216	241	11
-26	101	21
-215	-88	37
-279	-249	2
-199	-319	-32
-14	-278	-3
200	-158	54
355	-16	63
395	90	1
310	127	-34
140	87	-61
-40	-16	-90
-172	-145	-76
-222	-253	-80
-201	-283	-107
-147	-214	-94
-99	-56	-49
-80	128	-30
-89	254	-18
-105	257	-14
-110	135	7
-96	-42	50
-74	-181	44
-60	-207	17
-59	-120	2
-64	10	-18
-51	103	-11
-5	110	-21
75	57	-45
163	14	-41
224	43	-50
225	144	-23
160	254	-8
54	292	-7
-51	211	7
-118	41	-21
-136	-141	-50
-116	-251	-48
-94	-254	-41
-96	-186	-20
-128	-111	12
-166	-81	-15
-170	-92	-27
-111	-101	-25
14	-56	-27
172	48	-36
313	170	-65
386	248	-60
366	233	-52
268	131	-33
132	1	-22
3	-97	3
-93	-126	24
-148	-99	22
-177	-62	0
-193	-52	-12
-204	-80	21
-195	-122	1
-158	-140	-43
-85	-108	-50
5	-25	-37
81	86	-34
111	195	-31
90	274	-14
34	305	-24
-20	279	-14
-41	198	9
-24	74	1
5	-53	4
2	-149	1
-68	-179	-9
-204	-147	-2
-358	-88	5
-459	-50	7
-443	-70	-42
-277	-134	-87
5	-196	-78
326	-196	-77
591	-107	-87
720	47	-89
697	200	-58
545	275	-12
336	241	-13
135	113	-51
-4	-49	-54
-79	-181	-38
-108	-249	-48
-132	-252	-35
-176	-222	-23
-242	-182	-34
-310	-144	-30
-344	-100	-26
-330	-38	2
-273	39	7
-205	118	16
-156	178	51
-135	208	74
-119	208	56
-64	193	26
64	171	-21
262	150	-65
470	118	-39
592	67	-64
549	-4	-76
336	-92	-50
16	-175	-18
-281	-236	-5
-444	-260	-24
-420	-237	-22
-252	-174	-32
-43	-80	-24
101	23	-10
129	114	-31
71	174	-13
-6	197	4
-36	183	-16
-8	147	6
41	94	24
52	26	17
-8	-52	-6
-116	-141	-21
-217	-225	-39
-253	-274	-55
-205	-263	-36
-95	-185	-46
30	-56	-63
131	81	-69
203	180	-68
257	215	-50
301	203	-56
320	166	-28
284	142	-34
176	140	-51
18	143	-40
-137	116	-30
-226	40	7
-213	-72	31
-130	-188	29
-42	-253	3
-13	-250	29
-63	-190	43
-149	-109	19
-191	-46	1
-139	-11	-1
8	19	-1
175	71	-43
280	155	-57
268	244	-46
148	296	-38
-10	257	-47
-133	127	-52
-185	-53	-41
-191	-207	-40
-202	-275	-32
-253	-235	-44
-329	-121	-63
-361	3	-49
-291	78	-14
-97	82	-4
161	34	-28
383	-17	-32
474	-36	-13
399	-11	-10
203	38	-13
-15	74	-30
-166	67	-52
-195	14	-60
-117	-68	-56
16	-145	-20
143	-183	34
221	-166	41
230	-97	22
174	-5	28
66	78	-6
-65	120	-51
-184	106	-81
-240	41	-106
-197	-42	-105
-56	-104	-81
133	-115	-60
297	-62	-59
350	31	-42
269	126	-15
89	180	26
-113	164	61
-248	83	87
-280	-34	101
-229	-143	100
-159	-210	56
-121	-217	-14
-136	-173	-49
-178	-98	-68
-200	-13	-81
-174	68	-99
-104	148	-84
-30	218	-56
18	274	-42
36	298	-23
50	268	-11
101	179	20
198	41	11
312	-106	-8
380	-222	-20
346	-269	-10
204	-248	10
-4	-183	-24
-205	-114	-13
-318	-74	-4
-315	-67	-34
-213	-77	-63
-68	-67	-67
61	-17	-50
139	71	-10
149	166	11
102	227	1
15	224	41
-85	160	31
-164	65	3
-175	-18	-15
-90	-61	-40
93	-63	-55
320	-47	-106
492	-44	-159
521	-74	-139
363	-128	-78
66	-182	-44
-249	-201	-14
-439	-167	-24
-425	-87	-10
-229	16	2
36	110	-1
229	171	22
257	199	-5
123	191	-19
-79	153	-36
-239	84	-29
-285	-11	0
-232	-120	10
-147	-216	8
-107	-264	32
-134	-244	61
-191	-147	49
-208	-12	17
-133	114	-31
24	191	-48
207	207	-48
336	183	-63
366	153	-96
300	144	-96
180	154	-84
62	153	-90
-24	104	-88
-81	-1	-45
-127	-143	-16
-173	-270	-2
-215	-329	55
-237	-296	54
-229	-188	16
-195	-59	8
-151	35	24
-105	64	-23
-52	35	-56
17	-6	-59
115	-20	-92
226	19	-70
324	89	-49
366	148	-40
340	145	-21
250	72	-20
121	-41	-20
-6	-136	-24
-113	-163	-16
-188	-113	12
-233	-21	34
-239	49	44
-195	52	51
-104	-6	24
23	-78	-33
139	-91	-55
205	-12	-56
190	135	-43
110	274	-9
9	320	-2
-57	239	-2
-65	60	-5
-32	-124	-18
-3	-234	-11
-26	-224	15
-107	-125	34
-212	-12	23
-278	49	-4
-262	32	-26
-161	-35	-40
-19	-97	-72
106	-105	-98
170	-50	-84
171	35	-83
142	111	-69
120	141	-59
114	119	-59
109	61	-40
71	-7	-19
-12	-62	9
-118	-98	10
-195	-108	10
-193	-100	6
-103	-81	0
37	-61	16
158	-46	5
196	-36	24
140	-27	6
30	-10	-36
-67	16	-40
-94	43	-20
-32	55	-28
85	45	-91
197	26	-91
251	18	-87
223	43	-98
129	105	-91
0	164	-74
-119	170	-55
-200	89	-61
-226	-63	-96
-195	-218	-116
-129	-289	-57
-44	-229	22
30	-57	94
78	130	143
94	233	166
99	194	145
113	47	87
148	-102	31
187	-161	-28
189	-96	-31
115	28	-31
-39	98	-66
-244	29	-68
-422	-169	-48
-503	-384	-30
-452	-475	-21
-288	-358	12
-85	-59	10
85	283	-36
172	513	-30
182	531	-56
150	362	-101
114	119	-96
97	-56	-103
85	-94	-88
54	-16	-79
-7	88	-64
-91	120	-47
-162	51	-43
-194	-88	-24
-175	-216	-17
-124	-273	-3
-68	-242	13
-33	-158	37
-19	-70	30
-16	-2	14
-10	44	15
3	94	-2
14	153	-12
23	208	-7
39	233	-53
91	200	-94
191	115	-72
326	3	-19
446	-96	-6
483	-165	-11
391	-199	9
178	-218	13
-82	-233	25
-291	-236	21
-361	-203	11
-277	-116	4
-95	20	-1
92	174	21
198	289	-8
196	319	-90
112	257	-90
13	127	-63
-58	-11	-58
-93	-112	-45
-118	-151	-39
-166	-142	-24
-240	-119	-28
-307	-107	-4
-319	-110	9
-248	-109	-4
-105	-77	-21
49	-5	-29
158	87	-34
181	163	-49
133	193	-52
61	169	-53
24	121	-20
44	85	-12
107	85	-1
172	106	15
191	110	-9
138	57	-14
28	-66	-17
-107	-226	-46
-234	-358	-74
-318	-406	-65
-350	-348	-20
-315	-215	6
-222	-55	-6
-74	81	15
105	174	46
275	235	24
389	268	-32
406	274	-90
319	236	-91
154	138	-72
-27	-5	-58
-165	-147	-42
-222	-229	-37
-198	-213	-22
-143	-119	-32
-106	-11	-30
-130	44	-22
-206	13	-19
-285	-77	8
-300	-152	42
-192	-141	43
34	-34	31
328	121	11
583	243	-25
709	261	-34
655	169	-38
439	20	-24
149	-107	-19
-112	-158	1
-268	-131	4
-299	-77	-12
-246	-42	1
-174	-53	-28
-133	-92	-48
-135	-112	-44
-148	-80	-42
-130	5	-40
-62	110	-48
35	189	-47
122	215	-28
155	190	-6
126	139	-16
58	88	-26
-11	43	-33
-47	0	-55
-55	-54	-68
-61	-116	-68
-97	-167	-59
-164	-183	-46
-240	-151	-19
-279	-87	-22
-245	-19	-38
-139	17	-30
7	17	-14
136	-4	22
211	-13	44
222	16	49
193	81	29
159	153	-7
141	189	-7
138	163	-16
123	77	-23
75	-37	-25
-15	-137	-33
-115	-190	-35
-197	-183	-35
-227	-133	-32
-195	-66	-33
-125	-8	-35
-38	28	-36
39	43	-32
102	40	-25
149	31	-8
188	20	-15
214	14	-16
214	15	7
172	19	-6
90	18	-46
-24	2	-105
-144	-32	-107
-240	-79	-58
-295	-118	-30
-296	-134	-21
-256	-112	-16
-184	-58	-3
-97	4	12
-7	55	6
74	79	-3
128	85	16
143	89	-2
110	109	-17
35	145	-21
-58	180	-14
-133	187	-15
-158	149	-20
-116	65	-24
-18	-43	-19
98	-147	-2
184	-218	-42
208	-246	-46
160	-224	-48
64	-155	-64
-24	-53	-37
-64	59	-28
-31	152	-20
64	190	-23
175	155	-25
258	56	-19
268	-67	-25
203	-161	-21
85	-181	-13
-51	-122	15
-175	-22	11
-262	58	-7
-314	76	-8
-324	18	-30
-291	-77	-42
-215	-152	-52
-102	-160	-52
31	-93	-41
155	15	-34
238	115	-4
265	171	18
244	174	8
192	145	-4
136	110	-15
87	86	-27
41	62	-27
-12	24	-36
-81	-38	-43
-161	-113	-38
-228	-175	-30
-259	-192	-40
-241	-158	-27
-178	-87	11
-92	-15	14
-3	28	-11
68	39	-31
117	37	-32
148	54	-48
166	104	-40
170	171	-25
158	225	-31
122	215	-24
63	130	-11
-10	-10	-11
-88	-154	-19
-157	-249	-16
-204	-273	-23
-222	-230	-16
-202	-158	-5
-141	-96	-26
-45	-65	-42
67	-52	-31
167	-29	-39
216	30	-85
188	125	-91
82	232	-30
-68	313	7
-204	339	-12
-263	301	-24
-225	214	-23
-98	100	1
57	-22	13
171	-141	6
195	-248	14
130	-334	12
23	-379	5
-60	-357	1
-65	-264	-6
13	-119	-23
136	41	-36
241	166	-53
269	218	-48
214	197	-5
94	129	1
-39	57	-19
-142	15	-25
-197	5	-21
-210	10	-25
-201	3	-21
-180	-29	-19
-148	-78	-31
-94	-118	-40
-20	-123	-59
64	-88	-55
132	-26	-45
166	32	-23
154	69	-19
111	80	-27
66	75	-9
42	68	-32
46	66	-40
61	57	-30
61	26	-26
24	-32	-19
-49	-105	-20
-143	-168	-20
-224	-191	-25
-262	-170	-22
-248	-111	-19
-183	-39	-23
-89	19	-21
17	64	-8
113	96	-7
184	130	-11
225	166	-15
229	193	-15
196	190	-5
135	143	1
57	56	10
-28	-46	-3
-105	-129	-16
-168	-175	-18
-207	-174	-26
-225	-145	-23
-210	-113	-31
-165	-93	-38
-89	-88	-35
8	-77	-32
111	-37	-47
198	46	-78
245	171	-64
245	305	-43
196	406	-35
115	427	-48
17	342	-68
-71	161	-63
-143	-70	-54
-193	-279	-42
-219	-394	-19
-227	-388	-1
-215	-270	12
-183	-103	34
-125	30	32
-48	77	39
44	26	28
138	-72	-4
215	-151	-17
263	-150	-18
275	-63	4
245	66	-13
183	166	-21
96	174	-8
-6	86	-5
-101	-60	-30
-174	-196	-44
-212	-257	-53
-210	-218	-78
-170	-105	-78
-101	36	-75
-16	150	-92
71	213	-95
151	223	-48
211	199	-16
241	162	4
226	128	19
165	99	19
63	77	26
-54	62	21
-161	48	28
-232	32	20
-256	-7	11
-241	-74	18
-205	-166	-22
-172	-257	-49
-152	-306	-41
-141	-286	-61
-124	-192	-47
-87	-60	-9
-16	62	9
79	131	26
181	140	16
266	124	-1
313	122	-19
310	162	-43
261	215	-56
178	235	-63
85	156	-54
2	-29	-52
-55	-264	-60
-85	-457	-72
-93	-510	-52
-91	-400	-14
-86	-178	-7
-77	50	-19
-52	188	-44
-5	200	-43
62	124	-9
128	50	-4
170	44	-13
161	118	-5
98	215	-1
-3	256	-1
-109	194	-7
-187	38	-14
-223	-138	-20
-217	-260	-27
-189	-282	-40
-155	-222	-34
-120	-130	-22
-80	-56	-35
-26	-19	-24
38	8	-1
107	58	-17
162	153	-37
187	264	-36
179	336	-27
144	327	-15
96	225	-25
41	65	-34
-16	-90	-35
-80	-189	-58
-144	-222	-54
-201	-205	-21
-231	-175	-8
-215	-152	8
-151	-124	44
-50	-68	43
59	29	-1
150	149	4
196	238	-5
194	253	-27
154	169	-8
99	17	-10
48	-138	-8
16	-230	-42
-8	-219	-60
-31	-127	-93
-67	-8	-119
-116	72	-80
-170	80	-47
-213	17	-30
-223	-74	-9
-190	-143	35
-117	-159	32
-16	-111	35
91	-22	21
184	74	-20
245	142	-23
267	168	-30
245	148	-50
180	98	-60
88	49	-52
-13	27	-54
-106	46	-49
-175	91	-44
-218	127	-32
-240	113	3
-243	22	22
-232	-123	7
-189	-263	0
-105	-330	-19
25	-275	-30
181	-119	-34
321	68	-37
396	197	-23
373	207	-35
259	104	-34
86	-45	-41
-90	-162	-46
-224	-189	-43
-289	-135	-39
-295	-56	-15
-251	-14	-1
-174	-36	19
-69	-93	30
63	-126	31
211	-82	2
346	45	-21
435	209	-15
446	333	-10
373	357	0
254	273	-22
127	117	-17
31	-38	6
-32	-137	18
-80	-160	2
-142	-122	-28
-236	-72	-43
-339	-54	-67
-412	-85	-77
-415	-145	-79
-335	-205	-82
-202	-225	-70
-65	-181	-58
28	-76	-51
65	64	-30
65	197	0
67	280	17
102	291	24
165	230	24
219	122	-28
222	12	-63
138	-59	-52
-14	-72	-27
-188	-36	-5
-325	15	-6
-377	36	3
-333	4	1
-217	-74	2
-69	-157	-25
72	-198	-62
189	-169	-51
277	-78	-32
336	34	-21
359	124	-6
341	169	-28
269	177	-66
147	178	-57
-3	187	-16
-148	183	-1
-259	134	-6
-321	8	-27
-348	-178	-63
-348	-351	-55
-336	-426	-45
-312	-348	-60
-260	-143	-24
-172	90	4
-47	241	4
91	243	14
212	123	31
289	-25	35
313	-100	17
297	-61	-14
259	39	-23
221	112	-10
178	78	-18
127	-60	-7
54	-233	16
-33	-329	38
-119	-292	4
-174	-147	-43
-186	31	-42
-156	144	-71
-98	159	-85
-37	103	-72
19	53	-59
72	66	-42
135	139	-43
206	223	-52
269	244	-59
296	174	-50
253	32	-44
139	-117	-22
-28	-215	-2
-200	-235	5
-329	-194	24
-373	-136	41
-328	-93	38
-218	-66	26
-81	-37	22
42	15	6
130	89	-11
172	162	-25
186	201	-28
175	193	-36
156	139	-45
118	72	-45
57	17	-52
-30	-21	-61
-132	-45	-71
-226	-74	-76
-280	-111	-74
-276	-148	-55
-215	-162	-47
-118	-142	-29
-15	-92	-6
64	-26	5
110	30	15
131	66	16
143	83	25
162	92	20
184	104	-25
187	119	-28
151	131	-19
62	127	-46
-67	97	-42
-201	36	-11
-288	-45	9
-297	-135	6
-215	-213	-8
-71	-250	-28
80	-235	-37
186	-164	-34
214	-61	-46
166	34	-52
78	85	-52
1	76	-36
-28	27	-23
-4	-24	-40
49	-32	-24
81	17	7
54	98	-25
-40	160	-67
-175	150	-66
-299	66	-49
-357	-57	-5
-325	-152	24
-219	-160	22
-70	-71	43
69	72	38
171	197	13
226	244	-20
251	201	-44
260	98	-50
262	-6	-77
254	-62	-72
216	-66	-55
138	-51	-49
27	-59	-28
-94	-119	-20
-197	-216	-25
-259	-304	-14
-269	-330	-11
-236	-273	-4
-178	-152	3
-112	-9	-9
-46	101	-16
17	162	-12
82	177	-17
141	178	-26
189	189	-40
210	208	-40
197	214	-25
148	183	-32
68	106	-14
-26	2	13
-125	-94	6
-214	-149	-17
-282	-154	-35
-319	-124	-34
-312	-89	-20
-247	-66	-10
-126	-60	-13
36	-50	3
212	-20	6
359	35	-20
444	101	-27
439	148	-35
360	154	-50
230	112	-43
88	41	-30
-34	-33	-21
-118	-91	-18
-170	-121	-15
-199	-134	-15
-221	-133	-2
-232	-129	2
-225	-116	8
-189	-88	9
-122	-41	-27
-37	21	-68
44	89	-92
96	149	-98
103	183	-97
71	191	-59
21	168	-7
-11	114	21
-2	39	47
54	-43	61
136	-111	37
202	-152	-1
207	-154	-26
128	-132	-46
-20	-107	-67
-188	-90	-82
-306	-92	-81
-325	-92	-57
-229	-67	-22
-54	-1	-39
131	101	-41
260	201	-5
299	257	27
252	241	29
158	159	7
63	45	5
-2	-53	0
-43	-111	-17
-86	-135	-46
-153	-148	-40
-250	-171	-40
-347	-203	-51
-400	-214	-42
-366	-169	-48
-236	-58	-36
-34	85	-23
182	212	-8
346	268	1
419	244	11
386	166	-10
271	95	-52
125	70	-39
-13	88	-31
-116	103	-28
-188	58	-20
-236	-64	-12
-273	-237	0
-304	-376	-22
-314	-409	-41
-285	-301	-43
-209	-89	-27
-84	140	-4
74	298	-4
237	329	-18
373	244	-21
462	106	-28
484	-17	-44
429	-82	-62
306	-94	-56
131	-85	-43
-58	-94	-32
-226	-134	6
-332	-187	36
-357	-223	37
-303	-209	22
-188	-145	10
-47	-47	-1
84	53	-19
181	132	-43
231	181	-64
237	202	-77
203	205	-79
144	194	-59
71	170	-40
0	129	-15
-62	68	13
-109	-4	24
-137	-78	44
-156	-137	35
-167	-174	13
-178	-182	1
-183	-163	-20
-172	-122	-27
-131	-66	-54
-51	-4	-67
64	58	-52
194	110	-33
301	144	-39
352	154	-57
328	134	-29
234	91	-12
94	28	-3
-48	-41	9
-156	-102	-8
-210	-134	-30
-215	-127	-50
-189	-84	-69
-160	-14	-68
-137	50	-60
-126	84	-44
-115	67	-24
-90	10	-25
-44	-60	-5
14	-102	-6
74	-85	-6
121	-11	4
144	90	-12
139	165	-21
111	170	-19
58	97	-4
-8	-23	-13
-86	-131	-31
-160	-178	-43
-221	-138	-42
-250	-42	-40
-247	60	-26
-205	110	0
-130	84	8
-36	0	7
72	-88	2
182	-120	19
276	-77	-4
334	23	-32
335	122	-28
266	158	-34
138	102	-41
-18	-28	-34
-163	-171	-15
-252	-263	-26
-269	-257	-34
-218	-165	-36
-134	-36	-27
-48	67	-25
17	108	-27
61	91	-14
97	49	-22
133	33	-27
178	65	-33
211	127	-45
223	182	-53
196	183	-50
133	118	-43
46	11	-43
-49	-95	-35
-144	-161	-31
-228	-170	-27
-287	-141	-27
-315	-108	-9
-295	-89	29
-221	-86	45
-102	-76	34
34	-35	15
163	40	-9
254	134	-22
299	213	-9
297	243	-4
266	211	-14
216	133	-32
155	35	-34
81	-52	-40
-10	-115	-50
-108	-151	-59
-198	-166	-76
-259	-170	-69
-273	-161	-60
-241	-137	-31
-165	-99	-6
-65	-45	6
36	6	13
120	49	4
172	80	-18
184	104	-9
155	132	14
89	170	4
2	211	8
-80	227	-23
-136	190	-25
-154	85	-6
-131	-71	-31
-87	-241	-46
-42	-362	-46
-14	-390	-25
-10	-315	-41
-21	-166	-51
-28	-1	-46
-13	124	-52
32	182	-41
101	179	-30
172	150	-9
221	123	-7
223	110	-12
170	95	-16
69	53	-21
-52	-24	-10
-172	-118	-7
-253	-195	-14
-281	-226	-25
-253	-195	-20
-178	-125	-15
-78	-44	-24
25	23	-35
107	67	-43
162	104	-36
179	143	-34
169	187	-21
133	215	-14
89	208	-14
39	153	-13
-8	57	-14
-56	-43	-22
-107	-123	-45
-160	-163	-43
-207	-171	-40
-232	-156	-30
-218	-135	-18
-159	-114	-13
-60	-86	-7
52	-44	-13
152	8	-20
214	58	-12
237	95	4
228	108	-11
205	103	-28
179	91	-36
148	80	-39
93	75	-19
2	60	-16
-120	29	-31
-251	-27	-32
-355	-100	-38
-402	-162	-40
-380	-192	-42
-300	-173	-51
-187	-106	-44
-63	-13	-31
57	79	-14
172	135	9
279	149	19
366	117	21
410	65	9
391	12	4
302	-22	9
162	-38	-5
4	-48	-19
-126	-65	-22
-208	-97	-32
-232	-129	-31
-217	-149	-30
-180	-135	-35
-132	-86	-37
-76	-11	-43
-4	68	-40
80	127	-37
161	156	-36
216	158	-34
234	143	-29
196	123	-21
125	98	-27
38	61	-32
-47	9	-34
-118	-57	-32
-177	-125	-29
-224	-174	-25
-255	-188	-23
-262	-170	-28
-235	-123	-21
-173	-64	-12
-89	-3	-15
-3	51	9
72	104	33
132	151	17
186	189	-9
242	202	-33
296	174	-18
323	104	-12
296	-6	-27
193	-129	-30
24	-232	-40
-166	-281	-49
-321	-261	-67
-385	-182	-71
-345	-75	-58
-229	20	-40
-82	77	-16
42	93	-4
115	90	8
141	100	1
144	130	-18
144	166	-14
144	168	-20
131	105	-3
96	-16	5
32	-151	-27
-40	-224	-27
-103	-189	-33
-142	-48	-31
-166	127	-15
-189	243	-10
-222	223	-18
-253	68	-25
-257	-148	-9
-201	-313	-18
-75	-341	-17
99	-216	-27
266	2	-45
373	208	-37
391	312	-32
318	278	-31
187	141	-27
48	-26	-21
-65	-159	-28
-142	-216	-32
-186	-208	-26
-202	-166	-23
-195	-116	-19
-168	-72	-28
-112	-31	-27
-43	17	-25
21	76	-28
59	134	-17
66	178	-9
50	196	-15
34	183	-12
42	149	-13
81	98	-25
132	41	-18
171	-15	-11
167	-72	-19
107	-123	-13
13	-163	-11
-89	-185	-22
-161	-179	-34
-177	-148	-44
-134	-92	-43
-49	-24	-34
48	46	-25
133	106	-23
187	147	-28
202	158	-32
179	141	-37
130	106	-36
62	53	-38
-16	-2	-39
-97	-56	-40
-172	-102	-42
-227	-135	-40
-257	-153	-34
-253	-152	-12
-221	-129	6
-159	-89	9
-83	-34	12
2	22	24
83	72	24
152	110	6
206	131	-3
234	135	-13
230	127	-16
187	105	-28
113	68	-41
14	21	-38
-89	-32	-47
-177	-87	-45
-234	-133	-40
-248	-158	-22
-223	-158	-9
-166	-130	-12
-90	-85	-19
-4	-31	-27
77	19	-21
148	59	-22
196	92	-31
210	116	-25
184	139	-16
122	161	-31
40	171	-47
-41	162	-53
-101	119	-62
-132	50	-42
-137	-36	-34
-133	-116	-33
-130	-174	-17
-128	-202	3
-117	-207	-7
-80	-200	-4
-11	-186	13
85	-158	12
179	-103	9
245	-16	-19
266	93	-30
240	193	-26
184	241	-30
116	211	-46
46	110	-52
-28	-27	-46
-120	-145	-8
-228	-200	4
-340	-179	-39
-425	-107	-38
-448	-25	-24
-388	24	-21
-245	31	-27
-37	10	-12
190	-7	-9
398	6	-5
541	58	-6
592	137	-24
535	207	-13
381	237	-11
169	201	-16
-54	104	-18
-232	-31	-25
-325	-169	-42
-330	-263	-48
-274	-289	-40
-198	-242	-32
-137	-144	-24
-101	-29	-28
-71	63	-33
-25	115	-35
49	132	-32
139	135	-24
212	142	-21
234	155	-19
189	158	-20
97	129	-21
-10	55	-19
-101	-50	-22
-158	-158	-26
-185	-229	-18
-202	-243	-16
-210	-205	-14
-204	-141	0
-168	-79	0
-91	-30	-19
19	13	-19
135	70	-13
225	149	-15
266	233	2
258	284	13
216	268	0
164	181	-35
105	40	-37
33	-98	-31
-54	-189	-43
-161	-211	-48
-261	-184	-52
-325	-148	-53
-333	-130	-54
-275	-139	-36
-172	-143	-17
-55	-111	-19
39	-27	-32
102	90	-43
140	192	-21
174	239	-23
208	212	-51
232	135	-34
225	47	-15
165	-15	8
52	-47	25
-86	-69	16
-205	-104	24
-263	-157	-1
-245	-206	-17
-158	-213	-11
-38	-156	-25
75	-42	-19
149	82	-34
180	171	-43
175	196	-34
159	165	-25
141	112	-11
132	77	-20
121	74	-29
97	84	-36
48	74	-36
-26	23	-33
-116	-59	-36
-210	-141	-35
-286	-181	-27
-330	-156	-9
-325	-83	-12
-275	2	-40
-175	50	-42
-37	47	-40
111	4	-38
248	-45	-20
342	-67	-24
373	-50	-26
335	-1	-34
245	50	-40
128	81	-30
16	77	-6
-70	49	-9
-126	12	-16
-158	-21	-4
-177	-42	-11
-195	-58	-24
-208	-72	-15
-202	-88	-2
-167	-97	-7
-92	-88	7
17	-58	6
133	-11	4
232	43	-10
275	91	-39
251	119	-38
151	120	-46
4	98	-64
-157	57	-65
-285	3	-39
-342	-54	-22
-310	-104	-4
-198	-134	12
-50	-135	9
91	-104	0
182	-53	0
210	4	1
191	47	-28
160	75	-32
143	95	-42
150	123	-50
162	168	-68
141	215	-89
78	240	-45
-28	204	-49
-137	97	-50
-212	-63	-13
-225	-229	9
-183	-343	24
-122	-368	-11
-81	-304	-37
-71	-191	-39
-85	-77	-46
-84	2	-44
-39	39	-30
52	58	-2
163	82	17
245	126	14
260	175	12
201	207	2
89	191	-17
-33	122	-16
-130	22	-27
-187	-81	-23
-212	-152	-24
-221	-177	-27
-215	-161	-27
-199	-117	-40
-158	-68	-44
-91	-22	-38
-5	16	-27
79	50	-20
150	81	-21
200	111	-24
237	139	-15
265	158	-12
282	160	-13
269	131	-18
204	70	-25
82	-20	-17
-82	-119	-16
-237	-198	-26
-335	-232	-26
-337	-206	-12
-249	-134	-11
-107	-50	-14
36	13	-15
135	37	-16
179	30	-22
172	18	-31
148	32	-30
120	77	-27
98	130	-18
71	153	-15
33	110	-30
-24	5	-35
-92	-131	-21
-159	-237	-18
-211	-274	-24
-237	-228	-32
-234	-125	-43
-200	-11	-50
-143	75	-46
-76	116	-43
-7	131	-30
46	140	8
87	160	39
117	174	20
148	166	3
184	123	-7
216	47	-15
226	-35	-20
184	-103	-30
80	-138	-23
-60	-154	-20
-194	-160	-29
-268	-173	-34
-255	-179	-41
-161	-155	-51
-27	-87	-71
91	22	-72
164	134	-41
182	208	-26
171	213	-25
157	152	-21
151	59	-25
147	-12	-39
114	-34	-36
37	-11	-32
-80	27	-40
-206	32	-36
-304	-15	-25
-340	-100	-16
-310	-181	-13
-229	-208	1
-125	-152	22
-29	-22	14
48	134	9
104	257	-8
143	300	-27
170	248	-31
183	132	-34
178	4	-14
154	-89	19
110	-126	20
54	-119	13
-2	-105	27
-56	-116	11
-98	-160	-26
-122	-214	-37
-124	-234	-43
-102	-186	-37
-55	-66	-38
9	91	-70
78	228	-75
139	300	-74
175	284	-58
181	206	-51
148	106	-46
87	21	-31
7	-32	-33
-74	-66	-9
-142	-101	26
-194	-144	30
-224	-190	3
-241	-213	-13
-241	-202	-20
-223	-153	-25
-178	-87	-31
-108	-25	-35
-12	14	-36
97	37	-34
193	57	-23
260	91	-12
280	141	-7
253	194	-24
184	221	-24
92	205	-19
-11	142	-20
-105	44	-23
-181	-65	-42
-226	-160	-30
-237	-218	-28
-226	-231	-32
-199	-192	-27
-174	-113	-36
-141	-8	-40
-88	95	-28
15	174	-16
175	202	-6
366	171	6
539	97	1
620	6	-7
565	-64	-19
373	-85	-24
101	-50	-14
-167	11	-20
-355	56	-37
-432	43	-46
-420	-34	-60
-366	-154	-62
-315	-253	-32
-273	-268	-6
-224	-171	14
-133	10	18
7	204	16
172	329	-1
318	333	-8
397	221	-19
396	56	-57
329	-89	-71
226	-157	-82
114	-151	-66
-1	-105	-44
-117	-78	-18
-227	-95	6
-308	-145	12
-325	-188	30
-264	-179	22
-136	-108	-6
23	8	-17
151	125	-12
212	206	-24
196	236	-31
130	225	-32
59	189	-37
14	136	-46
1	68	-63
6	-17	-44
3	-119	-21
-23	-207	-3
-70	-254	-1
-126	-235	-24
-168	-155	-27
-182	-43	-20
-162	55	-17
-110	110	-21
-30	117	-23
65	96	-37
151	79	-37
204	84	-30
203	114	-24
140	148	-11
29	153	-28
-103	110	-23
-235	21	-6
-345	-91	-2
-431	-192	-25
-487	-243	-51
-496	-225	-33
-420	-145	-40
-232	-32	-32
74	68	-4
446	119	-6
786	106	-16
976	51	-12
930	0	-1
671	-13	-11
291	27	-20
-68	89	-24
-279	119	-27
-303	66	-27
-191	-69	-9
-64	-246	-4
-19	-387	-15
-87	-425	-54
-218	-341	-55
-321	-174	-25
-332	8	-27
-239	137	-6
-102	197	-27
7	203	-28
44	197	-12
29	203	-5
10	218	0
32	213	-19
91	164	-32
135	71	-33
107	-30	-26
-17	-105	-36
-192	-131	-22
-337	-117	-3
-366	-95	-7
-255	-89	-15
-51	-102	-4
156	-111	-5
287	-83	-25
314	-11	-25
266	86	-39
202	165	-51
167	191	-55
166	161	-52
167	93	-52
133	28	-53
44	-11	-32
-83	-24	-8
-206	-35	17
-288	-60	32
-312	-101	36
-287	-136	19
-234	-141	-16
-172	-103	-30
-102	-34	-38
-22	32	-48
68	68	-50
160	71	-46
228	54	-48
253	45	-30
230	63	-19
172	98	-16
110	120	-26
54	101	-43
11	29	-26
-37	-78	-20
-101	-182	-15
-178	-242	-32
-245	-235	-43
-269	-169	-28
-217	-67	-25
-96	33	-14
63	106	-18
210	136	-32
288	129	-34
283	101	-36
205	68	-35
97	45	-13
2	35	24
-53	28	34
-74	15	24
-75	-17	24
-78	-68	-7
-88	-130	-19
-97	-181	-19
-91	-196	-35
-60	-166	-35
-13	-86	-27
36	22	-23
71	125	-35
83	197	-58
74	211	-59
52	170	-49
28	89	-45
2	-3	-27
-23	-78	-21
-51	-111	-29
-83	-97	-42
-120	-47	-34
-166	12	-20
-214	49	-19
-252	49	-15
-256	11	-26
-209	-45	-20
-106	-90	-15
27	-96	-19
141	-58	-19
187	7	-13
151	81	18
59	134	22
-13	154	-1
0	135	-17
117	86	-31
291	14	-44
423	-74	-44
423	-159	-36
262	-225	-36
2	-242	-27
-248	-200	-8
-378	-106	-21
-347	11	-43
-205	103	-54
-40	141	-58
69	117	-51
104	58	-33
104	5	4
133	-5	-1
216	27	-3
323	79	17
366	108	0
284	88	-9
75	19	-22
-191	-69	-24
-402	-137	-31
-474	-158	-33
-392	-131	-14
-226	-77	-1
-59	-22	9
37	16	-14
61	40	-25
54	64	-43
68	96	-55
119	133	-34
175	162	-35
190	160	-32
123	118	-23
-11	40	-13
-162	-52	3
-269	-132	5
-298	-181	1
-256	-191	-11
-182	-171	-34
-118	-137	-43
-78	-104	-50
-52	-76	-46
-12	-44	-47
54	-4	-40
140	55	-21
216	124	-15
254	186	-7
244	215	-10
193	199	-15
125	131	-12
59	32	-26
1	-70	-27
-59	-153	-19
-122	-192	-18
-184	-191	-25
-226	-157	-38
-223	-101	-42
-167	-40	-47
-61	18	-45
62	63	-27
175	91	-12
245	94	-14
259	80	-14
216	64	-27
140	62	-63
46	85	-52
-47	119	-30
-122	137	-46
-175	104	-28
-201	5	3
-206	-140	16
-195	-278	19
-169	-345	2
-126	-300	10
-63	-148	6
13	54	-1
96	227	6
163	305	-5
198	279	-19
191	181	-38
149	70	-41
91	3	-38
38	-11	-36
1	1	-33
-26	-9	-31
-51	-75	-30
-83	-186	-20
-109	-300	-23
-121	-354	-25
-102	-313	-26
-50	-186	-33
18	-18	-27
81	127	-30
119	208	-40
131	215	-40
125	179	-36
123	137	-36
123	115	-37
119	113	-29
91	104	-25
30	66	-37
-59	-8	-14
-152	-96	-3
-217	-163	-3
-239	-185	13
-214	-155	2
-167	-95	4
-113	-31	-2
-68	16	-18
-25	45	-39
28	68	-56
96	96	-43
170	122	-37
227	131	-30
241	114	-23
198	60	-18
107	-15	-18
-7	-86	-15
-115	-135	-22
-194	-153	-35
-233	-147	-21
-237	-126	-16
-213	-102	-3
-169	-68	-16
-105	-24	-26
-27	30	-23
60	92	-30
144	137	-24
208	158	-21
238	148	-20
231	117	-23
188	78	-19
123	38	-17
42	3	-25
-43	-32	-39
-130	-64	-43
-205	-92	-40
-253	-99	-38
-260	-88	-41
-218	-63	-27
-130	-40	-4
-15	-29	-12
97	-28	-19
184	-26	-20
229	-2	-24
231	47	-11
202	109	-15
159	155	-17
114	159	-5
68	113	-3
20	29	-4
-35	-60	-26
-94	-131	-17
-152	-174	-13
-195	-190	-30
-221	-190	-28
-214	-174	-23
-176	-136	-14
-110	-66	-21
-24	24	-31
61	112	-40
128	164	-38
156	156	-40
141	102	-48
94	33	-48
38	0	-23
-1	18	5
-10	64	0
2	97	-20
11	68	-30
-10	-23	-33
-69	-145	-38
-148	-233	-40
-208	-237	-44
-208	-152	-22
-131	-21	-21
7	90	-27
162	139	-16
280	125	4
330	85	40
302	62	26
222	72	-11
122	98	-18
30	97	-1
-51	41	-1
-129	-57	-21
-218	-158	-28
-311	-205	-27
-378	-177	-35
-383	-89	-41
-300	10	-47
-130	74	-62
81	85	-79
277	63	-84
399	45	-70
415	60	-68
341	102	-49
222	136	16
105	134	52
28	81	60
-12	-6	57
-36	-94	21
-77	-153	2
-142	-172	10
-225	-163	-8
-288	-139	-31
-304	-103	-43
-256	-45	-55
-154	38	-56
-35	136	-58
69	211	-53
136	225	-46
159	165	-46
144	55	-48
107	-49	-35
48	-96	-19
-34	-69	-6
-129	0	0
-222	48	-3
-277	33	-4
-263	-51	-4
-170	-155	-2
-7	-215	-16
179	-195	-25
337	-109	-36
420	-13	-36
417	35	-27
346	15	-29
248	-42	-26
159	-80	-25
97	-59	-30
57	13	-25
18	90	-14
-39	114	-24
-119	62	-26
-207	-34	-30
-279	-113	-38
-315	-122	-24
-310	-55	-24
-267	42	-27
-203	110	-23
-127	108	-15
-48	52	-22
32	-5	-24
107	-14	-27
165	47	-23
195	142	-17
190	211	-11
154	204	-18
99	114	-30
41	-18	-19
-14	-134	-30
-68	-190	-28
-126	-182	-19
-189	-138	-32
-235	-99	-39
-243	-79	-39
-188	-72	-44
-72	-55	-25
75	-4	-13
211	75	-23
290	156	-11
297	205	10
239	206	22
156	161	8
81	84	-7
31	4	-3
-2	-68	-16
-40	-126	-18
-99	-174	-21
-172	-201	-40
-232	-196	-47
-252	-150	-41
-215	-64	-41
-129	32	-56
-25	108	-50
62	131	-44
115	101	-45
130	41	-35
122	-7	-25
111	-17	-21
104	9	-26
97	45	-16
77	54	22
32	15	26
-38	-61	20
-121	-140	9
-197	-181	-12
-241	-162	-30
-237	-95	-51
-183	-13	-53
-84	53	-52
37	86	-53
157	95	-26
244	98	24
280	108	32
259	129	7
189	138	-1
89	123	0
-12	76	-14
-92	1	-36
-140	-78	-32
-154	-150	-30
-145	-196	-24
-123	-213	-15
-100	-192	-25
-76	-136	-33
-50	-45	-36
-20	63	-37
23	160	-44
78	211	-38
140	199	-30
196	131	-28
222	41	-40
195	-27	-59
104	-47	-55
-39	-25	-43
-195	6	-30
-310	3	-34
-331	-51	-21
-243	-140	-19
-72	-215	-27
117	-225	-32
253	-150	-35
285	-11	-17
214	130	-16
92	215	-4
-18	214	3
-64	139	2
-35	43	9
35	-28	9
99	-44	-10
111	-19	-17
65	11	-16
-21	11	-19
-110	-35	-19
-174	-106	-20
-202	-168	-22
-197	-186	-24
-173	-154	-16
-128	-82	-14
-66	4	-10
9	77	-7
91	127	-19
157	152	-25
187	158	-32
172	150	-40
120	131	-47
51	99	-54
-12	51	-57
-57	-1	-58
-89	-54	-54
-116	-101	-52
-148	-138	-49
-177	-163	-35
-194	-173	-28
-180	-159	-21
-127	-118	-4
-40	-55	2
56	19	-5
148	89	4
209	136	8
236	155	4
228	145	-1
193	120	-21
139	85	-27
69	47	-21
-10	0	-7
-94	-51	-9
-166	-108	-24
-221	-155	-32
-241	-176	-24
-227	-163	-18
-182	-112	-41
-116	-42	-42
-38	32	-19
44	93	0
123	126	-2
184	137	1
216	127	-1
212	109	-23
171	85	-20
107	54	-35
38	21	-48
-8	-16	-36
-27	-53	-14
-27	-90	-15
-31	-120	-28
-56	-141	-23
-104	-151	-33
-154	-143	-36
-168	-118	-44
-119	-71	-39
-10	-7	-21
130	67	-5
245	142	-8
297	197	-7
260	221	-4
157	198	-28
24	130	-24
-93	23	-32
-174	-96	-30
-214	-202	-20
-228	-267	-26
-221	-281	-32
-194	-246	-16
-143	-174	-2
-65	-87	-28
29	6	-45
119	96	-50
180	183	-28
198	252	-23
175	283	-36
126	261	-39
72	174	-42
21	51	-24
-27	-74	-21
-83	-154	-24
-145	-166	-36
-209	-122	-49
-256	-62	-24
-269	-36	20
-248	-54	0
-194	-101	-28
-121	-123	-12
-35	-85	-28
56	18	-9
156	148	9
254	244	-2
332	265	-7
358	202	-27
314	92	-30
199	-11	-40
40	-74	-65
-114	-91	-80
-218	-92	-59
-247	-107	-30
-210	-149	-23
-137	-198	7
-66	-222	31
-16	-189	16
13	-100	16
36	15	26
69	122	10
111	186	-12
148	201	-16
162	179	-25
144	138	-30
99	95	-21
44	47	-28
-5	-10	-38
-46	-75	-42
-79	-138	-45
-111	-183	-48
-144	-195	-35
-170	-167	-19
-167	-112	-13
-126	-49	-16
-50	2	-23
42	37	-27
126	67	-38
181	98	-36
195	135	-30
175	169	-30
132	180	-23
85	155	-21
34	89	-22
-17	-2	-20
-75	-95	-15
-137	-163	-19
-193	-192	-23
-229	-185	-19
-225	-157	-16
-178	-117	-20
-92	-75	-22
12	-30	-19
111	26	-23
180	92	-34
203	161	-42
176	213	-28
111	233	-12
28	211	-32
-52	150	-50
-107	67	-52
-132	-22	-57
-125	-102	-29
-103	-168	6
-79	-215	16
-58	-241	22
-48	-237	21
-36	-190	-7
-12	-105	-26
32	9	-23
93	119	-24
156	192	-30
203	206	-39
216	166	-39
193	100	-42
128	38	-37
37	7	-17
-65	-1	-19
-164	-4	-25
-239	-26	-15
-274	-77	-14
-263	-134	-4
-209	-174	-7
-120	-167	-16
-18	-111	-13
77	-29	-25
144	47	-35
184	92	-31
198	100	-18
195	85	-11
175	70	-30
144	67	-42
91	74	-35
12	75	-41
-82	51	-51
-177	-1	-57
-242	-77	-36
-262	-150	-13
-228	-199	-13
-143	-207	8
-36	-168	29
70	-95	34
154	-1	4
198	89	-23
205	153	-29
184	180	-48
148	170	-48
111	136	-44
76	89	-36
44	48	-31
12	13	-32
-30	-18	-36
-82	-50	-32
-138	-90	-19
-186	-130	-15
-215	-161	-19
-215	-165	-34
-187	-134	-43
-134	-65	-40
-65	26	-41
8	122	-46
80	197	-11
138	227	9
175	204	16
181	133	32
149	41	22
83	-49	17
0	-109	4
-79	-130	-13
-136	-125	-26
-164	-109	-39
-161	-106	-42
-136	-113	-40
-101	-119	-43
-55	-103	-34
-1	-49	-34
64	31	-38
131	119	-32
183	180	-34
202	198	-30
172	174	-30
104	131	-34
7	89	-25
-86	51	-22
-154	14	-18
-187	-39	-21
-191	-109	-25
-174	-181	-19
-150	-229	-23
-115	-226	-31
-62	-168	-21
12	-74	-23
111	18	-24
216	81	-17
306	100	-9
357	88	-6
357	68	-7
308	57	-10
223	57	-22
118	53	-23
4	33	-42
-110	-10	-51
-221	-65	-43
-315	-116	-31
-378	-145	-23
-383	-145	-24
-319	-121	-21
-195	-77	-18
-41	-22	-11
98	40	-10
187	106	-12
206	168	-22
172	204	-27
115	200	-8
69	150	-4
53	63	-3
58	-33	13
62	-108	-4
39	-143	-11
-19	-137	-25
-99	-107	-42
-172	-80	-45
-209	-72	-52
-195	-86	-54
-134	-100	-50
-48	-97	-47
43	-56	-60
125	18	-52
184	115	-40
216	209	-37
219	271	-15
183	282	-3
111	232	15
13	126	34
-91	-14	7
-181	-153	-9
-237	-254	-5
-251	-288	-13
-233	-251	-19
-194	-162	-22
-145	-57	-27
-87	25	-35
-17	66	-37
66	76	-33
154	72	-31
231	86	-27
275	117	-21
273	148	-14
229	149	-21
151	103	-33
59	15	-23
-32	-83	-6
-114	-151	-7
-184	-168	-16
-239	-137	-21
-270	-87	-24
-270	-46	-22
-231	-31	-29
-154	-34	-38
-55	-31	-33
44	-2	-24
128	55	-25
188	121	-32
223	166	-39
236	169	-47
226	124	-49
186	53	-36
105	-24	-27
-20	-83	-23
-182	-118	-16
-340	-133	-3
-448	-140	10
-458	-143	12
-351	-136	7
-143	-112	-7
107	-61	-13
327	13	-19
457	99	-9
470	174	-4
391	211	-19
269	200	-23
165	140	-25
104	56	-32
77	-29	-41
48	-93	-52
-12	-129	-46
-108	-144	-36
-215	-150	-42
-285	-159	-30
-290	-162	-8
-225	-149	-2
-120	-102	-7
-18	-23	-19
52	68	-21
88	144	-20
106	175	-20
124	162	-22
150	112	-15
159	57	-19
134	21	-25
58	4	-39
-57	-4	-56
-184	-23	-45
-286	-59	-42
-339	-101	-35
-340	-118	-28
-295	-93	-17
-217	-28	-7
-113	54	-14
14	117	-6
151	138	-1
278	115	-8
363	69	-22
383	31	-25
332	14	-25
232	13	-32
109	6	-27
-4	-26	-21
-97	-89	-23
-169	-162	-19
-225	-210	-15
-263	-214	-21
-272	-159	-20
-234	-69	-20
-144	27	-28
-26	98	-24
90	134	-20
166	140	-19
193	132	-19
175	129	-15
145	127	-16
120	123	-24
105	101	-24
83	49	-27
33	-23	-30
-46	-105	-15
-139	-175	-14
-208	-218	-27
-222	-224	-17
-169	-192	-10
-77	-131	-27
15	-46	-40
71	50	-32
79	145	-25
54	221	-26
32	255	-33
36	241	-35
70	179	-34
111	84	-37
124	-18	-31
84	-97	-34
-9	-138	-33
-131	-142	-10
-243	-127	-3
-308	-112	-15
-308	-110	-21
-248	-119	-11
-144	-117	-18
-26	-84	-17
87	-5	1
182	103	-7
250	209	-36
289	270	-39
299	259	-8
279	171	-6
239	38	-21
180	-100	-15
109	-199	-5
31	-238	-14
-50	-226	-36
-124	-182	-38
-182	-136	-33
-210	-103	-43
-200	-76	-53
-153	-43	-49
-79	6	-55
6	70	-64
79	132	-40
125	174	-7
138	180	-4
122	150	-16
82	95	-5
28	35	3
-35	-14	-2
-101	-53	-18
-168	-82	-21
-226	-107	-7
-262	-126	-15
-271	-134	-24
-235	-121	-21
-157	-88	-20
-42	-36	-30
84	20	-20
195	74	-24
268	113	-45
290	134	-34
267	138	-23
212	125	-16
151	96	-5
87	53	-2
28	6	-6
-41	-37	-5
-120	-71	-14
-206	-89	-25
-272	-95	-27
-296	-96	-26
-256	-94	-23
-159	-89	-23
-31	-66	-29
91	-26	-34
175	38	-30
214	110	-40
214	170	-48
196	194	-22
170	170	0
128	106	-6
60	24	-23
-46	-51	-19
-180	-103	-21
-313	-129	-29
-401	-138	-27
-405	-143	-17
-308	-144	-21
-130	-136	-31
78	-104	-31
258	-41	-38
358	39	-38
360	117	-37
280	163	-27
169	162	-24
70	116	-32
26	50	-27
40	-6	-10
91	-34	0
132	-30	6
131	-15	8
69	-14	-4
-40	-43	-4
-160	-98	-17
-250	-158	-28
-277	-192	-34
-242	-178	-36
-156	-112	-31
-46	-13	-42
60	88	-40
149	159	-41
207	182	-30
233	159	-19
214	106	-23
154	44	-11
51	-4	-16
-75	-35	-32
-198	-49	-38
-288	-57	-18
-321	-66	-12
-296	-76	-12
-225	-82	-7
-136	-72	-31
-50	-45	-33
16	0	-22
71	54	-23
120	103	-26
170	134	-18
216	140	-11
242	121	-20
231	83	-31
169	30	-42
60	-25	-36
-75	-77	-24
-199	-116	-14
-287	-136	-5
-313	-135	0
-278	-114	3
-194	-77	-11
-85	-28	-34
27	21	-32
125	68	-21
199	110	-11
245	147	-15
266	169	-31
253	174	-30
201	154	-44
107	93	-48
-12	-2	-43
-139	-124	-37
-240	-238	-39
-289	-317	-42
-274	-326	-36
-212	-265	-20
-123	-154	0
-43	-21	-9
9	83	-15
35	139	-18
51	145	-23
78	124	-23
119	106	-15
165	106	-10
195	117	-12
191	115	-3
150	77	6
84	-3	1
20	-103	-21
-27	-187	-28
-53	-224	-13
-76	-200	-14
-104	-131	-17
-140	-46	-8
-166	28	-5
-155	80	-27
-89	113	-48
27	137	-61
160	161	-66
269	175	-70
317	174	-70
287	144	-40
190	92	-17
52	28	-2
-95	-36	13
-228	-93	8
-325	-140	3
-375	-179	4
-354	-204	6
-259	-201	-9
-102	-157	-37
81	-69	-39
237	45	-45
321	152	-40
313	213	-27
229	209	-25
119	147	-18
33	57	-15
-6	-23	-21
-5	-68	-21
-2	-81	-21
-28	-76	-25
-99	-81	-19
-195	-104	-18
-284	-137	-22
-333	-156	-27
-328	-131	-22
-275	-62	-9
-190	36	-5
-87	134	-16
29	197	-42
150	211	-63
258	181	-69
332	125	-64
345	62	-47
297	4	-11
206	-55	26
111	-120	44
46	-190	51
21	-252	29
14	-281	-4
-4	-259	-15
-54	-182	-35
-126	-71	-44
-185	36	-46
-195	114	-55
-144	144	-51
-50	139	-32
47	123	-32
111	121	-25
128	138	-12
111	162	-5
86	168	-3
63	132	-18
34	59	-21
-18	-36	-44
-102	-119	-49
-202	-166	-47
-280	-162	-43
-299	-124	-20
-242	-79	-16
-128	-45	-11
-5	-34	-26
83	-32	-36
122	-21	-21
125	17	-17
129	85	1
155	161	1
203	219	-25
242	228	-23
234	174	-16
161	68	-17
30	-66	-11
-118	-196	-20
-237	-283	-23
-291	-309	-31
-274	-265	-42
-198	-169	-30
-93	-46	-34
13	63	-60
99	134	-54
151	153	-29
172	131	-30
163	97	-41
125	82	-25
71	95	-20
8	122	-26
-58	132	-13
-121	92	10
-177	-8	6
-225	-142	-8
-253	-260	10
-255	-309	10
-221	-268	-11
-150	-155	-24
-53	-18	-21
49	92	-19
140	144	-32
210	149	-23
261	129	-16
299	122	-8
324	131	-16
333	145	-23
306	136	-25
225	83	-35
81	-7	-31
-109	-109	-48
-312	-187	-57
-481	-216	-49
-572	-196	-43
-556	-137	-46
-420	-66	-32
-178	2	-12
127	57	-5
438	100	-6
677	127	-12
778	134	-14
715	118	-7
498	75	10
201	11	-13
-88	-61	-21
-288	-123	-11
-363	-160	-38
-335	-168	-40
-264	-152	-32
-214	-123	-33
-208	-89	-26
-226	-52	-38
-223	-11	-48
-158	38	-48
-32	90	-51
111	132	-40
215	150	-22
240	129	-23
180	75	-21
79	5	-2
-17	-49	21
-77	-68	15
-103	-44	10
-124	2	9
-166	37	-7
-229	37	-10
-281	-2	-19
-288	-57	-20
-217	-96	-47
-84	-83	-66
75	-22	-54
209	67	-50
279	144	-23
283	181	5
237	169	30
169	119	24
100	61	-6
38	9	-30
-20	-30	-40
-75	-68	-47
-125	-113	-50
-162	-158	-46
-176	-190	-39
-169	-190	-32
-136	-154	-38
-88	-91	-33
-22	-18	-41
58	41	-38
149	81	-28
231	105	-23
281	123	-4
285	140	10
234	154	15
141	143	9
31	102	11
-67	30	4
-142	-55	-4
-189	-130	-12
-221	-175	-34
-239	-178	-50
-238	-147	-69
-207	-96	-67
-130	-35	-50
-16	23	-47
116	76	-26
219	118	-9
261	148	-25
219	161	-25
107	153	-9
-35	125	-4
-156	80	-10
-209	23	-3
-182	-45	9
-89	-117	-13
31	-186	-21
126	-238	-26
163	-260	-40
137	-240	-38
72	-179	-40
8	-95	-46
-16	-5	-50
13	64	-34
86	106	-39
166	119	-36
214	114	-13
206	95	-14
144	64	-5
46	21	-7
-61	-27	-8
-162	-69	3
-245	-90	6
-308	-81	4
-344	-50	-13
-341	-15	-28
-285	7	-37
-170	6	-46
-15	-5	-68
139	-5	-70
256	20	-44
301	67	-17
273	117	4
194	143	5
96	134	9
1	97	22
-78	60	16
-143	36	-18
-195	29	-42
-227	16	-43
-227	-21	-41
-185	-83	-45
-107	-144	-43
-16	-169	-32
63	-132	-31
118	-44	-35
145	50	-30
164	105	-21
192	92	-22
228	30	-28
256	-28	-28
245	-39	-23
178	11	-18
54	85	-26
-92	127	-14
-223	94	-5
-298	-12	1
-308	-141	29
-264	-229	34
-195	-226	18
-118	-137	2
-39	-11	-12
40	97	-32
123	149	-50
202	148	-56
256	122	-64
261	104	-59
206	99	-40
110	96	-36
0	65	-41
-89	0	-37
-137	-88	-32
-144	-168	-13
-130	-214	-24
-120	-223	-44
-121	-200	-34
-129	-168	-27
-123	-134	-24
-91	-87	-31
-26	-16	-26
54	80	-28
126	177	-27
170	244	-22
175	250	-17
148	192	-4
98	96	-2
40	1	8
-22	-60	7
-83	-87	0
-140	-94	6
-184	-105	-3
-201	-131	-32
-178	-155	-42
-113	-153	-33
-19	-106	-29
81	-20	-30
159	78	-41
199	154	-49
201	183	-55
179	174	-46
148	139	-40
116	101	-39
82	67	-14
33	32	-10
-36	-11	-14
-126	-72	-10
-214	-136	-3
-277	-187	-2
-291	-203	-1
-256	-182	0
-186	-130	-12
-102	-66	-20
-20	-2	-30
58	55	-28
137	106	-21
224	150	-26
302	176	-25
350	177	-33
341	147	-52
258	82	-42
118	-3	-35
-42	-90	-32
-178	-160	-23
-259	-202	-10
-274	-213	10
-244	-192	3
-189	-143	-7
-132	-70	-15
-75	18	-42
-10	110	-47
66	187	-41
144	229	-48
201	231	-46
211	194	-33
169	135	-11
81	72	5
-24	18	13
-116	-29	12
-181	-71	7
-214	-116	0
-225	-155	-25
-217	-178	-13
-190	-178	-20
-138	-147	-46
-55	-95	-42
49	-31	-55
161	26	-46
251	68	-32
300	103	-25
300	124	-18
253	135	-16
182	127	3
99	88	12
15	16	-8
-69	-77	-35
-159	-161	-56
-252	-208	-70
-343	-201	-59
-415	-148	-42
-436	-69	-30
-385	4	-16
-242	57	-23
-14	97	-16
259	132	5
517	179	-3
681	218	-5
701	228	-2
566	177	-2
323	64	-13
49	-77	-25
-173	-196	-21
-295	-245	-23
-320	-215	-32
-287	-136	-42
-250	-66	-48
-229	-52	-51
-221	-94	-35
-186	-154	-38
-106	-175	-49
16	-118	-46
147	9	-41
234	154	-35
253	255	-40
204	279	-26
121	233	-19
36	157	-14
-34	94	7
-98	62	20
-166	44	24
-245	4	40
-312	-74	26
-330	-174	7
-277	-246	9
-156	-249	-8
1	-167	-24
147	-30	-36
241	103	-43
275	185	-41
263	195	-38
236	150	-36
204	84	-42
170	33	-48
120	6	-37
46	-13	-46
-48	-36	-55
-152	-69	-38
-245	-103	-23
-318	-124	8
-363	-124	14
-371	-111	13
-318	-96	17
-187	-83	-5
19	-62	-12
266	-23	-25
486	39	-49
606	113	-65
575	171	-63
407	190	-53
163	163	-40
-70	100	-32
-222	29	-31
-269	-34	-24
-244	-83	-21
-203	-123	-19
-189	-162	-10
-209	-189	-5
-233	-190	-17
-216	-149	-13
-139	-67	-12
-12	32	-20
125	117	-11
231	166	1
275	174	-7
259	158	-24
198	134	-18
116	108	-16
27	69	-17
-61	8	-25
-138	-78	-43
-191	-166	-51
-204	-225	-51
-169	-228	-32
-95	-175	-31
-6	-90	-25
68	-11	8
107	36	-8
114	57	-38
99	71	-41
79	106	-42
69	163	-39
65	215	-39
54	228	-38
27	168	-42
-22	40	-42
-85	-113	-43
-147	-232	-48
-195	-274	-28
-222	-234	-7
-223	-144	3
-197	-56	50
-145	-5	89
-77	1	43
1	-11	-3
71	-6	-18
121	39	-19
154	116	-16
175	192	-48
204	231	-59
244	210	-62
277	138	-59
275	43	-57
201	-41	-64
48	-98	-34
-149	-129	-16
-321	-143	2
-404	-153	14
-350	-150	0
-180	-126	-16
34	-74	-44
203	-1	-36
267	72	-21
224	119	-32
124	121	-17
39	88	-13
16	40	-23
51	2	-20
99	-14	-10
101	-19	-11
28	-30	-8
-101	-63	4
-236	-113	0
-308	-159	5
-291	-173	4
-193	-135	-15
-59	-57	-39
58	38	-59
133	122	-62
158	171	-70
150	188	-67
125	174	-46
97	149	-32
58	109	-24
6	58	-12
-59	-8	-8
-123	-80	-9
-167	-143	-15
-179	-181	-25
-156	-182	-13
-107	-159	-14
-48	-118	-24
12	-86	-33
65	-52	-33
111	-17	-28
147	39	-38
164	115	-44
160	197	-37
132	253	-24
86	256	-27
27	195	-18
-31	84	-12
-87	-41	3
-135	-142	12
-176	-196	2
-204	-199	-9
-213	-169	-27
-191	-125	-34
-137	-87	-43
-60	-49	-43
18	-4	-35
78	51	-24
102	122	-33
94	185	-35
74	215	-17
60	197	-16
69	131	-10
86	36	-4
94	-57	-2
69	-123	-23
18	-153	-55
-36	-157	-56
-58	-151	-40
-22	-144	-39
59	-142	-33
143	-130	2
172	-92	24
122	-29	24
8	45	15
-102	107	0
-135	130	-4
-57	114	-15
106	68	-7
272	27	-3
343	2	-30
268	0	-49
69	0	-44
-172	-18	-26
-350	-62	-17
-404	-122	-26
-338	-164	-42
-207	-160	-43
-85	-98	-30
-8	4	-22
22	116	-24
42	199	-29
85	233	-23
151	215	-36
209	169	-47
216	113	-44
159	58	-25
44	11	-8
-87	-39	-16
-191	-97	-12
-247	-154	-9
-255	-200	-9
-232	-219	-8
-199	-205	-20
-156	-158	-24
-94	-86	-38
-12	-4	-43
89	78	-38
183	149	-36
251	200	-27
277	218	-4
266	196	11
225	131	-12
163	38	-55
76	-55	-51
-42	-120	-10
-181	-135	10
-321	-107	12
-415	-60	-4
-421	-32	-12
-324	-41	-23
-148	-79	-27
50	-109	-19
209	-93	-21
284	-15	-28
279	103	-33
225	210	-27
158	252	-24
104	207	-25
60	96	-30
8	-27	-34
-61	-111	-36
-138	-131	-32
-190	-103	-30
-186	-66	-30
-118	-56	-35
-15	-78	-43
75	-105	-56
112	-109	-62
85	-69	-54
21	-5	-55
-35	56	-35
-48	88	-20
-13	86	-28
40	75	1
80	79	66
81	106	61
52	137	29
19	127	31
4	51	8
9	-83	-10
13	-229	-16
-3	-325	-26
-44	-331	-22
-85	-248	-24
-83	-119	-35
-14	-1	-48
109	67	-53
244	89	-44
323	92	-44
312	106	-46
214	142	-43
74	178	-23
-53	179	-3
-134	124	-12
-166	25	-21
-180	-81	-36
-202	-153	-43
-241	-163	-35
-273	-119	-28
-269	-46	-35
-214	22	-46
-113	68	-51
-2	94	-34
89	105	-26
139	106	-23
160	98	15
163	74	53
160	32	65
149	-14	43
113	-52	24
44	-71	-4
-46	-76	-28
-136	-82	-48
-198	-99	-62
-215	-131	-56
-191	-158	-58
-143	-157	-51
-91	-111	-52
-39	-29	-55
18	62	-48
89	132	-32
164	164	-11
225	162	-7
248	149	-11
219	140	-15
145	137	-15
51	116	-20
-39	55	-30
-109	-53	-36
-163	-183	-35
-207	-290	-44
-240	-329	-48
-248	-276	-38
-209	-152	-42
-110	0	-47
33	124	-32
175	192	-10
266	202	-8
270	177	3
201	149	13
96	126	-2
10	108	-14
-27	76	-27
-21	17	-20
-13	-61	-19
-41	-138	-30
-121	-187	-20
-223	-192	-17
-291	-158	-15
-281	-100	-9
-180	-41	-20
-15	4	-24
156	37	-14
276	64	-14
322	89	-22
302	115	-23
245	129	-19
189	126	-28
135	103	-43
81	60	-47
10	9	-48
-78	-40	-36
-174	-80	-23
-251	-108	-7
-288	-124	-1
-274	-129	-13
-218	-123	-21
-136	-103	-35
-45	-69	-50
36	-23	-43
106	26	-22
158	74	9
186	109	18
189	124	14
166	121	25
121	95	13
61	53	-4
0	0	-19
-60	-55	-35
-114	-108	-31
-165	-150	-35
-205	-170	-43
-232	-163	-46
-235	-127	-47
-203	-68	-59
-135	7	-64
-32	81	-56
90	138	-50
212	171	-28
310	174	-15
359	157	0
342	119	12
256	69	8
122	12	10
-28	-51	3
-153	-113	-13
-228	-166	-32
-243	-191	-28
-215	-187	-38
-170	-150	-43
-127	-88	-34
-87	-19	-39
-38	45	-21
34	94	-7
129	127	-7
225	145	-2
284	154	-1
280	143	-19
210	112	-26
95	62	-17
-23	-1	-22
-111	-64	-25
-158	-113	-43
-177	-135	-47
-190	-135	-44
-208	-120	-36
-225	-101	-31
-213	-82	-35
-159	-58	-14
-60	-24	-1
56	25	-6
161	85	-18
224	138	-25
238	170	-28
211	163	-34
161	116	-36
100	39	-36
26	-43	-39
-57	-114	-38
-148	-157	-36
-225	-166	-24
-263	-153	-14
-251	-125	-12
-180	-93	-7
-70	-57	-19
49	-14	-26
154	39	-25
225	105	-28
253	170	-12
245	213	-2
203	215	-12
126	171	-12
28	82	-16
-82	-27	-22
-181	-123	-40
-253	-183	-37
-279	-195	-22
-262	-174	-15
-204	-140	-13
-117	-114	-48
-18	-100	-44
81	-85	-21
162	-50	-9
212	17	8
226	110	16
208	204	3
167	265	-20
123	266	-13
83	206	-30
46	101	-58
0	-16	-71
-66	-112	-63
-148	-169	-55
-224	-179	-46
-264	-161	5
-256	-127	32
-190	-93	23
-92	-60	11
6	-27	-7
83	15	-17
128	68	-33
155	123	-36
171	168	-34
180	183	-32
169	163	-36
128	106	-39
53	29	-40
-37	-48	-48
-120	-113	-60
-175	-148	-59
-198	-156	-41
-205	-140	-24
-209	-115	7
-212	-81	19
-191	-42	14
-120	-5	24
12	31	39
191	60	34
357	84	14
456	97	-13
451	99	-36
344	89	-45
184	64	-50
30	24	-60
-79	-31	-71
-133	-95	-65
-156	-153	-44
-178	-189	-22
-208	-190	-14
-236	-153	-16
-233	-86	-30
-183	-6	-33
-95	68	-22
4	126	-30
77	164	-28
100	179	-37
81	174	-45
44	157	-36
26	120	-16
33	68	-1
56	2	-17
69	-69	-9
52	-137	17
3	-188	13
-62	-215	21
-113	-211	25
-130	-178	11
-108	-120	-13
-53	-41	-43
11	45	-39
74	122	-48
124	181	-59
160	206	-56
175	197	-55
169	157	-53
130	98	-48
58	29	-30
-36	-42	-20
-141	-103	-2
-235	-151	1
-299	-173	-12
-315	-166	-28
-273	-130	-40
-176	-81	-48
-34	-33	-53
122	3	-54
257	23	-42
333	40	-20
336	68	-7
269	110	-2
169	153	-8
68	171	-7
-3	145	5
-46	70	14
-79	-28	-3
-125	-115	-8
-198	-156	-12
-280	-143	-33
-340	-95	-45
-341	-41	-43
-271	-12	-37
-143	-5	-43
13	-9	-22
162	3	-2
277	43	11
346	99	28
371	145	16
346	151	-7
276	110	-16
162	34	-32
22	-49	-45
-120	-115	-47
-231	-151	-60
-285	-159	-64
-279	-153	-62
-225	-141	-51
-144	-125	-24
-60	-96	4
13	-45	19
76	21	2
125	93	-3
162	150	-5
175	182	-19
164	179	-16
125	149	-24
65	96	-33
-8	29	-38
-85	-41	-43
-157	-112	-32
-221	-166	-29
-258	-189	-30
-259	-171	-25
-213	-113	-11
-122	-34	-20
-7	43	-33
105	96	-35
188	116	-38
236	114	-30
248	108	-34
242	113	-40
228	127	-32
199	132	-42
147	106	-37
52	38	9
-69	-64	30
-201	-168	32
-304	-231	19
-345	-229	16
-313	-155	10
-222	-43	-28
-98	64	-46
23	128	-55
118	129	-66
180	81	-60
209	13	-52
214	-39	-34
202	-60	-31
179	-50	-50
139	-29	-30
81	-21	19
-11	-37	22
-139	-72	-22
-290	-107	-8
-433	-119	16
-518	-97	-18
-496	-56	-15
-344	-15	-24
-83	5	-39
216	-3	-32
476	-16	-36
613	-6	-26
598	48	-30
456	144	-31
253	248	-35
58	310	-37
-83	291	-21
-160	188	-15
-191	24	-2
-202	-136	2
-201	-250	-12
-189	-283	-25
-159	-247	-34
-113	-169	-45
-63	-82	-51
-24	-11	-50
0	39	-47
18	72	-56
48	95	-61
95	106	-40
148	103	-25
179	88	4
163	61	22
89	35	22
-22	14	32
-135	-3	17
-210	-26	-6
-234	-60	-13
-207	-102	-24
-153	-140	-22
-91	-153	-32
-25	-130	-56
41	-72	-62
113	2	-64
182	70	-46
230	113	-21
240	127	-7
208	120	2
142	102	14
66	80	-6
-3	52	-24
-62	15	-19
-116	-35	-37
-170	-93	-32
-218	-139	-35
-248	-164	-35
-237	-158	-24
-178	-120	-25
-83	-65	-4
18	-7	13
98	43	29
144	85	18
162	116	-20
167	134	-32
175	138	-35
178	124	-40
154	88	-54
81	33	-60
-42	-23	-51
-192	-72	-44
-331	-101	-37
-420	-108	-43
-443	-101	-60
-405	-84	-65
-321	-69	-32
-209	-56	19
-64	-42	65
114	-21	90
322	3	44
523	25	12
665	45	-11
695	58	-46
592	69	-40
391	80	-56
150	87	-59
-53	77	-50
-178	35	-43
-221	-39	-42
-213	-135	-49
-202	-218	-35
-208	-251	-32
-221	-207	-24
-207	-94	-26
-151	49	-33
-48	174	-35
72	237	-30
166	229	-22
204	165	-35
180	86	-31
113	24	-19
25	-15	-17
-63	-36	-23
-150	-59	-19
-232	-90	19
-302	-116	26
-340	-116	14
-325	-78	8
-249	-8	-20
-119	67	-42
26	121	-53
151	134	-65
223	109	-69
242	62	-46
222	20	-40
184	-8	-40
144	-23	-4
96	-37	21
29	-57	8
-61	-87	14
-162	-114	19
-245	-129	12
-281	-130	-8
-257	-116	-42
-186	-92	-37
-105	-59	-47
-59	-21	-57
-78	26	-68
-150	78	-79
-227	122	-70
-239	150	-67
-123	152	-20
132	130	36
478	93	65
800	53	69
976	18	48
918	-20	8
634	-65	-6
212	-125	-17
-198	-192	-48
-459	-242	-62
-516	-254	-69
-385	-208	-70
-173	-114	-70
4	8	-70
85	121	-56
72	200	-42
20	229	-26
-11	215	-16
4	179	-18
38	127	-8
46	72	6
-5	12	7
-111	-55	-7
-228	-125	-3
-308	-188	-5
-328	-223	-3
-296	-216	-2
-241	-163	-16
-189	-71	-12
-138	41	-18
-70	150	-23
30	230	-35
158	266	-41
275	253	-33
336	201	-35
309	122	-39
202	40	-38
55	-32	-32
-72	-87	-6
-149	-126	-6
-166	-154	-12
-152	-173	-10
-136	-179	-15
-130	-170	-20
-126	-137	-30
-95	-83	-30
-25	-17	-43
74	45	-48
162	92	-37
204	116	-25
182	125	-5
103	128	-6
8	132	-9
-61	138	-14
-86	131	-54
-68	101	-63
-41	32	-47
-32	-62	-57
-55	-171	-40
-100	-255	13
-134	-287	42
-128	-252	24
-68	-154	-7
36	-29	-13
157	88	-27
260	158	-44
320	171	-50
322	139	-44
263	93	-36
150	57	-34
-8	43	-24
-187	41	-8
-350	28	0
-448	-13	-6
-443	-81	-9
-321	-151	5
-113	-190	15
123	-179	-8
310	-117	-25
389	-29	-45
346	53	-66
233	105	-64
109	113	-49
45	89	-26
60	43	-4
125	-4	7
178	-47	3
161	-84	-3
54	-107	-14
-111	-118	-48
-272	-113	-60
-372	-97	-38
-378	-75	-18
-310	-51	-25
-205	-29	-47
-109	-2	-40
-42	30	-37
-2	74	-45
27	117	-27
59	148	-7
95	155	15
128	138	16
148	113	-20
148	90	-32
124	83	-23
83	79	-14
14	67	10
-84	29	21
-195	-34	32
-298	-99	30
-342	-141	4
-298	-135	-30
-160	-81	-53
41	0	-57
242	71	-55
383	105	-53
425	103	-53
381	74	-43
284	41	-46
180	22	-44
85	6	-32
0	-23	-31
-94	-80	-28
-200	-154	-30
-302	-226	-29
-365	-256	-23
-357	-227	-8
-267	-137	-7
-116	-22	-24
50	82	-26
192	147	-26
279	162	-27
306	143	-28
285	113	-20
236	92	-12
166	81	-11
85	67	9
-3	41	16
-89	-7	-12
-161	-68	-19
-214	-127	-18
-244	-165	-32
-253	-168	-26
-241	-136	-36
-206	-79	-38
-144	-11	-33
-55	55	-38
48	106	-35
147	137	-33
210	148	-30
223	135	-36
184	106	-32
120	66	-34
50	18	-31
-7	-35	-2
-48	-87	21
-83	-131	14
-118	-163	4
-154	-174	2
-176	-157	-21
-169	-111	-30
-124	-46	-34
-54	23	-50
14	80	-51
52	106	-46
42	109	-24
-7	92	-21
-69	77	-38
-104	72	-39
-83	85	-44
2	100	-27
118	96	-6
226	57	-24
277	-16	-43
248	-109	-35
154	-192	-29
28	-241	-45
-66	-237	-38
-89	-189	-12
-24	-115	6
94	-40	11
210	24	16
269	70	14
236	106	16
123	135	9
-28	153	-27
-166	150	-41
-253	114	-45
-274	43	-45
-249	-47	-33
-199	-127	-28
-145	-170	-24
-102	-159	-20
-61	-100	-18
-23	-16	-15
18	58	-22
58	97	-35
98	96	-38
138	70	-41
175	48	-46
212	50	-34
223	78	-19
195	115	-22
114	130	-25
-10	102	-40
-153	26	-30
-273	-72	-4
-339	-160	4
-337	-204	29
-271	-190	38
-169	-135	11
-54	-61	-14
46	1	-20
127	41	-35
180	67	-47
204	90	-46
195	115	-32
159	136	-10
105	139	-11
50	110	-25
11	48	-23
-14	-30	-19
-36	-103	-27
-75	-150	-41
-136	-167	-50
-214	-162	-47
-277	-144	-43
-291	-125	-38
-245	-94	-46
-140	-43	-47
-8	30	-42
120	110	-29
219	179	12
288	215	29
325	210	6
332	169	0
291	106	0
193	40	-13
33	-24	-11
-156	-85	-21
-316	-137	-31
-392	-177	-33
-347	-186	-43
-202	-159	-46
-15	-97	-45
145	-29	-53
229	19	-62
225	28	-44
166	2	-28
96	-29	-24
48	-36	-30
31	-2	-25
29	54	-11
24	104	-1
5	109	5
-24	60	-11
-58	-15	-11
-93	-84	-7
-121	-110	-15
-148	-89	-16
-159	-42	-14
-143	0	-1
-91	17	3
-1	17	-12
104	16	-25
197	35	-31
249	75	-36
249	112	-30
207	126	-27
139	99	-32
61	43	-28
-18	-18	-23
-103	-63	-9
-188	-87	-18
-260	-98	-42
-298	-108	-46
-287	-123	-53
-232	-126	-55
-144	-101	-54
-59	-36	-41
10	53	-18
58	140	-3
105	191	24
162	190	36
230	144	16
287	81	-4
302	26	-19
249	-14	-35
125	-43	-46
-33	-77	-38
-184	-122	-43
-280	-164	-42
-303	-186	-14
-259	-163	-18
-178	-99	-27
-91	-9	-14
-15	76	-9
47	124	5
104	135	8
158	114	-17
205	85	-40
231	61	-42
222	47	-37
164	33	-47
67	3	-53
-50	-43	-32
-167	-102	-12
-253	-153	-12
-300	-180	-13
-298	-174	-4
-259	-138	8
-195	-86	-7
-121	-23	-5
-41	39	-8
50	103	-18
151	161	-15
261	204	-21
358	215	-11
413	188	-24
394	121	-25
284	34	-11
101	-43	-30
-108	-95	-45
-281	-120	-55
-371	-135	-56
-355	-162	-56
-262	-199	-50
-137	-232	-60
-36	-225	-49
19	-154	-32
34	-30	-42
44	112	-19
77	215	8
138	247	7
208	210	-6
248	142	-9
229	89	-6
147	72	-4
24	76	-6
-99	58	-17
-185	-5	-21
-224	-113	-23
-223	-218	-32
-196	-265	-37
-167	-225	-47
-135	-104	-58
-97	41	-50
-42	160	-35
32	213	3
115	215	45
191	190	48
231	166	11
216	144	-3
140	103	-7
12	27	-25
-143	-79	-38
-281	-179	-43
-358	-237	-40
-339	-231	-36
-216	-175	-25
-18	-113	-26
203	-82	-35
383	-92	-38
472	-113	-25
462	-106	-21
373	-42	-30
251	69	-31
139	181	-30
59	244	-30
8	229	-27
-35	143	-26
-91	23	-29
-165	-85	-34
-245	-157	-27
-305	-188	-32
-331	-190	-47
-312	-174	-46
-255	-140	-39
-175	-84	-35
-85	-6	-40
3	82	-42
81	158	-44
139	205	-32
175	211	-12
178	190	7
149	150	21
94	104	29
26	51	33
-40	-13	14
-96	-85	-7
-141	-156	-20
-180	-203	-30
-209	-215	-25
-221	-185	-12
-197	-125	-1
-130	-59	-7
-21	3	-25
111	58	-34
232	119	-56
309	181	-70
320	235	-64
262	253	-53
156	213	-39
27	110	-17
-107	-33	24
-224	-167	28
-312	-248	5
-358	-249	0
-344	-185	-16
-256	-93	-31
-100	-13	-42
95	28	-48
278	31	-45
397	15	-53
425	6	-65
366	17	-59
267	43	-24
172	72	16
117	89	29
96	89	10
78	69	10
28	39	4
-68	1	-8
-191	-45	9
-300	-98	-1
-348	-151	-29
-319	-190	-50
-228	-201	-55
-110	-173	-53
-6	-99	-57
60	4	-52
93	120	-53
111	215	-34
132	272	-2
163	273	-1
192	219	-11
194	126	-29
145	13	-32
37	-86	-19
-113	-157	-14
-271	-185	-14
-387	-181	3
-419	-153	0
-352	-115	-25
-202	-80	-31
-18	-42	-46
154	-6	-46
270	29	-24
325	62	-19
325	87	-10
302	96	-17
275	89	-26
238	71	-22
172	48	-16
57	28	-24
-106	5	-28
-291	-20	-39
-452	-53	-58
-543	-96	-55
-546	-138	-51
-477	-169	-22
-363	-166	-3
-242	-119	2
-121	-26	-4
12	93	2
175	206	46
373	277	45
560	278	26
685	213	-5
681	104	-38
533	-7	-64
262	-88	-80
-43	-128	-76
-299	-141	-70
-435	-157	-50
-439	-187	-36
-350	-228	-8
-225	-245	9
-107	-205	-10
-12	-96	-22
77	64	-6
182	223	-23
302	323	-43
407	330	-37
439	250	-40
374	127	-34
211	10	-51
-17	-63	-56
-234	-93	-53
-382	-97	-21
-425	-109	13
-375	-144	7
-267	-190	14
-141	-216	29
-28	-192	35
60	-113	10
122	6	1
159	124	0
167	208	-21
150	235	-35
106	210	-47
36	159	-44
-54	104	-47
-172	64	-48
-304	35	-43
-428	8	-40
-496	-30	-36
-455	-83	-40
-279	-134	-25
12	-170	-5
342	-174	-16
608	-144	-18
714	-93	-15
633	-36	-28
411	7	-26
158	30	-39
-25	38	-35
-80	48	-11
-30	69	-16
46	99	-17
72	123	-12
8	115	6
-120	59	6
-247	-48	-4
-305	-175	-16
-277	-282	-37
-186	-324	-24
-91	-276	-12
-38	-150	-36
-42	15	-64
-81	165	-74
-107	254	-57
-96	265	-45
-44	206	-36
23	110	-5
72	15	24
82	-53	28
57	-84	-1
16	-70	-40
-27	-32	-34
-58	19	-17
-88	62	-38
-115	77	-44
-142	54	-34
-156	0	-24
-133	-60	-30
-63	-91	-56
46	-60	-67
172	30	-59
277	150	-56
322	244	-42
291	262	-9
189	192	2
44	50	14
-100	-108	79
-204	-227	87
-244	-280	28
-213	-271	6
-127	-229	-2
-20	-178	-12
81	-130	-38
150	-80	-42
181	-13	-7
183	64	-24
172	134	-42
166	170	-44
162	163	-64
157	120	-66
131	68	-66
82	34	-50
1	22	-22
-95	17	4
-195	-4	-11
-287	-55	-33
-357	-129	-28
-390	-192	-55
-374	-214	-85
-289	-175	-97
-133	-84	-91
75	29	-58
287	128	8
439	193	59
488	213	53
409	200	57
236	164	57
36	116	24
-118	59	0
-185	2	-1
-174	-54	-14
-129	-106	-36
-100	-149	-31
-108	-183	-36
-144	-208	-29
-170	-219	-21
-152	-199	-41
-82	-136	-52
15	-29	-35
103	109	-31
154	237	-42
159	308	-43
134	292	-59
99	196	-45
58	54	-25
3	-70	-27
-75	-133	-21
-168	-119	-28
-250	-57	-33
-280	-4	-17
-230	-5	-11
-98	-72	-14
76	-179	-18
234	-264	-27
320	-282	-34
306	-210	-13
200	-66	-16
33	99	-34
-149	237	-24
-300	312	-25
-383	321	-24
-379	273	-23
-281	193	-4
-110	95	24
97	-4	36
283	-94	29
396	-158	1
402	-182	-35
311	-170	-64
166	-134	-47
22	-98	-35
-62	-78	-35
-71	-74	-15
-19	-69	-20
52	-38	-26
100	32	-21
91	135	-62
26	243	-97
-71	313	-83
-165	319	-47
-221	244	-27
-227	110	-13
-188	-62	10
-131	-232	23
-87	-368	28
-66	-432	-10
-66	-410	-56
-56	-303	-66
-5	-132	-52
103	51	-34
245	199	-8
373	268	19
423	252	36
353	171	33
170	74	40
-72	0	42
-288	-38	7
-407	-49	-31
-392	-61	-53
-276	-90	-48
-111	-129	-46
40	-157	-44
137	-148	-40
180	-96	-48
188	-13	-56
183	65	-63
172	112	-67
150	118	-78
104	93	-63
32	63	-23
-56	48	24
-140	54	46
-207	70	12
-249	79	24
-262	71	21
-252	46	-19
-209	14	-32
-136	-18	-40
-35	-46	-40
74	-71	-51
167	-91	-61
222	-97	-69
231	-84	-50
208	-42	-25
172	19	22
144	92	65
124	150	40
99	187	13
46	192	-13
-40	166	-47
-150	114	-79
-245	32	-77
-290	-72	-55
-262	-190	-49
-170	-289	-43
-51	-340	-31
52	-313	-12
107	-209	26
107	-62	29
78	76	7
53	158	-19
61	165	-76
101	114	-80
137	47	-71
124	6	-48
34	2	-20
-130	25	-2
-319	42	38
-456	28	23
-474	-25	-28
-355	-98	-41
-139	-157	-39
92	-176	-39
248	-141	-24
276	-61	-15
190	48	-15
61	166	-17
-12	262	-9
31	319	-1
193	312	-14
397	237	-11
539	103	-37
533	-54	-63
359	-199	-47
77	-298	-48
-209	-333	-35
-401	-314	-32
-458	-259	-51
-415	-183	-56
-354	-95	-36
-354	5	-13
-431	110	13
-518	207	59
-500	268	49
-277	279	24
163	235	13
707	164	15
1176	98	11
1354	58	-18
1198	38	-17
723	5	-20
119	-71	-40
-392	-196	-75
-639	-334	-76
-585	-423	-56
-337	-409	-26
-65	-277	0
84	-69	-30
65	135	-43
-54	272	-26
-162	301	-16
-173	244	-36
-82	151	-41
36	70	-56
94	23	-56
39	6	-46
-97	-9	-25
-240	-39	1
-314	-80	-21
-295	-112	-5
-217	-117	6
-149	-88	-21
-136	-34	-19
-176	26	9
-215	83	21
-201	126	-4
-107	154	-51
38	165	-78
179	144	-82
257	89	-49
250	2	-2
175	-87	38
75	-145	70
-12	-153	65
-71	-105	13
-115	-43	-23
-156	-3	-63
-202	-11	-151
-252	-48	-183
-285	-72	-188
-286	-40	-180
-241	55	-122
-143	168	-61
6	226	49
194	174	139
399	20	108
580	-166	93
683	-286	90
671	-270	40
529	-131	33
283	40	20
-5	138	13
-262	93	3
-429	-69	-10
-481	-260	-4
-426	-361	-19
-300	-314	-52
-140	-140	-76
21	74	-69
165	237	-67
266	310	-75
311	311	-84
280	289	-74
184	278	-57
42	261	-49
-101	194	-54
-206	45	-48
-248	-157	-25
-232	-337	4
-189	-408	15
-144	-326	10
-121	-135	28
-107	64	16
-83	174	-16
-27	150	-34
59	34	-56
152	-75	-61
216	-94	-42
228	-2	-14
184	145	6
107	253	35
20	255	64
-62	144	28
-138	-16	2
-214	-147	-14
-294	-190	-41
-350	-152	-59
-350	-80	-60
-259	-34	-30
-78	-45	-23
155	-90	-21
368	-127	-13
491	-113	-24
491	-43	-52
381	48	-52
221	119	-37
67	135	-32
-40	106	-30
-115	53	-58
-185	15	-52
-280	-3	-38
-389	-11	-36
-469	-37	-30
-459	-97	-9
-333	-171	3
-104	-225	-7
170	-211	24
417	-117	42
569	29	31
626	175	39
600	265	19
528	272	-23
432	208	-52
322	115	-67
184	38	-71
18	-4	-75
-161	-22	-51
-317	-46	-23
-415	-94	-4
-431	-160	10
-378	-211	-1
-285	-218	-34
-194	-167	-59
-136	-79	-59
-118	3	-51
-136	44	-33
-166	44	-2
-185	35	-8
-169	58	-17
-101	131	-34
13	236	-65
141	313	-69
234	311	-71
234	202	-52
115	20	-28
-88	-166	15
-297	-288	44
-407	-314	21
-348	-261	16
-125	-176	1
180	-106	17
439	-64	24
553	-30	-9
484	24	-16
283	110	-32
57	206	-60
-96	267	-86
-136	252	-84
-100	161	-59
-58	27	-32
-82	-95	16
-181	-159	40
-312	-155	29
-393	-107	38
-371	-55	10
-223	-24	-23
7	-15	-23
241	-11	-32
407	11	-42
468	47	-58
428	84	-81
320	92	-92
201	53	-65
101	-22	-45
34	-111	-45
-13	-177	-29
-57	-196	-14
-118	-166	-21
-191	-104	-44
-260	-36	-51
-295	10	-47
-269	24	-40
-184	14	-27
-60	-2	3
62	6	18
149	51	-3
178	134	-3
156	227	32
107	279	39
60	265	15
33	166	8
23	10	-27
10	-145	-47
-25	-243	-27
-91	-246	-36
-173	-170	-38
-244	-62	-8
-270	15	5
-234	23	-10
-130	-32	-14
13	-106	-8
163	-143	-26
280	-110	-36
336	-8	-43
320	119	-68
244	218	-56
131	250	-39
18	210	-38
-75	115	-4
-137	1	10
-170	-99	3
-186	-171	-5
-193	-207	-17
-197	-211	-7
-191	-183	-20
-172	-128	-38
-136	-59	-48
-85	13	-69
-26	67	-86
35	96	-74
94	100	-59
152	101	-37
204	118	7
244	160	32
257	215	40
229	252	32
154	233	29
39	137	23
-91	-19	12
-206	-195	-1
-278	-333	-13
-289	-388	-28
-239	-351	-30
-139	-247	-24
-18	-123	-45
103	-14	-65
196	61	-62
248	114	-54
249	157	-62
206	189	-63
132	196	-50
53	153	-40
-11	53	-50
-47	-78	-38
-60	-189	-14
-67	-228	1
-84	-178	4
-120	-64	-6
-167	51	-7
-199	114	-2
-195	101	-12
-149	40	-53
-74	-10	-58
3	-4	-55
57	64	-70
92	158	-45
124	215	9
175	198	38
248	104	30
306	-26	36
301	-141	41
201	-207	24
14	-224	-14
-191	-213	-30
-329	-196	-26
-335	-179	-40
-207	-144	-46
-7	-79	-40
169	20	-42
245	124	-62
204	199	-71
91	218	-89
-21	182	-69
-75	122	-15
-62	75	32
-25	64	61
-15	85	57
-65	109	46
-170	105	14
-287	56	-31
-361	-24	-55
-364	-113	-84
-287	-181	-97
-151	-210	-66
15	-199	-32
178	-152	-34
310	-79	-32
381	11	-46
373	100	-53
290	161	-31
159	163	-17
25	95	-3
-65	-31	-8
-91	-173	-7
-76	-268	-9
-59	-275	-18
-87	-192	-25
-161	-59	-28
-243	56	-23
-272	106	-19
-205	81	-16
-48	22	-10
137	-13	6
274	22	-1
306	115	-19
239	215	-31
124	260	-37
26	207	-19
-15	72	-16
-7	-89	-13
7	-200	-8
-10	-222	-11
-71	-154	-10
-152	-45	-20
-211	41	-26
-224	76	-19
-191	57	-35
-137	24	-48
-77	10	-48
-3	35	-43
97	86	-23
228	130	-12
363	136	-7
451	98	19
432	28	38
288	-41	8
53	-88	-27
-198	-105	-47
-392	-105	-68
-496	-107	-75
-518	-123	-92
-491	-147	-87
-438	-159	-74
-347	-135	-64
-185	-64	-21
58	38	17
351	144	37
608	215	45
740	228	49
694	171	33
498	76	16
245	-27	4
35	-103	-12
-75	-133	-40
-90	-126	-59
-72	-103	-51
-86	-89	-62
-155	-92	-66
-252	-101	-57
-318	-97	-47
-308	-61	-16
-217	2	-10
-83	76	-14
42	131	3
122	147	5
150	123	-12
142	76	-31
119	33	-33
89	11	-23
41	11	-40
-27	15	-68
-110	0	-57
-187	-46	-51
-236	-125	-48
-242	-209	15
-211	-261	56
-164	-250	35
-113	-158	-1
-63	3	-32
-4	194	-18
72	357	-20
162	438	-18
241	406	-13
280	274	-15
260	88	-20
180	-87	-32
65	-195	-23
-50	-222	-40
-143	-185	-47
-206	-140	-37
-235	-126	-42
-237	-144	-51
-210	-162	-24
-149	-131	-13
-48	-29	3
78	125	13
203	265	-5
299	321	18
332	251	7
302	81	-23
226	-118	-60
125	-257	-77
21	-282	-62
-75	-206	-64
-163	-85	-57
-248	5	-57
-321	21	-35
-374	-28	-5
-387	-95	10
-346	-117	12
-247	-66	1
-94	45	19
92	171	2
281	261	-42
439	285	-53
535	244	-42
534	166	-27
436	80	-19
262	5	3
56	-57	20
-138	-112	14
-287	-161	-10
-383	-199	-12
-438	-213	-3
-465	-199	-35
-465	-160	-60
-409	-112	-40
-262	-68	-13
-16	-38	-28
302	-13	-44
608	27	-40
805	92	-21
811	183	-19
618	271	-31
285	317	-28
-60	286	-47
-312	171	-62
-402	6	-64
-352	-168	-57
-237	-289	-50
-141	-330	-48
-119	-286	-55
-163	-189	-57
-226	-82	-63
-245	8	-57
-197	64	-5
-89	94	43
41	109	80
156	117	87
236	120	91
284	113	66
306	93	48
296	63	25
234	25	-12
102	-17	-14
-85	-62	-41
-284	-110	-43
-426	-152	-51
-459	-170	-65
-369	-152	-63
-189	-90	-62
10	-2	-54
171	83	-40
269	137	-28
314	150	-42
329	135	-53
323	122	-66
280	131	-77
178	150	-65
3	145	-26
-217	79	-4
-421	-62	9
-545	-240	17
-547	-387	24
-450	-429	9
-307	-349	-18
-177	-182	-7
-87	-8	-3
-18	95	-53
74	103	-83
221	53	-30
411	21	-13
583	65	-53
662	191	-69
590	338	-43
373	414	3
84	362	37
-181	174	20
-340	-70	-9
-366	-287	-18
-291	-391	-32
-181	-368	-26
-95	-252	-31
-55	-112	-29
-44	0	-24
-28	64	-31
20	91	-20
99	109	-7
178	131	-24
215	153	-52
190	160	-52
107	138	-25
-1	90	-2
-100	23	2
-164	-45	9
-194	-105	-8
-207	-154	-30
-224	-187	-46
-253	-196	-72
-282	-177	-78
-296	-121	-74
-259	-39	-21
-159	56	48
10	138	51
226	196	20
446	218	8
608	213	-3
665	187	-29
583	137	-37
373	63	-40
102	-35	-42
-160	-145	-33
-329	-243	-42
-371	-298	-60
-305	-299	-57
-190	-250	-32
-94	-174	-8
-51	-100	15
-59	-36	28
-76	21	14
-58	86	3
4	163	-10
86	236	-23
144	273	-17
141	243	-22
75	147	-28
-28	9	-30
-130	-116	-33
-202	-185	-34
-242	-184	-40
-270	-130	-49
-305	-67	-60
-347	-30	-80
-371	-29	-109
-341	-48	-117
-232	-58	-90
-44	-37	-29
203	19	43
462	95	86
683	168	112
819	215	87
837	233	35
723	209	24
491	137	3
182	25	-19
-129	-119	-38
-366	-257	-62
-473	-348	-60
-442	-353	-69
-312	-263	-68
-151	-112	-48
-23	50	-40
42	165	-36
56	207	-43
52	190	-40
66	149	-26
102	116	-24
133	104	-28
125	95	-43
49	65	-45
-95	10	-38
-269	-55	-36
-426	-97	-9
-511	-94	11
-503	-56	29
-405	-17	36
-244	-14	16
-62	-55	-23
98	-111	-46
212	-127	-35
276	-66	-36
299	60	-30
301	203	-16
302	287	1
308	268	7
291	145	-10
219	-21	-35
76	-171	-34
-130	-256	-25
-351	-268	-31
-515	-241	-33
-561	-208	-42
-465	-184	-42
-263	-159	-44
-29	-106	-42
163	-21	-39
265	86	-40
274	180	-26
229	233	-25
175	231	-21
151	185	-3
151	120	1
151	53	-16
120	-6	-13
42	-62	-16
-69	-114	-40
-194	-158	-42
-300	-173	-50
-371	-151	-56
-390	-92	-62
-358	-7	-50
-270	77	7
-119	143	61
84	181	39
316	191	14
531	174	24
676	136	11
705	83	-12
606	15	-56
394	-47	-68
120	-94	-44
-152	-114	-28
-366	-118	-29
-481	-120	-36
-494	-135	-56
-415	-170	-75
-284	-200	-57
-138	-200	-46
-6	-144	-32
100	-34	10
180	96	64
241	205	65
283	254	49
300	235	42
277	165	22
201	81	6
79	13	-30
-66	-31	-70
-197	-60	-93
-280	-97	-110
-303	-140	-109
-270	-179	-89
-208	-190	-49
-136	-153	-19
-72	-70	10
-11	36	44
50	130	18
106	183	-6
141	193	-15
137	162	-31
88	112	-43
4	56	-51
-85	8	-51
-150	-38	-41
-179	-80	-32
-186	-110	-20
-189	-117	-16
-200	-95	-30
-205	-51	-52
-168	4	-46
-57	48	-32
128	72	-15
344	78	8
508	77	8
566	81	18
476	85	13
280	82	2
58	51	-6
-115	-10	-25
-205	-87	-24
-225	-147	-21
-227	-160	-37
-251	-128	-37
-300	-76	-32
-331	-45	-54
-292	-68	-62
-157	-137	-33
48	-203	-38
249	-205	-36
366	-107	-12
363	79	-17
262	278	-18
129	405	-6
34	398	-9
3	257	3
15	45	8
19	-141	7
-26	-234	-4
-118	-216	-2
-222	-130	-5
-281	-43	-24
-269	-4	-17
-190	-21	-16
-84	-63	-15
11	-82	-47
72	-51	-71
101	24	-75
114	106	-71
121	161	-55
120	166	-53
97	131	-38
48	85	-21
-14	41	-9
-62	8	-11
-84	-32	-3
-76	-92	-8
-62	-167	-10
-69	-238	-15
-101	-263	-29
-142	-225	-11
-153	-117	-4
-108	24	-1
-12	153	0
97	230	-9
160	237	-44
140	193	-43
44	123	-20
-76	61	12
-148	17	22
-116	-12	4
15	-37	9
199	-68	-8
342	-99	-32
381	-122	-45
284	-126	-47
102	-117	-57
-84	-101	-63
-185	-87	-65
-153	-78	-59
-10	-60	-41
170	-21	-48
297	48	-44
302	138	-26
185	221	-21
-7	256	-5
-197	221	-5
-324	114	-13
-361	-35	13
-336	-174	12
-285	-254	2
-242	-246	-3
-212	-157	-13
-170	-27	-5
-89	88	-4
46	145	-2
211	135	0
357	80	-4
435	21	-22
418	-2	-22
316	18	-36
170	62	-56
27	90	-40
-77	75	-45
-135	15	-47
-173	-65	-28
-214	-127	-34
-269	-151	-24
-324	-138	-9
-347	-119	-30
-302	-114	-45
-182	-129	-59
-14	-140	-46
154	-114	-20
261	-36	5
275	79	17
200	188	-4
77	247	-25
-45	238	-37
-125	178	-61
-151	104	-75
-141	48	-59
-125	17	-37
-121	-16	-4
-123	-74	8
-104	-162	30
-40	-249	29
68	-283	5
194	-233	-5
288	-96	-9
313	72	-24
260	206	-42
158	249	-39
63	197	-51
15	90	-60
20	-14	-63
40	-64	-57
24	-54	-59
-66	-12	-70
-223	22	-48
-389	14	-4
-486	-35	52
-458	-105	72
-295	-151	42
-40	-148	21
226	-85	19
431	18	4
531	126	-19
523	206	-39
436	233	-35
306	205	-36
164	135	-50
27	50	-41
-89	-29	-35
-179	-85	-32
-229	-118	-24
-243	-138	-31
-232	-154	-34
-215	-167	-43
-214	-167	-45
-225	-142	-42
-224	-89	-57
-174	-11	-29
-57	71	6
117	136	14
302	171	11
432	178	-4
454	165	-16
352	143	-39
161	110	-40
-57	53	-35
-233	-34	-39
-325	-151	-44
-336	-263	-56
-292	-332	-55
-231	-322	-40
-174	-233	-20
-122	-92	11
-63	50	38
13	149	42
106	183	16
194	171	-10
253	143	-3
262	124	-13
226	116	-16
157	104	-33
74	66	-47
-6	1	-38
-79	-80	-32
-142	-141	-19
-200	-160	-39
-248	-137	-54
-280	-90	-57
-280	-44	-39
-237	-16	-30
-140	-4	-42
6	8	-30
188	32	-20
368	68	-14
501	106	-16
539	127	-17
455	125	-18
266	98	-25
14	56	-22
-223	6	-23
-382	-52	-30
-431	-114	-40
-383	-169	-49
-285	-200	-43
-188	-186	-26
-121	-121	-1
-80	-26	13
-40	64	-18
17	120	-27
96	128	0
175	108	-24
229	93	-19
236	110	9
201	155	8
143	193	9
80	181	0
18	95	-5
-46	-54	-23
-116	-223	-34
-184	-348	-37
-226	-393	-71
-217	-351	-86
-148	-238	-76
-35	-94	-63
80	52	-59
156	175	-61
169	261	-28
125	300	-13
63	276	-1
19	194	15
14	69	13
42	-57	34
74	-149	14
79	-175	0
35	-138	1
-53	-77	-14
-165	-30	-9
-256	-27	-19
-289	-63	-37
-239	-108	-37
-101	-121	-26
91	-80	-17
280	10	-16
404	112	-4
411	190	1
299	215	28
109	191	45
-79	132	1
-193	65	-31
-208	1	-50
-150	-57	-69
-80	-114	-63
-60	-163	-63
-113	-191	-81
-202	-189	-75
-258	-148	-59
-222	-78	-51
-72	-1	-50
143	59	-42
346	101	-3
462	127	14
446	150	4
302	175	13
82	193	8
-149	179	-2
-336	121	2
-442	26	-3
-459	-78	-6
-407	-153	-7
-305	-178	-12
-185	-161	-30
-68	-127	-25
31	-110	-25
124	-120	-22
228	-136	-27
346	-121	-76
474	-48	-78
566	81	-64
575	224	-55
462	317	-77
228	313	-80
-79	207	-21
-364	30	-5
-550	-153	1
-589	-286	14
-496	-339	16
-335	-311	6
-180	-229	-6
-79	-122	-14
-34	-23	-20
-15	57	-18
20	113	-20
90	147	-29
175	160	-40
238	157	-45
236	145	-28
164	127	-3
51	104	22
-46	67	31
-93	16	19
-74	-48	20
-22	-115	5
20	-167	2
19	-187	1
-24	-167	-30
-79	-116	-42
-97	-46	-51
-48	21	-70
60	79	-76
187	118	-59
276	143	-54
294	157	-41
229	150	-26
109	121	-26
-23	67	-43
-132	-8	-65
-202	-92	-62
-234	-167	-59
-243	-214	-50
-241	-222	4
-232	-178	48
-217	-92	43
-188	23	23
-136	138	2
-57	224	-17
51	253	-32
180	219	-21
311	139	-11
413	51	-6
458	-13	-4
428	-34	-8
330	-28	-13
188	-27	-15
34	-61	-30
-103	-135	-48
-210	-223	-46
-285	-270	-42
-324	-249	-47
-321	-162	-40
-264	-41	-8
-160	53	-14
-30	90	-23
81	72	-30
124	45	-57
78	51	-57
-37	105	-52
-162	177	-44
-221	205	-40
-166	149	-28
-6	3	4
202	-168	14
369	-286	7
422	-282	-30
330	-157	-33
123	37	-12
-125	208	-7
-325	279	24
-421	237	6
-382	118	-5
-232	-4	-12
-23	-59	-26
178	-32	-28
314	51	-60
354	127	-55
296	141	-40
165	65	-15
-4	-80	1
-166	-238	24
-297	-352	42
-382	-379	37
-426	-319	13
-431	-203	-2
-389	-82	-13
-290	5	-63
-117	48	-72
122	65	-64
392	90	-48
626	145	-43
755	225	-46
732	298	-27
566	320	-48
300	272	-66
18	165	-69
-209	35	-65
-343	-78	-38
-383	-145	-16
-362	-174	2
-310	-185	-4
-240	-190	-17
-156	-187	-8
-53	-157	-26
50	-88	-14
133	17	22
170	125	18
150	192	-6
87	196	-31
19	143	-30
-32	75	-27
-56	22	-21
-76	0	-8
-115	-7	-13
-183	-36	-27
-262	-99	-58
-308	-183	-75
-287	-241	-66
-187	-232	-48
-36	-144	-31
121	-13	-9
244	103	17
314	160	24
340	143	13
340	85	14
322	31	8
274	13	-15
184	29	-19
47	48	-13
-108	38	-18
-243	-14	-26
-311	-89	-32
-302	-150	-40
-234	-168	-33
-150	-139	-57
-88	-85	-86
-58	-24	-58
-46	23	-26
-21	64	0
34	110	6
119	165	-4
206	215	-31
262	235	-56
266	200	-46
215	106	-31
121	-25	-15
2	-154	-13
-118	-238	-3
-222	-256	-2
-284	-212	-9
-289	-131	-8
-232	-47	-8
-119	13	-11
19	43	-29
143	50	-46
224	43	-68
242	33	-86
210	30	-66
148	31	-24
72	41	1
-10	58	52
-97	82	74
-190	98	23
-272	92	3
-321	53	-9
-312	-20	-21
-241	-104	-12
-122	-171	-39
4	-186	-56
101	-138	-60
151	-45	-70
155	57	-43
132	130	-14
104	161	-2
83	154	14
72	136	30
72	125	0
82	114	-13
102	79	-5
131	-11	-14
156	-151	-16
158	-305	-21
121	-408	-34
49	-413	-48
-32	-316	-52
-82	-148	-67
-74	23	-95
-7	154	-118
85	230	-98
148	276	-54
143	318	-54
61	345	-41
-69	325	-5
-202	213	13
-291	3	21
-324	-248	60
-311	-434	45
-274	-466	2
-237	-325	9
-195	-77	-8
-136	152	-26
-48	252	-36
64	189	-36
175	31	-42
260	-102	-38
292	-116	-9
283	0	-7
245	168	-34
204	271	-46
159	237	-36
104	77	-41
24	-118	-49
-75	-243	-40
-178	-235	-14
-257	-120	-1
-288	13	-6
-271	79	4
-218	38	18
-155	-66	-12
-87	-159	-48
-13	-164	-45
79	-70	-38
188	72	-19
294	191	17
363	233	37
359	191	25
279	104	6
140	24	2
-12	-24	-18
-144	-45	-32
-233	-67	-34
-285	-105	-28
-310	-149	-13
-311	-170	-22
-285	-143	-56
-224	-66	-93
-124	31	-95
-3	109	-93
107	140	-83
180	129	-63
209	96	-44
207	74	-19
195	65	4
186	59	21
175	31	16
137	-23	13
50	-85	-13
-83	-120	-55
-236	-103	-57
-360	-45	-40
-407	16	-41
-350	37	-25
-195	-3	26
21	-78	79
244	-138	77
422	-140	28
521	-80	-13
523	8	-63
435	65	-103
288	59	-105
117	6	-65
-33	-44	-22
-142	-43	-20
-215	16	-6
-274	90	18
-353	108	-6
-458	39	-32
-563	-97	-40
-610	-219	-25
-526	-243	-21
-288	-138	-36
75	52	-46
470	231	-56
769	307	-44
864	256	-32
723	123	-14
392	4	12
-6	-36	48
-344	11	62
-526	89	47
-539	122	33
-428	68	4
-269	-55	-30
-126	-182	-52
-20	-246	-39
64	-219	-19
156	-120	-35
257	-4	-30
352	83	-17
406	117	-47
391	110	-60
306	82	-74
172	40	-74
37	-12	-51
-72	-80	-24
-144	-151	30
-186	-209	54
-206	-232	45
-214	-213	17
-209	-162	-20
-187	-96	-63
-150	-32	-90
-104	27	-82
-69	91	-48
-47	163	-12
-36	230	-15
-19	266	-25
20	251	-9
85	183	-25
158	90	-56
206	12	-35
203	-19	-27
124	-4	-31
-16	31	-40
-185	43	-52
-324	12	-54
-389	-59	-67
-350	-141	-70
-225	-190	-70
-60	-186	-63
77	-126	-30
135	-34	0
107	58	20
23	135	48
-48	178	60
-54	187	52
31	160	26
178	97	4
318	5	-27
381	-99	-39
326	-192	-23
172	-256	-11
-28	-273	-12
-200	-242	-29
-300	-169	-33
-308	-67	-28
-240	46	-27
-124	165	-46
12	261	-55
150	309	-32
276	281	-40
360	174	-57
375	6	-38
306	-170	-24
156	-292	-4
-31	-322	2
-193	-257	1
-281	-147	-4
-281	-54	-23
-214	-29	-37
-136	-74	-41
-88	-141	-37
-81	-170	-25
-86	-114	-10
-63	23	-25
7	193	-16
114	327	-28
211	378	-53
253	339	-46
212	241	-40
106	132	-14
-28	45	13
-141	-17	39
-208	-71	57
-221	-137	47
-190	-207	3
-136	-260	-20
-71	-259	-18
-4	-189	-28
57	-62	-68
97	85	-75
105	200	-66
78	252	-78
38	235	-65
12	171	-66
20	97	-59
58	41	-43
96	19	-40
96	20	-36
34	28	-42
-72	20	-59
-187	-12	-40
-258	-72	-10
-253	-150	11
-183	-218	43
-86	-261	65
0	-254	85
53	-190	65
88	-79	41
127	52	30
184	166	7
254	228	-15
300	214	-32
283	138	-63
195	27	-91
52	-74	-81
-95	-137	-75
-200	-149	-91
-237	-123	-87
-217	-88	-66
-166	-56	-57
-112	-36	-26
-71	-9	0
-43	36	-23
-20	106	-71
10	177	-78
42	218	-42
75	206	-19
106	133	22
136	26	37
161	-84	51
167	-157	69
125	-189	25
23	-190	-19
-132	-179	-49
-300	-170	-69
-408	-157	-66
-400	-122	-41
-262	-52	-23
-37	48	-20
189	153	-5
328	230	16
336	257	9
236	233	-30
96	174	-33
-1	106	-21
-24	43	13
12	-18	18
46	-85	15
30	-159	31
-51	-219	19
-163	-249	13
-245	-224	-6
-251	-145	-31
-178	-46	-54
-75	41	-63
13	86	-63
49	91	-63
40	70	-55
20	57	-67
25	65	-79
62	85	-85
107	93	-75
129	63	-59
106	-5	-40
50	-92	-25
1	-154	-28
-10	-163	8
29	-110	37
91	-23	35
135	56	34
128	91	16
77	74	-2
14	24	-25
-12	-19	-58
20	-23	-64
100	22	-61
184	98	-40
227	170	-23
199	204	-32
106	183	-33
-25	114	-25
-164	17	-28
-280	-76	-33
-369	-148	-28
-417	-185	-37
-421	-189	-33
-372	-167	-7
-270	-125	22
-125	-76	29
34	-19	-16
174	35	-42
270	93	-59
314	150	-55
310	198	-56
269	227	-53
206	213	-4
122	148	7
23	28	34
-84	-122	68
-182	-263	48
-252	-357	10
-281	-371	-14
-273	-309	-11
-237	-202	-19
-189	-91	-36
-140	-6	-33
-94	41	-19
-52	65	-32
-20	91	-36
-1	124	-30
-2	164	-67
-10	183	-94
-5	170	-93
41	116	-78
138	43	-64
270	-23	-42
396	-59	-8
454	-66	-6
414	-62	-15
280	-67	-25
111	-97	-16
-30	-135	4
-84	-152	-9
-43	-113	-17
52	-7	-20
136	143	-21
150	289	3
75	365	0
-51	339	-27
-168	208	-17
-225	21	-18
-205	-155	-8
-147	-261	21
-105	-271	22
-126	-202	27
-209	-102	32
-306	-19	3
-350	17	-41
-288	19	-59
-128	13	-59
78	30	-23
253	76	-3
337	128	-22
314	156	-28
223	133	-25
116	68	-30
37	-11	-40
-3	-67	-55
-32	-85	-62
-83	-72	-64
-165	-61	-70
-259	-84	-55
-321	-137	-35
-314	-194	-36
-223	-202	-46
-71	-130	-48
94	11	-19
222	174	4
284	282	34
283	283	82
241	169	93
184	-9	85
136	-173	54
100	-254	16
62	-230	-5
9	-133	-32
-69	-30	-37
-167	18	-49
-259	-11	-91
-314	-89	-114
-305	-160	-137
-223	-166	-136
-92	-89	-115
44	53	-68
137	203	-30
161	308	-21
123	339	0
66	301	-25
44	228	-47
80	138	-38
159	53	-50
226	-37	-19
222	-131	-5
124	-224	-4
-39	-287	4
-195	-296	8
-273	-240	15
-235	-137	14
-108	-28	9
38	46	-5
126	71	-11
120	60	-30
42	48	-27
-42	68	-10
-68	131	-8
-10	211	-19
106	276	-48
214	287	-64
251	228	-36
184	103	3
36	-65	26
-134	-237	49
-260	-376	63
-297	-443	47
-240	-416	7
-117	-300	-22
20	-128	-67
131	43	-96
191	162	-75
202	193	-61
180	150	-28
139	77	5
93	31	-19
33	43	-51
-42	96	-17
-132	147	4
-221	138	-1
-281	55	6
-297	-79	-5
-256	-203	-36
-173	-257	-68
-71	-216	-96
22	-105	-117
103	22	-78
170	115	-7
234	145	43
285	126	44
310	96	22
275	88	-5
167	119	-32
-12	166	-40
-221	195	-32
-405	169	-36
-516	77	-46
-533	-62	-31
-459	-203	-41
-335	-282	-43
-181	-270	-60
-22	-160	-62
138	5	-51
292	157	-56
432	236	-10
530	213	6
558	106	3
496	-24	13
363	-118	31
180	-141	49
4	-101	48
-130	-40	34
-208	-11	25
-231	-40	14
-223	-115	-18
-200	-194	-52
-181	-233	-70
-157	-204	-66
-122	-117	-67
-70	-4	-74
0	99	-70
76	168	-67
148	195	-64
196	193	-58
213	168	-42
194	129	1
141	79	36
60	23	38
-37	-38	26
-144	-93	9
-247	-129	-8
-332	-144	-41
-385	-129	-74
-383	-90	-81
-312	-32	-76
-174	27	-58
11	74	-30
200	95	11
350	85	30
423	54	22
411	18	21
336	-6	3
239	-14	-30
153	-10	-38
88	-9	-40
23	-24	-37
-71	-56	-15
-214	-93	-2
-377	-109	4
-503	-85	-48
-534	-17	-55
-429	77	-25
-221	162	-19
17	205	-4
189	182	-27
236	96	-26
166	-20	-19
52	-123	-24
-15	-173	-39
18	-152	-74
143	-82	-116
288	-12	-110
371	12	-35
333	-33	18
196	-126	36
28	-211	34
-89	-236	57
-108	-167	19
-43	-32	-21
51	120	-37
111	228	-68
107	262	-55
49	244	-48
-17	207	-32
-58	189	-17
-68	187	-2
-71	171	18
-101	104	25
-168	-23	29
-253	-178	21
-313	-305	-25
-310	-348	-58
-231	-297	-53
-104	-185	-40
24	-65	-42
115	23	-35
154	72	-24
154	105	-59
139	145	-62
132	195	-41
132	230	-12
128	209	17
100	119	10
44	-16	-7
-31	-151	-8
-111	-232	-34
-178	-241	-77
-223	-196	-66
-231	-140	-25
-201	-96	11
-134	-61	7
-34	-15	16
79	66	32
179	171	-4
242	261	-59
251	287	-76
215	222	-40
159	86	-9
107	-62	5
72	-164	1
48	-191	8
17	-159	-11
-42	-118	-54
-125	-109	-62
-214	-136	-63
-272	-173	-62
-276	-168	-52
-223	-99	-43
-120	21	-18
-5	150	2
99	239	2
172	261	-7
212	224	9
219	152	-1
196	71	-48
139	-4	-47
49	-78	-23
-63	-143	-13
-184	-186	-12
-280	-183	-35
-325	-117	-44
-300	-4	-30
-210	114	-18
-72	185	-5
80	179	-4
209	103	-12
296	-4	-3
328	-86	12
320	-112	-7
288	-87	-9
251	-39	26
201	-2	4
127	10	-30
13	2	-30
-140	-6	-66
-306	-9	-78
-436	-9	-56
-481	-26	-45
-415	-64	-53
-247	-107	-60
-25	-122	-31
184	-84	-28
334	7	-40
399	114	-8
388	181	36
326	171	26
237	88	-6
132	-30	-28
17	-121	-43
-103	-148	-57
-208	-107	-62
-278	-39	-56
-299	5	-38
-271	-2	-39
-223	-54	-44
-181	-111	-17
-166	-131	7
-162	-96	26
-142	-12	27
-78	89	-7
39	178	-32
183	233	-24
306	252	-22
358	241	-18
320	203	11
202	133	26
49	38	30
-95	-68	4
-194	-167	-24
-244	-223	-20
-251	-229	-19
-233	-190	-25
-198	-133	-49
-145	-85	-92
-77	-52	-115
11	-32	-108
100	-3	-94
178	43	-67
234	101	-20
260	147	39
269	161	87
265	134	78
245	80	46
204	23	8
127	-21	-48
13	-46	-68
-120	-69	-90
-250	-96	-95
-340	-129	-86
-375	-152	-70
-347	-134	-41
-269	-62	-30
-165	48	-24
-53	165	-23
44	235	7
121	232	26
165	155	33
172	45	24
151	-53	10
105	-102	19
52	-99	5
2	-70	2
-38	-59	-7
-70	-97	-19
-94	-175	-25
-104	-264	-28
-90	-316	-15
-47	-286	-28
14	-167	-45
74	15	-56
99	206	-57
85	345	-43
46	403	-11
26	358	-4
63	243	-27
163	95	-21
280	-38	-25
332	-127	-28
254	-170	-31
40	-179	-40
-242	-178	-32
-477	-181	-27
-555	-186	-20
-439	-176	-7
-183	-136	-3
97	-59	-13
285	35	-14
331	125	-18
249	185	-15
120	207	-6
22	205	-9
-3	195	-27
24	177	-60
57	139	-76
53	59	-84
2	-64	-83
-76	-210	-65
-142	-320	-11
-170	-347	43
-156	-275	29
-110	-139	16
-52	-2	15
5	78	-2
55	84	-1
98	56	-18
123	56	-18
123	121	-32
94	237	-58
42	338	-30
-18	345	-25
-75	237	-23
-115	36	-27
-145	-166	-34
-170	-283	-50
-188	-281	-87
-189	-182	-86
-164	-60	-69
-103	14	-24
-13	21	31
86	-11	60
170	-32	69
223	-6	52
240	56	13
231	119	-21
204	136	-57
169	98	-71
117	26	-69
45	-33	-72
-49	-52	-63
-156	-33	-63
-258	-6	-52
-336	-11	-39
-378	-61	-33
-369	-141	-25
-303	-207	-19
-178	-218	-1
-1	-158	13
206	-35	6
407	110	-2
550	235	1
589	298	-7
502	283	11
313	191	15
70	49	-3
-162	-102	-12
-329	-218	0
-411	-265	20
-408	-245	4
-344	-170	3
-242	-84	-21
-119	-18	-51
17	18	-72
151	39	-116
254	71	-114
296	127	-83
251	190	-44
125	221	-7
-47	186	8
-205	78	7
-291	-69	-4
-271	-200	-2
-152	-259	4
20	-223	2
175	-113	-8
254	16	-22
226	105	-46
106	114	-56
-46	48	-58
-161	-60	-60
-179	-157	-50
-91	-198	-36
64	-159	-24
219	-50	-12
300	85	0
274	197	11
157	237	14
3	194	3
-128	84	7
-198	-43	12
-214	-138	8
-200	-173	10
-191	-143	2
-193	-83	-5
-190	-20	-36
-154	21	-68
-65	45	-75
54	70	-70
171	103	-71
242	138	-64
250	154	-25
206	135	21
141	82	35
87	21	3
42	-18	-39
-8	-22	-60
-84	-4	-68
-189	-4	-51
-298	-48	-38
-361	-137	-23
-340	-227	-8
-229	-259	-29
-56	-195	-16
111	-51	18
222	115	20
245	231	15
205	247	41
143	171	24
110	52	-21
119	-41	-30
148	-72	-32
156	-51	-33
103	-16	-56
-8	-12	-55
-145	-55	-41
-255	-122	-20
-291	-175	-12
-247	-175	-9
-142	-121	12
-28	-29	-8
61	65	-40
110	139	-60
132	187	-77
148	207	-68
169	208	-32
179	183	-2
151	126	16
59	32	24
-94	-85	15
-279	-201	-20
-439	-292	-51
-506	-336	-91
-442	-322	-131
-245	-256	-124
35	-134	-108
320	28	-98
527	215	-57
598	387	-1
531	494	34
371	488	61
191	352	59
57	116	46
-4	-147	69
-10	-352	78
-6	-437	47
-39	-390	25
-122	-254	-42
-227	-97	-86
-307	21	-77
-321	77	-56
-271	76	-3
-178	51	20
-89	26	45
-26	11	43
12	10	11
50	17	-15
105	34	-50
170	62	-96
212	96	-105
194	119	-83
101	105	-78
-40	48	-67
-179	-41	-68
-263	-130	-57
-271	-179	-38
-215	-174	-19
-139	-123	-10
-79	-59	-26
-45	-13	-40
-24	8	-32
6	17	-1
52	40	0
93	89	-14
94	151	13
38	195	38
-48	197	16
-110	155	5
-88	93	-8
38	40	-57
225	14	-68
386	1	-54
422	-33	-38
302	-106	-15
66	-218	-5
-174	-321	-8
-306	-362	-3
-263	-309	-9
-74	-165	-36
167	17	-57
342	174	-58
380	262	-41
278	268	-28
104	211	-11
-55	129	4
-148	45	25
-175	-34	32
-181	-110	12
-209	-177	5
-271	-216	-4
-336	-209	-19
-350	-149	-34
-278	-50	-51
-130	45	-64
45	109	-69
184	125	-60
252	110	-37
239	96	-22
184	100	-11
124	121	2
85	134	28
56	114	24
20	48	11
-45	-43	-13
-133	-127	-64
-218	-178	-68
-262	-182	-50
-244	-160	-40
-160	-125	-34
-36	-89	-5
94	-39	17
201	38	0
271	143	-33
306	251	-54
306	316	-60
269	298	-56
197	189	-30
85	31	-16
-53	-118	-22
-197	-203	-34
-312	-203	-45
-375	-150	-54
-371	-92	-30
-307	-74	-1
-207	-104	-5
-99	-152	-8
-4	-171	-2
64	-124	16
104	-21	12
123	103	-6
130	191	-30
132	215	-10
138	185	1
148	129	-7
158	89	-6
158	80	-19
137	83	-12
86	58	-36
3	-25	-28
-97	-159	-26
-189	-296	-34
-247	-362	-30
-247	-320	-67
-184	-167	-88
-74	35	-74
61	205	-58
192	277	-50
291	239	-38
336	131	-37
313	22	-21
219	-37	-1
69	-32	1
-108	2	-9
-274	22	4
-378	-7	15
-392	-81	2
-317	-169	-46
-180	-226	-72
-34	-225	-38
78	-166	-17
139	-69	-13
167	37	9
188	132	43
221	201	40
254	237	9
257	233	-27
196	191	-53
68	117	-69
-96	29	-81
-239	-52	-70
-312	-113	-54
-302	-144	-25
-235	-157	-11
-162	-158	4
-119	-150	14
-110	-127	-5
-99	-84	-27
-50	-16	-24
50	64	-25
180	135	-35
280	171	-19
317	171	5
266	136	24
160	89	15
44	43	4
-38	6	4
-87	-28	-36
-117	-64	-47
-154	-103	-22
-202	-133	-24
-240	-140	-20
-232	-121	-18
-157	-78	-33
-29	-29	-40
115	13	-37
228	42	-29
279	67	-32
266	94	-38
214	123	-42
149	145	-34
86	139	-8
27	92	-9
-34	5	-13
-96	-108	-20
-147	-213	-30
-170	-282	-24
-165	-297	-28
-148	-246	-27
-143	-140	-15
-174	8	-15
-230	170	-36
-268	309	-32
-236	388	7
-94	388	8
142	313	-19
411	198	-14
614	88	-2
677	13	-7
566	-25	-11
321	-63	-3
29	-143	-11
-214	-278	-47
-351	-436	-62
-371	-546	-84
-308	-536	-99
-212	-384	-85
-122	-134	-70
-53	122	-61
-1	298	-51
45	349	-19
87	301	15
115	215	1
120	157	-1
96	145	22
46	154	21
-24	137	0
-107	66	-25
-197	-42	-27
-281	-147	-52
-339	-195	-52
-345	-177	2
-279	-114	55
-142	-49	76
36	-14	42
209	-5	13
329	4	13
371	41	-13
335	101	-50
251	154	-69
148	155	-92
48	88	-107
-43	-27	-96
-122	-140	-80
-189	-196	-70
-231	-185	-53
-239	-124	-37
-210	-65	-26
-156	-48	-7
-97	-72	-4
-44	-108	-11
-2	-107	7
44	-48	23
106	58	16
182	168	26
253	235	36
288	240	13
269	189	-10
193	114	-23
86	43	-25
-25	-11	-31
-108	-54	-35
-161	-98	-35
-189	-138	-33
-202	-161	-30
-203	-149	-46
-182	-99	-56
-132	-22	-55
-45	54	-48
61	105	-38
163	121	-17
232	109	6
253	88	13
229	65	6
171	43	-6
93	14	-9
5	-29	-4
-81	-80	1
-161	-123	-1
-214	-137	-2
-233	-124	-28
-208	-86	-57
-151	-47	-67
-79	-24	-78
-14	-16	-65
34	-9	-36
75	17	-25
119	75	-23
172	150	-15
225	213	-13
245	233	-32
207	191	-41
114	95	-12
-10	-22	-6
-119	-127	-8
-178	-191	-11
-186	-212	-64
-170	-204	-63
-176	-186	-44
-226	-171	-46
-300	-148	-17
-342	-101	8
-285	-13	14
-107	112	27
167	244	18
449	341	4
645	351	3
689	259	-13
578	85	-18
357	-109	-14
104	-259	8
-123	-311	-3
-290	-258	-22
-399	-143	-38
-459	-31	-74
-474	24	-74
-443	8	-59
-352	-47	-40
-203	-87	-31
-20	-59	-40
163	39	-58
306	174	-57
383	283	-46
388	313	-38
326	244	-27
216	110	-27
80	-36	-5
-62	-148	22
-188	-196	37
-277	-196	48
-315	-171	29
-299	-151	-6
-245	-147	-36
-174	-144	-58
-117	-131	-59
-84	-93	-47
-76	-29	-43
-64	48	-59
-26	122	-66
60	179	-37
194	215	-9
341	235	-5
454	229	-23
478	190	-29
392	110	-14
205	-7	-8
-20	-147	-7
-212	-276	-11
-307	-358	7
-281	-361	22
-170	-282	30
-29	-147	15
82	6	-18
130	131	-21
123	204	-31
96	218	-33
78	195	-35
77	155	-34
77	117	-10
44	82	23
-24	43	37
-126	-5	8
-226	-63	-21
-288	-117	-43
-297	-151	-74
-259	-150	-109
-197	-114	-107
-128	-55	-47
-60	11	-16
16	67	-43
109	111	-42
214	136	-38
302	147	-43
345	136	-32
312	106	-21
201	61	-27
38	5	-32
-132	-44	-11
-264	-75	-13
-336	-78	-19
-332	-60	-1
-273	-40	13
-185	-33	9
-91	-49	-7
-4	-78	-8
62	-102	-19
117	-98	-27
156	-52	-19
172	27	-3
167	116	16
129	174	8
67	180	-3
-4	115	-14
-59	4	-32
-81	-118	-43
-64	-208	-57
-24	-234	-51
9	-196	-57
13	-124	-51
-17	-54	-41
-60	-21	-46
-85	-28	-35
-61	-57	-22
14	-68	-5
122	-33	-15
221	54	-20
272	164	-16
261	247	-19
191	268	-10
89	210	-5
-19	96	6
-112	-35	4
-185	-139	5
-231	-195	-6
-248	-200	-13
-234	-176	-32
-184	-138	-63
-104	-95	-61
-10	-40	-59
78	30	-43
139	109	-20
169	181	-6
166	225	0
143	230	12
110	193	6
68	134	-10
21	71	-48
-28	15	-80
-77	-35	-69
-115	-85	-56
-136	-135	-33
-139	-175	-16
-130	-190	0
-108	-163	-4
-69	-97	0
-12	-9	-8
64	74	-46
150	127	-44
216	145	-21
245	128	-12
212	95	-7
128	51	-4
17	4	1
-92	-47	-5
-176	-101	-18
-229	-142	-11
-258	-167	6
-264	-163	6
-251	-139	-10
-198	-106	-28
-100	-75	-40
32	-49	-46
169	-19	-43
266	26	-32
301	86	-20
276	151	-13
216	197	-23
155	206	-21
107	171	-17
59	112	-32
-16	40	-40
-141	-21	-43
-308	-71	-21
-466	-120	-34
-556	-170	-44
-524	-216	-3
-358	-242	1
-96	-223	-22
195	-147	-48
438	-30	-59
580	100	-59
600	202	-46
515	244	-35
363	215	-50
190	129	-31
34	15	-3
-79	-92	-6
-151	-161	7
-194	-177	38
-225	-145	37
-245	-84	1
-252	-23	-13
-225	14	-16
-156	19	-17
-55	4	3
51	-2	-13
129	24	-46
154	93	-60
130	187	-46
84	267	-18
47	290	-11
36	237	-14
40	120	-16
33	-27	-25
-7	-157	-45
-76	-237	-67
-148	-260	-65
-181	-238	-39
-162	-192	-11
-94	-129	-7
-17	-52	4
35	48	0
44	161	-33
24	265	-36
5	322	-31
11	298	-34
47	185	-19
91	18	-9
111	-144	-20
85	-249	-17
16	-264	-11
-69	-209	-32
-137	-129	-35
-170	-77	-32
-165	-81	-25
-135	-125	-24
-97	-166	-44
-62	-157	-32
-33	-72	-30
-12	58	-43
-4	191	-51
-10	273	-48
-26	279	-29
-34	224	-13
-10	138	9
63	64	40
175	13	51
291	-18	22
351	-56	1
311	-112	-7
172	-182	-12
-21	-235	-18
-191	-248	-29
-273	-206	-26
-236	-118	-25
-104	-14	-27
55	75	-40
178	130	-46
221	150	-43
188	142	-40
109	118	-33
25	89	-30
-39	51	-26
-84	8	-30
-117	-37	-21
-148	-74	-16
-169	-92	-21
-170	-83	-16
-139	-46	-21
-81	0	-30
-1	40	-32
75	57	-48
132	47	-49
163	19	-27
170	-11	-17
162	-16	-22
139	7	-13
102	53	-3
46	95	4
-23	99	1
-98	47	-24
-160	-54	-30
-201	-174	-35
-214	-265	-14
-202	-292	-7
-173	-241	-20
-127	-124	-32
-69	17	-55
-6	139	-72
52	219	-63
91	244	-46
95	228	-35
67	171	-1
19	103	0
-26	28	-20
-49	-31	-18
-51	-60	-1
-43	-53	3
-46	-19	16
-59	22	34
-71	39	2
-55	15	-17
8	-45	-22
107	-111	-34
210	-145	-51
269	-119	-64
258	-37	-55
190	69	-53
107	157	-52
59	190	-34
64	162	-18
100	90	-33
116	6	-25
64	-65	7
-63	-114	21
-234	-143	27
-378	-164	39
-438	-176	31
-394	-174	2
-274	-143	-15
-126	-84	-43
1	-6	-51
85	65	-46
130	106	-41
159	110	-31
181	80	-32
197	39	-47
187	12	-58
143	4	-50
64	8	-59
-30	3	-56
-113	-23	-33
-162	-75	-16
-170	-127	-20
-148	-158	-8
-107	-136	4
-63	-62	-7
-22	39	-8
12	138	-8
44	200	-9
75	206	-17
106	166	-21
133	104	-19
159	49	-32
172	16	-37
171	3	-32
147	-8	-22
94	-35	-14
16	-84	-38
-77	-141	-46
-169	-186	-36
-243	-196	-19
-282	-165	15
-281	-99	20
-231	-21	28
-132	44	-2
3	86	-35
158	104	-40
301	109	-38
399	115	-42
417	122	-69
344	123	-68
195	105	-58
8	62	-27
-163	-1	-10
-277	-66	-4
-317	-115	12
-296	-135	32
-239	-124	48
-181	-97	42
-128	-64	11
-72	-36	-31
-3	-8	-58
86	26	-75
175	67	-68
240	110	-64
245	138	-55
190	138	-43
91	104	-23
-18	41	-16
-100	-25	-32
-142	-84	-25
-152	-121	-32
-148	-140	-37
-149	-143	-30
-156	-136	-35
-159	-115	-50
-139	-72	-34
-87	-11	-1
-2	58	6
97	120	10
193	153	12
259	149	4
279	114	-6
245	67	-1
163	20	0
48	-17	-13
-70	-51	-25
-169	-87	-33
-226	-123	-35
-233	-152	-50
-201	-153	-48
-148	-123	-37
-86	-63	-26
-27	7	-25
30	67	-36
86	106	-9
139	126	16
182	135	-7
203	141	-12
195	143	1
156	129	-27
90	86	-36
8	15	-37
-84	-70	-51
-173	-147	-51
-247	-192	-49
-285	-200	-35
-273	-178	-27
-200	-139	-1
-79	-99	8
61	-60	-13
184	-16	2
262	36	10
280	94	3
258	139	1
209	162	-7
155	153	-14
100	118	-41
34	76	-67
-53	36	-66
-166	6	-60
-288	-29	-57
-392	-81	-37
-443	-148	-28
-417	-211	-38
-303	-235	-48
-117	-190	-52
115	-72	-44
352	89	-35
547	239	-17
653	323	-5
636	312	9
496	215	33
261	80	56
-18	-47	46
-271	-137	16
-436	-186	-11
-488	-208	-23
-432	-226	-30
-312	-237	-36
-177	-233	-36
-67	-190	-53
-1	-108	-61
35	-1	-60
67	96	-56
118	157	-56
188	171	-26
258	161	32
299	153	38
280	169	19
198	205	8
61	233	8
-101	210	1
-253	114	-11
-361	-46	-16
-410	-227	-41
-392	-365	-43
-321	-411	-41
-217	-346	-56
-97	-196	-63
21	-17	-60
126	132	-51
213	215	-38
276	223	-25
311	183	-27
309	131	-38
259	100	-42
163	93	-46
30	89	-42
-110	59	-35
-227	-14	-24
-288	-119	-23
-287	-223	-28
-232	-280	-26
-152	-263	-24
-74	-175	-13
-10	-50	5
42	63	9
98	131	-16
166	145	-27
239	120	-22
297	86	-14
306	62	-6
255	48	-9
144	32	7
7	4	21
-122	-33	27
-213	-72	21
-257	-92	-14
-260	-85	-28
-240	-61	-31
-207	-36	-34
-163	-24	-26
-105	-20	-44
-26	-8	-68
61	27	-78
143	89	-64
196	158	-40
204	198	-38
170	183	-27
104	106	-7
32	-10	-4
-27	-120	15
-66	-186	20
-95	-186	-10
-115	-133	-19
-137	-56	-17
-156	10	-17
-151	43	-3
-104	43	-16
-8	26	-32
123	9	-35
257	5	-42
346	20	-44
360	41	-57
280	59	-57
132	61	-40
-50	40	-21
-222	5	-16
-344	-39	-12
-393	-80	22
-370	-108	24
-267	-120	-6
-101	-117	-15
93	-103	-32
270	-81	-39
381	-52	-42
385	-20	-36
289	16	-24
140	49	-24
11	76	-25
-42	89	-42
-1	85	-51
91	68	-61
167	41	-60
162	12	-40
60	-18	-11
-102	-46	-4
-262	-68	-8
-360	-80	10
-383	-72	9
-347	-48	9
-291	-11	-5
-234	21	-15
-168	42	-7
-72	46	-18
57	45	-17
202	57	-20
310	90	-27
337	138	-23
268	168	-25
127	150	-24
-26	65	-31
-139	-68	-43
-187	-208	-52
-181	-294	-43
-153	-289	-18
-123	-199	-9
-96	-59	-20
-54	64	-26
10	131	-24
91	131	-20
163	92	-28
196	57	-35
175	53	-22
114	82	-25
39	110	-34
-24	105	-37
-60	43	-38
-80	-65	-36
-93	-178	-57
-107	-254	-66
-115	-259	-51
-110	-198	-8
-92	-97	39
-67	7	62
-49	85	68
-35	128	32
-15	142	7
39	145	-1
136	147	-19
262	149	-28
373	140	-32
422	116	-35
372	71	-49
229	8	-62
41	-56	-70
-135	-116	-67
-253	-158	-69
-303	-178	-56
-296	-177	-41
-262	-153	-33
-215	-107	-9
-156	-39	6
-75	36	6
28	106	-13
131	156	-23
206	168	-27
226	142	-15
192	88	-5
122	25	-18
48	-34	-12
-5	-84	-11
-36	-125	-21
-62	-170	-30
-105	-210	-53
-165	-235	-74
-226	-217	-42
-258	-137	-4
-236	6	16
-156	183	26
-40	340	12
65	424	-1
132	397	-11
143	272	-26
118	94	-38
83	-68	-51
63	-164	-47
65	-181	-36
69	-144	-39
52	-106	-51
-7	-105	-60
-104	-151	-57
-206	-211	-38
-267	-242	-10
-258	-206	10
-163	-104	29
-8	32	43
166	153	30
311	219	0
392	222	-16
396	174	-16
329	112	-18
219	54	-14
87	9	-17
-41	-32	-15
-153	-77	-19
-237	-121	-38
-286	-157	-50
-297	-168	-64
-272	-147	-71
-223	-102	-65
-156	-49	-64
-81	-8	-62
1	18	-58
87	38	-56
175	67	-30
251	116	-16
296	171	-15
288	215	6
216	222	8
99	171	8
-41	68	11
-158	-57	-3
-221	-170	-10
-218	-235	-39
-173	-237	-48
-113	-183	-40
-68	-95	-42
-48	2	-21
-36	86	-2
-12	150	13
39	187	20
107	201	4
166	189	-27
184	150	-42
154	85	-36
83	5	-32
-1	-78	-28
-71	-147	-17
-120	-187	-13
-149	-199	-16
-174	-187	-13
-199	-163	-17
-210	-135	-13
-185	-103	-3
-108	-64	-10
16	-17	-22
154	35	-40
265	88	-52
313	129	-51
284	147	-44
194	143	-44
67	121	-34
-62	88	-22
-174	47	0
-248	7	20
-271	-31	17
-236	-64	17
-143	-90	16
-16	-101	-20
105	-96	-57
175	-80	-65
170	-51	-80
99	-21	-72
7	11	-50
-47	45	-19
-31	79	-2
52	102	-13
154	104	-9
214	74	-5
190	11	-9
86	-71	-26
-51	-142	-26
-166	-175	-21
-214	-151	-11
-193	-78	-18
-130	12	-31
-68	80	-32
-28	94	-32
-8	61	-34
16	5	-44
67	-30	-44
145	-19	-44
229	36	-28
283	106	3
280	150	18
210	143	28
85	88	37
-69	10	22
-225	-56	-6
-352	-95	-28
-428	-106	-32
-442	-110	-51
-378	-117	-56
-246	-124	-62
-71	-113	-64
109	-64	-46
245	15	-44
313	100	-44
302	153	-43
236	147	-35
144	86	-22
62	5	6
1	-58	16
-44	-78	2
-83	-59	7
-123	-39	14
-159	-41	-3
-182	-78	-21
-181	-125	-31
-154	-150	-41
-105	-117	-49
-44	-34	-46
21	70	-43
93	158	-49
163	194	-35
225	182	-30
258	139	-25
252	100	-8
190	72	15
85	52	39
-39	22	26
-149	-33	4
-217	-107	-9
-234	-178	-30
-208	-215	-38
-156	-199	-47
-95	-137	-61
-30	-51	-54
38	30	-41
113	85	-40
190	109	-12
250	110	20
272	105	13
242	101	7
161	100	9
47	95	-14
-67	77	-31
-158	39	-36
-213	-21	-35
-244	-96	-42
-262	-171	-61
-280	-230	-65
-287	-250	-66
-259	-222	-55
-167	-143	-32
-11	-29	-28
182	102	-23
352	225	-16
439	316	-26
419	354	-8
300	327	20
147	229	14
23	72	2
-27	-110	-21
-19	-275	-34
-3	-376	-25
-37	-384	-26
-140	-308	-32
-280	-185	-24
-390	-69	-9
-405	1	11
-304	21	13
-123	23	-21
62	39	-35
190	97	-24
238	183	-28
230	260	-40
207	286	-40
195	241	-30
184	138	-21
134	11	-12
25	-102	-8
-132	-182	-21
-281	-225	-36
-354	-241	-48
-304	-237	-56
-156	-204	-54
25	-144	-43
167	-57	-29
222	40	-30
203	119	-41
158	164	-40
133	169	-15
139	152	7
151	131	19
121	120	31
30	109	19
-102	81	0
-228	22	-11
-292	-61	-17
-284	-142	-32
-214	-190	-51
-132	-185	-65
-67	-127	-57
-30	-43	-35
8	36	-17
67	90	-1
154	115	15
242	119	18
291	119	-6
269	114	-34
176	104	-43
47	77	-27
-80	29	-18
-166	-33	-12
-206	-98	-6
-214	-144	-7
-202	-168	-15
-185	-168	-15
-155	-150	-31
-103	-120	-39
-26	-82	-34
66	-35	-55
156	20	-63
224	79	-56
254	128	-35
244	166	-21
191	181	-10
109	168	3
10	128	-5
-84	62	-12
-149	-23	-10
-165	-118	-1
-133	-201	-10
-71	-250	-32
-15	-243	-43
12	-177	-46
3	-64	-56
-25	60	-53
-39	158	-36
-20	201	-16
35	174	-7
95	108	-6
124	30	0
101	-23	-8
26	-36	-27
-72	-18	-47
-165	8	-31
-228	13	-16
-259	-17	-30
-263	-80	-19
-247	-153	5
-193	-207	24
-88	-216	30
68	-166	6
248	-58	-15
397	84	-23
459	227	-44
406	328	-61
258	354	-74
79	287	-86
-63	145	-80
-129	-30	-58
-130	-182	-28
-109	-270	-7
-115	-275	-2
-164	-224	15
-225	-160	22
-245	-120	13
-182	-117	7
-45	-126	3
119	-109	-36
238	-40	-64
263	79	-38
196	211	-28
81	313	-23
-23	339	-13
-78	284	-14
-83	171	-23
-72	43	-32
-87	-65	-31
-141	-136	-44
-218	-167	-58
-284	-164	-59
-300	-139	-50
-258	-99	-45
-169	-45	-10
-54	12	59
64	62	67
180	96	26
292	103	11
396	89	-5
469	61	-20
496	33	-19
462	7	-22
370	-19	-21
232	-48	-33
80	-89	-46
-65	-129	-56
-184	-166	-57
-269	-182	-44
-313	-173	-36
-311	-136	-32
-262	-81	-19
-176	-15	-10
-69	51	-27
29	110	-28
101	158	-21
132	187	-32
133	192	-32
110	174	-12
72	132	-1
24	76	-9
-35	9	-4
-104	-52	0
-170	-102	3
-221	-135	-1
-235	-151	-27
-209	-150	-47
-156	-132	-56
-86	-101	-54
-24	-56	-56
23	0	-56
57	63	-54
92	126	-37
124	173	-25
154	195	-25
163	183	-12
135	137	-8
70	68	-11
-20	-12	-16
-108	-84	-9
-173	-139	-14
-200	-173	-9
-195	-188	-3
-169	-186	-16
-134	-167	-36
-92	-125	-67
-36	-53	-70
42	42	-48
147	148	-38
260	233	-26
355	265	19
407	230	32
395	124	-1
302	-13	-25
145	-136	-39
-67	-192	-32
-305	-167	-26
-526	-76	-35
-676	27	-36
-708	81	-23
-588	49	-9
-321	-60	-10
30	-189	-16
373	-260	-25
604	-216	-30
662	-55	-35
551	165	-28
335	354	-3
110	429	-11
-50	357	-28
-115	170	-12
-113	-53	4
-94	-230	-1
-104	-309	-15
-154	-286	-27
-221	-207	-7
-266	-119	-3
-267	-53	-20
-215	-13	-8
-121	17	-4
-2	51	-11
128	92	-15
260	120	-22
371	122	-27
435	91	-28
422	37	-28
324	-16	-33
155	-55	-40
-32	-74	-55
-186	-86	-55
-269	-98	-53
-280	-118	-46
-245	-133	-33
-200	-129	-24
-165	-97	-26
-130	-36	-35
-80	35	-34
5	99	-36
111	138	-36
208	156	-41
258	157	-41
242	147	-30
166	130	-24
59	99	-18
-36	50	11
-107	-17	31
-147	-88	22
-174	-143	17
-194	-170	13
-208	-159	11
-198	-123	9
-156	-75	8
-77	-28	-13
21	15	-32
113	55	-28
178	96	-44
206	134	-50
203	161	-48
175	160	-46
135	126	-52
79	65	-63
7	-7	-51
-74	-79	-44
-152	-130	-37
-210	-160	-4
-237	-169	31
-227	-161	48
-187	-137	32
-132	-96	-4
-70	-37	-20
-2	32	-41
77	103	-55
169	161	-60
262	197	-63
337	211	-62
363	205	-62
317	180	-55
202	130	-23
41	45	11
-119	-78	18
-239	-226	10
-291	-357	-11
-273	-429	-30
-209	-408	-39
-130	-288	-36
-66	-110	-34
-21	65	-44
14	185	-52
50	229	-49
92	213	-44
122	185	-43
121	174	-24
77	192	-12
0	204	-2
-85	171	10
-139	75	8
-150	-66	-5
-125	-206	-10
-96	-286	-7
-94	-274	-11
-125	-190	-9
-163	-77	-6
-162	15	-9
-89	57	4
52	60	17
222	55	-2
351	65	-16
392	103	-24
326	144	-18
192	162	3
44	133	-17
-60	62	-38
-107	-25	-41
-106	-101	-58
-96	-147	-75
-106	-162	-70
-147	-157	-84
-199	-150	-106
-232	-144	-103
-209	-135	-35
-118	-113	38
31	-61	21
205	14	18
355	103	39
439	182	36
428	228	29
317	221	-8
133	157	-37
-68	51	-45
-235	-68	-50
-325	-166	-49
-329	-214	-47
-262	-204	-43
-166	-144	-18
-75	-64	15
-14	10	19
17	60	30
37	92	12
65	114	-10
107	134	-15
155	156	-25
184	161	-32
180	140	-45
131	90	-60
46	19	-81
-52	-47	-90
-149	-97	-101
-221	-119	-93
-262	-125	-54
-263	-127	-2
-231	-126	31
-159	-116	44
-60	-82	22
54	-20	-4
163	58	1
245	123	-26
281	151	-27
266	130	-13
202	79	-9
104	24	-14
-7	-7	-20
-111	-11	-24
-189	-4	-34
-236	-12	-25
-245	-50	-31
-221	-107	-25
-170	-157	-6
-102	-169	-10
-24	-131	-51
54	-58	-70
122	17	-37
169	67	0
182	89	12
160	96	19
107	117	16
36	164	-16
-34	229	-41
-87	274	-43
-113	259	-51
-118	158	-51
-107	-19	-24
-92	-235	-16
-80	-426	-5
-65	-535	-3
-46	-519	-21
-13	-390	-21
38	-179	-35
101	54	-41
169	243	-42
226	341	-53
259	333	-43
257	241	-24
212	110	-16
126	-6	-17
14	-76	-14
-101	-93	-19
-190	-76	-11
-234	-53	1
-224	-48	1
-175	-60	-4
-112	-81	-11
-54	-82	-13
-15	-51	-23
18	7	-37
54	79	-41
105	144	-39
160	183	-40
198	186	-42
188	155	-38
123	95	-34
12	21	-30
-109	-53	-30
-203	-116	-19
-246	-156	-7
-236	-167	-5
-195	-152	-16
-151	-121	-23
-118	-83	-28
-95	-48	-35
-61	-15	-39
-4	19	-35
78	59	-22
166	105	-15
234	147	6
256	170	20
226	160	24
150	116	10
58	48	-12
-29	-26	-20
-98	-89	-34
-147	-130	-32
-180	-145	-33
-195	-142	-33
-191	-123	-28
-156	-92	-32
-87	-51	-32
11	1	-28
118	56	-27
212	103	-32
269	129	-35
278	127	-34
238	101	-35
161	58	-40
63	16	-35
-36	-20	-11
-124	-45	-6
-191	-66	-37
-232	-89	-51
-247	-115	-46
-232	-136	-40
-187	-141	-23
-117	-121	1
-27	-70	35
67	-5	37
151	60	15
204	109	-4
216	131	-27
189	135	-33
130	126	-45
64	116	-48
4	103	-38
-41	85	-25
-78	52	-10
-120	2	-8
-183	-59	-30
-261	-120	-31
-329	-162	-13
-350	-173	-20
-288	-145	-23
-139	-88	-27
75	-16	-32
296	48	-46
470	82	-54
558	72	-40
541	24	-37
445	-41	-34
300	-93	-34
141	-104	-19
-9	-63	-18
-141	2	-29
-253	59	-18
-333	68	-19
-378	22	-17
-374	-55	-10
-321	-116	-26
-231	-118	-19
-120	-50	-3
-13	62	3
77	169	3
132	225	2
151	217	9
131	168	-9
89	106	-21
39	58	-27
5	19	-35
-4	-35	-28
9	-121	-28
28	-227	-26
24	-311	-28
-15	-322	-36
-87	-238	-46
-159	-77	-53
-195	103	-38
-167	233	-48
-78	265	-62
39	204	-40
139	93	-6
187	-8	13
172	-60	9
120	-56	14
62	-13	5
25	29	-11
11	41	-24
3	19	-40
-22	-30	-43
-69	-82	-32
-126	-116	-36
-162	-124	-37
-151	-101	-10
-85	-54	-8
21	2	-14
133	53	-3
222	94	-10
266	112	-17
262	113	-15
218	96	0
148	63	5
61	21	-8
-30	-27	-23
-119	-69	-36
-189	-95	-44
-232	-95	-68
-239	-72	-83
-211	-45	-64
-161	-30	-39
-99	-45	-17
-37	-80	12
22	-111	11
77	-101	-5
127	-34	-12
164	76	-11
180	188	-12
162	250	-20
105	229	-41
20	132	-50
-81	5	-37
-172	-99	-40
-236	-147	-45
-260	-134	-53
-241	-97	-42
-183	-69	-29
-105	-66	-5
-24	-70	-1
40	-50	-12
71	18	-4
78	123	-4
67	233	-3
70	298	-10
106	283	-19
169	195	-25
234	60	-21
257	-84	-27
196	-199	-35
42	-274	-30
-166	-303	-33
-360	-291	-21
-459	-245	-8
-431	-172	7
-262	-89	30
-18	-16	22
229	33	-11
409	61	-36
484	82	-63
459	115	-70
359	166	-59
226	209	-58
87	211	-51
-31	143	-39
-126	13	-24
-192	-137	-32
-232	-242	-40
-247	-261	-26
-241	-192	8
-221	-80	28
-180	14	22
-122	50	1
-42	35	-30
49	8	-28
133	14	-25
192	68	-28
207	144	-16
178	193	-2
121	179	0
61	103	-1
11	4	-8
-24	-74	-38
-61	-106	-47
-111	-99	-60
-173	-87	-68
-234	-92	-56
-264	-111	-56
-248	-113	-52
-172	-64	-23
-54	38	-6
72	168	-2
172	261	11
232	279	5
244	207	-16
214	84	-34
161	-34	-43
89	-105	-35
5	-112	-26
-88	-90	-32
-174	-75	-26
-239	-98	2
-257	-152	22
-218	-208	26
-125	-237	56
3	-208	52
133	-126	-14
241	-4	-39
297	127	-57
