File Name: not saved
Channel 2: 'Channel 2', 11320 values, raw ADC, no filters.
Channel 3: 'Channel 3', 11320 values, raw ADC, no filters.
Channel 4: 'Channel 4', 11320 values, raw ADC, no filters.

69	197	14
15	145	43
-35	53	28
-82	-58	2
-122	-154	-23
-144	-204	-30
-143	-198	-42
-113	-148	-40
-60	-80	-34
3	-21	-32
63	15	-27
115	36	-22
159	53	-8
192	81	-7
211	113	-19
203	137	-32
159	137	-40
79	102	-46
-20	40	-40
-117	-30	-22
-186	-86	-14
-224	-115	-13
-234	-119	-10
-229	-108	-14
-222	-93	-19
-200	-74	-30
-157	-50	-16
-78	-14	-12
34	32	-39
156	81	-42
254	116	-50
301	127	-34
288	120	-13
227	100	-19
141	79	-11
48	56	2
-39	23	7
-126	-38	-4
-207	-131	-17
-271	-235	-25
-296	-316	-32
-267	-325	-35
-184	-246	-38
-61	-93	-35
68	84	-20
172	223	-32
236	283	-47
255	265	-12
242	201	-4
207	128	-16
154	75	-16
76	31	-18
-24	-23	-20
-135	-102	-19
-233	-196	-27
-291	-263	-41
-299	-271	-37
-256	-203	-40
-181	-90	-40
-99	17	-31
-21	78	-27
52	82	-19
130	58	-20
216	53	-17
297	91	-12
350	161	-13
346	215	-12
276	211	-13
141	139	-23
-28	28	-25
-195	-69	-16
-321	-119	-26
-386	-115	-38
-377	-89	-30
-304	-81	-22
-191	-105	-31
-63	-141	-44
50	-149	-43
132	-97	-50
179	11	-21
194	131	5
191	214	1
179	224	7
162	166	-5
131	81	-5
81	6	4
4	-39	3
-88	-64	-12
-175	-95	-26
-234	-142	-27
-245	-192	-25
-207	-215	-32
-126	-185	-35
-27	-98	-21
74	15	-25
159	116	-26
215	170	-31
241	171	-31
229	139	-21
189	97	-18
130	62	-23
66	29	-30
8	-9	-32
-41	-61	-25
-89	-112	-30
-138	-141	-38
-193	-133	-18
-244	-86	-23
-267	-24	-23
-245	22	-21
-166	35	-22
-42	24	-16
96	17	-13
210	37	2
270	96	0
269	168	-12
212	209	-31
127	185	-42
34	95	-37
-47	-34	-34
-116	-149	-33
-167	-200	-39
-199	-185	-37
-209	-129	-32
-191	-83	-31
-149	-79	-14
-85	-114	4
-16	-155	-10
48	-151	-12
97	-77	-9
135	56	-18
161	191	-30
172	268	-22
167	247	-16
133	141	-30
74	1	-30
-6	-110	-25
-91	-145	-24
-163	-108	-20
-204	-28	-20
-210	38	-28
-181	49	-21
-124	0	-18
-47	-84	-24
38	-154	-4
118	-173	4
178	-122	-11
203	-19	-25
191	98	-38
147	185	-55
87	210	-61
33	169	-33
-7	83	-21
-33	-10	-41
-59	-74	-44
-91	-93	-40
-129	-71	-28
-161	-38	-4
-170	-16	-12
-148	-16	-8
-95	-30	-13
-29	-36	-9
29	-16	9
69	33	9
93	93	-1
109	133	-15
130	132	-23
153	91	-37
161	18	-28
135	-53	-17
72	-100	-15
-23	-119	-27
-122	-116	-35
-195	-104	-47
-222	-90	-55
-194	-72	-41
-133	-47	-42
-55	-8	-30
18	35	-22
79	78	-19
124	103	-20
156	106	-12
171	97	-18
166	76	-37
135	51	-21
79	17	-18
2	-24	-12
-80	-72	-17
-149	-114	-17
-191	-127	-18
-198	-104	-9
-170	-49	2
-114	9	-13
-43	47	-24
27	44	-33
84	15	-17
119	-11	-18
135	-3	-25
138	47	-36
132	116	-40
120	162	-32
94	141	-26
50	50	-20
-13	-82	-14
-89	-204	-24
-162	-263	-24
-212	-249	-21
-227	-175	-30
-204	-88	-21
-153	-20	-16
-89	20	-21
-20	42	-25
42	75	-30
101	122	-24
148	174	-23
175	200	-20
178	174	-18
151	104	-18
98	9	-7
30	-72	-16
-34	-120	-39
-84	-126	-35
-113	-115	-11
-127	-106	-14
-133	-109	-20
-131	-115	-15
-114	-99	-34
-69	-47	-38
6	40	-32
104	135	-28
204	202	-19
276	215	-18
297	171	-40
253	96	-48
152	19	-30
18	-28	-22
-120	-34	-15
-237	-16	-19
-313	7	-15
-341	7	4
-321	-26	20
-267	-88	3
-182	-154	-28
-81	-196	-30
26	-196	-34
126	-138	-40
208	-39	-36
261	74	-11
276	164	-9
258	200	-32
210	170	-24
144	86	-12
69	-14	-8
-5	-97	-12
-80	-132	-13
-151	-122	-9
-206	-84	-35
-237	-46	-48
-226	-32	-33
-166	-39	-28
-65	-54	-7
51	-51	7
159	-19	-16
229	43	-16
245	115	-23
221	168	-32
164	187	-36
100	160	-41
41	96	-32
-6	4	-50
-50	-94	-39
-96	-181	-29
-150	-237	-34
-203	-242	-13
-245	-189	-7
-262	-85	-16
-237	43	-23
-167	156	-22
-60	221	-32
58	224	-44
165	179	-47
234	119	-47
245	74	-45
203	57	-36
121	58	-18
23	47	-26
-70	0	-24
-142	-88	12
-188	-192	30
-202	-265	34
-191	-281	36
-153	-227	41
-92	-120	12
-14	-5	-24
72	83	-40
151	126	-49
210	137	-51
242	138	-55
245	147	-40
225	156	-40
181	145	-30
121	95	-27
46	-5	-36
-39	-127	-35
-129	-234	-26
-208	-280	5
-261	-247	8
-277	-153	-11
-253	-34	-6
-190	64	-10
-103	115	-25
-6	119	-33
82	95	-42
148	65	-40
182	45	-29
184	40	-25
155	34	-40
105	24	-50
46	6	-38
-6	-17	-17
-44	-42	-17
-64	-77	-23
-70	-116	-4
-65	-157	-2
-56	-178	-8
-44	-156	-15
-27	-79	-42
-7	45	-38
11	174	-16
21	262	-24
18	276	-14
2	215	-3
-15	110	-18
-22	12	-28
-12	-43	-30
7	-51	-27
16	-38	-27
-4	-39	-30
-59	-72	-13
-130	-124	-4
-184	-164	-19
-185	-157	-26
-123	-99	-32
-15	-16	-48
101	55	-41
184	88	-30
219	79	-19
209	54	-6
175	48	-12
147	74	-14
124	114	-13
98	137	-32
46	110	-42
-36	26	-44
-134	-92	-43
-221	-196	-41
-262	-249	-48
-248	-229	-33
-184	-151	-23
-93	-46	-31
-1	48	-28
83	109	-34
150	137	-39
204	137	-19
236	122	-9
240	97	-8
202	65	11
121	22	35
14	-29	32
-97	-79	20
-185	-116	-3
-236	-133	-19
-248	-132	-19
-237	-118	-37
-212	-96	-53
-178	-70	-58
-128	-38	-45
-54	3	-44
41	54	-27
148	108	1
238	150	3
288	166	9
285	150	9
234	106	6
147	49	-10
50	-6	-23
-38	-49	-30
-109	-81	-36
-160	-103	-42
-194	-124	-49
-208	-141	-51
-201	-148	-61
-165	-129	-74
-103	-83	-74
-24	-6	-67
58	88	-56
132	179	-23
184	253	-6
211	287	-5
210	272	27
182	196	37
131	66	29
58	-93	16
-27	-243	-7
-116	-334	-7
-198	-339	-20
-258	-253	-21
-287	-117	-26
-273	15	-23
-212	93	-8
-103	100	-26
38	57	-28
184	9	-32
306	-6	-35
369	20	-32
355	68	-32
271	102	-47
144	93	-42
7	48	-23
-109	-16	-34
-189	-67	-36
-232	-97	-35
-247	-107	-39
-237	-114	-20
-209	-124	0
-158	-126	-16
-81	-102	-23
9	-38	-23
96	55	-12
159	148	-17
183	209	-43
167	223	-46
125	200	-51
70	162	-46
16	130	-32
-29	103	-4
-71	58	16
-113	-24	41
-152	-143	36
-183	-264	11
-195	-340	-16
-181	-326	-45
-132	-224	-57
-54	-68	-67
44	79	-61
144	164	-50
234	171	-51
292	129	-50
316	80	-15
299	57	14
241	68	8
150	91	1
31	85	-18
-99	37	-12
-228	-49	-3
-329	-137	-13
-387	-192	-18
-375	-190	-19
-300	-138	-11
-170	-64	-20
-16	4	-26
127	51	-32
231	81	-38
283	104	-17
291	124	-8
269	143	-21
229	145	-30
172	124	-23
97	83	-35
-2	33	-43
-116	-9	-36
-226	-47	-39
-304	-83	-31
-325	-130	-33
-286	-184	-31
-195	-229	-31
-77	-230	-13
41	-170	0
139	-52	-9
208	85	-14
241	189	-27
237	218	-30
197	165	-17
127	61	-22
41	-45	-20
-42	-111	-8
-107	-118	-5
-141	-87	-1
-144	-47	-8
-130	-25	-24
-113	-24	-15
-97	-32	-8
-85	-32	-13
-58	-14	-14
-14	15	-36
52	39	-34
125	47	-28
182	45	-40
201	41	-33
171	45	-33
104	57	-26
17	64	-35
-60	58	-64
-116	35	-57
-148	9	-41
-168	-5	-26
-187	-5	-23
-210	5	-43
-228	3	-30
-215	-22	-14
-160	-67	-1
-54	-103	26
80	-98	30
209	-38	11
300	61	1
332	155	-14
306	195	-41
245	157	-40
167	57	-43
87	-58	-46
8	-140	-41
-72	-161	-40
-155	-134	-17
-229	-98	-6
-276	-87	-9
-279	-107	-10
-229	-134	-21
-129	-124	-38
-6	-53	-51
115	64	-37
211	182	-25
262	244	-21
263	219	-26
222	122	-33
145	1	-26
51	-86	-29
-43	-113	-25
-124	-92	-19
-178	-59	-9
-204	-53	-5
-201	-79	-4
-176	-109	-14
-130	-106	-25
-74	-51	-23
-3	43	-13
72	134	-6
141	180	-5
194	165	-19
212	106	-31
195	48	-15
139	18	-22
56	21	-23
-38	29	-28
-126	12	-32
-194	-41	-3
-234	-117	-7
-234	-181	-2
-200	-202	-12
-135	-181	-34
-53	-137	-30
29	-96	-49
101	-61	-50
152	-16	-35
182	64	-2
189	187	-8
175	318	-40
147	394	-32
92	357	-37
14	203	-24
-75	-18	-22
-161	-215	-46
-221	-313	-52
-239	-286	-30
-211	-182	10
-152	-84	-5
-78	-51	-29
-5	-93	-21
58	-148	-13
117	-143	-20
172	-40	-35
226	129	-17
256	279	-12
249	331	-18
193	244	-23
94	74	-19
-21	-99	-13
-121	-187	-55
-180	-173	-74
-188	-104	-65
-164	-49	-43
-133	-57	6
-120	-112	26
-126	-151	24
-143	-106	8
-140	29	-21
-99	199	-33
-15	317	-24
89	311	-24
181	181	-17
231	-4	-4
221	-145	-5
158	-183	-17
65	-118	-39
-24	-17	-43
-96	40	-56
-136	16	-59
-153	-72	-42
-155	-162	-36
-145	-191	-9
-122	-140	-21
-77	-37	-43
-6	59	-22
80	110	-1
164	106	2
227	81	-19
245	67	-17
225	85	0
158	119	-4
66	131	-7
-34	98	-18
-126	12	-24
-199	-95	-18
-239	-183	-21
-239	-222	-34
-199	-202	-43
-126	-143	-36
-40	-67	-30
44	6	-23
110	74	-25
154	131	-30
182	174	-28
196	193	-34
202	170	-43
192	108	-40
151	19	-36
76	-66	-41
-26	-126	-11
-131	-149	14
-207	-138	1
-231	-120	-23
-200	-107	-39
-129	-102	-36
-49	-94	-26
15	-62	-16
49	-5	-6
60	77	-21
60	160	-26
65	219	-25
82	236	-31
104	208	4
124	138	27
127	45	12
106	-54	-7
53	-141	-3
-23	-195	-17
-120	-200	-31
-215	-153	-40
-287	-69	-71
-315	13	-75
-282	56	-58
-195	35	-38
-71	-34	-19
56	-114	-13
163	-147	-15
228	-94	-13
245	27	-9
230	161	-8
183	230	-10
118	187	-30
36	43	-53
-57	-132	-48
-154	-254	-24
-232	-261	-14
-273	-162	-5
-263	-19	2
-208	86	-9
-115	104	-32
-3	48	-32
105	-19	-27
198	-32	-27
262	42	-16
299	170	-11
297	284	-16
257	320	-1
184	250	9
92	108	-19
-7	-47	-36
-102	-158	0
-181	-206	11
-241	-205	0
-272	-183	-11
-273	-162	-37
-236	-137	-54
-159	-98	-64
-56	-34	-70
51	40	-67
136	103	-51
186	131	-31
196	121	-21
183	91	-19
161	60	-8
138	43	-8
111	30	-6
68	3	-14
-4	-50	-7
-103	-117	-7
-209	-165	-20
-291	-166	-19
-324	-111	-41
-291	-29	-35
-198	35	-31
-68	53	-40
66	22	-59
180	-23	-60
245	-35	-41
259	6	-15
226	83	22
161	149	32
83	152	48
10	75	26
-50	-50	15
-93	-165	2
-123	-215	-17
-143	-186	-9
-147	-103	-33
-126	-11	-64
-72	49	-54
6	76	-40
95	83	-52
169	103	-34
207	142	-31
199	186	-35
157	205	-23
99	179	-31
39	110	-20
-17	21	-20
-77	-55	-42
-143	-111	-35
-217	-149	-28
-274	-179	-29
-289	-210	-42
-245	-225	-24
-141	-205	-4
-12	-138	-20
113	-38	-9
197	65	-15
229	138	1
216	163	9
179	150	-11
136	120	-4
97	100	-10
54	87	-35
1	64	-48
-63	11	-49
-136	-75	-43
-195	-167	-37
-231	-230	-39
-228	-233	-18
-186	-173	-17
-118	-75	-17
-37	26	-14
41	102	-13
109	151	-13
158	180	-29
188	199	-32
196	201	-26
183	171	-9
150	93	-12
97	-26	-5
31	-151	-13
-40	-236	-22
-109	-248	-21
-167	-190	-37
-200	-99	-33
-208	-21	-46
-184	15	-45
-128	14	-38
-43	4	-38
59	16	-26
160	61	-22
237	124	-6
269	168	-4
242	166	-6
164	119	-10
58	48	-21
-46	-17	-19
-118	-64	-14
-151	-90	-4
-148	-103	-32
-128	-110	-38
-113	-105	-31
-109	-83	-32
-111	-38	-8
-98	15	-2
-58	53	-20
8	64	-32
89	46	-20
155	20	-34
186	7	-32
172	16	-11
121	36	-21
51	41	-15
-14	16	-18
-68	-41	-30
-107	-105	-18
-141	-152	-28
-170	-160	-23
-191	-138	-24
-191	-103	-30
-160	-66	-15
-95	-35	-22
-7	8	-11
82	67	0
154	138	-14
196	201	-37
208	224	-41
199	199	-47
172	134	-28
134	62	0
78	4	-12
2	-33	-11
-85	-66	-21
-161	-118	-37
-209	-196	-35
-210	-276	-45
-164	-316	-55
-85	-278	-66
6	-153	-68
87	24	-50
145	192	-46
175	298	-16
188	309	30
180	243	39
155	138	26
107	40	24
40	-24	-6
-40	-56	-16
-128	-66	-8
-201	-74	-35
-249	-80	-37
-264	-81	-26
-250	-69	-24
-205	-47	-23
-136	-21	-30
-49	4	-42
44	26	-57
135	51	-51
207	83	-28
245	119	-5
245	144	2
210	138	-3
151	94	-21
80	16	-35
6	-65	-25
-64	-125	-38
-130	-137	-30
-184	-109	-17
-217	-60	-14
-216	-21	-30
-174	-11	-20
-91	-24	-14
16	-48	-28
124	-56	-12
209	-35	-25
252	4	-20
247	44	-12
200	62	-22
123	46	-32
31	2	-28
-61	-55	-20
-144	-103	-30
-208	-130	-37
-245	-131	-33
-253	-119	-25
-232	-98	-14
-182	-78	-19
-110	-52	-24
-24	-19	-14
62	24	-28
138	78	-52
190	131	-64
211	171	-36
200	187	5
164	171	19
111	125	28
58	59	14
7	-5	-17
-44	-59	-23
-102	-88	-27
-166	-96	-46
-228	-85	-51
-269	-62	-32
-262	-44	-23
-198	-25	-26
-76	-11	-25
72	10	-35
207	38	-29
291	74	-32
305	110	-33
256	139	-20
172	149	-23
86	126	-23
13	79	-29
-43	8	-22
-95	-70	-19
-150	-142	-30
-208	-192	-21
-251	-213	-24
-259	-200	-25
-215	-158	-10
-124	-97	-14
-2	-29	-5
124	33	5
232	81	-17
302	110	-14
332	125	-13
314	131	-13
250	129	-3
150	115	-28
29	82	-15
-89	19	-8
-180	-68	-23
-233	-168	-32
-250	-246	-52
-242	-273	-68
-223	-237	-80
-194	-144	-48
-145	-32	-23
-65	62	-24
44	110	-12
170	113	16
275	92	49
325	81	39
302	100	-1
209	133	-17
76	158	-25
-61	137	-13
-174	62	-18
-247	-47	-43
-273	-151	-32
-261	-212	-35
-212	-210	-55
-134	-160	-67
-38	-85	-48
58	-9	-38
142	58	-46
200	120	-28
225	183	-11
219	236	-15
184	257	-36
124	221	-34
36	125	-28
-71	-7	-55
-181	-135	-58
-263	-215	-25
-299	-230	14
-274	-186	25
-204	-119	32
-113	-60	40
-27	-29	13
41	-24	-31
102	-29	-66
162	-36	-46
226	-33	-15
280	-19	2
300	17	4
257	80	-12
152	168	-14
11	257	-28
-128	305	-40
-231	262	-36
-279	113	-33
-281	-116	-34
-255	-344	-43
-214	-478	-50
-158	-455	-65
-82	-286	-60
19	-46	-32
131	157	-32
234	244	-51
301	204	-37
320	88	-8
290	-15	-1
225	-45	-4
135	3	-11
32	80	-8
-81	120	-9
-197	86	-20
-296	-13	-29
-356	-125	-47
-356	-196	-50
-295	-195	-52
-187	-131	-46
-63	-41	-6
44	40	12
130	99	21
191	140	38
240	174	30
278	201	15
301	200	4
288	157	-8
234	68	-24
132	-41	-30
11	-132	12
-104	-174	26
-189	-157	-6
-235	-112	-30
-247	-70	-55
-229	-56	-69
-188	-61	-83
-118	-57	-97
-21	-16	-109
95	67	-76
207	157	-32
275	204	-11
276	174	8
204	76	-8
84	-51	-15
-49	-147	6
-153	-167	8
-212	-119	-4
-232	-44	3
-232	1	4
-235	-14	-5
-237	-78	-33
-223	-150	-44
-170	-177	-39
-68	-137	-43
66	-38	-24
204	83	-17
302	186	11
340	244	-3
302	250	-34
219	211	-19
108	140	-20
0	52	-9
-96	-36	-12
-168	-104	-39
-214	-127	-46
-229	-102	-36
-209	-43	-50
-160	14	-77
-85	29	-83
-6	-9	-35
65	-82	-7
121	-138	2
166	-133	44
201	-54	29
229	64	8
234	160	6
206	175	-11
136	101	-23
31	-27	-38
-85	-149	-41
-183	-203	-50
-245	-182	-56
-263	-109	-45
-257	-31	-30
-235	10	-21
-204	12	-18
-157	-6	-8
-80	-16	-30
32	-3	-23
161	26	0
277	53	-6
346	60	3
351	47	-13
290	23	-20
190	5	-14
81	-3	-33
-12	-9	-20
-84	-19	-23
-142	-39	-25
-195	-60	-25
-244	-69	-56
-271	-52	-51
-258	-11	-63
-194	39	-47
-87	79	-12
37	88	-19
148	66	4
214	33	12
231	13	-4
206	23	-12
154	63	6
89	111	11
18	129	-11
-56	90	-12
-134	-11	-25
-205	-143	-42
-253	-254	-47
-259	-294	-55
-214	-237	-37
-123	-101	-21
-4	61	-37
115	190	-34
210	249	-28
262	236	-52
269	181	-64
234	130	-52
167	103	-49
82	99	-47
-12	89	-12
-103	45	49
-181	-40	69
-236	-155	10
-259	-263	1
-244	-334	-18
-191	-342	-52
-109	-288	-12
-12	-183	-4
81	-52	-5
150	72	-23
187	170	-32
191	215	-28
166	206	-27
124	147	-30
78	65	-42
30	-7	-41
-16	-51	-36
-62	-62	-26
-110	-59	-18
-151	-59	-23
-180	-78	-30
-185	-101	-31
-163	-110	-30
-107	-84	-25
-24	-17	-32
75	67	-30
175	144	-19
260	183	-23
306	180	-26
299	145	-15
230	100	-18
117	65	-25
-19	40	-29
-139	17	-35
-218	-19	-17
-240	-72	-37
-214	-136	-49
-162	-191	-36
-109	-216	-38
-68	-201	-11
-41	-148	-2
-13	-65	-15
32	28	-28
92	114	-18
155	171	-23
198	193	-29
203	169	10
163	115	29
88	48	24
2	-3	-14
-72	-24	-38
-122	-21	-57
-150	-15	-52
-164	-37	-15
-175	-100	-21
-182	-186	-44
-180	-246	-45
-153	-226	-45
-100	-104	-41
-24	90	-10
60	280	6
131	380	12
175	332	10
184	154	-15
159	-71	-13
109	-246	-1
46	-296	-8
-21	-227	-31
-87	-102	-52
-139	-9	-42
-170	-1	-31
-169	-60	-21
-134	-127	-38
-71	-136	-27
4	-59	-11
74	68	-41
128	185	-52
166	233	-42
194	206	-17
216	138	-5
236	84	7
232	60	16
189	56	29
95	31	7
-38	-46	-21
-185	-157	-27
-300	-251	-56
-350	-273	-52
-325	-203	-53
-239	-75	-64
-118	46	-53
2	104	-51
101	90	-24
175	40	4
225	15	6
252	47	9
248	126	-16
204	202	-43
117	215	-37
-1	150	-32
-125	27	-22
-228	-103	-26
-280	-189	-31
-281	-213	-25
-243	-191	-24
-184	-153	-23
-123	-118	-11
-61	-93	-21
4	-64	-49
89	-23	-49
184	32	-40
283	85	-40
354	127	-30
366	156	0
306	171	21
171	182	6
-10	171	-8
-205	127	-14
-364	36	-16
-455	-95	5
-455	-229	-15
-374	-317	-44
-235	-319	-35
-80	-230	-13
57	-81	-13
155	68	-24
210	170	-30
240	202	-51
260	180	-70
270	139	-32
263	114	18
224	110	26
144	116	19
33	100	17
-79	45	-2
-163	-45	-27
-208	-148	-18
-219	-232	-18
-214	-263	-23
-207	-238	-27
-195	-166	-24
-160	-67	-28
-81	26	-58
39	98	-62
175	131	-48
280	131	-45
319	106	-49
279	71	-32
175	34	-14
60	0	-10
-42	-30	-4
-113	-59	-30
-166	-89	-26
-214	-112	-17
-257	-121	-12
-277	-103	0
-244	-59	-28
-149	2	-25
-2	62	-12
148	104	-21
253	120	-20
284	113	-31
245	101	-41
175	93	-33
111	90	-24
78	77	-26
65	41	-13
53	-30	9
16	-126	-11
-54	-213	-41
-143	-257	-33
-221	-237	-23
-260	-155	-25
-249	-40	-12
-191	71	-12
-102	152	-46
4	197	-62
107	215	-63
195	226	-44
245	224	-28
245	195	-29
191	126	1
98	8	24
-5	-133	8
-89	-261	-5
-133	-325	-19
-139	-304	-40
-129	-210	-21
-122	-86	-24
-126	17	-16
-129	66	-9
-112	64	-25
-55	43	-21
35	40	-31
138	71	-44
216	127	-56
245	165	-23
216	150	-17
144	64	-48
54	-59	-28
-32	-173	-17
-108	-224	-27
-174	-191	-5
-231	-103	8
-272	-11	10
-281	30	16
-248	10	-2
-163	-45	-22
-38	-82	-34
99	-55	-21
222	35	-16
302	145	-24
332	213	-25
310	202	-33
248	123	-36
155	31	-46
42	-15	-36
-72	6	-30
-183	62	-24
-269	85	-19
-314	27	-32
-310	-111	-31
-258	-261	-24
-169	-333	-32
-60	-270	-34
49	-89	-7
147	128	7
216	279	-4
261	299	-19
267	195	-24
245	43	-35
189	-76	-31
111	-114	-20
18	-86	-30
-75	-41	-24
-157	-32	-22
-215	-70	-23
-242	-126	-44
-240	-163	-40
-209	-149	-12
-161	-94	-21
-101	-27	-40
-31	25	-25
46	57	-19
126	88	-18
198	131	-13
245	187	-21
252	224	-9
211	206	-2
132	122	-5
36	-4	-13
-54	-121	4
-120	-183	-3
-161	-171	-34
-177	-113	-33
-174	-53	-32
-153	-32	-30
-110	-52	-40
-40	-74	-53
51	-60	-39
140	12	-29
205	119	-44
223	209	-49
191	237	-40
124	182	-32
46	72	-32
-22	-39	5
-79	-108	32
-124	-123	15
-169	-105	16
-206	-90	-14
-227	-99	-29
-214	-121	-40
-161	-124	-52
-77	-82	-32
20	3	-40
107	92	-31
175	139	-3
221	116	9
251	40	-11
269	-38	-54
263	-57	-42
221	3	4
124	110	34
-15	191	21
-175	169	-34
-311	28	-51
-389	-181	-48
-386	-351	-33
-313	-391	-20
-195	-264	-28
-67	-34	-19
40	189	-26
118	301	-32
164	258	-32
183	110	-38
181	-49	-27
161	-127	-14
119	-98	-16
63	-11	-14
1	55	-3
-54	35	2
-96	-61	-13
-117	-175	-23
-120	-226	-24
-109	-171	-26
-82	-39	-31
-38	100	-30
25	179	-22
103	174	-22
181	121	-34
238	80	-38
253	93	-33
212	149	-34
125	195	-40
15	171	-30
-91	58	-21
-163	-112	-28
-200	-263	-13
-208	-330	-15
-206	-283	-18
-208	-153	-16
-205	-3	-27
-182	102	-34
-117	132	-32
-14	102	-23
113	48	-23
228	6	-12
292	-9	-30
291	-5	-32
231	-1	-28
140	-6	-22
52	-22	-8
-18	-35	-22
-76	-38	-18
-130	-24	-24
-198	0	-16
-262	25	-14
-305	45	-29
-295	50	-36
-212	41	-40
-70	20	-38
96	-4	-42
242	-17	-14
333	2	25
350	53	26
306	123	-1
224	174	2
129	161	-4
35	61	-22
-55	-107	-20
-140	-278	-31
-221	-379	-37
-274	-353	-28
-291	-209	-49
-256	-14	-72
-170	143	-60
-56	198	-48
59	145	-30
151	38	-8
204	-49	8
216	-63	-5
206	-11	-32
175	63	-39
128	99	-41
66	72	-24
-10	7	-16
-88	-51	-15
-158	-63	-9
-201	-32	-37
-215	5	-52
-198	2	-33
-167	-55	-35
-124	-137	-26
-70	-187	-2
-3	-158	18
83	-48	29
175	99	-3
250	215	-32
280	259	-25
257	221	-25
182	136	-16
87	53	-11
2	8	-40
-51	3	-30
-79	14	-5
-101	17	-21
-137	-3	-12
-190	-46	-1
-240	-101	-32
-258	-153	-44
-218	-188	-28
-128	-194	-31
-16	-158	-34
84	-77	-29
140	36	-28
155	149	-17
141	215	-12
124	213	-6
107	135	-15
85	19	-32
36	-92	-24
-39	-159	-38
-126	-167	-36
-191	-130	-30
-197	-78	-27
-137	-25	2
-28	18	9
89	62	-3
181	105	-9
228	137	-30
237	140	-45
228	109	-23
211	52	-2
184	-2	2
130	-27	-9
37	-25	-22
-87	-11	-44
-210	-25	-41
-299	-82	-27
-325	-171	-24
-291	-246	-19
-221	-261	-28
-144	-194	-32
-83	-60	-47
-34	85	-58
17	190	-34
81	225	-5
156	202	-14
221	155	-24
245	115	-12
216	90	-13
138	65	-26
34	19	-30
-61	-59	-25
-130	-148	-25
-166	-214	-20
-177	-230	-27
-170	-187	-30
-157	-108	-15
-126	-18	-12
-77	57	-24
-8	114	-28
74	163	-22
144	207	-24
191	239	-34
198	233	-23
170	171	-16
115	53	-16
48	-92	-8
-17	-219	-33
-71	-289	-46
-114	-286	-41
-139	-227	-28
-143	-145	-12
-129	-72	-24
-99	-26	-35
-57	11	-18
-12	48	-6
30	100	-17
68	152	-15
105	183	2
138	179	-7
167	131	-19
178	63	-9
164	-2	-16
112	-40	-31
29	-53	-34
-66	-50	-33
-153	-53	-24
-205	-72	-17
-211	-102	-9
-177	-120	1
-123	-108	-24
-63	-55	-45
-10	27	-44
36	111	-40
81	168	-40
127	181	-45
166	147	-43
175	83	-30
145	8	-12
65	-59	-2
-44	-112	1
-159	-152	-1
-243	-176	-4
-276	-192	-30
-255	-192	-27
-197	-174	-13
-126	-126	-29
-60	-52	-31
-2	38	-20
52	130	-15
112	200	-21
172	233	-22
226	211	-26
250	149	-34
234	66	-40
182	-13	-37
107	-59	-33
31	-70	-37
-30	-53	-24
-77	-34	-2
-113	-35	5
-148	-61	4
-178	-102	8
-189	-129	-15
-165	-122	-18
-95	-71	-9
8	7	-29
117	88	-40
196	143	-35
224	162	-17
195	150	-20
132	118	-40
62	84	-43
8	45	-34
-31	0	-38
-66	-61	-26
-109	-135	-21
-160	-203	-18
-202	-238	-14
-214	-218	-24
-177	-148	-35
-97	-39	-33
6	71	-21
101	155	-12
167	200	1
200	206	-7
211	190	-12
212	161	-23
204	123	-41
175	71	-42
107	4	-37
2	-72	-31
-129	-149	-28
-253	-196	-21
-333	-213	-28
-350	-192	-36
-304	-151	-37
-217	-98	-28
-115	-41	-8
-15	14	30
80	74	27
169	131	4
241	178	0
288	198	-25
287	180	-27
229	127	-47
118	48	-61
-18	-38	-53
-140	-121	-54
-214	-191	-40
-229	-242	-40
-189	-263	-43
-116	-246	-40
-38	-182	-24
26	-80	0
66	38	-11
83	139	-20
77	201	-4
60	211	-9
42	185	-13
33	143	-9
33	109	2
32	86	-7
22	59	-37
-15	13	-45
-81	-59	-28
-157	-144	-19
-216	-212	-8
-229	-230	-6
-181	-187	-15
-86	-96	-27
21	10	-39
106	92	-22
148	127	-19
153	120	-20
143	96	-13
140	80	-17
151	84	-19
158	101	-29
132	103	-25
61	71	-30
-43	0	-27
-151	-86	-26
-217	-152	-34
-222	-171	-26
-164	-140	-29
-76	-91	-26
5	-50	-26
52	-42	-21
64	-56	-20
61	-60	-38
67	-21	-27
96	68	-8
136	179	-11
170	257	-13
170	253	-12
123	160	-17
39	11	-35
-65	-131	-40
-161	-209	-29
-225	-205	-30
-240	-143	-22
-209	-76	-15
-140	-44	-26
-51	-55	-36
40	-83	-36
118	-79	-28
167	-17	-22
182	94	-15
167	212	-10
133	283	5
90	274	8
42	186	-8
-9	54	-13
-64	-72	-30
-125	-162	-47
-182	-205	-48
-223	-209	-41
-237	-191	-40
-214	-163	-24
-158	-119	-15
-76	-58	-11
16	25	6
104	114	-6
175	187	-27
222	218	-38
242	199	-55
229	139	-49
184	55	-29
111	-20	-15
22	-76	-3
-69	-104	13
-148	-112	24
-199	-110	-2
-215	-108	-13
-198	-111	-33
-154	-117	-51
-89	-120	-43
-14	-106	-51
64	-64	-47
133	4	-25
181	89	-17
194	163	-32
169	197	-20
111	174	-7
39	113	-27
-21	43	-38
-61	2	-28
-82	4	-24
-94	24	-9
-113	25	11
-141	-39	-5
-163	-161	-7
-158	-291	0
-106	-357	-10
-10	-301	-33
107	-131	-35
210	84	-7
271	251	-9
279	301	-9
241	244	-19
172	140	-51
90	68	-29
-5	65	-22
-110	110	-31
-224	128	-38
-321	61	-43
-378	-89	-35
-366	-257	-38
-282	-343	-40
-159	-297	-46
-30	-134	-44
67	50	-25
121	163	-16
148	160	-13
175	77	-2
216	1	-2
261	7	-26
280	97	-35
242	208	-30
134	244	-34
-17	158	-34
-169	-32	-40
-277	-229	-33
-312	-334	-20
-278	-301	-2
-200	-163	14
-109	-7	16
-23	85	0
52	84	-34
124	30	-32
189	-13	-14
239	7	-24
262	77	-20
242	150	0
179	170	-23
82	122	-36
-25	36	-35
-118	-40	-42
-182	-72	-24
-214	-72	2
-217	-84	16
-199	-131	15
-167	-212	-5
-123	-268	-35
-65	-242	-41
2	-107	-46
77	92	-38
143	265	-32
189	332	-36
198	261	-27
166	108	-22
101	-43	-12
26	-112	-22
-38	-88	-31
-70	-17	-34
-71	29	-32
-55	6	-27
-42	-69	-41
-49	-141	-38
-77	-151	-16
-110	-86	-3
-121	14	-5
-95	88	4
-23	96	-6
71	51	-23
162	5	-18
211	9	-28
207	76	-50
149	165	-63
54	211	-54
-47	165	-52
-136	27	-49
-195	-152	-48
-222	-297	-20
-211	-352	-12
-172	-308	-19
-107	-188	-3
-24	-44	8
61	83	13
138	168	20
191	207	21
211	203	-6
198	161	-16
158	94	-30
100	16	-30
36	-48	-34
-24	-85	-36
-80	-88	-32
-124	-72	-46
-161	-64	-43
-182	-71	-21
-188	-94	-8
-169	-102	-31
-125	-74	-39
-56	2	-24
29	103	-24
115	189	-28
184	225	-20
216	197	-14
209	127	-28
151	46	-24
67	-16	-19
-23	-46	-30
-99	-59	-33
-144	-72	-24
-165	-98	-24
-165	-129	-21
-156	-152	-11
-140	-145	-27
-111	-109	-30
-53	-53	-10
38	6	19
156	56	32
275	100	28
358	141	-9
373	183	-33
316	214	-36
191	209	-39
27	147	-32
-136	22	-32
-272	-138	-35
-355	-292	-39
-378	-384	-36
-344	-378	-49
-262	-277	-42
-153	-121	-44
-37	37	-51
62	149	-22
130	193	-19
164	183	-24
172	150	-26
166	121	-25
159	106	-12
149	90	4
127	56	12
86	-3	0
19	-80	-3
-61	-147	-11
-140	-181	-21
-194	-171	-28
-211	-131	-30
-189	-86	-43
-139	-51	-63
-76	-29	-66
-7	-2	-52
59	43	-27
121	113	-11
172	186	7
206	231	17
216	225	13
195	165	-2
139	74	-21
56	-12	-16
-40	-66	5
-138	-90	0
-215	-93	-16
-260	-101	-21
-261	-124	-31
-222	-153	-45
-148	-168	-54
-53	-143	-59
42	-77	-53
132	18	-32
205	115	-39
254	183	-62
270	208	-51
249	190	-16
184	140	-2
83	71	-24
-43	-5	-17
-165	-82	-14
-259	-149	-20
-315	-190	9
-325	-194	13
-305	-157	21
-255	-88	7
-177	-13	-21
-68	43	-25
65	67	-23
208	65	-25
326	50	-33
383	47	-38
363	66	-38
274	103	-38
156	136	-25
49	149	-12
-17	130	-13
-48	79	-17
-74	6	-28
-119	-74	-43
-197	-148	-38
-279	-202	-7
-325	-233	-16
-299	-227	-38
-195	-184	-33
-43	-110	-49
110	-20	-47
221	64	-41
269	124	-24
261	149	-14
222	137	-15
169	97	7
110	42	9
42	-16	2
-36	-67	-2
-123	-109	-11
-197	-133	-25
-235	-134	-41
-226	-112	-31
-172	-63	-23
-93	3	-32
-10	77	-24
55	142	-10
104	187	-8
139	200	-22
166	171	-31
183	112	-32
182	32	-28
149	-41	-34
81	-93	-54
-16	-114	-66
-121	-108	-57
-206	-95	-6
-253	-88	-1
-248	-94	-11
-201	-99	0
-125	-87	26
-41	-43	36
34	22	10
93	83	-7
130	114	-36
153	103	-44
163	62	-46
159	27	-58
139	24	-51
97	60	-40
31	103	-31
-51	115	-20
-134	61	-6
-198	-49	-8
-227	-175	-21
-214	-257	-18
-162	-254	-20
-91	-166	-26
-10	-30	-16
63	92	-16
124	161	-30
172	169	-22
203	141	-25
211	112	-24
187	96	-23
133	89	-22
59	63	-27
-19	3	-27
-83	-90	-26
-121	-188	-36
-136	-248	-23
-138	-242	-24
-136	-164	-23
-137	-41	-8
-126	89	-2
-91	196	-19
-20	253	-30
78	252	-20
172	195	-28
241	97	-43
252	-24	-47
205	-136	-45
114	-209	-44
11	-223	-19
-84	-175	3
-145	-96	18
-178	-24	19
-187	4	-12
-174	-18	-27
-148	-64	-49
-108	-98	-51
-54	-85	-36
5	-17	-51
62	77	-37
116	159	-11
159	194	-6
184	174	-11
190	117	-9
162	43	-15
101	-29	-18
6	-93	5
-105	-144	-17
-207	-184	-56
-277	-195	-37
-300	-168	-37
-275	-102	-45
-217	-14	-46
-139	68	-27
-53	118	2
39	124	8
139	104	8
238	80	-15
313	71	-23
343	85	-17
306	106	-17
203	110	-7
57	84	-10
-90	30	-18
-200	-37	-18
-251	-96	-19
-245	-136	-27
-202	-149	-36
-149	-137	-39
-99	-108	-55
-56	-58	-63
-10	2	-50
49	67	-33
119	119	-10
182	150	-9
216	150	-20
210	125	-2
159	88	5
78	45	8
-10	4	4
-85	-46	-30
-135	-106	-44
-162	-174	-51
-166	-233	-50
-152	-259	-26
-118	-235	-16
-63	-157	-19
9	-39	0
92	87	4
163	189	-18
209	243	-36
216	240	-38
193	190	-26
139	117	-38
76	40	-23
9	-16	2
-54	-47	13
-116	-59	7
-172	-62	-5
-218	-77	-37
-251	-106	-54
-255	-145	-43
-226	-175	-54
-156	-173	-49
-50	-122	-33
77	-30	-24
202	77	-24
301	165	-6
346	201	-14
323	178	-24
236	109	-16
104	21	-21
-34	-56	-23
-150	-110	-28
-221	-134	-17
-248	-139	-22
-243	-127	-31
-226	-103	-45
-202	-63	-35
-170	-13	-17
-118	35	-2
-40	68	6
58	83	0
160	92	-16
238	114	-41
276	162	-27
267	224	-32
213	259	-25
133	224	-16
39	97	-8
-52	-93	17
-132	-276	6
-186	-376	-24
-206	-351	-52
-184	-222	-40
-128	-61	-34
-54	43	-29
15	57	-39
61	3	-54
80	-45	-24
72	-25	-8
57	72	6
44	197	5
44	264	-9
42	221	-14
33	78	-27
2	-92	-28
-54	-196	-26
-122	-198	-30
-188	-112	-36
-225	-12	-36
-224	34	-44
-177	8	-50
-93	-51	-42
10	-80	-58
111	-39	-53
191	55	-25
239	145	-1
248	171	12
227	118	14
183	19	16
130	-59	6
71	-81	-15
9	-41	-7
-56	9	-6
-123	17	-17
-182	-32	1
-218	-117	-22
-217	-176	-44
-172	-171	-30
-84	-94	-39
26	18	-49
130	110	-47
207	156	-48
239	153	-43
226	130	-36
172	112	-22
101	106	-12
20	94	-27
-53	51	-32
-116	-24	-20
-161	-118	-18
-180	-191	-39
-174	-225	-39
-145	-210	-8
-101	-167	3
-47	-120	19
3	-78	20
48	-29	8
86	43	5
118	145	-15
141	253	-24
154	333	-27
143	340	-18
106	265	-32
44	125	-39
-32	-31	-39
-111	-162	-48
-175	-234	-48
-214	-251	-49
-223	-232	-46
-206	-196	-31
-164	-162	-9
-106	-121	-18
-32	-71	-32
47	-13	-32
124	41	-15
187	80	-24
222	90	-40
221	76	-36
181	56	-21
113	48	-13
30	57	-19
-49	71	-6
-116	65	-18
-164	25	-6
-195	-48	-5
-209	-126	-20
-205	-177	-14
-173	-173	-33
-104	-112	-25
-1	-19	-22
127	74	-21
253	132	-23
340	159	-35
358	162	-24
300	160	-25
175	160	-22
30	150	-7
-102	110	-18
-191	26	-38
-235	-88	-49
-242	-198	-55
-236	-264	-58
-225	-259	-55
-199	-189	-35
-151	-88	-30
-67	0	-15
41	49	16
147	58	51
216	55	38
231	63	5
192	93	-1
123	125	-19
57	131	-16
12	93	-16
-12	12	-20
-32	-77	-37
-64	-140	-48
-111	-153	-43
-157	-117	-43
-178	-59	-40
-156	-11	-67
-91	8	-57
-1	8	-27
85	9	-20
148	33	-33
175	89	-13
178	155	22
163	202	13
136	194	4
98	121	6
42	-2	2
-31	-142	-13
-110	-251	-34
-181	-297	-42
-229	-265	-48
-241	-183	-59
-221	-84	-64
-169	1	-48
-98	47	-22
-13	60	-38
80	57	-45
172	62	2
253	85	46
306	118	29
316	143	11
269	145	13
172	116	-9
44	63	-30
-89	7	-38
-201	-43	-38
-273	-77	-22
-296	-93	-28
-272	-96	-39
-215	-86	-20
-142	-68	-32
-59	-45	-38
24	-25	-28
99	-14	-45
165	-11	-27
212	-11	-3
234	3	-7
228	32	-19
184	76	-26
116	108	-32
29	106	-32
-63	57	-27
-149	-23	-35
-211	-103	-24
-244	-149	-18
-242	-138	-28
-207	-83	-34
-145	-13	-42
-68	38	-46
11	48	-33
80	28	-42
130	-1	-60
154	-11	-40
156	6	-3
136	37	14
104	60	8
57	53	12
0	13	26
-65	-46	20
-130	-102	6
-182	-130	-7
-207	-122	-25
-193	-84	-32
-139	-30	-36
-53	21	-40
41	58	-43
126	81	-40
183	98	-45
206	116	-47
201	138	-40
172	158	-29
132	163	-15
83	135	-17
26	74	-24
-38	-15	-19
-100	-107	-7
-149	-175	-11
-174	-203	-9
-166	-186	-10
-129	-137	-33
-76	-76	-63
-19	-20	-55
32	19	-31
76	44	-39
114	56	-38
150	59	-26
174	52	0
180	34	1
153	7	-19
91	-23	-16
1	-43	19
-96	-54	14
-185	-55	1
-248	-57	-11
-277	-65	-25
-272	-79	-10
-229	-90	-24
-151	-82	-50
-43	-49	-79
77	10	-75
184	80	-75
255	144	-64
273	185	-1
237	189	37
165	155	37
89	89	30
27	8	7
-13	-69	-13
-44	-123	-14
-78	-141	-17
-124	-127	-10
-173	-92	-34
-199	-50	-45
-186	-23	-39
-124	-15	-54
-31	-21	-50
67	-24	-35
139	-17	-27
172	10	-32
169	46	-21
140	81	-17
107	98	-24
77	92	-28
42	59	-34
-4	12	-29
-70	-39	-19
-148	-83	-30
-216	-104	-29
-251	-98	-27
-232	-65	-21
-161	-18	4
-50	28	5
63	60	4
145	75	-11
176	77	-7
159	84	1
111	104	-8
62	127	-2
37	130	-24
37	87	-40
48	-16	-49
43	-154	-42
2	-281	-22
-72	-343	-33
-160	-308	-40
-223	-189	-42
-235	-33	-35
-186	98	-28
-95	169	-40
12	174	-39
107	150	-32
171	135	-22
208	148	-22
225	171	-25
229	171	-27
211	124	-27
166	27	-23
83	-86	-36
-29	-169	-40
-151	-192	-41
-247	-160	-16
-295	-104	-7
-281	-63	-12
-225	-61	5
-139	-87	-2
-52	-103	3
24	-86	0
89	-24	-4
141	61	8
181	133	0
203	162	-11
195	138	-27
155	83	-31
86	16	-41
2	-38	-56
-81	-79	-46
-142	-105	-46
-178	-125	-43
-188	-138	-19
-175	-131	3
-147	-98	4
-100	-33	10
-41	43	-22
29	115	-40
103	157	-30
171	161	-43
216	135	-39
237	90	-48
216	45	-40
161	7	-34
77	-21	-30
-23	-43	-14
-121	-64	-16
-200	-84	-25
-246	-101	-31
-251	-107	-17
-215	-102	4
-144	-77	17
-52	-33	0
45	21	-18
133	80	-17
199	124	-13
234	145	-25
234	138	-11
202	106	-12
148	61	-42
75	12	-33
-11	-31	-36
-98	-69	-47
-182	-105	-51
-245	-137	-47
-277	-162	-36
-264	-169	-26
-207	-147	-34
-108	-91	-38
7	-16	-13
113	57	6
186	110	19
215	137	10
207	142	2
174	142	1
135	154	-3
93	168	-11
50	162	-30
-2	106	-33
-64	-8	-42
-130	-162	-48
-187	-301	-59
-217	-368	-42
-217	-322	-28
-186	-183	-38
-133	1	-40
-67	153	-45
6	221	-30
86	194	-5
169	109	13
238	21	-4
277	-27	-11
266	-27	2
198	-2	6
82	12	-16
-51	-4	-40
-172	-41	-22
-247	-79	-31
-267	-87	-28
-241	-66	-25
-182	-36	-44
-112	-21	-36
-41	-32	-43
23	-56	-54
82	-60	-43
128	-14	-36
161	83	-26
170	197	-5
158	272	17
125	261	16
83	154	0
36	-16	-13
-13	-181	-30
-64	-281	-30
-119	-289	-19
-166	-215	-21
-194	-113	-24
-187	-27	-12
-139	13	8
-60	20	-10
28	21	-29
104	49	-21
151	112	-20
164	185	-30
154	236	-45
126	228	-59
88	158	-64
34	45	-42
-37	-69	-18
-124	-145	-7
-207	-170	14
-258	-145	20
-250	-101	-3
-175	-61	-26
-49	-44	-27
90	-48	-31
207	-53	-25
273	-44	-16
283	-7	-23
249	48	-22
194	103	-24
135	135	-29
82	130	-35
28	93	-22
-32	36	-19
-102	-15	-16
-178	-53	-10
-239	-75	-24
-273	-94	-28
-264	-118	-37
-221	-147	-39
-142	-164	-47
-51	-145	-51
36	-79	-42
106	29	-40
158	143	-24
190	222	-8
204	236	-11
200	180	-1
171	84	8
120	-14	-2
44	-78	-9
-37	-97	-24
-119	-92	-36
-184	-84	-41
-221	-94	-38
-226	-118	-24
-197	-137	-14
-140	-126	-27
-55	-72	-30
43	8	-21
145	94	-23
234	154	-36
283	179	-41
287	168	-30
241	134	-20
156	92	-21
46	44	-31
-65	-5	-12
-170	-62	4
-256	-120	1
-315	-168	-4
-338	-186	-13
-319	-173	-7
-250	-122	-10
-139	-47	-14
-8	36	-41
118	114	-41
210	166	-38
254	189	-52
252	180	-55
216	141	-53
167	92	-42
107	45	-42
43	16	-16
-32	1	20
-115	-11	44
-193	-44	35
-242	-109	11
-239	-196	-1
-174	-280	-25
-63	-316	-39
59	-278	-51
155	-165	-60
199	-11	-50
191	134	-32
148	230	-19
102	247	-7
72	202	-8
61	117	-30
53	31	-40
24	-33	-42
-39	-76	-38
-128	-96	-21
-210	-111	-16
-251	-121	-9
-227	-125	-7
-143	-110	-45
-36	-71	-36
55	-6	-25
99	81	-41
95	170	-15
65	243	-10
46	267	-23
61	233	-24
105	139	-1
147	11	4
150	-112	8
92	-191	-19
-19	-203	-40
-147	-157	-9
-247	-86	-18
-281	-32	-21
-248	-20	-25
-158	-42	-33
-44	-75	-34
61	-77	-36
148	-30	-10
208	53	-12
245	137	-43
262	180	-36
255	165	-20
216	100	-12
150	24	-22
59	-28	-25
-41	-36	-12
-145	-17	-21
-239	1	-14
-310	-11	-19
-343	-57	-29
-324	-115	-47
-244	-151	-48
-109	-137	-27
49	-72	-20
190	18	1
280	104	6
300	153	-15
258	159	-47
186	124	-47
109	68	-41
37	1	-55
-29	-69	-49
-105	-135	-30
-189	-185	12
-262	-203	29
-302	-183	10
-279	-129	3
-195	-59	-9
-74	-4	-31
44	22	-41
128	29	-40
166	37	-26
170	71	-30
162	136	-30
162	206	-26
165	240	-23
155	202	-9
114	92	-6
37	-49	-7
-58	-167	-14
-153	-215	-28
-217	-183	-40
-241	-104	-35
-224	-28	-21
-173	6	-24
-97	-3	-32
1	-30	-18
110	-36	-8
216	4	-7
291	76	-11
314	149	-28
271	182	-33
175	160	-33
54	88	-27
-60	-3	-33
-144	-83	-42
-193	-131	-46
-215	-150	-52
-226	-142	-36
-227	-117	-11
-209	-70	2
-157	-3	14
-64	79	30
52	152	21
167	190	-11
245	170	-32
267	99	-42
229	1	-38
148	-80	-32
50	-111	-20
-39	-93	-30
-108	-51	-62
-156	-27	-43
-186	-45	-14
-206	-103	-22
-212	-168	-25
-203	-196	-7
-169	-169	-6
-103	-90	-12
-6	8	-21
111	86	-33
228	129	-31
314	142	-61
346	148	-51
311	158	-24
218	168	-46
97	152	-25
-20	92	5
-107	-14	16
-156	-135	3
-174	-226	-12
-185	-251	-21
-199	-205	-27
-214	-115	-13
-214	-22	-27
-176	40	-23
-93	69	-19
26	85	-25
148	105	-25
234	140	-47
258	174	-35
216	178	-24
132	129	-29
32	35	-25
-51	-65	-33
-104	-131	-25
-124	-136	-9
-129	-88	5
-129	-30	17
-132	-6	-6
-130	-39	-44
-113	-111	-41
-65	-175	-32
9	-179	-30
100	-106	-28
182	23	-34
231	154	-33
237	228	-28
199	218	-13
137	137	-20
67	32	-38
0	-56	-40
-59	-98	-35
-114	-100	-45
-162	-86	-52
-202	-77	-27
-221	-81	-2
-209	-86	8
-167	-79	16
-98	-47	14
-16	2	0
67	51	-11
141	92	-13
203	114	-16
242	124	-23
251	121	-18
221	106	-27
150	75	-42
49	18	-28
-60	-54	-10
-153	-129	-10
-203	-179	-13
-208	-189	-8
-178	-148	-22
-132	-69	-35
-86	24	-21
-45	110	-26
-3	168	-42
44	186	-43
99	161	-34
147	103	-27
169	27	-29
144	-41	-27
81	-80	-17
-10	-84	-20
-99	-61	-22
-161	-36	-32
-187	-38	-40
-181	-71	-31
-159	-127	-14
-126	-169	-10
-90	-166	-15
-39	-100	-14
27	12	-30
107	131	-32
180	221	-31
228	252	-22
234	225	-6
196	150	-10
130	57	-13
58	-41	-20
-4	-128	-27
-48	-195	-27
-81	-229	-48
-110	-224	-61
-139	-181	-37
-167	-113	-23
-181	-45	-5
-172	5	-16
-133	31	-34
-69	41	-28
5	56	-36
75	81	-12
124	112	-10
147	132	0
141	126	-1
115	88	-22
76	30	-25
26	-24	-24
-23	-59	-15
-69	-76	-24
-109	-83	-28
-129	-94	-34
-122	-108	-31
-80	-114	-29
-4	-94	-15
89	-33	-9
172	54	-36
226	147	-22
229	211	-17
184	235	-43
111	212	-30
33	161	-14
-33	97	-10
-85	33	-7
-126	-30	3
-172	-94	3
-218	-155	-16
-253	-203	-30
-259	-222	-45
-218	-200	-63
-131	-138	-70
-18	-53	-65
91	31	-45
172	99	-36
212	139	-19
216	158	37
201	158	51
175	139	44
139	102	21
89	38	-7
16	-45	-18
-69	-136	-41
-153	-210	-32
-215	-248	-37
-234	-236	-42
-210	-183	-50
-153	-112	-66
-83	-40	-44
-8	16	-12
60	64	-15
124	107	-32
180	153	-4
216	193	-21
234	208	-36
214	183	-40
162	114	-39
84	18	1
-3	-74	21
-87	-130	-5
-156	-140	-40
-204	-117	-39
-231	-83	-33
-230	-60	-30
-198	-51	-31
-136	-42	-40
-51	-11	-25
41	48	-2
124	119	-11
184	169	2
214	163	-7
212	101	-21
183	3	-18
126	-84	-32
46	-127	-17
-48	-124	-18
-150	-97	-17
-237	-86	-20
-285	-108	-32
-273	-153	-38
-203	-178	-40
-86	-143	-52
46	-35	-43
160	121	-13
229	268	-17
244	350	-25
216	333	-19
169	229	-40
115	81	-54
64	-58	-13
13	-151	-23
-49	-184	-40
-121	-171	-21
-194	-135	-18
-253	-99	-8
-286	-72	-22
-282	-61	-15
-253	-57	1
-202	-59	-10
-136	-51	-12
-52	-31	-6
53	4	6
180	50	-7
302	95	-23
394	127	-21
409	131	-32
336	110	-45
189	72	-51
12	27	-44
-145	-16	-39
-244	-58	-36
-276	-100	-30
-253	-141	-17
-204	-168	-15
-145	-164	-12
-82	-118	-9
-5	-32	-51
86	71	-57
178	164	-47
249	215	-36
268	214	-12
228	171	11
139	109	66
34	49	61
-54	1	-14
-108	-39	-54
-130	-83	-49
-136	-127	-39
-141	-170	-20
-152	-189	8
-152	-173	10
-130	-123	13
-75	-53	3
10	14	-13
107	66	-21
186	99	-38
229	114	-54
231	122	-57
196	122	-47
138	108	-40
69	74	-35
-1	18	-40
-76	-49	-55
-147	-108	-61
-214	-147	-28
-262	-156	-17
-281	-138	-30
-260	-106	-11
-194	-64	-11
-93	-19	0
34	32	11
166	88	7
282	143	11
365	185	-11
397	203	-31
366	188	-26
275	140	-20
136	68	-26
-25	-24	-38
-176	-126	-35
-287	-224	-18
-335	-301	-30
-321	-330	-45
-262	-296	-37
-181	-190	-48
-103	-34	-45
-38	129	-61
9	252	-57
47	299	-30
85	265	-28
121	179	-1
148	85	1
151	21	-6
118	-3	16
40	-3	-3
-69	-13	-25
-194	-55	-23
-295	-127	-22
-340	-200	-2
-315	-230	-20
-223	-194	-5
-89	-98	7
48	23	-33
161	126	-21
236	171	-36
278	155	-30
300	95	-2
302	23	-11
288	-28	-22
237	-45	-27
147	-31	-33
27	-7	-36
-94	4	-25
-186	-6	-28
-232	-43	-33
-232	-94	-37
-205	-139	-32
-170	-160	-40
-137	-142	-52
-97	-91	-46
-34	-13	-28
52	68	-2
154	135	1
234	174	-4
267	183	-20
240	166	-20
163	128	-11
64	79	-20
-27	20	-21
-101	-38	-12
-157	-93	-20
-203	-131	-24
-239	-150	4
-250	-137	21
-221	-102	-14
-138	-48	-49
-17	12	-50
114	70	-77
221	116	-74
275	148	-48
269	154	-25
216	137	12
139	94	15
56	32	21
-22	-34	24
-95	-93	19
-158	-131	3
-206	-148	-10
-231	-147	-17
-223	-135	-42
-188	-120	-54
-128	-105	-69
-59	-82	-55
14	-42	-51
84	12	-48
148	77	-31
196	137	-28
219	181	-25
204	194	-18
151	177	-2
71	131	-2
-9	60	-2
-62	-21	-18
-81	-109	-23
-66	-179	-31
-48	-215	-43
-46	-202	-41
-74	-138	-24
-111	-41	-15
-128	57	-36
-97	124	-25
-10	145	-9
107	126	-17
214	94	-30
262	81	-12
234	90	-5
140	104	-4
17	88	-4
-94	17	-21
-168	-101	-26
-199	-229	-25
-206	-301	-15
-198	-288	-16
-186	-191	-19
-161	-60	-35
-113	40	-45
-40	72	-45
48	43	-43
129	0	-26
184	-6	-40
203	48	-20
186	137	15
144	205	3
91	206	-9
29	129	-6
-36	14	-18
-104	-90	-21
-164	-139	-28
-203	-134	-38
-213	-108	-32
-188	-94	-50
-139	-110	-57
-79	-129	-58
-18	-118	-43
40	-47	-39
97	69	-13
151	188	10
203	257	6
234	244	16
230	162	3
178	48	-2
87	-48	-17
-25	-107	-35
-129	-125	-27
-202	-124	-18
-231	-122	-36
-216	-120	-52
-172	-108	-43
-105	-68	-37
-30	-4	-25
53	71	-22
135	136	-22
204	168	-24
242	168	-34
238	145	-37
187	117	-40
102	87	-22
11	51	24
-63	-3	16
-106	-81	-9
-121	-167	-9
-121	-243	-18
-123	-278	-8
-129	-260	6
-134	-192	7
-120	-99	-7
-70	-5	-9
7	70	-39
97	125	-48
171	163	-39
210	191	-51
205	213	-39
160	221	-26
90	194	-16
1	131	-18
-96	33	-20
-191	-76	-28
-273	-171	-34
-321	-227	-27
-318	-232	-45
-258	-192	-49
-151	-130	-54
-26	-69	-37
84	-21	-11
162	10	-10
206	31	6
228	54	-6
238	83	-15
242	113	10
228	130	8
183	126	-20
100	92	-37
-10	37	-35
-123	-25	-36
-212	-82	-18
-255	-118	-20
-246	-131	-54
-193	-123	-52
-113	-102	-51
-24	-70	-51
58	-30	-41
120	20	-30
150	79	-14
144	137	-12
111	183	-15
63	200	-3
17	174	6
-17	106	1
-39	7	3
-59	-100	-2
-89	-189	-11
-124	-238	-19
-157	-238	-23
-162	-192	-23
-129	-119	-34
-58	-37	-32
30	33	-31
112	83	-40
167	110	-36
189	123	-39
188	129	-27
172	130	-11
150	122	1
117	103	-7
65	62	-19
-11	8	-20
-101	-56	-40
-188	-117	-55
-248	-159	-56
-267	-174	-51
-245	-158	-32
-185	-117	-12
-104	-58	4
-11	5	-4
83	62	-37
171	109	-19
238	134	-4
269	139	-34
254	124	-11
195	93	18
107	48	5
10	-5	-13
-72	-58	-36
-135	-108	-44
-172	-144	-43
-191	-167	-49
-195	-164	-48
-180	-138	-39
-136	-94	-20
-60	-35	-2
35	28	9
133	89	-9
208	140	-16
238	178	-7
214	193	-4
154	179	-5
70	134	-27
-10	61	-37
-78	-19	-35
-130	-91	-32
-167	-133	-25
-191	-141	-21
-202	-124	-27
-191	-102	-24
-152	-93	-14
-85	-98	-12
4	-108	-20
97	-97	-40
175	-48	-34
221	32	-20
222	123	-42
183	193	-53
113	213	-34
33	175	-31
-42	102	-16
-100	16	-22
-136	-57	-9
-157	-107	14
-163	-141	-7
-156	-161	-2
-126	-169	10
-72	-153	0
6	-106	-27
93	-32	-25
163	56	-28
190	131	-29
163	171	-27
96	174	-36
16	144	-39
-42	106	-52
-60	66	-45
-48	33	-29
-32	-6	-17
-41	-56	-15
-88	-113	-1
-158	-162	-4
-212	-183	-27
-221	-173	-43
-162	-128	-48
-56	-67	-51
64	-1	-52
161	56	-24
212	106	16
222	147	38
207	169	13
184	162	-25
160	120	-32
124	47	-30
64	-37	-30
-20	-108	-27
-118	-144	-15
-199	-147	-18
-240	-121	-27
-228	-89	-25
-168	-60	-24
-82	-38	-22
11	-12	-37
93	30	-38
155	84	-27
191	139	-30
201	175	-34
184	179	-35
143	143	-42
82	81	-39
9	7	-32
-62	-63	-51
-128	-118	-48
-184	-153	-35
-229	-166	-19
-253	-158	24
-251	-127	44
-208	-81	45
-123	-31	24
-8	15	-7
115	49	-19
216	74	-21
274	93	-18
283	112	-26
248	129	-21
184	136	-42
107	122	-53
28	80	-28
-52	19	-30
-125	-47	-30
-184	-105	-24
-217	-151	-21
-216	-183	-28
-179	-207	-34
-114	-215	-34
-35	-192	-37
40	-127	-42
102	-21	-31
143	105	-30
162	206	-27
162	248	2
143	215	0
107	129	-5
56	31	-14
-10	-38	-39
-88	-64	-42
-170	-62	-45
-241	-60	-33
-288	-81	-17
-295	-116	-24
-253	-142	-22
-160	-130	-20
-34	-68	-31
102	23	-40
216	110	-30
292	162	-21
314	168	-30
281	136	-35
212	96	-32
121	61	-28
24	38	-21
-69	14	-4
-149	-22	20
-207	-64	9
-241	-98	-12
-245	-102	-28
-218	-65	-36
-165	-2	-4
-90	57	10
-1	78	-5
90	43	-23
172	-34	-32
241	-119	-34
279	-163	-38
281	-141	-34
242	-60	-30
165	41	-24
57	113	-37
-60	116	-38
-168	48	-26
-243	-54	-34
-276	-144	-17
-262	-178	3
-212	-141	-24
-136	-56	-43
-52	37	-48
26	103	-47
89	124	-9
134	110	-9
162	84	-32
175	61	-27
179	51	-9
166	42	-3
132	24	-21
74	-3	-20
-6	-35	-10
-95	-58	8
-174	-67	14
-215	-65	-16
-213	-62	-22
-162	-67	-19
-80	-74	-30
10	-71	-35
86	-44	-21
128	13	-32
138	90	-37
121	163	-31
89	204	-31
50	199	-22
10	147	-49
-34	65	-45
-85	-24	-24
-139	-101	-25
-190	-154	-18
-223	-183	-18
-225	-185	-9
-183	-167	-8
-108	-129	-7
-10	-74	11
90	-7	6
167	60	-19
213	116	-21
223	154	-25
205	163	-28
171	148	-30
131	110	-38
84	57	-28
30	-3	-21
-33	-64	-18
-101	-118	-25
-164	-153	-25
-203	-160	-27
-201	-139	-38
-156	-94	-35
-72	-35	-35
29	24	-34
124	74	-34
190	106	-28
214	123	-20
200	130	-34
158	131	-31
107	126	-18
59	104	-9
18	66	-5
-22	10	-10
-68	-52	-3
-124	-106	-6
-180	-140	-12
-218	-153	-15
-226	-154	-32
-190	-153	-37
-122	-158	-38
-38	-157	-49
42	-134	-52
103	-77	-34
139	17	-12
159	120	2
166	201	7
162	228	-22
143	191	-34
102	104	-31
36	-2	-33
-48	-95	-20
-132	-153	-23
-199	-171	-11
-232	-161	-14
-225	-129	-30
-182	-86	-19
-112	-31	-26
-30	33	-29
57	97	-28
135	149	-26
196	177	-30
225	179	-31
215	155	-13
164	115	-16
79	65	-26
-22	11	-22
-118	-42	-23
-194	-90	-22
-241	-121	-29
-253	-130	-30
-239	-113	-22
-198	-77	-18
-138	-36	-16
-63	-2	-34
24	19	-31
111	32	-19
189	45	-17
245	62	-20
269	80	-22
263	85	-8
232	68	6
172	28	-4
99	-25	-14
12	-72	-13
-81	-99	-22
-166	-98	-24
-231	-77	-14
-256	-47	-18
-235	-23	-38
-172	-9	-42
-83	-5	-49
16	-3	-41
101	6	1
161	24	-2
193	51	-19
196	81	-14
175	99	-15
129	93	-21
64	53	-19
-14	-14	-17
-94	-92	-31
-159	-157	-38
-201	-185	-40
-209	-168	-44
-185	-112	-30
-136	-45	1
-76	12	-5
-10	43	-23
52	58	-31
109	70	-44
152	101	-42
176	147	-27
184	190	11
171	201	32
140	157	17
94	59	-7
35	-66	-32
-38	-182	-44
-118	-250	-48
-198	-256	-48
-255	-203	-40
-267	-118	-32
-223	-26	-38
-123	47	-37
5	93	-32
129	111	-43
214	106	-48
245	89	-49
221	64	-46
164	43	-35
93	25	-15
20	8	11
-53	-15	19
-132	-47	25
-209	-87	19
-271	-126	-1
-299	-151	6
-273	-150	8
-197	-116	3
-88	-59	-9
27	5	-33
122	66	-39
188	113	-32
229	148	-48
245	169	-50
251	174	-24
231	165	-33
186	128	-50
115	68	-47
28	-6	-41
-53	-78	-27
-112	-136	-4
-142	-173	-19
-148	-192	-37
-139	-207	-15
-127	-204	-14
-108	-174	-23
-78	-99	-25
-32	22	-16
32	166	-15
96	284	-17
142	335	-12
158	298	4
132	187	1
74	57	-24
-7	-43	-27
-100	-89	-29
-184	-90	-39
-248	-85	-47
-277	-100	-36
-263	-140	-37
-209	-177	-42
-120	-175	-37
-20	-116	-30
75	-17	-24
150	81	-8
202	138	0
234	144	-3
245	119	-5
240	92	-24
203	83	-20
132	80	-21
33	51	-32
-70	-28	-21
-158	-152	-19
-202	-274	-20
-201	-340	-36
-169	-314	-50
-123	-199	-46
-81	-39	-33
-40	105	-28
6	188	-14
74	204	-15
159	174	-27
248	126	-20
310	88	-6
314	58	-8
249	33	-21
125	1	-4
-27	-33	-11
-175	-64	-30
-285	-86	-30
-344	-95	-32
-347	-95	-26
-310	-88	-26
-241	-70	-40
-154	-34	-34
-55	20	-16
49	85	-15
150	137	-22
232	156	-5
284	135	6
296	89	-3
258	40	-6
175	9	-19
69	-2	-20
-47	-8	-25
-150	-33	-31
-222	-83	-39
-251	-145	-62
-241	-190	-63
-193	-188	-48
-122	-132	-49
-40	-37	-58
38	63	-33
104	138	-20
151	171	-1
175	168	9
187	143	26
184	112	63
171	80	32
147	35	-4
103	-23	-18
32	-96	-30
-62	-164	-46
-167	-207	-54
-259	-207	-45
-306	-165	-30
-288	-96	-30
-202	-21	-31
-68	40	-24
76	81	-21
196	103	-8
262	112	-16
277	115	-40
245	113	-51
186	101	-55
114	76	-51
36	40	-23
-48	-1	1
-133	-42	-7
-209	-78	-25
-262	-106	-8
-277	-123	-15
-253	-131	-21
-188	-126	-3
-99	-107	-18
2	-71	-24
97	-24	-42
175	30	-43
233	86	-22
255	136	-14
245	170	-42
201	177	-39
132	150	-19
44	84	-30
-48	-15	-12
-147	-127	-13
-237	-222	-16
-315	-270	-33
-362	-256	-37
-362	-186	-16
-304	-83	-41
-183	21	-44
-23	99	-20
145	140	2
285	157	-5
371	160	-21
391	161	-16
358	157	-17
291	133	-17
204	85	-8
107	11	-9
-5	-65	-26
-129	-120	-30
-256	-137	-7
-360	-110	-12
-415	-60	-30
-392	-13	-30
-295	10	-46
-141	4	-46
30	-19	-35
180	-40	-28
277	-41	-25
310	-12	-32
288	39	-19
225	90	-18
137	121	-18
39	115	-21
-59	66	-22
-148	-11	-4
-214	-94	-5
-248	-154	-20
-241	-175	-31
-195	-160	-26
-121	-121	-26
-36	-81	-31
48	-48	-18
122	-23	6
183	10	9
225	60	-3
242	121	-19
226	174	-48
176	194	-40
99	163	-16
10	86	-16
-69	-7	-38
-128	-89	-43
-158	-134	-19
-164	-141	-22
-156	-125	-20
-137	-99	-7
-108	-74	21
-60	-44	30
9	-3	-15
94	51	-34
172	110	-34
228	155	-48
239	170	-46
206	148	-43
139	96	-48
60	33	-48
-16	-25	-48
-81	-70	-57
-131	-100	-59
-174	-113	-62
-208	-118	-51
-232	-109	-21
-233	-89	-4
-204	-57	13
-139	-19	22
-44	18	26
65	51	24
170	77	13
242	94	-1
262	99	-17
228	89	-25
149	63	-24
44	22	-23
-50	-27	-48
-115	-76	-54
-134	-115	-41
-116	-137	-33
-77	-143	-21
-41	-126	-9
-28	-88	-12
-36	-27	1
-57	45	-10
-70	116	-27
-62	161	-30
-28	157	-47
18	104	-33
56	21	-36
68	-57	-34
44	-101	-27
-5	-97	-28
-65	-58	-31
-112	-25	-30
-138	-22	-19
-139	-60	-16
-126	-121	-12
-96	-167	-21
-51	-165	-12
13	-103	-9
102	-2	-31
199	106	-18
287	187	-10
332	225	-17
317	221	-17
239	190	-24
124	144	-21
0	93	-13
-105	40	-25
-174	-17	-30
-210	-71	-31
-226	-116	-32
-229	-140	-28
-218	-145	-25
-187	-131	-23
-128	-107	-28
-40	-74	-23
62	-35	-32
156	9	-47
216	58	-42
238	106	-35
214	136	-28
163	149	-16
96	135	-2
28	101	-2
-39	49	-9
-104	-10	-3
-165	-78	-10
-214	-145	-18
-236	-204	-18
-222	-238	-22
-164	-230	-27
-72	-173	-22
29	-79	-15
120	31	-11
181	123	-30
203	174	-46
194	182	-46
164	154	-34
123	110	-15
79	65	-20
29	24	-25
-26	-20	-23
-86	-68	-35
-137	-125	-32
-174	-173	-21
-183	-190	-30
-163	-165	-32
-118	-96	-36
-60	-2	-36
3	95	-23
62	166	-6
113	198	15
151	189	23
179	147	19
186	88	-20
172	26	-42
129	-26	-30
57	-64	-25
-38	-89	-33
-145	-104	-44
-245	-115	-27
-308	-123	-8
-316	-123	-16
-259	-104	-27
-148	-58	-26
-13	11	-30
112	90	-36
198	151	-30
234	179	-20
230	163	-12
206	117	-5
176	59	0
147	11	-15
102	-26	-24
28	-60	-25
-78	-104	-28
-200	-157	-30
-303	-203	-40
-352	-225	-39
-328	-202	-30
-237	-134	-39
-107	-40	-41
26	58	-23
129	131	-23
193	171	-14
222	181	-19
228	168	-32
216	138	-26
194	97	-24
144	47	-14
68	-9	-10
-26	-62	-9
-122	-108	-15
-189	-135	-10
-213	-145	4
-183	-140	-15
-118	-121	-20
-39	-86	-18
27	-31	-38
77	41	-41
107	124	-42
128	197	-44
154	237	-40
176	229	-26
191	169	-23
172	72	-16
117	-36	2
19	-125	0
-99	-175	-21
-208	-179	-24
-281	-144	-7
-303	-101	-10
-272	-70	-24
-208	-70	-27
-128	-96	-16
-50	-120	-33
21	-109	-43
90	-39	-36
159	84	-31
226	224	-15
275	325	-17
285	339	-8
237	250	-2
122	84	-6
-34	-98	-5
-197	-233	-15
-320	-278	-19
-372	-238	0
-342	-150	-4
-255	-65	-37
-143	-25	-51
-38	-26	-55
40	-50	-52
98	-54	-61
143	-22	-55
190	47	-22
234	127	-6
254	180	10
242	186	-9
186	138	-30
100	61	-12
2	-25	0
-83	-95	-19
-139	-137	-20
-165	-153	-16
-167	-142	-34
-151	-111	-28
-117	-58	-22
-70	7	-18
-7	77	-31
62	133	-37
128	163	-16
172	162	-10
189	131	-14
172	85	-18
132	37	-19
67	-5	-28
-14	-39	-36
-102	-69	-32
-182	-96	-40
-235	-119	-32
-241	-134	-23
-195	-136	-10
-111	-119	-1
-17	-81	-1
59	-22	-7
101	55	-49
113	132	-48
111	193	-24
121	211	-27
140	175	-19
158	93	-22
144	-16	-19
86	-112	-6
-12	-168	-6
-123	-173	3
-212	-138	0
-258	-98	-9
-253	-76	-13
-215	-77	-32
-162	-83	-36
-105	-66	-50
-38	-7	-63
37	91	-67
122	192	-68
198	253	-64
244	243	-54
244	162	-43
192	40	-33
109	-72	4
14	-143	17
-70	-163	21
-141	-149	19
-194	-130	12
-227	-133	3
-232	-155	-11
-193	-170	-17
-112	-151	-23
5	-84	-20
126	20	-25
222	126	-34
268	200	-37
258	224	-28
212	204	-36
147	166	-23
81	129	-9
20	108	-7
-33	87	-11
-83	49	-27
-121	-14	-8
-144	-94	-17
-149	-167	-40
-136	-210	-46
-121	-211	-49
-105	-177	-55
-87	-118	-50
-50	-55	-36
11	6	-39
95	68	-44
178	127	-33
226	174	4
216	196	33
149	177	49
46	114	16
-49	26	-18
-113	-68	-17
-141	-145	-25
-151	-191	-22
-165	-209	-31
-191	-199	-43
-215	-167	-44
-206	-107	-41
-140	-24	-41
-24	71	-30
113	160	-16
223	213	-13
270	219	-17
249	180	-27
175	115	-26
87	50	-33
14	0	-24
-35	-34	-10
-66	-64	-11
-93	-96	-4
-120	-131	-7
-139	-152	-31
-136	-147	-37
-100	-115	-23
-34	-66	-30
46	-21	-35
119	12	-39
165	35	-38
175	67	-24
159	118	-27
122	174	-30
71	210	-17
17	186	-21
-36	86	-19
-85	-66	-6
-121	-216	-14
-145	-298	-24
-156	-274	-27
-159	-159	-22
-159	-7	-19
-157	104	-28
-139	134	-23
-100	86	-21
-28	6	-15
65	-45	-15
164	-24	-25
239	55	-21
263	148	-22
236	194	-27
159	160	-33
61	53	-16
-34	-84	-21
-110	-196	-44
-162	-251	-43
-193	-238	-21
-208	-182	-25
-205	-103	-28
-174	-23	-5
-111	55	5
-19	130	1
84	196	-20
172	237	-24
224	240	-22
226	195	-20
183	106	-18
113	0	-18
40	-97	-27
-26	-165	-46
-76	-192	-34
-111	-183	-38
-137	-155	-47
-152	-118	-35
-148	-88	-30
-117	-64	1
-60	-44	1
17	-17	-14
101	21	5
174	75	8
223	136	8
239	189	-7
219	211	-12
171	190	-21
99	122	-30
10	22	-24
-80	-80	-45
-163	-160	-49
-225	-199	-52
-259	-192	-56
-262	-157	-46
-239	-104	-36
-190	-49	-16
-120	-3	-6
-40	35	0
50	68	-2
134	99	-17
202	119	-28
237	129	-16
234	122	-4
195	94	-11
132	49	-27
59	-8	-26
-10	-66	-18
-69	-118	-39
-127	-145	-33
-178	-142	-13
-217	-108	-22
-227	-50	-21
-192	11	-29
-110	60	-45
11	85	-38
135	84	-30
231	68	-50
266	50	-35
237	39	-28
159	28	-18
66	14	12
-12	-15	-21
-58	-58	-25
-86	-104	-2
-109	-140	-22
-143	-153	-36
-191	-141	-38
-231	-107	-35
-237	-64	-19
-185	-16	-12
-79	33	-15
57	85	-20
186	137	-28
269	174	-30
291	191	-32
254	174	-30
181	125	-35
89	56	-36
-3	-16	-32
-94	-74	-28
-177	-118	-15
-247	-141	-12
-288	-153	-2
-282	-151	2
-228	-127	-10
-127	-80	-10
-10	-8	-11
100	74	-9
182	150	-14
230	195	-30
249	205	-37
251	181	-24
236	131	-5
195	69	-20
123	1	-41
20	-63	-32
-95	-124	-20
-199	-170	-33
-262	-190	-40
-277	-187	-42
-247	-162	-30
-186	-129	-25
-118	-94	-37
-52	-59	-28
12	-18	-32
80	41	-44
150	115	-47
208	187	-33
242	227	-4
234	211	22
182	136	27
97	22	24
1	-95	20
-89	-182	21
-156	-216	16
-194	-205	-2
-205	-163	-16
-188	-108	-20
-142	-49	-36
-71	13	-54
16	76	-53
110	130	-58
188	161	-66
237	158	-60
245	117	-53
215	61	-52
148	10	-41
61	-23	-18
-34	-34	-5
-120	-41	6
-184	-58	3
-222	-91	-4
-226	-122	-6
-205	-131	-11
-169	-104	-19
-123	-43	-43
-71	31	-58
-14	95	-57
51	129	-48
119	132	-39
180	122	-5
215	105	30
212	94	22
170	83	-9
91	67	-25
-7	40	-28
-107	6	-24
-193	-34	-13
-253	-79	-13
-278	-121	-21
-259	-163	-23
-199	-188	-33
-103	-186	-26
10	-144	-14
117	-65	-24
196	26	-29
237	103	-37
241	133	-30
221	114	-25
188	56	-29
147	-3	-20
97	-38	-27
28	-44	-32
-52	-32	-22
-141	-31	-11
-213	-52	-21
-253	-96	-25
-248	-133	-24
-198	-138	-30
-119	-98	-35
-21	-19	-27
78	75	-24
169	160	-37
233	215	-38
255	236	-22
226	221	-16
148	171	-22
37	97	-22
-77	0	-23
-161	-97	-13
-202	-173	-10
-198	-207	-10
-172	-191	-4
-140	-138	-23
-113	-72	-20
-83	-18	-18
-34	17	-25
39	39	-17
132	61	-13
216	96	-23
269	131	-36
268	150	-42
221	129	-45
140	67	-41
52	-20	-55
-28	-102	-54
-104	-152	-19
-172	-157	3
-231	-126	5
-264	-87	0
-260	-54	-1
-200	-33	-24
-100	-13	-41
20	26	-7
122	82	-10
179	140	-24
190	171	-5
165	153	-9
129	80	4
97	-23	26
72	-116	22
42	-169	-7
1	-167	-9
-56	-127	-32
-120	-81	-71
-171	-53	-76
-195	-54	-89
-191	-66	-72
-156	-72	-50
-103	-53	-38
-38	-13	-30
30	38	5
98	83	-5
156	115	-24
196	139	-15
210	155	-16
193	158	5
151	131	4
88	71	7
13	-20	-11
-65	-113	-30
-138	-170	-14
-191	-167	-17
-215	-103	-23
-199	-12	-35
-144	58	-32
-66	78	-37
14	43	-42
76	-7	-34
107	-35	-38
116	-12	-38
115	55	-33
114	130	-18
116	164	-14
113	127	-28
86	28	-24
32	-102	-15
-48	-215	-31
-130	-268	-35
-202	-241	-24
-242	-142	-20
-248	-6	-9
-224	126	-14
-170	211	-22
-95	227	-11
2	174	-6
110	82	-19
211	-11	-14
276	-66	-24
288	-71	-36
236	-40	-32
132	-5	-15
11	2	-3
-99	-31	-17
-175	-92	1
-213	-150	-14
-217	-173	-31
-198	-158	-26
-157	-106	-43
-92	-45	-42
-4	8	-52
95	52	-44
187	89	-27
245	122	-28
256	147	-31
222	148	-20
156	116	-16
80	52	-22
6	-23	-32
-63	-85	-59
-132	-111	-56
-200	-106	-25
-253	-86	-7
-272	-74	-11
-239	-83	-2
-150	-102	29
-22	-101	24
111	-56	-15
212	36	-20
262	155	-7
262	258	-3
226	305	11
167	278	8
104	189	-25
37	72	-46
-30	-35	-35
-100	-114	-39
-159	-157	-54
-197	-170	-43
-207	-162	-32
-183	-138	-30
-135	-95	-23
-77	-38	-30
-19	24	-18
35	77	-20
84	98	-42
127	85	-68
161	41	-80
175	-9	-56
158	-56	-34
104	-87	-18
24	-102	-25
-60	-113	29
-126	-122	81
-160	-133	85
-158	-134	68
-133	-119	1
-109	-84	-16
-91	-26	-21
-77	41	-35
-50	110	-64
4	169	-64
92	205	-42
194	210	-52
280	187	-43
321	143	-47
291	90	-57
194	41	-51
52	5	-40
-95	-20	-26
-214	-43	-12
-285	-70	-13
-303	-99	-17
-275	-119	-19
-224	-113	-28
-162	-78	-19
-94	-16	-17
-24	45	-23
50	86	-26
125	90	-17
186	60	-7
216	22	-18
203	-9	-28
147	-29	-30
61	-47	-25
-31	-79	-35
-110	-130	-33
-160	-190	-27
-178	-232	-23
-170	-230	-29
-143	-176	-22
-99	-93	-4
-44	-5	-20
18	56	-27
81	92	-36
127	116	-42
154	147	-39
148	195	-23
119	244	0
77	261	-6
37	226	0
6	131	1
-18	7	3
-40	-110	-12
-69	-181	-16
-102	-199	-10
-132	-174	-26
-142	-130	-26
-125	-90	-21
-76	-54	-22
-3	-18	-27
78	31	-25
149	85	-34
196	135	-40
215	161	-36
204	150	-35
169	109	-35
110	50	-40
35	-8	-20
-51	-56	-7
-134	-95	-13
-201	-128	-28
-237	-158	-39
-232	-174	-53
-191	-170	-63
-124	-133	-42
-48	-66	-12
13	18	19
61	104	22
99	168	12
132	203	25
166	206	-2
192	179	-28
192	127	-19
151	58	-23
64	-21	-26
-50	-103	-32
-166	-174	-38
-245	-225	-45
-270	-240	-35
-239	-219	-22
-169	-166	-25
-80	-93	-24
10	-16	-33
90	50	-39
161	98	-23
216	126	-6
251	140	-19
252	153	-21
214	165	-6
141	171	-23
48	166	-46
-48	131	-51
-136	66	-50
-206	-26	-43
-258	-128	-35
-287	-211	-26
-285	-254	-19
-239	-246	-18
-141	-192	-7
-6	-111	-16
139	-24	-40
261	46	-20
330	96	-14
333	117	0
285	119	8
204	100	-2
107	66	22
0	21	-3
-118	-31	-31
-240	-81	-37
-347	-121	-49
-407	-140	-41
-392	-133	-45
-300	-102	-44
-152	-48	-19
5	11	3
130	68	11
202	110	-9
230	136	-23
238	143	-32
245	137	-36
255	121	-13
244	95	-17
187	59	-34
79	15	-35
-63	-32	-30
-203	-72	-35
-296	-96	-33
-324	-98	-25
-285	-81	-29
-206	-54	-16
-109	-34	-13
-15	-24	-21
68	-19	-32
138	-6	-31
192	22	-22
216	64	-35
210	110	-41
167	132	-27
99	124	-8
21	76	-9
-53	2	-19
-114	-76	-13
-162	-142	-18
-194	-186	-24
-207	-206	-22
-193	-201	-13
-144	-171	-18
-64	-112	-28
32	-29	-25
123	64	-39
188	149	-30
214	201	-18
209	214	-8
181	192	-12
144	150	-6
103	103	9
52	48	-5
-5	-11	-8
-77	-85	-26
-147	-164	-51
-205	-233	-45
-229	-261	-48
-212	-238	-52
-160	-165	-51
-83	-63	-63
0	30	-68
74	96	-64
128	124	-32
163	129	-6
180	123	-14
178	116	6
155	106	30
104	85	55
25	47	51
-70	-2	18
-160	-49	-2
-215	-83	-13
-221	-97	-22
-174	-95	-35
-98	-86	-40
-21	-74	-41
33	-55	-28
61	-21	-28
78	34	-25
105	108	-26
148	182	-56
195	233	-72
216	244	-45
184	207	-18
87	129	-30
-50	28	-28
-191	-79	-26
-290	-176	-27
-321	-256	-31
-288	-309	-32
-212	-326	-18
-125	-303	1
-42	-229	18
34	-113	-3
107	21	-21
175	144	-27
230	228	-38
253	253	-37
234	226	-24
172	162	-2
93	90	9
17	33	4
-42	2	-6
-84	-6	-15
-120	-7	-22
-166	-17	-14
-214	-44	-39
-252	-90	-44
-250	-138	-36
-193	-173	-32
-86	-170	-25
46	-123	-35
167	-42	-25
244	53	-23
266	132	-12
245	174	-8
202	171	-20
153	132	-24
102	74	-30
42	13	-23
-36	-43	-18
-128	-98	-26
-217	-151	-32
-277	-195	-28
-284	-209	-23
-231	-173	-33
-128	-82	-38
-8	38	-41
105	148	-39
186	205	-33
234	192	-38
242	124	-43
216	41	-49
169	-17	-38
93	-34	-2
-1	-23	13
-104	-10	7
-195	-19	1
-262	-50	-1
-285	-83	-5
-262	-88	-18
-197	-53	-21
-102	2	-13
7	57	-18
114	82	-32
201	72	-37
255	47	-32
269	32	-27
244	47	-24
184	77	-25
106	96	-31
21	72	-49
-61	-1	-48
-132	-103	-22
-188	-195	-2
-223	-238	-7
-231	-219	-4
-210	-151	13
-160	-67	11
-86	4	-14
-2	51	-44
80	82	-36
150	112	-32
198	145	-50
225	171	-55
219	178	-33
181	149	-30
107	85	-32
5	9	-4
-110	-55	-4
-214	-97	4
-278	-118	-4
-290	-135	-31
-248	-161	-30
-168	-191	-34
-74	-204	-19
12	-175	-12
81	-94	-32
133	28	-35
175	154	-25
208	243	-17
231	268	-1
238	228	-4
216	140	-20
169	35	-13
95	-60	-11
9	-140	-11
-78	-189	-11
-152	-204	-9
-205	-180	-17
-232	-115	-26
-223	-26	-28
-182	64	-40
-114	122	-52
-31	131	-63
48	101	-46
111	59	-36
149	41	-46
162	62	-35
155	106	-8
131	129	-3
87	96	4
23	0	-11
-63	-131	-27
-160	-241	-20
-244	-278	-26
-285	-235	-34
-262	-138	-29
-179	-42	-17
-58	13	-30
63	22	-36
149	15	-27
184	29	-24
175	85	-21
148	165	-21
122	225	-25
106	225	-25
90	149	-25
58	28	-32
-6	-87	-19
-92	-152	-4
-180	-158	-14
-236	-122	-25
-241	-83	-13
-193	-63	-14
-113	-59	-18
-23	-52	-18
57	-15	-18
119	51	-16
170	123	-23
212	166	-27
245	155	-14
251	103	1
221	35	-11
144	-8	-35
35	-13	-31
-85	8	-21
-189	18	-42
-253	-13	-54
-276	-90	-56
-258	-186	-62
-212	-250	-53
-143	-244	-50
-59	-161	-31
32	-28	-4
123	102	-2
196	186	4
239	203	13
237	168	8
195	105	-6
122	50	-2
39	14	0
-42	-14	3
-108	-41	-7
-158	-82	-22
-191	-122	-24
-206	-145	-21
-195	-135	-8
-159	-87	-24
-95	-15	-35
-10	54	-41
82	98	-38
159	110	-38
210	96	-43
222	71	-23
199	53	-11
147	40	-22
77	24	-38
1	-10	-30
-72	-62	-21
-136	-125	-24
-181	-179	-29
-205	-197	-18
-203	-174	-13
-177	-110	-33
-127	-30	-34
-61	47	-21
11	103	-22
80	132	-36
135	143	-43
171	143	-40
187	138	-18
184	125	3
167	101	-6
135	59	-17
94	3	-15
42	-57	11
-11	-114	12
-60	-152	-25
-99	-164	-28
-121	-151	-19
-129	-108	2
-124	-44	4
-111	34	-23
-89	117	-34
-54	186	-34
-4	215	-30
54	198	-32
107	129	-28
134	23	-25
121	-83	-29
65	-161	-35
-16	-188	-32
-94	-168	-25
-147	-122	-27
-161	-82	-31
-144	-66	-35
-112	-70	-20
-79	-76	-12
-48	-51	-27
-15	11	-37
26	102	-48
81	189	-49
132	233	-35
170	219	-20
172	149	-32
139	45	-24
76	-59	-9
1	-142	-32
-71	-192	-22
-133	-210	-31
-182	-198	-31
-218	-166	-2
-233	-112	-19
-217	-52	-4
-160	2	8
-59	41	-7
68	61	-4
198	71	-17
292	84	-43
335	110	-53
314	145	-44
249	169	-21
156	164	1
62	115	-13
-24	32	-15
-98	-59	-1
-162	-131	-14
-213	-168	-28
-242	-169	-34
-236	-148	-30
-183	-117	-35
-92	-83	-42
20	-43	-40
121	14	-21
186	85	-21
202	161	-41
171	218	-16
115	237	-4
52	207	10
-3	135	16
-53	38	3
-100	-62	-6
-150	-150	-30
-199	-209	-36
-235	-237	-35
-239	-227	-27
-197	-184	-30
-115	-114	-26
-5	-31	-19
104	45	-25
189	101	-34
234	127	-27
238	129	-17
214	118	-6
175	104	-2
136	89	-16
94	66	-20
46	28	-17
-14	-28	-19
-80	-92	-34
-143	-150	-41
-191	-179	-39
-206	-175	-40
-187	-139	-25
-132	-84	-15
-58	-22	-34
22	41	-65
97	106	-71
156	171	-46
193	230	-36
205	262	-51
182	252	-9
127	183	39
44	71	32
-57	-59	8
-158	-166	-16
-241	-224	-15
-288	-230	-7
-295	-203	-4
-258	-179	-3
-186	-169	-14
-92	-171	-16
14	-157	-24
113	-98	-32
192	6	-37
244	127	-32
262	215	-30
253	237	-37
216	171	-38
158	63	-34
80	-38	-26
-17	-85	-32
-122	-64	-24
-222	-8	-18
-295	36	-20
-316	29	-25
-280	-32	-43
-194	-110	-48
-81	-153	-35
27	-123	-25
107	-27	-17
150	100	-8
167	203	-15
172	241	-10
181	210	-12
184	131	-18
170	41	-21
121	-32	-22
37	-77	-8
-68	-103	-3
-165	-121	-12
-223	-133	-31
-229	-139	-27
-182	-125	-18
-108	-90	-20
-22	-37	-32
54	19	-37
118	65	-39
166	99	-41
198	115	-36
207	121	-41
184	117	-36
126	101	-32
40	66	-24
-55	12	-13
-138	-54	-8
-190	-121	-8
-203	-167	-4
-181	-179	4
-137	-153	9
-83	-96	2
-23	-23	4
37	45	-16
97	95	-46
149	121	-40
183	129	-28
189	127	-17
167	120	-22
116	109	-25
48	82	-32
-23	28	-39
-94	-49	-38
-155	-139	-34
-204	-211	-5
-236	-236	-3
-241	-199	-51
-216	-109	-64
-162	-2	-46
-82	78	-37
13	98	-16
101	61	-33
172	-6	-48
216	-56	-32
231	-56	-7
212	-1	-6
166	84	-21
97	145	-12
14	144	-14
-67	67	-37
-141	-58	-32
-195	-181	-24
-230	-252	-13
-241	-242	7
-228	-163	-4
-182	-53	-2
-100	43	-7
19	100	-7
160	120	-7
288	123	-21
371	135	-8
371	161	-22
289	186	-27
151	186	-17
0	150	-37
-119	84	-40
-181	8	-31
-191	-52	-24
-181	-92	-21
-173	-118	-19
-180	-151	-25
-189	-188	-15
-175	-212	-9
-115	-194	-12
-11	-111	-21
113	23	-42
219	164	-38
275	252	-35
270	254	-22
214	174	-20
132	51	-34
42	-53	-33
-39	-109	-31
-113	-114	-35
-178	-96	-44
-232	-91	-33
-257	-109	-28
-243	-135	-25
-186	-137	0
-94	-93	-9
8	-8	-25
97	87	-24
157	158	-30
188	183	-28
198	160	-23
193	112	-16
179	59	-7
148	16	11
93	-19	9
12	-53	-9
-84	-85	-23
-175	-105	-36
-232	-105	-34
-244	-82	-44
-206	-48	-52
-130	-21	-58
-38	-16	-51
54	-27	-39
136	-41	-26
195	-29	6
224	14	9
219	77	8
175	127	15
101	131	-4
4	80	-10
-97	-15	4
-182	-111	-9
-236	-170	-46
-252	-173	-62
-234	-128	-47
-188	-68	-43
-124	-21	-32
-45	3	-9
42	20	-6
125	45	-26
194	96	-32
232	155	-23
231	192	-16
194	179	-7
133	106	-5
66	1	-7
3	-95	-27
-54	-143	-30
-112	-133	-38
-170	-91	-38
-224	-52	-24
-253	-52	-32
-240	-89	-20
-169	-132	-11
-53	-143	-3
83	-91	-6
198	17	-22
262	154	-30
266	265	-57
223	317	-59
158	291	-32
94	202	-35
39	77	-42
-12	-51	-37
-70	-152	-27
-142	-212	-20
-218	-225	-12
-276	-203	-1
-295	-157	0
-257	-103	4
-170	-51	-7
-52	4	-25
68	64	-32
165	128	-34
222	179	-28
237	195	-8
216	163	-15
176	84	-32
135	-9	-26
94	-78	-42
55	-94	-43
11	-66	-24
-42	-40	-14
-105	-65	1
-162	-159	22
-195	-282	26
-194	-368	2
-151	-331	-24
-80	-158	-45
2	101	-58
74	339	-53
123	451	-57
150	400	-44
151	227	-27
127	36	-28
78	-77	-30
3	-74	-21
-89	0	-13
-177	58	-1
-239	39	4
-253	-70	-22
-222	-208	-16
-152	-290	-4
-66	-260	-5
14	-124	-15
86	48	-26
150	179	-17
211	215	-30
265	169	-42
297	85	-42
280	22	-22
210	8	-15
89	27	-16
-52	45	-1
-180	24	-13
-262	-35	-24
-290	-113	-26
-269	-171	-34
-217	-185	-26
-156	-156	-23
-91	-98	-26
-20	-35	-27
57	21	-38
142	68	-41
223	110	-35
276	147	-33
291	168	-30
259	162	-23
184	122	-11
91	58	-8
-7	-15	-13
-95	-80	-12
-163	-121	-16
-210	-139	-21
-236	-138	-28
-237	-127	-24
-208	-108	-13
-148	-83	-13
-59	-49	-21
44	-8	-35
148	36	-32
234	81	-42
283	117	-39
285	143	-12
237	156	1
144	149	3
24	122	-9
-101	71	-28
-209	8	-40
-277	-63	-56
-300	-129	-46
-281	-182	-28
-237	-215	-32
-181	-226	-28
-122	-206	-28
-63	-153	-17
-3	-65	-23
61	43	-22
123	153	-17
171	227	-16
187	241	5
164	191	-6
107	103	-18
36	11	-26
-31	-47	-30
-76	-61	-20
-92	-52	-1
-84	-44	15
-62	-66	26
-35	-113	29
-4	-159	-9
28	-162	-34
67	-105	-54
105	4	-65
136	122	-59
156	201	-50
157	209	-35
139	153	-46
106	66	-40
56	-8	-16
-6	-47	-9
-79	-54	-5
-152	-54	-13
-209	-67	-25
-239	-102	-20
-226	-133	-35
-176	-137	-40
-99	-103	-28
-12	-33	-36
72	45	-21
143	106	-18
198	134	-17
233	139	-6
238	135	-5
208	123	-9
136	103	-20
34	51	-13
-76	-31	-24
-168	-131	-30
-215	-209	-22
-215	-229	-35
-177	-175	-28
-126	-74	-34
-84	27	-37
-54	84	-33
-32	81	-32
-4	39	-21
36	7	-18
89	17	-18
133	75	-9
153	143	-9
132	174	-30
78	131	-24
-2	30	-31
-83	-90	-36
-152	-177	-19
-200	-194	-34
-223	-152	-35
-221	-86	-40
-182	-38	-36
-111	-31	-39
-4	-50	-26
118	-63	-13
236	-35	-33
314	41	-12
328	148	-1
275	237	-2
170	269	5
46	225	-12
-60	106	-24
-128	-49	-22
-158	-200	-13
-158	-300	-9
-148	-322	-33
-137	-272	-21
-125	-170	-16
-103	-53	3
-53	42	31
22	101	12
111	124	-6
191	130	-32
240	138	-40
245	155	-48
212	169	-54
158	162	-58
93	118	-54
28	41	-27
-37	-48	-19
-105	-124	-17
-178	-162	-9
-243	-158	4
-287	-122	-10
-296	-81	-29
-260	-49	-42
-190	-34	-63
-92	-25	-51
14	-9	-27
115	22	-26
195	64	-10
244	104	0
253	125	2
219	114	-2
150	68	-20
54	3	-16
-41	-65	-24
-125	-121	-17
-184	-154	-22
-213	-158	-31
-214	-138	-27
-189	-103	-34
-140	-55	-36
-69	0	-40
19	59	-46
109	117	-46
180	163	-32
216	186	2
208	179	31
163	141	12
94	80	-9
24	13	-24
-34	-48	-37
-76	-91	-23
-103	-118	-23
-122	-134	-34
-133	-144	-36
-132	-147	-32
-115	-134	-30
-75	-104	-33
-12	-49	-30
67	18	-20
151	85	-21
222	139	-24
262	174	-26
258	189	-30
202	191	-19
97	180	-2
-34	145	-20
-160	78	-32
-250	-26	-14
-286	-156	-8
-268	-271	-16
-213	-340	-27
-149	-334	-40
-92	-258	-42
-40	-140	-32
13	-21	-28
89	65	-37
184	108	-45
280	116	-20
340	117	13
325	129	-5
226	155	-23
59	183	-18
-130	190	-24
-290	153	-25
-383	62	-17
-394	-58	-16
-345	-185	-19
-260	-280	-27
-164	-308	-25
-69	-259	-18
19	-147	-22
104	-9	-20
184	110	-28
252	179	-30
292	183	-16
299	148	-22
262	98	-27
195	67	-18
109	59	-3
16	58	-5
-71	36	-12
-143	-23	-9
-191	-107	-28
-213	-183	-32
-205	-203	-30
-172	-152	-46
-118	-40	-42
-53	84	-37
17	166	-34
89	174	-24
159	116	-24
216	29	-33
249	-39	-23
242	-57	6
186	-29	2
89	13	-22
-34	36	-12
-157	17	-2
-247	-35	-9
-290	-96	-3
-280	-130	-3
-228	-124	-17
-143	-84	-41
-44	-26	-43
54	22	-35
139	56	-30
200	76	-26
226	92	-35
212	112	-26
167	125	-17
102	123	-33
32	89	-29
-33	26	-20
-85	-54	-24
-126	-131	-12
-156	-185	-23
-173	-203	-23
-172	-186	-25
-147	-138	-26
-95	-71	-19
-24	8	-24
51	86	-27
116	156	-28
159	197	-14
175	197	-24
169	153	-32
140	77	-19
100	-6	-25
45	-72	-21
-17	-108	-22
-83	-111	-27
-141	-99	-26
-188	-90	-28
-214	-93	-32
-213	-104	-37
-189	-108	-36
-136	-88	-34
-62	-40	-39
29	29	-34
127	97	-18
212	143	-10
263	157	-17
271	139	-20
229	112	-23
141	84	-23
36	66	-16
-65	57	-8
-144	39	2
-198	1	2
-224	-70	-8
-227	-162	-19
-209	-251	-21
-170	-301	-11
-105	-282	-14
-18	-189	-40
79	-45	-40
167	98	-51
222	195	-59
234	210	-31
205	154	-20
151	63	-7
86	-13	-11
24	-41	-17
-30	-23	-6
-85	10	-3
-140	16	-27
-191	-19	-38
-226	-85	-22
-226	-132	-15
-178	-125	-8
-85	-48	-24
33	70	-32
150	179	-20
237	230	-13
275	210	-6
260	143	-14
200	75	-18
114	33	-14
23	23	-30
-58	20	-36
-122	-9	-38
-169	-76	-48
-202	-160	-42
-221	-223	-27
-222	-234	-23
-194	-185	-32
-136	-105	-18
-49	-29	-16
49	15	-19
140	31	-5
203	45	-9
219	82	-16
194	141	-16
138	197	-12
75	209	-17
14	155	-31
-34	48	-42
-77	-69	-34
-115	-149	-21
-148	-163	-24
-166	-126	-39
-158	-80	-35
-113	-62	-15
-36	-83	-24
57	-112	-27
150	-111	-16
222	-44	-17
260	71	-25
261	195	-11
224	268	1
155	257	-9
59	168	-12
-50	39	-30
-158	-75	-30
-243	-150	-25
-291	-179	-27
-291	-187	-24
-252	-193	-34
-186	-198	-34
-109	-184	-27
-33	-129	-24
36	-31	-25
99	89	-18
154	192	-22
191	241	-31
203	228	-25
183	164	-30
131	82	-38
60	8	-36
-11	-44	-20
-68	-84	-4
-107	-118	-6
-129	-149	-19
-139	-166	-26
-139	-149	-24
-125	-93	-27
-91	-7	-34
-28	79	-24
51	131	-27
133	140	-19
195	112	-11
216	72	-40
192	51	-55
133	56	-31
58	77	-12
-17	85	-9
-84	52	7
-144	-24	4
-198	-123	-6
-244	-211	-8
-267	-250	-30
-257	-223	-28
-201	-136	-20
-110	-18	-39
2	96	-54
109	174	-53
190	203	-42
234	183	-40
245	131	-23
237	66	6
214	12	29
184	-21	26
137	-28	13
71	-23	0
-17	-28	-20
-118	-54	-28
-217	-109	-25
-290	-171	-32
-321	-211	-44
-302	-200	-32
-228	-127	-6
-111	-6	-8
24	123	-14
149	213	-18
234	237	-32
263	190	-34
238	104	-35
172	16	-34
92	-39	-44
15	-54	-60
-46	-46	-45
-94	-45	-16
-131	-74	-4
-159	-129	-16
-168	-190	-28
-147	-217	-25
-86	-185	-20
7	-96	-15
109	25	-7
192	138	-19
231	208	-34
218	225	-20
166	197	-18
93	152	-15
20	98	-16
-40	43	-26
-88	-19	-24
-126	-89	-34
-156	-155	-40
-176	-194	-24
-180	-188	-12
-161	-138	-25
-119	-66	-40
-60	-5	-27
8	26	-25
76	27	-16
138	25	-19
187	50	-36
216	112	-22
222	190	-16
193	244	-12
132	233	-21
46	150	-20
-49	21	-10
-139	-105	-23
-205	-187	-19
-241	-203	-39
-245	-171	-45
-215	-120	-32
-161	-81	-23
-84	-62	-13
5	-53	-12
94	-37	-3
165	1	-1
203	58	-6
199	119	-27
154	158	-29
77	158	-21
-11	116	-18
-91	41	-11
-147	-41	-25
-173	-111	-41
-173	-143	-40
-151	-136	-40
-118	-100	-34
-79	-56	-26
-37	-30	-16
8	-29	1
59	-44	-18
114	-53	-25
167	-34	-11
202	20	-35
210	92	-55
184	149	-27
127	163	9
46	124	-5
-38	53	-14
-117	-20	-3
-179	-70	-35
-219	-93	-47
-234	-101	-39
-221	-106	-33
-177	-118	-20
-104	-117	-22
-10	-84	-20
91	-10	-17
182	90	-3
245	171	-4
275	200	-19
265	158	-20
226	68	-21
162	-19	-21
85	-58	-20
1	-39	-8
-82	11	-4
-156	48	-9
-214	28	-8
-247	-46	-35
-251	-142	-52
-221	-205	-54
-159	-194	-39
-74	-109	-24
22	18	-32
113	132	-35
179	195	-42
208	194	-22
191	147	-11
131	80	-36
43	13	-17
-51	-42	-12
-132	-95	-34
-188	-143	-15
-211	-182	-3
-212	-204	-16
-191	-192	-30
-156	-153	-30
-103	-88	-23
-29	-17	-32
58	51	-38
157	110	-29
248	155	-11
314	183	-26
338	193	-26
313	178	-12
239	138	-20
130	82	-18
5	17	-26
-115	-44	-28
-207	-92	-14
-261	-126	-16
-268	-147	-12
-234	-153	-11
-166	-139	-22
-81	-102	-30
11	-46	-35
96	21	-13
165	85	1
208	132	-26
221	158	-17
204	160	-13
155	142	-19
82	106	-9
-3	55	-32
-91	-14	-35
-166	-90	-40
-223	-160	-42
-252	-201	-24
-253	-199	-27
-222	-154	-31
-162	-81	-26
-77	-5	-30
21	56	-31
118	93	-24
196	112	-22
240	124	-27
241	132	-13
199	133	6
127	109	0
37	52	-15
-49	-30	-33
-122	-117	-21
-172	-181	-5
-195	-203	-5
-201	-182	-15
-185	-131	-14
-152	-75	-24
-97	-21	-58
-25	28	-41
59	79	-47
141	130	-53
204	171	-36
231	183	-34
211	154	-25
153	84	-17
68	-1	-4
-18	-70	-14
-90	-107	-3
-134	-111	11
-152	-110	8
-145	-125	-7
-124	-160	-33
-94	-192	-38
-56	-189	-21
-15	-129	-32
32	-17	-31
79	103	-26
119	189	-31
144	211	-15
153	180	-30
137	124	-21
102	79	-23
47	57	-36
-16	46	-32
-80	22	-31
-137	-32	-33
-180	-106	-42
-206	-171	-28
-207	-196	-26
-184	-170	-20
-132	-109	-7
-53	-36	-13
44	23	0
147	67	1
231	106	-10
277	147	-6
273	188	-2
219	208	-10
129	190	-20
24	125	-15
-75	27	-21
-156	-72	-33
-212	-149	-36
-249	-185	-42
-262	-191	-42
-258	-178	-38
-218	-155	-25
-143	-118	-21
-34	-61	-28
91	15	-17
204	100	-16
280	165	-40
306	191	-48
279	174	-38
216	123	-30
141	68	-24
64	20	-5
-4	-12	-3
-66	-45	-14
-121	-90	-5
-168	-147	-1
-199	-196	-17
-206	-211	-44
-178	-171	-32
-117	-78	-20
-33	37	-43
60	130	-42
149	169	-28
211	140	-24
241	71	-21
234	-4	-13
189	-48	6
118	-50	1
31	-13	-13
-68	40	-18
-166	80	-28
-253	93	-24
-314	67	-31
-336	12	-31
-310	-62	-38
-232	-134	-51
-117	-179	-39
11	-175	-30
123	-111	-34
196	-5	-29
221	109	-18
204	183	-16
166	194	-26
123	137	-22
91	43	5
60	-42	-11
25	-93	-19
-22	-102	0
-80	-97	-7
-136	-101	-12
-170	-126	-30
-163	-152	-31
-113	-140	-12
-28	-74	-1
63	40	-11
139	162	-24
175	238	-29
171	241	-40
129	177	-34
72	89	-35
16	15	-40
-30	-20	-38
-66	-31	-32
-103	-43	-24
-138	-78	-17
-176	-127	-14
-198	-169	-22
-194	-173	-13
-152	-131	-6
-75	-58	-27
21	12	-42
114	56	-37
178	74	-18
204	81	-15
194	94	-15
159	118	-12
111	132	-24
62	113	-17
16	49	-22
-31	-49	-39
-83	-140	-45
-137	-192	-48
-184	-181	-33
-213	-120	-21
-208	-41	-17
-165	21	-9
-86	49	2
16	49	-8
118	39	-11
198	38	-13
240	55	-5
241	83	0
204	104	-7
151	105	-8
91	79	-19
36	26	-40
-19	-40	-50
-82	-108	-39
-154	-162	-43
-230	-184	-54
-289	-170	-63
-310	-118	-58
-272	-47	-20
-178	23	-2
-44	77	-18
99	103	-6
221	106	14
301	105	22
329	101	36
310	95	7
252	82	0
167	52	-1
66	9	-24
-34	-40	-35
-126	-79	-47
-190	-93	-38
-221	-90	-42
-210	-76	-44
-170	-64	-40
-109	-58	-42
-37	-47	-34
32	-20	-31
97	31	-28
145	95	-34
175	150	-42
175	171	-42
143	143	-37
84	74	-38
2	-16	-24
-86	-93	-8
-166	-137	-1
-222	-144	8
-247	-124	13
-234	-98	-3
-182	-78	-25
-100	-70	-35
2	-64	-27
101	-51	-15
179	-17	-38
211	33	-43
196	88	-29
142	129	-19
76	138	-4
18	114	-5
-14	61	-7
-28	-2	-19
-45	-64	-32
-82	-115	-31
-143	-148	-31
-211	-162	-42
-253	-154	-40
-240	-120	-32
-162	-58	-34
-40	18	-31
86	89	-31
178	131	-22
216	131	-14
212	99	-15
184	56	-14
156	31	-6
136	35	0
111	53	-17
64	63	-33
-14	40	-32
-110	-16	-34
-197	-90	-37
-245	-144	-36
-235	-157	-32
-176	-123	-17
-88	-58	-16
4	10	-23
80	65	-24
136	106	-19
179	134	-13
210	157	-7
225	165	-32
211	150	-37
159	105	-22
67	40	-33
-52	-27	-38
-173	-77	-34
-270	-104	-17
-317	-121	-17
-307	-140	-10
-245	-173	-6
-151	-199	-11
-43	-196	-27
56	-143	-40
136	-39	-7
190	87	3
216	195	-6
222	244	-9
203	228	-4
165	156	-13
105	64	-22
24	-21	-28
-63	-91	-46
-153	-142	-50
-218	-183	-55
-245	-205	-49
-224	-196	-25
-158	-145	-8
-62	-52	-11
36	58	-12
118	153	-10
172	196	-4
194	182	-1
191	121	-21
166	50	-36
125	-4	-35
70	-28	-30
5	-29	-31
-66	-30	-24
-134	-47	-18
-185	-86	-25
-208	-135	-26
-198	-171	-34
-162	-177	-39
-104	-137	-30
-34	-60	-22
41	38	-20
118	131	-7
186	198	1
236	225	-7
256	211	-8
242	170	-12
188	119	-20
105	80	-17
4	60	-19
-96	51	-30
-185	38	-26
-249	-2	-21
-280	-80	-27
-277	-188	-16
-236	-296	-31
-164	-362	-43
-75	-355	-43
13	-261	-39
86	-96	-21
131	98	-36
150	264	-51
150	356	-34
139	345	-11
124	252	-8
98	104	-1
60	-51	-1
5	-170	-11
-63	-234	-22
-135	-238	-30
-195	-199	-27
-229	-136	-35
-228	-62	-32
-182	7	-26
-96	67	-31
20	112	-32
150	139	-29
262	149	-30
328	137	-23
320	116	-16
240	87	-22
105	57	-27
-41	25	-17
-164	-11	0
-234	-51	6
-253	-96	-6
-236	-133	-21
-203	-153	-27
-166	-149	-32
-113	-117	-23
-39	-66	-20
64	-8	-17
180	44	-13
280	88	-13
334	113	-24
328	123	-36
268	119	-32
179	101	-25
85	71	-14
-4	34	-16
-83	-5	-30
-157	-43	-37
-225	-75	-35
-274	-98	-28
-291	-113	-27
-262	-121	-24
-195	-117	-25
-104	-97	-28
-11	-60	-42
71	-4	-40
136	60	-24
187	119	-12
222	154	3
232	156	3
205	126	0
137	70	-15
36	6	-6
-78	-56	-1
-173	-110	-17
-229	-152	-23
-237	-178	-35
-208	-179	-32
-156	-151	-32
-95	-89	-33
-29	-5	-45
38	80	-48
101	139	-46
151	155	-42
172	128	-28
162	72	-32
119	14	-26
64	-30	-12
9	-50	-11
-28	-57	-24
-54	-66	-18
-78	-86	-13
-103	-108	-18
-132	-113	-4
-148	-90	8
-136	-31	-7
-88	47	-5
-6	115	1
87	150	-19
170	138	-30
226	98	-35
251	51	-29
240	24	-40
201	26	-51
132	41	-45
44	48	-32
-61	20	-20
-164	-42	-13
-242	-122	-20
-277	-185	-35
-264	-200	-32
-217	-162	-37
-148	-80	-34
-71	11	-34
4	84	-20
80	120	-12
156	126	-17
222	117	-1
260	106	15
249	105	20
175	100	-5
54	80	-27
-86	37	-11
-201	-20	1
-264	-78	-5
-267	-120	-17
-225	-138	-32
-162	-137	-32
-103	-126	-37
-52	-108	-28
-4	-82	-36
52	-37	-47
117	31	-46
175	113	-46
209	186	-39
201	221	-40
155	191	-36
86	98	-32
15	-29	-15
-37	-152	-12
-77	-224	-15
-107	-225	-19
-140	-160	-33
-172	-64	-35
-183	20	-31
-158	64	-22
-92	52	-17
-1	3	-27
89	-56	-37
144	-85	-23
160	-58	-20
139	19	-23
107	120	-20
78	196	-24
60	210	-18
38	139	-8
-1	9	14
-63	-131	16
-135	-231	9
-191	-245	-3
-205	-182	-4
-165	-77	-18
-82	16	-32
19	62	-23
110	60	-40
172	41	-42
204	43	-48
206	83	-50
189	145	-30
155	193	-8
107	189	1
42	126	-3
-27	26	-15
-94	-71	-35
-145	-137	-35
-175	-157	-26
-186	-152	-17
-180	-140	-30
-162	-134	-39
-125	-126	-25
-68	-93	-30
9	-31	-28
98	51	-30
178	124	-22
228	158	-14
232	141	-11
193	91	-4
127	39	-12
56	12	-34
-10	15	-43
-65	27	-43
-120	21	-36
-177	-21	-30
-229	-87	-43
-262	-149	-32
-248	-171	-16
-182	-135	-15
-70	-56	-21
55	34	-19
166	105	-22
230	131	-45
242	119	-43
211	81	-9
154	43	-4
85	17	-26
14	3	-17
-60	-7	-14
-136	-26	-19
-199	-53	-28
-239	-86	-19
-236	-109	-11
-194	-116	-6
-121	-102	3
-36	-66	2
39	-22	-18
102	30	-33
148	80	-32
183	120	-40
206	138	-25
208	127	-15
178	86	-14
111	18	-9
19	-55	-14
-80	-117	-40
-156	-148	-67
-191	-144	-59
-188	-119	-48
-157	-90	-43
-114	-67	-18
-74	-54	16
-40	-35	18
-7	5	-2
29	72	-15
69	150	-12
107	215	-11
132	228	-7
139	181	-4
124	84	-13
90	-30	-21
46	-119	-26
0	-159	-37
-49	-147	-44
-95	-105	-42
-134	-62	-48
-157	-43	-38
-156	-42	-30
-120	-47	-23
-54	-37	-6
33	1	-9
122	53	-20
192	104	-28
226	129	-31
219	121	-24
178	87	-31
114	44	-47
41	12	-40
-35	-9	-14
-107	-24	-6
-177	-49	-1
-237	-89	-4
-269	-131	-8
-259	-167	-2
-195	-167	-10
-85	-123	-21
51	-44	-32
182	50	-17
276	134	-20
319	189	-25
306	207	-28
250	198	-37
164	170	-21
59	131	-7
-57	81	-9
-172	13	-22
-267	-67	-32
-321	-151	-39
-318	-213	-33
-262	-238	-35
-173	-216	-47
-80	-167	-32
-3	-107	-27
47	-56	-31
89	-21	-17
130	15	-11
179	58	-20
221	112	-25
232	158	-14
193	169	-7
102	128	-5
-14	40	-7
-122	-62	-9
-191	-142	-2
-215	-170	-12
-202	-144	-25
-172	-88	-42
-135	-32	-57
-95	3	-53
-40	22	-50
33	38	-37
116	68	-16
191	108	-17
230	142	-26
223	151	-19
169	120	-19
92	56	-27
13	-22	-20
-49	-96	-13
-94	-153	-16
-125	-186	-13
-148	-196	-17
-161	-183	-24
-157	-140	-25
-128	-70	-24
-71	18	-36
-2	110	-49
69	187	-34
126	236	-12
162	251	0
175	238	-10
166	199	-6
138	139	-5
89	62	-17
19	-22	-20
-70	-103	-33
-164	-164	-40
-241	-192	-36
-282	-192	-26
-273	-171	-28
-212	-144	-37
-107	-116	-32
17	-79	-28
135	-27	-23
228	40	-28
275	108	-21
275	153	-8
236	159	-3
170	124	7
93	67	-7
17	6	-25
-55	-44	-15
-126	-88	-16
-195	-131	-17
-255	-182	-15
-287	-222	-27
-273	-218	-28
-199	-163	-19
-78	-55	-27
63	68	-49
182	163	-47
244	198	-30
238	178	-40
184	136	-35
115	106	-32
59	108	-35
31	122	-20
13	109	-4
-10	43	11
-56	-69	16
-117	-192	7
-168	-273	0
-181	-270	2
-142	-190	-18
-64	-74	-22
28	32	-29
107	96	-44
157	114	-45
176	112	-62
184	115	-68
181	130	-67
170	142	-49
132	131	-17
60	82	3
-48	7	-16
-178	-72	-37
-295	-127	-24
-366	-148	-23
-378	-142	-1
-328	-129	11
-228	-121	8
-100	-113	12
36	-92	14
166	-43	2
271	30	-32
345	114	-33
373	185	-28
359	225	-31
300	233	-47
212	213	-47
106	174	-44
-2	106	-45
-105	8	-19
-193	-126	8
-256	-274	15
-282	-387	-19
-271	-418	-31
-221	-336	-24
-145	-160	-36
-69	55	-35
-10	238	-40
32	331	-56
56	325	-63
80	244	-60
104	136	-57
122	40	-23
110	-32	4
58	-84	2
-37	-126	18
-147	-161	12
-231	-177	-4
-256	-165	-8
-212	-129	-17
-117	-83	-31
-10	-46	-40
75	-31	-35
120	-22	-41
132	-2	-37
139	43	-32
160	106	-16
196	161	-5
230	174	-2
236	135	2
188	60	-13
88	-14	-23
-44	-49	-24
-175	-34	-23
-271	11	-30
-312	48	-30
-300	39	-30
-244	-20	-30
-165	-100	-25
-76	-154	-28
14	-150	-27
99	-80	-21
172	22	-17
229	105	-2
254	132	4
242	95	5
190	20	-6
104	-49	-30
0	-80	-30
-101	-65	-25
-180	-32	-35
-226	-11	-46
-234	-28	-47
-207	-71	-44
-152	-115	-30
-78	-121	-28
7	-76	-38
94	7	-21
171	93	-14
230	148	-12
255	157	-4
245	126	-14
201	85	-6
126	53	3
35	31	-11
-61	8	-22
-152	-34	-25
-228	-95	-32
-278	-153	-42
-296	-175	-41
-272	-142	-42
-212	-59	-31
-119	41	-12
-13	116	-13
89	139	-8
167	113	-14
209	65	-18
216	32	-4
199	25	3
164	38	-1
120	38	-12
71	5	-24
21	-63	-37
-30	-137	-35
-78	-181	-30
-118	-175	-32
-144	-123	-37
-156	-54	-44
-138	-1	-32
-96	26	-24
-27	37	-27
58	56	-20
143	96	-25
209	154	-24
232	201	-24
206	208	-32
138	162	-40
45	77	-42
-47	-15	-47
-123	-84	-32
-176	-114	0
-203	-118	17
-210	-116	2
-200	-122	-15
-168	-134	2
-111	-131	-9
-32	-95	-27
58	-21	-30
141	71	-40
197	145	-40
214	171	-22
190	139	-15
128	66	-18
46	-19	-15
-46	-89	-26
-132	-134	-35
-197	-157	-30
-231	-171	-19
-228	-181	-8
-184	-174	-13
-115	-139	-13
-32	-69	-15
50	24	-20
125	114	-19
186	169	-22
229	174	-28
252	141	-27
245	100	-33
210	76	-43
141	74	-35
50	79	-30
-44	62	-30
-129	8	-29
-189	-71	-31
-227	-148	-22
-239	-178	-16
-232	-149	-21
-202	-75	-20
-151	7	-30
-77	56	-36
13	61	-46
102	41	-47
170	31	-44
203	53	-48
203	104	-23
175	154	-4
136	161	-9
94	110	-4
46	14	22
-12	-86	25
-91	-151	1
-182	-163	-11
-263	-134	-27
-308	-95	-43
-291	-64	-32
-205	-45	-19
-68	-21	-24
81	27	-25
203	97	-12
269	165	-15
276	196	-33
234	169	-28
163	86	-27
88	-18	-32
19	-105	-27
-41	-149	-23
-97	-149	-13
-148	-133	-23
-190	-126	-26
-212	-143	-23
-205	-166	-26
-165	-167	-31
-96	-125	-44
-10	-40	-28
79	61	-12
155	143	-30
211	183	-30
238	180	-5
237	150	-4
203	119	-18
139	101	-34
51	86	-23
-51	55	-6
-155	-9	-18
-235	-101	-15
-279	-190	-6
-276	-237	-23
-226	-215	-30
-139	-126	-3
-40	-1	4
50	110	-22
121	171	-32
169	171	-23
196	134	-9
207	86	-18
205	53	-25
183	38	-28
132	21	-37
54	-15	-30
-43	-78	-39
-139	-150	-43
-212	-199	-38
-241	-202	-33
-228	-151	-28
-181	-69	-24
-118	9	-24
-51	61	-21
17	82	-18
86	92	-17
154	112	-12
204	154	-15
226	202	-19
198	231	-23
128	213	-27
29	139	-30
-69	35	-31
-142	-77	-23
-178	-167	-10
-181	-230	-4
-164	-265	0
-138	-282	-6
-106	-272	-30
-60	-224	-30
4	-125	-27
86	9	-32
166	145	-25
221	240	-30
231	257	-37
193	196	-49
123	92	-52
44	-9	-52
-24	-66	-38
-79	-76	-19
-120	-55	-23
-159	-42	-9
-197	-55	-3
-222	-87	-9
-217	-112	-4
-172	-104	-1
-84	-54	-13
28	20	-31
136	90	-21
216	131	-21
252	136	-31
239	116	-24
191	90	-15
121	68	-9
42	53	-10
-37	35	-8
-111	7	-10
-173	-33	-19
-211	-81	-27
-222	-127	-20
-201	-169	-21
-150	-195	-19
-77	-192	-12
3	-147	-18
78	-47	-36
137	89	-40
179	229	-32
202	317	-34
210	312	-26
198	205	-22
170	36	-24
116	-126	-20
37	-226	-26
-63	-232	-31
-172	-169	-27
-262	-93	-35
-310	-51	-34
-291	-62	-36
-209	-98	-26
-87	-111	-36
42	-64	-63
140	40	-43
193	166	-27
202	261	-5
184	289	7
159	251	-1
133	168	10
100	77	2
42	-6	-15
-47	-80	-26
-160	-157	-24
-269	-242	-19
-339	-309	-23
-345	-330	-30
-282	-274	-30
-173	-149	-34
-46	10	-30
66	147	-11
148	215	-19
198	208	-19
226	156	-20
237	105	-36
230	85	-25
204	95	-11
153	102	-16
80	67	-13
-4	-16	-5
-82	-126	-17
-138	-213	-27
-168	-233	-34
-172	-171	-25
-157	-57	-23
-123	54	-29
-74	126	-23
0	137	-42
88	111	-57
175	80	-48
238	65	-54
251	72	-28
200	81	11
98	68	14
-26	23	26
-140	-40	21
-214	-103	-9
-243	-148	-19
-236	-170	-19
-206	-180	-29
-166	-182	-36
-112	-176	-36
-42	-143	-37
44	-75	-27
135	31	-20
210	150	-12
245	244	-20
231	279	-15
176	244	-12
107	160	-28
50	59	-36
8	-20	-30
-22	-67	-16
-55	-94	-26
-104	-116	-25
-165	-147	-18
-213	-174	-19
-226	-175	-26
-183	-125	-25
-95	-27	-27
14	90	-34
110	182	-37
164	211	-46
171	171	-41
144	88	-36
102	3	-19
64	-48	-13
33	-62	-15
5	-55	-5
-30	-57	-11
-76	-83	-12
-128	-124	-14
-174	-154	-23
-198	-149	-35
-187	-103	-31
-138	-31	-18
-60	38	-19
34	85	-43
124	106	-42
192	116	-32
221	126	-2
209	131	13
166	126	-15
104	87	-8
42	17	-12
-10	-66	-22
-52	-134	-23
-91	-158	-25
-125	-135	-25
-153	-84	-26
-162	-35	-33
-139	-8	-40
-81	-3	-33
0	-1	-55
75	17	-52
122	59	-25
129	115	-25
104	158	-34
61	169	-23
24	137	-8
-4	70	-14
-29	-13	-7
-63	-102	17
-114	-177	30
-168	-230	9
-203	-247	-9
-198	-218	-17
-142	-145	-17
-50	-41	-15
52	61	-31
136	138	-39
189	171	-49
209	165	-45
212	143	-34
206	130	-50
187	135	-25
143	139	13
67	116	4
-39	43	0
-152	-72	-11
-241	-196	-14
-281	-286	-18
-267	-301	-21
-209	-240	-26
-127	-131	-32
-42	-22	-30
40	51	-36
115	82	-38
184	85	-47
241	93	-49
268	117	-50
254	154	-51
199	171	-42
114	138	-26
20	48	-15
-62	-75	-13
-125	-181	-6
-170	-224	0
-200	-180	-7
-219	-78	-2
-219	34	4
-195	100	-7
-141	88	-15
-65	17	-25
19	-68	-30
97	-109	-33
156	-79	-39
193	11	-43
204	112	-50
191	169	-56
150	149	-50
83	60	-34
-1	-47	-18
-88	-126	16
-158	-143	39
-195	-100	29
-201	-33	3
-181	19	-30
-148	31	-36
-108	17	-44
-60	-3	-49
-2	4	-35
69	41	-26
141	93	-21
195	129	-23
206	125	-25
172	80	-28
97	12	-35
4	-51	-36
-83	-92	-32
-143	-107	-25
-170	-110	-26
-171	-116	-33
-144	-123	-12
-99	-121	16
-36	-93	5
36	-25	-34
107	65	-38
158	159	-19
169	222	-42
139	232	-35
76	181	-24
2	89	-37
-62	-21	-34
-103	-123	-28
-118	-195	9
-115	-228	24
-101	-218	23
-89	-179	2
-67	-119	-23
-39	-55	-34
2	0	-51
50	43	-46
96	75	-33
123	103	-25
132	127	-33
123	150	-20
107	160	-23
98	144	-32
89	103	-22
80	35	0
54	-36	18
12	-96	4
-49	-127	1
-113	-127	-13
-161	-109	-27
-178	-85	-44
-160	-64	-59
-112	-46	-58
-46	-21	-52
22	21	-42
88	77	-40
138	129	-40
171	158	-40
178	147	-21
154	96	3
99	26	-1
17	-38	-1
-76	-80	5
-163	-97	-19
-226	-101	-24
-257	-111	-14
-248	-127	-21
-206	-139	-30
-135	-125	-27
-43	-69	-15
56	16	-12
154	108	-11
230	169	-15
269	181	-27
266	150	-28
226	96	-31
161	49	-33
85	22	-31
9	6	-32
-63	-18	-35
-133	-58	-37
-199	-113	-32
-250	-159	-25
-273	-174	-19
-255	-148	-30
-191	-92	-46
-96	-32	-54
12	12	-64
106	36	-42
175	53	-6
216	83	19
237	134	38
242	197	26
226	241	16
178	235	-15
94	158	-35
-29	18	-28
-172	-147	-33
-296	-289	-23
-373	-363	-16
-375	-355	-10
-303	-271	-11
-181	-144	-8
-45	-18	-13
74	79	-23
151	131	-35
188	145	-46
190	135	-40
172	120	-38
148	106	-32
116	91	-33
77	67	-25
23	31	-25
-39	-15	-25
-102	-64	-18
-152	-106	-19
-172	-129	-22
-162	-130	-26
-119	-108	-25
-58	-66	-29
11	-13	-31
77	45	-30
135	100	-27
182	140	-25
211	159	-21
219	154	-20
196	125	-24
140	83	-24
61	30	-31
-30	-24	-26
-115	-75	-19
-175	-117	-36
-206	-140	-37
-202	-144	-19
-175	-126	-24
-133	-94	-26
-78	-55	-31
-16	-18	-34
51	13	-23
117	44	-20
170	83	16
196	133	69
186	183	49
139	215	0
68	204	-9
-12	131	-30
-82	3	-34
-132	-154	-35
-165	-294	-53
-181	-372	-44
-191	-358	-45
-190	-256	-44
-169	-103	-33
-117	47	-18
-31	150	-20
78	180	-27
183	151	-27
251	100	-23
261	68	-12
212	72	-16
128	101	-15
41	119	-13
-24	96	-13
-58	23	-21
-80	-72	-32
-107	-149	-33
-151	-170	-31
-195	-127	-30
-219	-53	-27
-188	15	-19
-99	45	-21
26	37	-24
149	16	-27
226	12	-25
244	40	-33
204	85	-41
140	114	-45
77	98	-46
26	31	-37
-16	-58	-22
-62	-136	-5
-120	-167	-3
-175	-149	-4
-207	-102	9
-201	-57	2
-150	-36	3
-70	-28	0
14	-14	-20
81	26	-18
125	92	-23
151	161	-28
166	199	-45
171	183	-42
156	119	-32
112	30	-34
34	-47	-30
-63	-95	-30
-158	-112	-28
-221	-117	-30
-239	-126	-21
-214	-139	-20
-165	-139	-15
-107	-101	-16
-50	-22	-20
8	76	-23
77	155	-23
151	177	-16
223	135	-16
268	53	-7
263	-20	-10
207	-50	-20
105	-29	-20
-10	15	-16
-114	37	-21
-181	9	-31
-212	-66	-26
-209	-150	-23
-186	-196	-28
-148	-179	-26
-93	-103	-34
-24	-6	-44
55	72	-52
135	111	-61
196	116	-57
225	106	-51
213	105	-52
169	115	-49
100	121	-35
24	109	-12
-50	68	1
-115	10	8
-168	-54	10
-205	-110	11
-223	-156	20
-212	-188	16
-174	-196	15
-108	-171	1
-23	-94	-28
65	26	-27
145	153	-32
201	235	-37
219	221	-43
199	110	-48
147	-54	-32
69	-192	-25
-15	-242	-14
-93	-181	-8
-154	-55	-8
-191	57	-6
-206	92	-17
-195	30	-38
-162	-78	-35
-109	-158	-26
-39	-148	-26
41	-39	-48
121	117	-50
189	250	-38
234	301	-32
245	261	9
231	165	11
184	61	-6
115	-16	3
33	-62	-12
-50	-95	-13
-130	-128	-27
-194	-162	-38
-235	-177	-16
-244	-155	-28
-214	-97	-26
-151	-24	-17
-60	35	-35
39	61	-27
125	62	-12
180	61	-16
194	87	-28
167	136	-22
113	182	-16
46	187	-25
-20	122	-20
-74	1	-8
-117	-137	-6
-142	-240	0
-152	-271	-17
-138	-230	-38
-103	-147	-40
-51	-63	-47
10	-8	-42
62	20	-35
103	38	-34
124	71	-27
139	119	-17
154	168	-22
164	183	-26
159	155	-25
124	79	-30
52	-20	-31
-48	-107	-34
-154	-155	-33
-237	-160	-30
-273	-133	-20
-260	-99	-17
-207	-72	-19
-135	-57	-11
-62	-41	-18
10	-13	-26
83	34	-18
159	90	-19
225	139	-24
262	164	-15
254	153	2
193	110	6
93	51	0
-19	-6	-18
-111	-53	-34
-170	-86	-46
-193	-106	-45
-195	-119	-44
-184	-125	-39
-164	-125	-31
-124	-109	-34
-59	-80	-26
28	-37	-22
127	14	-14
209	63	-6
251	108	-12
239	138	-19
182	151	-8
94	142	-14
2	109	-25
-80	53	-25
-139	-21	-36
-178	-95	-35
-195	-153	-31
-194	-173	-23
-173	-149	-18
-133	-84	-13
-76	5	-7
-3	89	-15
76	149	-35
148	165	-46
206	139	-40
234	80	-44
226	6	-42
180	-62	-21
106	-111	-5
17	-131	-4
-69	-125	-10
-144	-99	-9
-197	-69	-16
-231	-48	-25
-245	-43	-27
-235	-52	-24
-195	-60	-21
-121	-55	-15
-16	-21	-18
106	42	-31
216	122	-31
280	194	-28
285	233	-19
226	227	-16
124	170	-18
14	76	-8
-74	-38	-19
-126	-148	-24
-145	-232	-27
-148	-275	-42
-147	-273	-36
-150	-230	-36
-148	-151	-23
-120	-54	-4
-58	41	-3
36	122	1
144	177	-7
238	204	2
288	203	6
280	177	-31
225	129	-27
132	63	-21
27	-11	-37
-71	-83	-28
-155	-138	-28
-217	-170	-23
-257	-171	-13
-269	-151	-18
-249	-116	-38
-191	-77	-52
-103	-37	-62
6	5	-42
111	51	-19
199	101	-10
250	145	-5
261	170	-11
234	169	-12
180	143	-42
106	106	-48
24	64	-35
-58	27	-16
-134	-13	8
-191	-62	15
-225	-122	2
-226	-179	-24
-194	-209	-28
-135	-190	-32
-57	-111	-28
25	10	-31
104	136	-33
166	223	-22
203	235	-18
212	171	-16
191	61	-31
140	-47	-35
66	-116	-23
-22	-129	-26
-110	-96	-26
-185	-57	-26
-235	-48	-28
-250	-84	-31
-232	-150	-28
-181	-207	-27
-109	-213	-27
-22	-147	-21
66	-22	-26
151	121	-19
221	233	-12
267	279	-23
287	261	-44
272	195	-36
216	114	-17
123	31	-15
0	-46	-24
-141	-124	-22
-274	-200	-32
-375	-259	-36
-419	-273	-10
-392	-226	-7
-304	-122	-14
-168	5	-10
-16	108	-8
125	159	-15
236	154	-18
302	123	-25
330	103	-18
317	105	-9
267	122	-19
184	120	-10
81	79	-5
-33	-2	-21
-135	-92	-30
-208	-144	-31
-241	-143	-34
-236	-98	-32
-201	-43	-25
-152	-9	-16
-92	-5	-30
-23	-12	-34
55	7	-26
138	61	-30
210	134	-32
252	179	-44
249	158	-31
198	67	-25
115	-52	-39
18	-145	-37
-72	-175	-30
-150	-141	-14
-208	-86	-6
-253	-60	7
-272	-87	7
-258	-143	-4
-195	-177	-21
-86	-144	-39
46	-36	-35
172	103	-40
260	213	-30
287	252	0
262	210	22
203	128	4
135	54	-22
68	18	-13
6	15	-13
-59	17	-19
-127	-5	-45
-191	-57	-52
-237	-112	-39
-247	-139	-48
-215	-113	-49
-150	-44	-57
-63	35	-55
22	90	-36
96	99	-19
144	67	-6
165	19	22
162	-22	47
135	-46	14
96	-53	-2
44	-56	-9
-5	-68	-32
-53	-85	-33
-99	-100	-38
-140	-103	-37
-174	-94	-32
-189	-69	-26
-172	-39	-22
-110	-11	-9
-9	18	-11
115	45	-19
236	77	-23
321	113	-30
354	149	-15
326	174	-20
245	175	-33
125	145	-30
-14	78	-38
-152	-13	-47
-262	-101	-34
-330	-161	-36
-337	-178	-41
-288	-160	-27
-206	-122	-24
-111	-92	-8
-30	-74	-14
30	-60	-21
78	-31	-18
128	32	-27
183	122	-16
234	209	-13
259	250	-19
234	215	-21
150	114	-26
26	-18	-34
-104	-127	-28
-208	-181	-34
-260	-171	-30
-262	-126	-22
-228	-79	-20
-169	-49	-21
-101	-39	-32
-24	-25	-15
57	8	-18
138	60	-19
202	110	-3
234	137	-18
229	124	-15
192	78	-19
138	18	-25
77	-33	-17
15	-66	-42
-50	-90	-47
-120	-109	-25
-188	-127	-7
-239	-135	-7
-250	-115	-21
-214	-57	-35
-138	32	-30
-44	125	-30
44	190	-30
106	201	-16
141	162	-15
159	91	-30
166	20	-31
159	-24	-17
131	-42	-10
71	-48	-8
-19	-66	-17
-124	-110	-11
-215	-168	-23
-262	-218	-46
-257	-222	-35
-201	-166	-20
-116	-62	-36
-25	53	-32
55	135	0
122	157	-4
178	116	-23
222	47	-22
248	-9	-31
244	-21	-34
196	11	-17
107	56	-11
-4	77	-10
-118	45	-30
-203	-29	-19
-245	-118	-21
-241	-175	-22
-195	-178	-4
-137	-125	-36
-75	-38	-28
-17	45	5
37	109	0
92	145	-12
148	168	-8
198	183	-21
229	190	-23
226	180	-4
178	133	-20
95	50	-25
-13	-56	-37
-117	-155	-43
-198	-218	-40
-240	-232	-46
-240	-192	-28
-205	-124	-28
-144	-49	-32
-71	11	-23
5	51	-18
80	76	-27
148	88	-38
199	96	-35
229	100	-31
225	97	-19
183	76	-11
107	40	-19
12	-6	-13
-86	-60	8
-170	-108	-15
-224	-144	-21
-241	-163	-8
-223	-159	-19
-174	-129	-21
-105	-76	-31
-26	-4	-27
52	75	-26
125	142	-32
183	185	-46
221	192	-38
231	168	-17
212	123	-27
164	72	-25
89	26	-15
-4	-13	-27
-102	-49	-39
-186	-90	-25
-248	-130	-14
-271	-160	-25
-260	-166	-42
-216	-133	-23
-151	-70	-17
-75	8	-32
7	72	-22
85	105	-16
159	101	-28
216	69	-33
261	32	-16
270	0	-16
244	-22	-22
167	-43	-27
53	-71	-27
-83	-108	-20
-212	-149	-13
-306	-175	-10
-340	-173	-30
-305	-137	-28
-212	-79	-30
-84	-11	-22
50	53	-12
166	105	-6
249	140	2
291	161	-15
299	168	-9
269	158	-18
212	131	-34
127	93	-40
22	45	-48
-87	3	-36
-181	-35	-26
-243	-61	-12
-262	-83	-15
-245	-96	-12
-196	-101	8
-133	-93	3
-64	-62	0
6	-14	-12
75	48	-34
139	109	-42
189	150	-43
209	162	-31
187	134	-22
125	79	-38
35	6	-30
-61	-63	-10
-139	-120	-15
-185	-157	-14
-193	-170	-27
-175	-166	-39
-139	-144	-28
-99	-111	-32
-58	-66	-30
-15	-15	-32
32	38	-43
82	91	-40
128	134	-40
169	168	-22
190	186	-24
190	190	-35
161	173	9
101	127	30
17	46	22
-78	-70	13
-162	-206	-17
-214	-329	-32
-218	-393	-24
-178	-362	-15
-107	-232	-21
-30	-29	-37
32	179	-43
72	323	-51
95	350	-50
110	257	-32
124	93	-23
136	-70	-12
135	-164	-15
110	-167	-21
54	-102	-20
-24	-27	-35
-106	7	-43
-173	-22	-37
-209	-90	-32
-211	-148	-39
-182	-151	-37
-130	-89	-27
-67	14	-27
3	114	-19
69	178	-4
125	194	-4
163	178	4
178	150	10
171	125	7
151	96	-4
122	47	-21
89	-24	-31
40	-102	-23
-19	-154	-16
-88	-154	-21
-153	-100	-26
-191	-17	-30
-191	51	-42
-142	71	-52
-65	36	-47
13	-23	-41
68	-72	-32
88	-80	-30
81	-43	-16
63	12	8
58	53	4
67	58	-13
80	28	-28
72	-19	-31
35	-58	-30
-29	-80	-27
-99	-79	-30
-142	-64	-19
-145	-42	1
-107	-12	0
-43	28	-18
21	75	-44
70	114	-41
102	131	-30
117	110	-23
125	56	-19
120	-11	-16
94	-65	-11
41	-88	-18
-36	-79	-17
-119	-53	-26
-186	-39	-38
-217	-51	-40
-209	-82	-45
-172	-114	-21
-120	-121	-7
-67	-90	-15
-14	-27	-16
44	45	-25
109	103	-22
172	131	-30
224	124	-42
240	100	-27
215	68	-17
154	41	-10
72	19	-16
-10	-7	-12
-85	-38	-19
-150	-74	-41
-206	-101	-52
-249	-110	-50
-267	-96	-30
-242	-60	-15
-170	-18	-14
-55	24	-21
76	57	-21
190	84	-16
261	106	-7
279	124	-2
254	134	-8
201	126	-18
137	91	-18
68	29	-11
-5	-46	-16
-92	-116	-30
-187	-163	-28
-275	-171	-17
-336	-151	-26
-342	-110	-34
-282	-67	-38
-167	-32	-26
-21	-4	-23
121	25	-37
229	60	-37
283	98	-21
292	123	-7
265	117	-3
222	69	4
167	-13	-14
105	-105	-24
27	-169	-23
-62	-181	-27
-158	-137	-34
-239	-64	-32
-279	6	-23
-267	47	-27
-198	51	-21
-95	38	-12
21	33	-19
119	56	-35
183	108	-35
210	171	-32
199	218	-27
162	222	-34
107	171	-54
40	74	-37
-36	-53	-24
-113	-183	-23
-184	-283	-18
-234	-332	-4
-252	-309	8
-232	-224	13
-170	-105	19
-77	9	-15
33	80	-30
138	99	-30
215	83	-29
255	62	-19
258	72	-23
228	116	-16
175	168	-39
115	183	-57
44	138	-26
-32	34	-4
-109	-98	-3
-178	-204	-9
-224	-253	-12
-230	-233	-14
-194	-166	-18
-124	-81	-28
-41	0	-43
33	67	-49
85	128	-48
112	183	-50
125	228	-43
128	244	-27
122	223	-27
98	154	-25
49	49	-24
-23	-64	-19
-109	-164	-6
-185	-230	-8
-232	-251	-1
-242	-233	9
-223	-183	1
-176	-120	-18
-112	-55	-27
-28	-4	-26
75	33	-33
188	62	-41
290	92	-33
346	123	-13
339	155	-4
258	173	-9
132	161	-25
-2	112	-33
-105	34	-33
-160	-46	-40
-178	-109	-44
-181	-137	-49
-190	-129	-49
-201	-96	-43
-198	-49	-36
-153	0	-17
-60	46	16
64	88	21
186	114	7
266	117	3
283	91	-5
244	43	-20
169	-9	-20
87	-45	-21
16	-55	-23
-45	-50	-24
-104	-51	-33
-165	-85	-32
-216	-143	-45
-242	-209	-46
-226	-240	-36
-160	-210	-38
-61	-117	-26
46	7	-5
134	119	-7
190	185	-26
207	201	-23
198	187	-21
172	165	-21
134	145	-30
82	118	-45
9	59	-28
-81	-28	-26
-177	-127	-24
-259	-199	-32
-305	-207	-46
-300	-151	-25
-241	-58	-9
-143	20	-16
-28	51	-28
81	35	-15
166	0	-15
216	-14	-13
238	12	-2
229	63	0
196	106	0
141	114	-18
72	81	-27
-7	24	-24
-91	-28	-12
-163	-61	-12
-214	-84	-22
-229	-109	-25
-205	-140	-17
-141	-164	-32
-50	-156	-42
48	-96	-25
134	3	-30
192	110	-24
212	186	-15
198	213	-38
159	200	-57
105	179	-40
44	170	-35
-17	168	-19
-83	135	-11
-148	43	-16
-205	-110	10
-241	-286	13
-242	-416	0
-201	-435	-27
-125	-334	-33
-28	-157	-20
71	26	-28
156	149	-20
212	186	-13
239	165	-20
238	134	-35
212	126	-36
164	137	-25
98	138	-3
23	100	-3
-55	16	-2
-123	-82	-7
-175	-143	-26
-207	-140	-40
-224	-77	-60
-225	6	-43
-210	58	-46
-174	50	-53
-108	-4	-37
-12	-62	-24
102	-86	-13
211	-52	0
281	18	16
292	85	0
238	110	-24
136	82	-24
17	15	-14
-87	-58	-19
-160	-110	-25
-195	-130	-23
-203	-127	-23
-191	-111	-32
-162	-90	-43
-112	-58	-39
-34	-11	-40
61	55	-35
161	131	-19
237	194	-13
269	221	-8
249	201	-7
187	138	-23
103	47	-20
16	-47	-9
-61	-127	-18
-128	-182	-27
-182	-203	-32
-226	-196	-35
-248	-166	-40
-240	-118	-42
-189	-60	-34
-97	3	-27
20	68	-20
139	131	-12
239	180	-17
300	211	-5
312	213	-10
274	183	-21
188	120	-23
67	35	-27
-71	-55	-13
-206	-135	-19
-307	-187	-21
-354	-201	-24
-338	-180	-25
-267	-135	-31
-162	-90	-44
-50	-55	-19
50	-43	2
129	-40	-25
184	-29	-30
222	13	-4
238	88	-3
228	177	-1
182	244	-10
106	250	-14
7	179	-12
-90	48	-21
-159	-93	-32
-191	-198	-35
-188	-233	-44
-158	-195	-51
-119	-119	-39
-80	-45	-32
-36	-7	-15
17	-5	-33
84	-22	-36
152	-31	-41
203	-13	-41
215	27	-13
178	80	-19
99	117	-16
2	128	-21
-86	108	-14
-147	62	-5
-174	3	-8
-184	-58	-22
-183	-109	-41
-179	-135	-40
-165	-131	-42
-126	-95	-23
-58	-33	-7
40	38	-8
148	101	-11
242	145	-12
300	163	-2
309	158	-11
270	133	-25
198	94	-33
105	40	-45
8	-23	-46
-81	-87	-40
-156	-139	-28
-206	-167	-34
-232	-164	-60
-229	-137	-42
-195	-96	1
-142	-56	14
-76	-27	9
-2	-6	-9
69	22	0
132	63	12
178	119	4
202	179	2
197	215	-21
163	211	-44
102	149	-40
21	33	-28
-68	-109	-36
-152	-245	-35
-218	-333	-35
-251	-351	-45
-250	-288	-42
-213	-168	-32
-149	-24	-15
-70	100	-8
13	171	-16
92	183	-27
164	150	-18
221	104	-4
253	71	-8
248	74	-1
198	102	8
104	126	-12
-19	122	-31
-142	64	-28
-234	-34	-29
-269	-151	-30
-245	-243	-34
-174	-278	-31
-88	-244	-28
-11	-153	-41
46	-38	-37
87	61	-28
122	120	-38
156	133	-33
188	116	-26
199	89	-40
180	70	-46
118	59	-32
27	47	-28
-78	15	-34
-174	-39	-20
-241	-100	-23
-274	-147	-29
-267	-153	-14
-223	-121	-17
-136	-63	1
-21	-8	7
114	29	-9
242	51	-9
334	75	-21
368	120	-23
333	182	-7
244	233	-8
121	235	-15
-4	164	-30
-115	28	-34
-204	-124	-27
-272	-235	-33
-318	-265	-18
-333	-216	-24
-312	-127	-39
-244	-49	-27
-135	-9	-33
-8	-2	-22
110	7	-7
198	47	-15
244	123	-15
251	200	-13
230	229	-15
193	177	-14
143	57	-32
78	-79	-30
-2	-173	-14
-91	-187	-11
-168	-136	-3
-214	-68	-20
-217	-33	-22
-176	-53	-23
-104	-105	-42
-22	-142	-32
53	-117	-42
117	-23	-58
164	105	-40
197	215	-22
209	256	-17
195	213	-17
145	113	-25
62	0	-21
-46	-89	-9
-158	-134	-7
-247	-142	-20
-291	-135	-19
-282	-125	-24
-230	-118	-20
-150	-105	-5
-65	-72	-22
9	-21	-19
68	41	-27
115	101	-38
161	143	-36
204	160	-34
239	154	-24
252	129	-18
226	92	12
152	45	-4
45	-8	-25
-74	-65	-18
-175	-120	-44
-236	-160	-25
-245	-175	2
-209	-161	-2
-150	-118	-27
-82	-60	-43
-21	2	-37
31	55	-30
78	95	-27
119	119	-41
153	131	-30
166	134	-20
153	120	-25
110	85	-16
49	27	1
-17	-43	1
-71	-109	-21
-108	-152	-32
-121	-149	-23
-116	-104	-26
-99	-32	-39
-71	35	-22
-40	81	-25
-4	92	-47
33	81	-43
66	66	-24
89	64	-19
98	74	-15
91	76	-6
70	48	-11
37	-18	-10
-4	-113	-8
-48	-203	-10
-96	-259	-16
-134	-254	-30
-160	-202	-30
-164	-122	-28
-145	-44	-56
-109	17	-59
-53	67	-33
7	115	-25
69	169	-14
123	215	-12
162	235	-20
175	207	-24
161	132	-24
123	38	-23
66	-47	-22
5	-94	-22
-52	-103	-18
-101	-91	-14
-139	-84	-15
-163	-94	-26
-166	-120	-36
-137	-142	-23
-71	-136	-20
26	-95	-17
133	-25	-11
222	57	-22
260	134	-46
234	195	-50
156	232	-46
53	237	-42
-40	201	-13
-107	123	-16
-143	11	-24
-166	-118	-9
-190	-227	10
-221	-283	20
-245	-275	-6
-239	-211	-9
-185	-117	-12
-80	-26	-25
58	36	-6
195	68	-3
296	78	-21
338	81	-38
324	90	-16
261	109	-20
178	125	-46
85	121	-34
-5	90	-26
-95	24	-21
-180	-60	-24
-250	-145	-34
-295	-203	-26
-295	-216	-39
-245	-180	-41
-149	-105	-30
-28	-15	-25
92	62	-14
187	114	-14
242	137	-22
254	143	-23
232	148	-34
186	154	-49
124	150	-32
54	118	-19
-20	41	-25
-90	-70	-18
-152	-192	-8
-194	-273	-5
-210	-282	-11
-199	-209	3
-163	-79	2
-107	55	-11
-37	145	-19
36	170	-18
107	136	-17
167	85	-32
202	49	-31
204	45	-34
172	55	-40
109	51	-37
31	14	-41
-46	-56	-31
-116	-127	-34
-169	-166	-48
-209	-150	-34
-237	-89	-20
-250	-19	-10
-237	26	6
-187	24	0
-95	-5	6
33	-36	13
172	-31	-6
299	19	-21
373	93	-42
385	161	-54
328	185	-44
218	154	-37
79	80	-24
-64	-8	-9
-188	-78	-2
-274	-112	-10
-313	-108	-14
-305	-81	-27
-258	-44	-34
-186	-21	-21
-103	-16	-24
-23	-32	-27
52	-57	-26
123	-74	-24
187	-61	-22
237	-15	-24
257	51	-21
234	112	-20
165	129	-30
60	85	-35
-53	-8	-31
-149	-114	-40
-202	-179	-40
-210	-175	-10
-181	-104	-1
-130	-4	-20
-71	68	-44
-14	85	-48
42	47	-32
96	-2	-28
134	-20	-27
154	18	-32
148	97	-28
118	168	-21
76	187	-15
28	129	0
-20	20	3
-70	-97	-7
-123	-174	-12
-174	-191	-10
-205	-159	-17
-202	-108	-32
-158	-64	-39
-78	-39	-31
18	-20	-16
103	11	-27
160	60	-32
184	118	-27
188	164	-30
175	174	-25
156	145	-20
118	79	-20
57	0	-18
-24	-72	-25
-112	-127	-34
-182	-154	-13
-215	-153	-14
-207	-129	-4
-169	-87	-9
-121	-36	-14
-75	15	-9
-37	53	-26
3	81	-12
51	98	-19
109	108	-25
163	112	-32
194	104	-34
188	81	-31
139	34	-45
64	-22	-31
-25	-78	-21
-107	-111	-20
-168	-115	-15
-197	-99	-11
-194	-76	-16
-154	-56	-19
-82	-40	-23
7	-16	-48
97	29	-55
162	91	-48
189	152	-53
172	179	-48
120	147	-30
48	59	-14
-22	-55	4
-82	-154	26
-123	-207	49
-141	-203	32
-137	-161	-1
-112	-110	-7
-70	-64	-21
-19	-31	-27
33	8	-27
81	54	-29
120	103	-44
151	134	-39
175	129	-29
190	93	-50
187	45	-46
156	19	-52
99	27	-55
20	57	-43
-63	76	-28
-136	50	-7
-191	-23	-3
-228	-124	-9
-248	-202	-18
-253	-223	-20
-237	-177	-17
-189	-93	-18
-103	-14	-36
11	32	-28
130	43	-18
224	47	-17
266	65	-10
253	106	-13
197	150	-15
125	161	-11
59	115	-13
2	21	-30
-47	-86	-32
-106	-165	-29
-172	-189	-14
-232	-162	-10
-259	-109	-30
-236	-59	-27
-155	-26	-23
-36	-2	-28
84	31	-33
175	80	-34
219	141	-37
216	193	-38
190	210	-26
147	179	-21
99	112	-5
37	30	1
-39	-41	-6
-132	-85	-17
-221	-102	-31
-277	-99	-21
-277	-94	-18
-221	-92	-24
-120	-92	-28
-12	-88	-30
76	-67	-24
131	-29	-38
159	29	-27
175	96	-17
191	154	-16
203	187	-11
194	180	-19
150	131	-19
67	47	-15
-38	-51	-15
-137	-144	-17
-201	-214	-17
-215	-248	-18
-189	-245	-21
-130	-205	-28
-64	-141	-32
2	-61	-36
66	19	-46
128	90	-47
182	137	-38
213	154	-32
211	145	-31
167	121	-10
90	88	4
-3	54	-4
-89	17	-10
-153	-28	-17
-194	-81	-25
-212	-130	-31
-213	-163	-34
-195	-157	-40
-155	-107	-42
-83	-24	-35
9	65	-22
105	129	-13
182	154	-13
216	134	-5
215	92	-3
183	51	-5
139	30	0
97	25	-9
56	21	-9
7	-4	-11
-59	-61	-30
-138	-134	-32
-210	-196	-27
-253	-214	-26
-249	-175	-33
-195	-90	-18
-110	10	-24
-13	92	-60
75	136	-56
142	144	-52
190	139	-57
214	139	-44
212	152	-25
175	160	-7
103	137	-10
0	72	-10
-111	-32	-4
-206	-143	0
-262	-225	-6
-273	-252	-30
-246	-225	-28
-194	-164	-38
-126	-97	-42
-53	-42	-31
27	4	-16
107	51	10
180	110	12
236	174	-3
258	215	-11
245	209	-16
196	145	-25
111	41	-20
6	-66	-20
-110	-144	-29
-217	-170	-30
-295	-155	-26
-320	-121	-23
-285	-95	-21
-191	-79	-30
-64	-59	-39
68	-23	-34
180	42	-33
257	119	-40
299	182	-38
306	202	-27
288	169	-20
245	95	-2
172	11	14
78	-58	10
-28	-102	-7
-126	-121	-17
-199	-130	-18
-237	-137	-29
-242	-135	-21
-221	-117	-24
-180	-75	-37
-123	-19	-36
-49	35	-36
36	70	-37
123	79	-45
192	74	-44
223	74	-28
206	86	-35
150	105	-31
66	108	-6
-22	76	-5
-104	3	-9
-174	-88	-18
-226	-164	-30
-256	-195	-30
-253	-173	-31
-212	-111	-25
-128	-37	-8
-22	22	0
85	59	-2
165	80	-18
204	94	-23
205	106	-28
180	114	-37
142	103	-40
99	70	-37
51	16	-21
-7	-45	-28
-71	-98	-57
-132	-131	-46
-171	-144	-28
-178	-142	-35
-155	-127	-23
-109	-101	13
-60	-56	56
-13	3	43
33	72	16
93	138	8
162	182	-10
234	192	-19
278	169	-22
269	120	-26
197	64	-37
72	11	-48
-65	-35	-43
-180	-74	-39
-236	-113	-52
-232	-152	-51
-189	-187	-53
-135	-202	-66
-92	-186	-64
-58	-130	-63
-24	-39	-46
26	68	-19
93	171	3
163	244	10
207	275	9
205	260	8
148	205	6
48	120	-4
-62	17	-18
-159	-87	-31
-218	-182	-40
-243	-251	-27
-236	-281	-30
-212	-260	-38
-178	-192	-18
-132	-96	-4
-70	11	-14
11	103	-12
105	171	-22
196	210	-44
263	221	-38
291	203	-28
270	153	-22
206	70	-18
115	-37	-15
18	-142	-11
-69	-216	-11
-137	-233	-29
-178	-190	-31
-195	-112	-27
-186	-35	-30
-153	6	-20
-97	4	-12
-24	-23	0
54	-38	-2
127	-16	-4
182	43	-11
211	120	-24
209	182	-32
178	200	-40
120	169	-42
42	100	-38
-53	14	-25
-151	-75	-12
-233	-152	-12
-280	-211	-25
-280	-242	-30
-231	-230	-26
-147	-169	-25
-52	-68	-34
32	45	-33
95	139	-40
136	186	-32
166	182	-19
186	143	-20
198	99	-19
190	67	-17
153	49	-3
83	29	-3
-10	-10	-25
-108	-69	-36
-186	-134	-30
-233	-178	-26
-245	-179	-28
-222	-135	-38
-172	-64	-47
-95	7	-42
1	61	-32
107	96	-13
203	121	-10
262	151	-24
266	181	-10
212	194	8
116	163	16
9	83	2
-79	-39	-15
-130	-163	-19
-148	-245	-21
-141	-261	-20
-128	-210	-39
-116	-126	-36
-99	-48	-38
-65	-4	-29
-13	3	-25
58	2	-51
133	17	-40
197	64	-29
229	129	-44
224	183	-34
178	196	-39
104	155	-30
8	75	1
-96	-17	2
-190	-88	26
-264	-127	32
-303	-140	18
-296	-135	2
-243	-127	-22
-152	-111	-40
-43	-77	-50
63	-17	-56
150	60	-61
204	136	-44
225	188	-21
216	195	-26
190	165	-19
148	110	-1
93	51	11
29	-1	8
-44	-51	-6
-119	-108	-14
-182	-173	-33
-222	-233	-34
-222	-264	-35
-185	-254	-42
-118	-189	-52
-35	-86	-56
51	28	-44
132	124	-35
201	188	-30
257	212	-28
285	209	-15
273	179	-12
204	130	-24
75	65	-20
-100	-13	-13
-280	-90	-18
-420	-154	-8
-475	-189	-1
-431	-195	-4
-300	-176	-1
-121	-137	-5
56	-85	-19
195	-16	-25
275	62	-27
302	145	-30
291	213	-38
262	247	-50
229	237	-44
184	183	-34
132	110	-32
66	34	-26
-8	-29	0
-89	-85	16
-164	-142	8
-228	-205	-18
-269	-259	-43
-281	-273	-48
-259	-226	-52
-191	-111	-38
-92	38	-9
31	171	-6
144	244	-11
228	238	-11
261	171	-14
244	84	-19
190	23	-34
115	-1	-37
41	-3	-18
-31	-10	-16
-95	-42	-16
-157	-96	-12
-210	-147	-27
-248	-167	-32
-256	-145	-32
-222	-94	-24
-148	-33	-28
-42	15	-31
71	49	-27
175	74	-22
245	102	-9
274	129	-13
258	140	-17
206	122	-18
128	64	-14
40	-11	-19
-42	-78	-28
-112	-109	-25
-157	-105	-13
-176	-79	-2
-169	-57	-18
-136	-61	-19
-83	-83	-19
-17	-98	-28
50	-79	-32
107	-11	-39
138	86	-40
142	178	-37
122	221	-37
91	195	-32
56	110	-7
25	-1	-12
-6	-99	-23
-48	-157	-10
-108	-166	-14
-176	-142	-32
-232	-104	-43
-253	-72	-32
-223	-51	-15
-139	-44	-3
-28	-43	-22
77	-37	-33
145	-20	-25
164	22	-21
141	89	-5
107	168	-3
81	233	2
74	244	-5
74	189	-14
62	64	-20
24	-92	-23
-39	-224	-22
-110	-283	-28
-160	-258	-26
-165	-166	-36
-121	-54	-38
-40	27	-35
52	63	-28
128	68	-41
171	80	-38
176	117	-32
151	179	-44
104	229	-34
46	225	-26
-15	141	-17
-71	-4	-21
-120	-161	-18
-156	-268	-25
-178	-291	-36
-185	-228	-34
-176	-117	-33
-143	-10	-20
-87	54	0
-7	74	7
86	62	-21
175	48	-24
242	54	-15
262	79	-3
236	104	6
169	110	-5
81	88	-9
-9	39	-30
-87	-23	-38
-144	-79	-48
-188	-121	-48
-215	-144	-41
-227	-154	-40
-213	-144	-28
-172	-121	-3
-102	-83	16
-12	-29	-7
83	31	-2
169	92	-15
231	139	-40
262	171	-24
262	180	-31
230	154	-25
163	95	-30
69	7	-32
-40	-89	-34
-152	-171	-45
-241	-215	-38
-291	-207	-32
-290	-152	-19
-241	-69	-34
-156	9	-38
-57	63	-15
34	87	0
107	89	-7
156	88	-8
187	94	-10
200	110	-28
195	123	-28
164	118	-23
107	82	-18
24	19	-9
-70	-57	3
-154	-130	2
-206	-180	1
-215	-204	-17
-181	-198	-32
-118	-164	-39
-44	-106	-52
25	-27	-48
85	58	-44
133	134	-26
172	178	-19
197	179	-22
197	138	-15
163	77	-14
96	22	-23
4	-8	-22
-92	-5	-25
-170	12	-45
-213	16	-47
-217	-20	-23
-187	-97	-4
-135	-191	-19
-71	-261	-18
-5	-270	-23
57	-192	-27
111	-44	-16
143	136	-26
151	290	-27
127	370	-27
78	354	-16
15	256	-9
-46	106	-7
-94	-38	-9
-122	-147	-25
-133	-195	-35
-133	-196	-44
-125	-177	-52
-115	-152	-46
-96	-133	-32
-60	-111	-16
-8	-71	0
58	-3	6
132	85	0
198	164	-16
238	205	-17
242	183	-3
201	104	-19
127	-2	-21
34	-96	-27
-61	-144	-32
-141	-143	-24
-198	-111	-35
-227	-82	-23
-228	-71	-20
-202	-86	-28
-152	-99	-26
-80	-83	-24
9	-24	-26
99	62	-31
175	149	-27
221	201	-24
226	205	-15
194	166	-16
133	109	-24
60	56	-28
-15	15	-24
-87	-21	-13
-152	-61	-9
-207	-110	8
-245	-155	-1
-248	-176	-31
-211	-159	-26
-131	-106	-25
-22	-39	-35
91	19	-41
183	58	-36
237	80	-34
245	97	-44
223	119	-44
184	142	-35
139	147	-29
98	116	-6
51	48	9
-7	-38	16
-80	-114	26
-156	-157	-5
-216	-156	-21
-248	-131	-34
-241	-103	-45
-195	-81	-39
-118	-63	-41
-27	-34	-23
69	13	-20
161	76	-17
238	131	-6
288	155	-7
295	139	-17
248	90	-27
153	32	-37
20	-19	-43
-119	-52	-33
-234	-79	-30
-300	-107	-28
-308	-139	-27
-264	-168	-22
-191	-166	-18
-106	-125	-30
-18	-46	-32
66	48	-38
144	136	-40
212	192	-35
258	209	-24
268	194	-15
237	154	-19
163	99	-18
66	30	-26
-35	-42	-24
-121	-106	-13
-182	-144	-17
-215	-142	-5
-226	-104	5
-214	-45	0
-184	5	-12
-135	24	-11
-70	13	-15
0	-15	-27
68	-31	-25
121	-20	-27
153	19	-32
161	63	-49
147	87	-44
110	76	-30
57	28	-43
-15	-40	-42
-96	-104	-41
-172	-149	-27
-226	-165	-4
-241	-152	-2
-214	-116	-14
-150	-64	-20
-58	-4	-25
40	54	-33
133	103	-20
207	128	-10
257	136	-18
271	126	-25
248	106	-28
184	82	-23
90	51	-18
-20	13	-18
-121	-35	-17
-194	-83	-22
-227	-118	-30
-221	-131	-34
-182	-119	-28
-128	-92	-32
-68	-61	-32
-5	-38	-22
53	-21	-17
110	2	-13
156	41	-1
186	97	1
193	153	-9
175	186	-17
132	171	-19
72	104	-14
3	4	-14
-67	-100	-17
-126	-173	-26
-167	-199	-24
-182	-175	-18
-168	-118	-33
-128	-53	-42
-65	3	-37
8	41	-43
85	64	-34
153	76	-15
202	87	-11
216	98	-17
200	106	-23
144	106	-19
59	89	-24
-36	45	-19
-126	-17	-9
-191	-89	-4
-228	-151	-19
-232	-184	-42
-215	-174	-28
-181	-125	-35
-132	-48	-51
-68	29	-34
12	93	-24
99	131	-30
175	145	-16
226	143	-12
234	126	-2
201	97	20
139	50	-8
62	-10	-19
-16	-79	-25
-89	-138	-40
-157	-178	-32
-214	-190	-38
-254	-175	-36
-259	-145	-33
-221	-106	-31
-130	-56	-30
-10	7	-30
117	85	-38
216	166	-43
268	225	-26
265	235	-28
216	182	-30
138	84	-20
45	-24	-17
-48	-95	-7
-139	-107	7
-217	-69	14
-272	-26	14
-290	-19	4
-262	-68	-1
-188	-154	-10
-76	-222	-24
53	-218	-26
178	-122	-30
273	33	-39
326	185	-41
332	274	-36
294	265	-29
229	185	-30
150	79	-32
66	-2	-30
-18	-38	-30
-100	-42	-25
-178	-47	-25
-242	-80	-19
-280	-128	-26
-281	-174	-38
-237	-179	-31
-156	-136	-27
-53	-55	-30
44	31	-30
125	94	-23
178	123	-20
205	131	-11
209	129	-20
192	129	-31
153	122	-31
86	93	-20
-2	28	-5
-99	-56	-14
-182	-142	-11
-232	-194	-4
-237	-196	-24
-200	-155	-36
-136	-87	-36
-62	-21	-29
8	28	-20
72	55	-3
129	71	-5
175	85	-25
208	102	-19
216	117	-21
193	123	-28
131	112	-38
40	80	-32
-61	28	-13
-159	-39	-19
-232	-117	-32
-269	-190	-43
-271	-242	-33
-237	-252	-29
-175	-208	-25
-92	-115	-15
3	4	-1
99	114	8
186	185	6
251	203	-5
283	174	-23
273	125	-32
222	83	-22
132	54	-15
22	43	-22
-94	34	-16
-195	10	-24
-262	-29	-33
-291	-85	-35
-272	-136	-42
-216	-171	-47
-135	-177	-48
-41	-148	-32
46	-88	-25
121	-6	-13
172	81	-24
196	155	-43
192	193	-26
164	183	-10
116	131	-3
59	47	4
0	-41	0
-51	-119	-1
-93	-167	-13
-125	-186	-27
-142	-177	-44
-148	-145	-48
-134	-97	-46
-99	-35	-39
-37	32	-14
41	99	-11
124	154	-36
194	183	-35
231	187	-32
232	158	-32
194	104	-26
124	31	-20
34	-44	14
-65	-109	2
-165	-151	-6
-248	-158	3
-300	-139	-3
-304	-106	-5
-250	-78	-16
-150	-60	-14
-20	-48	-30
106	-28	-37
201	20	-38
249	96	-47
257	182	-49
234	241	-48
197	247	-27
156	188	-12
106	81	-10
40	-35	-5
-44	-124	-14
-136	-167	-24
-218	-169	-11
-267	-149	-14
-271	-121	-22
-230	-100	-23
-156	-69	-31
-70	-25	-38
12	34	-41
86	88	-38
148	118	-38
193	110	-35
216	74	-30
212	32	-25
172	5	-27
106	5	-18
18	17	-18
-65	17	-30
-130	-13	-12
-172	-74	-9
-185	-139	-18
-181	-180	-16
-169	-171	-13
-144	-118	-9
-106	-42	-17
-48	32	-25
28	81	-23
111	108	-26
183	121	-25
221	131	-19
212	135	-16
161	124	-26
75	83	-27
-21	10	-28
-110	-79	-36
-175	-158	-32
-210	-200	-32
-212	-196	-40
-184	-153	-44
-130	-88	-46
-58	-26	-28
26	19	1
109	48	1
180	69	-18
223	91	-26
237	116	-15
216	140	1
167	150	-10
96	133	-21
9	86	-20
-84	16	-30
-169	-61	-43
-225	-123	-52
-237	-153	-39
-199	-151	-26
-119	-117	-7
-20	-74	19
67	-33	21
121	-3	1
133	22	-20
118	57	-23
94	103	-26
77	150	-25
68	178	-23
60	160	-22
34	86	-21
-15	-27	-21
-80	-140	-17
-138	-216	-27
-173	-227	-24
-173	-178	-24
-142	-98	-42
-97	-23	-44
-41	25	-30
16	51	-10
83	75	-12
152	116	-8
216	171	-13
251	223	-28
234	225	-26
159	157	-24
44	25	-23
-78	-133	-39
-172	-260	-41
-218	-313	-43
-223	-280	-50
-203	-190	-43
-185	-89	-38
-174	-16	-20
-161	9	-4
-123	2	-8
-48	-5	-7
58	16	-7
172	70	-3
259	137	-2
295	188	-11
269	194	-17
203	154	-27
113	81	-28
24	4	-33
-50	-52	-40
-113	-86	-40
-165	-100	-32
-206	-110	-14
-226	-121	-4
-216	-127	-13
-172	-116	-23
-96	-78	-28
-1	-16	-27
91	55	-23
164	112	-18
210	143	-15
224	139	-23
210	113	-25
172	76	-18
113	36	-17
40	0	-20
-40	-37	-21
-120	-76	-20
-184	-110	-20
-218	-131	-27
-215	-133	-29
-173	-111	-10
-100	-69	-5
-11	-23	-26
75	21	-44
148	56	-35
194	85	-38
211	110	-51
202	132	-40
167	148	-42
110	140	-31
34	113	-10
-50	61	-4
-136	-4	-7
-206	-67	-1
-248	-125	19
-258	-163	5
-234	-185	-9
-187	-190	-13
-126	-171	-17
-58	-125	-26
11	-50	-50
83	41	-56
155	131	-49
216	191	-41
249	204	-19
238	168	3
172	97	-9
64	19	-16
-61	-48	-14
-172	-93	-32
-237	-123	-21
-245	-144	-19
-206	-160	-31
-136	-156	-35
-53	-122	-35
26	-52	-32
101	41	-32
172	139	-12
237	215	-6
279	248	-21
283	235	-27
242	183	-30
156	98	-26
44	-6	-25
-68	-120	-21
-156	-223	-19
-208	-288	-24
-229	-292	-24
-229	-232	-21
-217	-126	-24
-195	-22	-19
-160	39	-17
-101	45	-18
-22	15	-21
69	-3	-30
153	27	-37
209	106	-33
222	200	-21
192	252	-26
128	221	-40
46	110	-30
-35	-29	-13
-108	-141	-17
-161	-186	-15
-191	-161	-24
-195	-103	-25
-175	-54	-25
-125	-38	-38
-54	-40	-42
32	-30	-50
118	12	-36
188	85	-24
230	157	-13
236	191	11
207	169	17
151	101	0
79	18	-20
-4	-46	-9
-86	-81	-9
-159	-93	-18
-213	-101	-3
-240	-119	-15
-232	-144	-23
-185	-153	-25
-109	-130	-28
-18	-66	-30
72	18	-37
144	100	-41
190	154	-43
208	170	-35
202	158	-25
178	123	-21
139	83	-32
85	38	-24
11	-14	-23
-80	-71	-31
-176	-129	-17
-258	-171	-7
-300	-187	7
-285	-168	8
-210	-122	-5
-94	-60	-16
35	3	-16
148	58	-26
216	105	-46
241	141	-45
226	165	-41
194	168	-30
156	148	-40
115	104	-39
66	41	-18
3	-25	-18
-76	-87	-16
-159	-129	-23
-229	-151	-30
-267	-154	-41
-262	-142	-38
-217	-121	-25
-140	-90	-26
-49	-51	-18
38	-6	-13
114	44	-15
166	98	-9
189	147	3
181	179	3
150	187	7
101	158	12
46	91	0
-3	-6	-16
-45	-113	-31
-80	-201	-38
-107	-246	-43
-124	-230	-35
-123	-166	-38
-96	-76	-39
-42	9	-35
30	63	-35
100	81	-33
145	74	-38
152	63	-25
121	66	-29
69	88	-36
16	112	-28
-23	119	-23
-50	90	-12
-76	23	-22
-107	-61	-20
-149	-138	-13
-185	-175	-13
-200	-160	-15
-175	-96	-20
-110	-4	-19
-19	82	-31
74	141	-30
144	158	-30
184	134	-27
192	81	-24
176	19	-13
149	-31	-7
111	-60	-15
62	-65	-21
3	-59	-25
-64	-54	-26
-129	-66	-28
-179	-98	-38
-202	-136	-34
-193	-164	-22
-154	-157	-25
-89	-109	-22
-12	-29	-19
69	58	-13
142	131	-5
198	174	8
226	188	8
219	177	-15
183	150	-30
120	115	-31
42	66	-30
-37	5	-35
-113	-59	-42
-181	-117	-31
